Freq.,VOut,OutRef

1.00000000000000e+004,-7.75030139628138e+000,-5.06905421432205e-002

1.01395947979003e+004,-7.75030612006022e+000,-5.13971575715775e-002

1.02811382665607e+004,-7.75031097636640e+000,-5.21135946558712e-002

1.04246576084112e+004,-7.75031596891030e+000,-5.28399887065006e-002

1.05701804056138e+004,-7.75032110150573e+000,-5.35764768469398e-002

1.07177346253629e+004,-7.75032637807210e+000,-5.43231980397329e-002

1.08673486252606e+004,-7.75033180263818e+000,-5.50802931042620e-002

1.10190511587661e+004,-7.75033737934578e+000,-5.58479047341696e-002

1.11728713807222e+004,-7.75034311245158e+000,-5.66261775285319e-002

1.13288388529580e+004,-7.75034900632996e+000,-5.74152580170694e-002

1.14869835499703e+004,-7.75035506547825e+000,-5.82152946695302e-002

1.16473358646846e+004,-7.75036129451834e+000,-5.90264379311057e-002

1.18099266142953e+004,-7.75036769820020e+000,-5.98488402440823e-002

1.19747870461893e+004,-7.75037428140671e+000,-6.06826560637736e-002

1.21419488439505e+004,-7.75038104915618e+000,-6.15280418885841e-002

1.23114441334492e+004,-7.75038800660654e+000,-6.23851562813143e-002

1.24833054890161e+004,-7.75039515905830e+000,-6.32541598982920e-002

1.26575659397028e+004,-7.75040251196004e+000,-6.41352155024130e-002

1.28342589756290e+004,-7.75041007091080e+000,-6.50284879992834e-002

1.30134185544193e+004,-7.75041784166550e+000,-6.59341444523227e-002

1.31950791077289e+004,-7.75042583013847e+000,-6.68523541113565e-002

1.33792755478611e+004,-7.75043404240840e+000,-6.77832884340949e-002

1.35660432744767e+004,-7.75044248472154e+000,-6.87271211174255e-002

1.37554181813974e+004,-7.75045116349868e+000,-6.96840281086427e-002

1.39474366635040e+004,-7.75046008533688e+000,-7.06541876469150e-002

1.41421356237309e+004,-7.75046925701680e+000,-7.16377802735433e-002

1.43395524801583e+004,-7.75047868550659e+000,-7.26349888632107e-002

1.45397251732031e+004,-7.75048837796643e+000,-7.36459986520658e-002

1.47426921729110e+004,-7.75049834175564e+000,-7.46709972503031e-002

1.49484924863494e+004,-7.75050858443604e+000,-7.57101746802158e-002

1.51571656651040e+004,-7.75051911377780e+000,-7.67637233985974e-002

1.53687518128801e+004,-7.75052993776729e+000,-7.78318383069559e-002

1.55832915932100e+004,-7.75054106460973e+000,-7.89147167971514e-002

1.58008262372675e+004,-7.75055250273694e+000,-8.00125587637277e-002

1.60213975517924e+004,-7.75056426081337e+000,-8.11255666295304e-002

1.62450479271247e+004,-7.75057634774185e+000,-8.22539453727945e-002

1.64718203453514e+004,-7.75058877267062e+000,-8.33979025484702e-002

1.67017583885674e+004,-7.75060154499916e+000,-8.45576483161417e-002

1.69349062472505e+004,-7.75061467438606e+000,-8.57333954580594e-002

1.71713087287550e+004,-7.75062817075425e+000,-8.69253594136492e-002

1.74110112659224e+004,-7.75064204430028e+000,-8.81337582888131e-002

1.76540599258131e+004,-7.75065630549960e+000,-8.93588128923598e-002

1.79005014185594e+004,-7.75067096511594e+000,-9.06007467475225e-002

1.81503831063432e+004,-7.75068603420653e+000,-9.18597861303290e-002

1.84037530124975e+004,-7.75070152413225e+000,-9.31361600774073e-002

1.86606598307361e+004,-7.75071744656515e+000,-9.44301004113604e-002

1.89211529345119e+004,-7.75073381349586e+000,-9.57418417689953e-002

1.91852823865052e+004,-7.75075063724208e+000,-9.70716216220783e-002

1.94530989482457e+004,-7.75076793045954e+000,-9.84196802837978e-002

1.97246540898671e+004,-7.75078570614713e+000,-9.97862609536490e-002

1.99999999999999e+004,-7.75080397765831e+000,-1.01171609723253e-001

2.02791895958005e+004,-7.75082275871145e+000,-1.02575975588227e-001

2.05622765331213e+004,-7.75084206339636e+000,-1.03999610488187e-001

2.08493152168224e+004,-7.75086190618706e+000,-1.05442769304867e-001

2.11403608112276e+004,-7.75088230194994e+000,-1.06905709892412e-001

2.14354692507258e+004,-7.75090326595357e+000,-1.08388693097230e-001

2.17346972505211e+004,-7.75092481388190e+000,-1.09891982757202e-001

2.20381023175322e+004,-7.75094696184280e+000,-1.11415845730783e-001

2.23457427614443e+004,-7.75096972637856e+000,-1.12960551916402e-001

2.26576777059159e+004,-7.75099312447930e+000,-1.14526374250590e-001

2.29739670999406e+004,-7.75101717359263e+000,-1.16113588734551e-001

2.32946717293690e+004,-7.75104189163728e+000,-1.17722474433287e-001

2.36198532285905e+004,-7.75106729701297e+000,-1.19353313500189e-001

2.39495740923785e+004,-7.75109340861383e+000,-1.21006391180872e-001

2.42838976879009e+004,-7.75112024584172e+000,-1.22681995815953e-001

2.46228882668982e+004,-7.75114782861788e+000,-1.24380418856951e-001

2.49666109780322e+004,-7.75117617739750e+000,-1.26101954863351e-001

2.53151318794055e+004,-7.75120531318160e+000,-1.27846901516187e-001

2.56685179512580e+004,-7.75123525753173e+000,-1.29615559617057e-001

2.60268371088386e+004,-7.75126603258403e+000,-1.31408233087606e-001

2.63901582154578e+004,-7.75129766106388e+000,-1.33225228968796e-001

2.67585510957221e+004,-7.75133016629965e+000,-1.35066857424293e-001

2.71320865489533e+004,-7.75136357223874e+000,-1.36933431730275e-001

2.75108363627948e+004,-7.75139790346227e+000,-1.38825268273662e-001

2.78948733270080e+004,-7.75143318520059e+000,-1.40742686544680e-001

2.82842712474618e+004,-7.75146944335046e+000,-1.42686009119927e-001

2.86791049603164e+004,-7.75150670448923e+000,-1.44655561662789e-001

2.90794503464061e+004,-7.75154499589308e+000,-1.46651672899247e-001

2.94853843458219e+004,-7.75158434555378e+000,-1.48674674601620e-001

2.98969849726987e+004,-7.75162478219539e+000,-1.50724901572424e-001

3.03143313302078e+004,-7.75166633529184e+000,-1.52802691623409e-001

3.07375036257601e+004,-7.75170903508542e+000,-1.54908385546276e-001

3.11665831864199e+004,-7.75175291260472e+000,-1.57042327086325e-001

3.16016524745350e+004,-7.75179799968291e+000,-1.59204862914884e-001

3.20427951035848e+004,-7.75184432897724e+000,-1.61396342590758e-001

3.24900958542493e+004,-7.75189193398757e+000,-1.63617118527251e-001

3.29436406907028e+004,-7.75194084907670e+000,-1.65867545947178e-001

3.34035167771346e+004,-7.75199110948976e+000,-1.68147982841130e-001

3.38698124945009e+004,-7.75204275137437e+000,-1.70458789920351e-001

3.43426174575100e+004,-7.75209581180165e+000,-1.72800330561346e-001

3.48220225318448e+004,-7.75215032878689e+000,-1.75172970750565e-001

3.53081198516260e+004,-7.75220634130968e+000,-1.77577079032030e-001

3.58010028371187e+004,-7.75226388933767e+000,-1.80013026426152e-001

3.63007662126863e+004,-7.75232301384640e+000,-1.82481186374430e-001

3.68075060249948e+004,-7.75238375684160e+000,-1.84981934662738e-001

3.73213196614721e+004,-7.75244616138228e+000,-1.87515649338325e-001

3.78423058690237e+004,-7.75251027160337e+000,-1.90082710625404e-001

3.83705647730104e+004,-7.75257613273745e+000,-1.92683500842195e-001

3.89061978964912e+004,-7.75264379113979e+000,-1.95318404294905e-001

3.94493081797342e+004,-7.75271329431001e+000,-1.97987807187105e-001

3.99999999999998e+004,-7.75278469091627e+000,-2.00692097509731e-001

4.05583791916010e+004,-7.75285803081983e+000,-2.03431664922828e-001

4.11245530662425e+004,-7.75293336509807e+000,-2.06206900643575e-001

4.16986304336447e+004,-7.75301074606937e+000,-2.09018197314448e-001

4.22807216224550e+004,-7.75309022731724e+000,-2.11865948873123e-001

4.28709385014515e+004,-7.75317186371543e+000,-2.14750550408139e-001

4.34693945010421e+004,-7.75325571145117e+000,-2.17672398019979e-001

4.40762046350642e+004,-7.75334182805177e+000,-2.20631888654318e-001

4.46914855228886e+004,-7.75343027240757e+000,-2.23629419951035e-001

4.53153554118317e+004,-7.75352110479869e+000,-2.26665390060733e-001

4.59479341998812e+004,-7.75361438691818e+000,-2.29740197475773e-001

4.65893434587380e+004,-7.75371018189784e+000,-2.32854240836554e-001

4.72397064571810e+004,-7.75380855433293e+000,-2.36007918733963e-001

4.78991481847569e+004,-7.75390957030635e+000,-2.39201629507378e-001

4.85677953758016e+004,-7.75401329741384e+000,-2.42435771023832e-001

4.92457765337964e+004,-7.75411980478737e+000,-2.45710740459515e-001

4.99332219560642e+004,-7.75422916312063e+000,-2.49026934055077e-001

5.06302637588109e+004,-7.75434144469178e+000,-2.52384746878259e-001

5.13370359025159e+004,-7.75445672338728e+000,-2.55784572564656e-001

5.20536742176771e+004,-7.75457507472543e+000,-2.59226803049303e-001

5.27803164309155e+004,-7.75469657587847e+000,-2.62711828292778e-001

5.35171021914442e+004,-7.75482130569491e+000,-2.66240035990550e-001

5.42641730979066e+004,-7.75494934472229e+000,-2.69811811265812e-001

5.50216727255895e+004,-7.75508077522625e+000,-2.73427536369073e-001

5.57897466540159e+004,-7.75521568121269e+000,-2.77087590341754e-001

5.65685424949235e+004,-7.75535414844566e+000,-2.80792348689974e-001

5.73582099206328e+004,-7.75549626446797e+000,-2.84542183022201e-001

5.81589006928121e+004,-7.75564211861735e+000,-2.88337460697108e-001

5.89707686916437e+004,-7.75579180204346e+000,-2.92178544447044e-001

5.97939699453972e+004,-7.75594540772450e+000,-2.96065791981215e-001

6.06286626604156e+004,-7.75610303048006e+000,-2.99999555595031e-001

6.14750072515201e+004,-7.75626476698594e+000,-3.03980181741960e-001

6.23331663728396e+004,-7.75643071578399e+000,-3.08008010616485e-001

6.32033049490698e+004,-7.75660097729395e+000,-3.12083375698401e-001

6.40855902071694e+004,-7.75677565382065e+000,-3.16206603304130e-001

6.49801917084985e+004,-7.75695484956141e+000,-3.20378012110107e-001

6.58872813814055e+004,-7.75713867061054e+000,-3.24597912669342e-001

6.68070335542691e+004,-7.75732722496255e+000,-3.28866606907101e-001

6.77396249890018e+004,-7.75752062251247e+000,-3.33184387609288e-001

6.86852349150199e+004,-7.75771897505455e+000,-3.37551537890596e-001

6.96440450636895e+004,-7.75792239627797e+000,-3.41968330652219e-001

7.06162397032520e+004,-7.75813100176027e+000,-3.46435028023631e-001

7.16020056742374e+004,-7.75834490895768e+000,-3.50951880791873e-001

7.26015324253724e+004,-7.75856423719372e+000,-3.55519127810649e-001

7.36150120499896e+004,-7.75878910764318e+000,-3.60136995403774e-001

7.46426393229441e+004,-7.75901964331365e+000,-3.64805696751212e-001

7.56846117380472e+004,-7.75925596902394e+000,-3.69525431260115e-001

7.67411295460207e+004,-7.75949821137796e+000,-3.74296383927938e-001

7.78123957929823e+004,-7.75974649873593e+000,-3.79118724687447e-001

7.88986163594682e+004,-7.76000096118113e+000,-3.83992607741447e-001

7.99999999999995e+004,-7.76026173048271e+000,-3.88918170886014e-001

8.11167583832018e+004,-7.76052894005350e+000,-3.93895534826449e-001

8.22491061324848e+004,-7.76080272490380e+000,-3.98924802479046e-001

8.33972608672892e+004,-7.76108322159131e+000,-4.04006058259636e-001

8.45614432449099e+004,-7.76137056816476e+000,-4.09139367370036e-001

8.57418770029029e+004,-7.76166490410249e+000,-4.14324775078139e-001

8.69387890020841e+004,-7.76196637024691e+000,-4.19562305981560e-001

8.81524092701283e+004,-7.76227510873274e+000,-4.24851963271475e-001

8.93829710457770e+004,-7.76259126290850e+000,-4.30193727998571e-001

9.06307108236633e+004,-7.76291497725399e+000,-4.35587558320637e-001

9.18958683997622e+004,-7.76324639729060e+000,-4.41033388758766e-001

9.31786869174758e+004,-7.76358566948437e+000,-4.46531129455633e-001

9.44794129143618e+004,-7.76393294114493e+000,-4.52080665421846e-001

9.57982963695136e+004,-7.76428836031472e+000,-4.57681855801828e-001

9.71355907516031e+004,-7.76465207565386e+000,-4.63334533131109e-001

9.84915530675926e+004,-7.76502423631684e+000,-4.69038502603527e-001

9.98664439121282e+004,-7.76540499182098e+000,-4.74793541356948e-001

1.01260527517622e+005,-7.76579449190950e+000,-4.80599397753272e-001

1.02674071805032e+005,-7.76619288640535e+000,-4.86455790685334e-001

1.04107348435354e+005,-7.76660032505791e+000,-4.92362408892135e-001

1.05560632861831e+005,-7.76701695738153e+000,-4.98318910297451e-001

1.07034204382888e+005,-7.76744293248664e+000,-5.04324921363314e-001

1.08528346195813e+005,-7.76787839890189e+000,-5.10380036473833e-001

1.10043345451179e+005,-7.76832350438892e+000,-5.16483817340109e-001

1.11579493308032e+005,-7.76877839574854e+000,-5.22635792436848e-001

1.13137084989847e+005,-7.76924321861799e+000,-5.28835456476421e-001

1.14716419841265e+005,-7.76971811726130e+000,-5.35082269909766e-001

1.16317801385624e+005,-7.77020323434972e+000,-5.41375658475807e-001

1.17941537383287e+005,-7.77069871073464e+000,-5.47715012792470e-001

1.19587939890794e+005,-7.77120468521289e+000,-5.54099687985739e-001

1.21257325320831e+005,-7.77172129428214e+000,-5.60529003383931e-001

1.22950014503040e+005,-7.77224867189012e+000,-5.67002242254138e-001

1.24666332745679e+005,-7.77278694917445e+000,-5.73518651603499e-001

1.26406609898139e+005,-7.77333625419547e+000,-5.80077442040841e-001

1.28171180414339e+005,-7.77389671166224e+000,-5.86677787700148e-001

1.29960383416997e+005,-7.77446844264902e+000,-5.93318826247185e-001

1.31774562762811e+005,-7.77505156430785e+000,-5.99999658942564e-001

1.33614067108538e+005,-7.77564618957179e+000,-6.06719350799238e-001

1.35479249978003e+005,-7.77625242685388e+000,-6.13476930813137e-001

1.37370469830040e+005,-7.77687037973908e+000,-6.20271392284847e-001

1.39288090127379e+005,-7.77750014667179e+000,-6.27101693228673e-001

1.41232479406504e+005,-7.77814182063804e+000,-6.33966756879489e-001

1.43204011348474e+005,-7.77879548884363e+000,-6.40865472296679e-001

1.45203064850745e+005,-7.77946123238887e+000,-6.47796695069886e-001

1.47230024099979e+005,-7.78013912594004e+000,-6.54759248132535e-001

1.49285278645888e+005,-7.78082923739915e+000,-6.61751922683278e-001

1.51369223476094e+005,-7.78153162757202e+000,-6.68773479219988e-001

1.53482259092041e+005,-7.78224634983570e+000,-6.75822648692268e-001

1.55624791585964e+005,-7.78297344980631e+000,-6.82898133770480e-001

1.57797232718936e+005,-7.78371296500875e+000,-6.89998610232999e-001

1.59999999999999e+005,-7.78446492454695e+000,-6.97122728487341e-001

1.62233516766403e+005,-7.78522934877915e+000,-7.04269115205526e-001

1.64498212264969e+005,-7.78600624899675e+000,-7.11436375091218e-001

1.66794521734578e+005,-7.78679562710759e+000,-7.18623092781443e-001

1.69122886489819e+005,-7.78759747532766e+000,-7.25827834865303e-001

1.71483754005805e+005,-7.78841177587870e+000,-7.33049152044179e-001

1.73877578004168e+005,-7.78923850069577e+000,-7.40285581414517e-001

1.76304818540256e+005,-7.79007761114465e+000,-7.47535648881845e-001

1.78765942091554e+005,-7.79092905774990e+000,-7.54797871707054e-001

1.81261421647326e+005,-7.79179277993738e+000,-7.62070761167634e-001

1.83791736799524e+005,-7.79266870578809e+000,-7.69352825360283e-001

1.86357373834951e+005,-7.79355675180986e+000,-7.76642572107113e-001

1.88958825828723e+005,-7.79445682272367e+000,-7.83938511992354e-001

1.91596592739027e+005,-7.79536881126840e+000,-7.91239161509848e-001

1.94271181503206e+005,-7.79629259802482e+000,-7.98543046317028e-001

1.96983106135185e+005,-7.79722805125951e+000,-8.05848704597504e-001

1.99732887824256e+005,-7.79817502679063e+000,-8.13154690518284e-001

2.02521055035243e+005,-7.79913336787569e+000,-8.20459577783560e-001

2.05348143610063e+005,-7.80010290512436e+000,-8.27761963266340e-001

2.08214696870707e+005,-7.80108345643469e+000,-8.35060470726161e-001

2.11121265723661e+005,-7.80207482695694e+000,-8.42353754584613e-001

2.14068408765776e+005,-7.80307680908265e+000,-8.49640503771086e-001

2.17056692391625e+005,-7.80408918246285e+000,-8.56919445610801e-001

2.20086690902357e+005,-7.80511171405360e+000,-8.64189349759802e-001

2.23158986616063e+005,-7.80614415819268e+000,-8.71449032158826e-001

2.26274169979693e+005,-7.80718625670369e+000,-8.78697359020269e-001

2.29432839682530e+005,-7.80823773903308e+000,-8.85933250807281e-001

2.32635602771247e+005,-7.80929832241611e+000,-8.93155686219618e-001

2.35883074766574e+005,-7.81036771207473e+000,-9.00363706156516e-001

2.39175879781588e+005,-7.81144560144707e+000,-9.07556417648520e-001

2.42514650641661e+005,-7.81253167244716e+000,-9.14732997753654e-001

2.45900029006080e+005,-7.81362559575661e+000,-9.21892697392803e-001

2.49332665491357e+005,-7.81472703114691e+000,-9.29034845120027e-001

2.52813219796278e+005,-7.81583562783265e+000,-9.36158850809050e-001

2.56342360828676e+005,-7.81695102485386e+000,-9.43264209251561e-001

2.59920766833993e+005,-7.81807285148899e+000,-9.50350503641460e-001

2.63549125525621e+005,-7.81920072769499e+000,-9.57417408949131e-001

2.67228134217075e+005,-7.82033426457649e+000,-9.64464695154817e-001

2.70958499956006e+005,-7.82147306488040e+000,-9.71492230345799e-001

2.74740939660078e+005,-7.82261672351612e+000,-9.78499983657700e-001

2.78576180254757e+005,-7.82376482810011e+000,-9.85488028046514e-001

2.82464958813007e+005,-7.82491695952265e+000,-9.92456542888547e-001

2.86408022696948e+005,-7.82607269253558e+000,-9.99405816391150e-001

2.90406129701488e+005,-7.82723159635910e+000,-1.00633624781272e+000

2.94460048199957e+005,-7.82839323530647e+000,-1.01324834947371e+000

2.98570557291775e+005,-7.82955716942379e+000,-1.02014274856149e+000

3.02738446952187e+005,-7.83072295514369e+000,-1.02702018871360e+000

3.06964518184081e+005,-7.83189014595029e+000,-1.03388153138165e+000

3.11249583171928e+005,-7.83305829305368e+000,-1.04072775696313e+000

3.15594465437872e+005,-7.83422694607158e+000,-1.04755996570439e+000

3.19999999999997e+005,-7.83539565371606e+000,-1.05437937836570e+000

3.24467033532806e+005,-7.83656396448316e+000,-1.06118733665228e+000

3.28996424529938e+005,-7.83773142734250e+000,-1.06798530340749e+000

3.33589043469155e+005,-7.83889759242617e+000,-1.07477486256613e+000

3.38245772979638e+005,-7.84006201171238e+000,-1.08155771887731e+000

3.42967508011610e+005,-7.84122423970405e+000,-1.08833569738875e+000

3.47755156008335e+005,-7.84238383409836e+000,-1.09511074270318e+000

3.52609637080511e+005,-7.84354035644586e+000,-1.10188491801193e+000

3.57531884183106e+005,-7.84469337279713e+000,-1.10866040390299e+000

3.62522843294651e+005,-7.84584245433457e+000,-1.11543949696117e+000

3.67583473599047e+005,-7.84698717798785e+000,-1.12222460815694e+000

3.72714747669902e+005,-7.84812712703089e+000,-1.12901826103860e+000

3.77917651657445e+005,-7.84926189165814e+000,-1.13582308973782e+000

3.83193185478053e+005,-7.85039106954017e+000,-1.14264183678855e+000

3.88542363006410e+005,-7.85151426635487e+000,-1.14947735078121e+000

3.93966212270369e+005,-7.85263109629414e+000,-1.15633258385817e+000

3.99465775648511e+005,-7.85374118254500e+000,-1.16321058905758e+000

4.05042110070485e+005,-7.85484415774310e+000,-1.17011451752470e+000

4.10696287220124e+005,-7.85593966439821e+000,-1.17704761559807e+000

4.16429393741414e+005,-7.85702735529065e+000,-1.18401322178621e+000

4.22242531447321e+005,-7.85810689383777e+000,-1.19101476364365e+000

4.28136817531551e+005,-7.85917795443030e+000,-1.19805575456462e+000

4.34113384783250e+005,-7.86024022273803e+000,-1.20513979049916e+000

4.40173381804713e+005,-7.86129339598353e+000,-1.21227054661784e+000

4.46317973232124e+005,-7.86233718318565e+000,-1.21945177392155e+000

4.52548339959385e+005,-7.86337130537072e+000,-1.22668729582442e+000

4.58865679365059e+005,-7.86439549575349e+000,-1.23398100471005e+000

4.65271205542494e+005,-7.86540949988567e+000,-1.24133685848676e+000

4.71766149533147e+005,-7.86641307577506e+000,-1.24875887713799e+000

4.78351759563174e+005,-7.86740599397365e+000,-1.25625113929504e+000

4.85029301283321e+005,-7.86838803763646e+000,-1.26381777883187e+000

4.91800058012158e+005,-7.86935900255069e+000,-1.27146298150207e+000

4.98665330982714e+005,-7.87031869713738e+000,-1.27919098161943e+000

5.05626439592555e+005,-7.87126694242503e+000,-1.28700605880012e+000

5.12684721657352e+005,-7.87220357199700e+000,-1.29491253477048e+000

5.19841533667984e+005,-7.87312843191321e+000,-1.30291477025155e+000

5.27098251051240e+005,-7.87404138060747e+000,-1.31101716192797e+000

5.34456268434150e+005,-7.87494228876126e+000,-1.31922413950934e+000

5.41916999912011e+005,-7.87583103915565e+000,-1.32754016288898e+000

