Freq.,VOut,OutRef

1.00000000000000e+004,-1.57060579213808e+001,-9.97355896083112e-002

1.01395947979003e+004,-1.57060587813035e+001,-1.01127675052823e-001

1.02811382665607e+004,-1.57060596653546e+001,-1.02539186014148e-001

1.04246576084112e+004,-1.57060605742100e+001,-1.03970393352170e-001

1.05701804056138e+004,-1.57060615085640e+001,-1.05421571698764e-001

1.07177346253629e+004,-1.57060624691306e+001,-1.06892999503175e-001

1.08673486252606e+004,-1.57060634566435e+001,-1.08384959088712e-001

1.10190511587661e+004,-1.57060644718571e+001,-1.09897736703290e-001

1.11728713807222e+004,-1.57060655155465e+001,-1.11431622578146e-001

1.13288388529580e+004,-1.57060665885084e+001,-1.12986910978829e-001

1.14869835499703e+004,-1.57060676915619e+001,-1.14563900260726e-001

1.16473358646846e+004,-1.57060688255490e+001,-1.16162892927566e-001

1.18099266142953e+004,-1.57060699913346e+001,-1.17784195689505e-001

1.19747870461893e+004,-1.57060711898082e+001,-1.19428119516330e-001

1.21419488439505e+004,-1.57060724218840e+001,-1.21094979700283e-001

1.23114441334492e+004,-1.57060736885010e+001,-1.22785095916289e-001

1.24833054890161e+004,-1.57060749906254e+001,-1.24498792275856e-001

1.26575659397028e+004,-1.57060763292490e+001,-1.26236397398258e-001

1.28342589756290e+004,-1.57060777053922e+001,-1.27998244462680e-001

1.30134185544193e+004,-1.57060791201033e+001,-1.29784671276586e-001

1.31950791077289e+004,-1.57060805744596e+001,-1.31596020337071e-001

1.33792755478611e+004,-1.57060820695683e+001,-1.33432638898649e-001

1.35660432744767e+004,-1.57060836065678e+001,-1.35294879031748e-001

1.37554181813974e+004,-1.57060851866272e+001,-1.37183097697823e-001

1.39474366635040e+004,-1.57060868109490e+001,-1.39097656806459e-001

1.41421356237309e+004,-1.57060884807681e+001,-1.41038923293320e-001

1.43395524801583e+004,-1.57060901973543e+001,-1.43007269179768e-001

1.45397251732031e+004,-1.57060919620122e+001,-1.45003071649814e-001

1.47426921729110e+004,-1.57060937760826e+001,-1.47026713115261e-001

1.49484924863494e+004,-1.57060956409433e+001,-1.49078581292931e-001

1.51571656651040e+004,-1.57060975580105e+001,-1.51159069269594e-001

1.53687518128801e+004,-1.57060995287390e+001,-1.53268575584109e-001

1.55832915932100e+004,-1.57061015546244e+001,-1.55407504293912e-001

1.58008262372675e+004,-1.57061036372030e+001,-1.57576265056044e-001

1.60213975517924e+004,-1.57061057780541e+001,-1.59775273199629e-001

1.62450479271247e+004,-1.57061079787997e+001,-1.62004949808290e-001

1.64718203453514e+004,-1.57061102411076e+001,-1.64265721789539e-001

1.67017583885674e+004,-1.57061125666909e+001,-1.66558021963857e-001

1.69349062472505e+004,-1.57061149573094e+001,-1.68882289141651e-001

1.71713087287550e+004,-1.57061174147728e+001,-1.71238968198515e-001

1.74110112659224e+004,-1.57061199409388e+001,-1.73628510169634e-001

1.76540599258131e+004,-1.57061225377175e+001,-1.76051372321828e-001

1.79005014185594e+004,-1.57061252070707e+001,-1.78508018245576e-001

1.81503831063432e+004,-1.57061279510145e+001,-1.80998917936287e-001

1.84037530124975e+004,-1.57061307716200e+001,-1.83524547883891e-001

1.86606598307361e+004,-1.57061336710151e+001,-1.86085391160617e-001

1.89211529345119e+004,-1.57061366513861e+001,-1.88681937507616e-001

1.91852823865052e+004,-1.57061397149792e+001,-1.91314683424894e-001

1.94530989482457e+004,-1.57061428641016e+001,-1.93984132267461e-001

1.97246540898671e+004,-1.57061461011243e+001,-1.96690794330622e-001

1.99999999999999e+004,-1.57061494284821e+001,-1.99435186951016e-001

2.02791895958005e+004,-1.57061528486771e+001,-2.02217834592579e-001

2.05622765331213e+004,-1.57061563642789e+001,-2.05039268952114e-001

2.08493152168224e+004,-1.57061599779276e+001,-2.07900029046843e-001

2.11403608112276e+004,-1.57061636923348e+001,-2.10800661320654e-001

2.14354692507258e+004,-1.57061675102860e+001,-2.13741719737508e-001

2.17346972505211e+004,-1.57061714346421e+001,-2.16723765886052e-001

2.20381023175322e+004,-1.57061754683419e+001,-2.19747369080621e-001

2.23457427614443e+004,-1.57061796144037e+001,-2.22813106461113e-001

2.26576777059159e+004,-1.57061838759276e+001,-2.25921563102864e-001

2.29739670999406e+004,-1.57061882560972e+001,-2.29073332118672e-001

2.32946717293690e+004,-1.57061927581827e+001,-2.32269014765067e-001

2.36198532285905e+004,-1.57061973855420e+001,-2.35509220554179e-001

2.39495740923785e+004,-1.57062021416237e+001,-2.38794567359736e-001

2.42838976879009e+004,-1.57062070299692e+001,-2.42125681528994e-001

2.46228882668982e+004,-1.57062120542153e+001,-2.45503197994816e-001

2.49666109780322e+004,-1.57062172180959e+001,-2.48927760390114e-001

2.53151318794055e+004,-1.57062225254459e+001,-2.52400021159294e-001

2.56685179512580e+004,-1.57062279802018e+001,-2.55920641679972e-001

2.60268371088386e+004,-1.57062335864062e+001,-2.59490292374190e-001

2.63901582154578e+004,-1.57062393482093e+001,-2.63109652830910e-001

2.67585510957221e+004,-1.57062452698720e+001,-2.66779411925660e-001

2.71320865489533e+004,-1.57062513557686e+001,-2.70500267940292e-001

2.75108363627948e+004,-1.57062576103896e+001,-2.74272928688826e-001

2.78948733270080e+004,-1.57062640383447e+001,-2.78098111638079e-001

2.82842712474618e+004,-1.57062706443657e+001,-2.81976544036113e-001

2.86791049603164e+004,-1.57062774333095e+001,-2.85908963038662e-001

2.90794503464061e+004,-1.57062844101613e+001,-2.89896115835627e-001

2.94853843458219e+004,-1.57062915800373e+001,-2.93938759785070e-001

2.98969849726987e+004,-1.57062989481886e+001,-2.98037662538666e-001

3.03143313302078e+004,-1.57063065200041e+001,-3.02193602180057e-001

3.07375036257601e+004,-1.57063143010134e+001,-3.06407367355252e-001

3.11665831864199e+004,-1.57063222968913e+001,-3.10679757409456e-001

3.16016524745350e+004,-1.57063305134599e+001,-3.15011582524314e-001

3.20427951035848e+004,-1.57063389566934e+001,-3.19403663855494e-001

3.24900958542493e+004,-1.57063476327207e+001,-3.23856833672678e-001

3.29436406907028e+004,-1.57063565478297e+001,-3.28371935501883e-001

3.34035167771346e+004,-1.57063657084707e+001,-3.32949824266831e-001

3.38698124945009e+004,-1.57063751212600e+001,-3.37591366434940e-001

3.43426174575100e+004,-1.57063847929846e+001,-3.42297440158906e-001

3.48220225318448e+004,-1.57063947306050e+001,-3.47068935429685e-001

3.53081198516260e+004,-1.57064049412598e+001,-3.51906754220718e-001

3.58010028371187e+004,-1.57064154322698e+001,-3.56811810638638e-001

3.63007662126863e+004,-1.57064262111417e+001,-3.61785031077040e-001

3.68075060249948e+004,-1.57064372855726e+001,-3.66827354365182e-001

3.73213196614721e+004,-1.57064486634542e+001,-3.71939731927182e-001

3.78423058690237e+004,-1.57064603528766e+001,-3.77123127934782e-001

3.83705647730104e+004,-1.57064723621335e+001,-3.82378519464528e-001

3.89061978964912e+004,-1.57064846997257e+001,-3.87706896658767e-001

3.94493081797342e+004,-1.57064973743662e+001,-3.93109262883115e-001

3.99999999999998e+004,-1.57065103949842e+001,-3.98586634891059e-001

4.05583791916010e+004,-1.57065237707301e+001,-4.04140042983259e-001

4.11245530662425e+004,-1.57065375109798e+001,-4.09770531175952e-001

4.16986304336447e+004,-1.57065516253393e+001,-4.15479157364616e-001

4.22807216224550e+004,-1.57065661236496e+001,-4.21266993491698e-001

4.28709385014515e+004,-1.57065810159912e+001,-4.27135125716203e-001

4.34693945010421e+004,-1.57065963126890e+001,-4.33084654582707e-001

4.40762046350642e+004,-1.57066120243171e+001,-4.39116695194343e-001

4.46914855228886e+004,-1.57066281617034e+001,-4.45232377383919e-001

4.53153554118317e+004,-1.57066447359345e+001,-4.51432845891680e-001

4.59479341998812e+004,-1.57066617583608e+001,-4.57719260537616e-001

4.65893434587380e+004,-1.57066792406011e+001,-4.64092796400902e-001

4.72397064571810e+004,-1.57066971945475e+001,-4.70554643998077e-001

4.78991481847569e+004,-1.57067156323701e+001,-4.77106009463223e-001

4.85677953758016e+004,-1.57067345665226e+001,-4.83748114727681e-001

4.92457765337964e+004,-1.57067540097459e+001,-4.90482197707270e-001

4.99332219560642e+004,-1.57067739750740e+001,-4.97309512480853e-001

5.06302637588109e+004,-1.57067944758385e+001,-5.04231329479999e-001

5.13370359025159e+004,-1.57068155256731e+001,-5.11248935673558e-001

5.20536742176771e+004,-1.57068371385186e+001,-5.18363634758063e-001

5.27803164309155e+004,-1.57068593286274e+001,-5.25576747344827e-001

5.35171021914442e+004,-1.57068821105683e+001,-5.32889611153672e-001

5.42641730979066e+004,-1.57069054992308e+001,-5.40303581202441e-001

5.50216727255895e+004,-1.57069295098297e+001,-5.47820030003153e-001

5.57897466540159e+004,-1.57069541579092e+001,-5.55440347755510e-001

5.65685424949235e+004,-1.57069794593476e+001,-5.63165942544950e-001

5.73582099206328e+004,-1.57070054303610e+001,-5.70998240536743e-001

5.81589006928121e+004,-1.57070320875074e+001,-5.78938686180745e-001

5.89707686916437e+004,-1.57070594476904e+001,-5.86988742407507e-001

5.97939699453972e+004,-1.57070875281635e+001,-5.95149890831464e-001

6.06286626604156e+004,-1.57071163465325e+001,-6.03423631954641e-001

6.14750072515201e+004,-1.57071459207597e+001,-6.11811485372538e-001

6.23331663728396e+004,-1.57071762691664e+001,-6.20314989978900e-001

6.32033049490698e+004,-1.57072074104363e+001,-6.28935704172530e-001

6.40855902071694e+004,-1.57072393636175e+001,-6.37675206069525e-001

6.49801917084985e+004,-1.57072721481251e+001,-6.46535093712287e-001

6.58872813814055e+004,-1.57073057837433e+001,-6.55516985281878e-001

6.68070335542691e+004,-1.57073402906270e+001,-6.64622519311835e-001

6.77396249890018e+004,-1.57073756893029e+001,-6.73853354906176e-001

6.86852349150199e+004,-1.57074120006711e+001,-6.83211171953820e-001

6.96440450636895e+004,-1.57074492460053e+001,-6.92697671349717e-001

7.06162397032520e+004,-1.57074874469533e+001,-7.02314575215603e-001

7.16020056742374e+004,-1.57075266255362e+001,-7.12063627123876e-001

7.26015324253724e+004,-1.57075668041486e+001,-7.21946592321363e-001

7.36150120499896e+004,-1.57076080055568e+001,-7.31965257957082e-001

7.46426393229441e+004,-1.57076502528974e+001,-7.42121433312430e-001

7.56846117380472e+004,-1.57076935696750e+001,-7.52416950032442e-001

7.67411295460207e+004,-1.57077379797595e+001,-7.62853662359871e-001

7.78123957929823e+004,-1.57077835073827e+001,-7.73433447373745e-001

7.88986163594682e+004,-1.57078301771340e+001,-7.84158205226530e-001

7.99999999999995e+004,-1.57078780139564e+001,-7.95029859388027e-001

8.11167583832018e+004,-1.57079270431403e+001,-8.06050356891741e-001

8.22491061324848e+004,-1.57079772903179e+001,-8.17221668582231e-001

8.33972608672892e+004,-1.57080287814562e+001,-8.28545789368646e-001

8.45614432449099e+004,-1.57080815428493e+001,-8.40024738479941e-001

8.57418770029029e+004,-1.57081356011099e+001,-8.51660559725165e-001

8.69387890020841e+004,-1.57081909831601e+001,-8.63455321756698e-001

8.81524092701283e+004,-1.57082477162208e+001,-8.75411118340249e-001

8.93829710457770e+004,-1.57083058278009e+001,-8.87530068625266e-001

9.06307108236633e+004,-1.57083653456848e+001,-8.99814317426055e-001

9.18958683997622e+004,-1.57084262979192e+001,-9.12266035502999e-001

9.31786869174758e+004,-1.57084887127996e+001,-9.24887419850429e-001

9.44794129143618e+004,-1.57085526188539e+001,-9.37680693994591e-001

9.57982963695136e+004,-1.57086180448270e+001,-9.50648108291652e-001

9.71355907516031e+004,-1.57086850196628e+001,-9.63791940237584e-001

9.84915530675926e+004,-1.57087535724859e+001,-9.77114494781886e-001

9.98664439121282e+004,-1.57088237325812e+001,-9.90618104650361e-001

1.01260527517622e+005,-1.57088955293733e+001,-1.00430513067622e+000

1.02674071805032e+005,-1.57089689924044e+001,-1.01817796213801e+000

1.04107348435354e+005,-1.57090441513099e+001,-1.03223901710906e+000

1.05560632861831e+005,-1.57091210357942e+001,-1.04649074281419e+000

1.07034204382888e+005,-1.57091996756044e+001,-1.06093561599746e+000

1.08528346195813e+005,-1.57092801005028e+001,-1.07557614330019e+000

1.10043345451179e+005,-1.57093623402378e+001,-1.09041486165197e+000

1.11579493308032e+005,-1.57094464245140e+001,-1.10545433867093e+000

1.13137084989847e+005,-1.57095323829607e+001,-1.12069717307720e+000

1.14716419841265e+005,-1.57096202450985e+001,-1.13614599512253e+000

1.16317801385624e+005,-1.57097100403058e+001,-1.15180346702911e+000

1.17941537383287e+005,-1.57098017977825e+001,-1.16767228344519e+000

1.19587939890794e+005,-1.57098955465134e+001,-1.18375517191857e+000

1.21257325320831e+005,-1.57099913152295e+001,-1.20005489338099e+000

1.22950014503040e+005,-1.57100891323692e+001,-1.21657424265334e+000

1.24666332745679e+005,-1.57101890260364e+001,-1.23331604896687e+000

1.26406609898139e+005,-1.57102910239592e+001,-1.25028317650288e+000

1.28171180414339e+005,-1.57103951534461e+001,-1.26747852495260e+000

1.29960383416997e+005,-1.57105014413417e+001,-1.28490503009412e+000

1.31774562762811e+005,-1.57106099139810e+001,-1.30256566439522e+000

1.33614067108538e+005,-1.57107205971427e+001,-1.32046343763289e+000

1.35479249978003e+005,-1.57108335160018e+001,-1.33860139753730e+000

1.37370469830040e+005,-1.57109486950808e+001,-1.35698263046086e+000

1.39288090127379e+005,-1.57110661582005e+001,-1.37561026206665e+000

1.41232479406504e+005,-1.57111859284298e+001,-1.39448745804796e+000

1.43204011348474e+005,-1.57113080280352e+001,-1.41361742486810e+000

1.45203064850745e+005,-1.57114324784293e+001,-1.43300341053032e+000

1.47230024099979e+005,-1.57115593001193e+001,-1.45264870537274e+000

1.49285278645888e+005,-1.57116885126552e+001,-1.47255664289286e+000

1.51369223476094e+005,-1.57118201345779e+001,-1.49273060059978e+000

1.53482259092041e+005,-1.57119541833666e+001,-1.51317400089701e+000

1.55624791585964e+005,-1.57120906753878e+001,-1.53389031199323e+000

1.57797232718936e+005,-1.57122296258432e+001,-1.55488304884642e+000

1.59999999999999e+005,-1.57123710487187e+001,-1.57615577413709e+000

1.62233516766403e+005,-1.57125149567344e+001,-1.59771209927436e+000

1.64498212264969e+005,-1.57126613612951e+001,-1.61955568543306e+000

1.66794521734578e+005,-1.57128102724415e+001,-1.64169024462577e+000

1.69122886489819e+005,-1.57129616988034e+001,-1.66411954080354e+000

1.71483754005805e+005,-1.57131156475541e+001,-1.68684739099437e+000

1.73877578004168e+005,-1.57132721243661e+001,-1.70987766647123e+000

1.76304818540256e+005,-1.57134311333691e+001,-1.73321429395622e+000

1.78765942091554e+005,-1.57135926771104e+001,-1.75686125685529e+000

1.81261421647326e+005,-1.57137567565168e+001,-1.78082259652817e+000

1.83791736799524e+005,-1.57139233708597e+001,-1.80510241359008e+000

1.86357373834951e+005,-1.57140925177229e+001,-1.82970486924831e+000

1.88958825828723e+005,-1.57142641929736e+001,-1.85463418666694e+000

1.91596592739027e+005,-1.57144383907361e+001,-1.87989465236745e+000

1.94271181503206e+005,-1.57146151033698e+001,-1.90549061765915e+000

1.96983106135185e+005,-1.57147943214500e+001,-1.93142650009812e+000

1.99732887824256e+005,-1.57149760337535e+001,-1.95770678497997e+000

2.02521055035243e+005,-1.57151602272480e+001,-1.98433602685590e+000

2.05348143610063e+005,-1.57153468870856e+001,-2.01131885108191e+000

2.08214696870707e+005,-1.57155359966014e+001,-2.03865995539010e+000

2.11121265723661e+005,-1.57157275373163e+001,-2.06636411148878e+000

2.14068408765776e+005,-1.57159214889456e+001,-2.09443616668248e+000

2.17056692391625e+005,-1.57161178294113e+001,-2.12288104551891e+000

2.20086690902357e+005,-1.57163165348611e+001,-2.15170375145330e+000

2.23158986616063e+005,-1.57165175796920e+001,-2.18090936853412e+000

2.26274169979693e+005,-1.57167209365796e+001,-2.21050306310451e+000

2.29432839682530e+005,-1.57169265765128e+001,-2.24049008552197e+000

2.32635602771247e+005,-1.57171344688350e+001,-2.27087577188919e+000

2.35883074766574e+005,-1.57173445812898e+001,-2.30166554579845e+000

2.39175879781588e+005,-1.57175568800737e+001,-2.33286492008719e+000

2.42514650641661e+005,-1.57177713298937e+001,-2.36447949859818e+000

2.45900029006080e+005,-1.57179878940316e+001,-2.39651497794897e+000

2.49332665491357e+005,-1.57182065344136e+001,-2.42897714930428e+000

2.52813219796278e+005,-1.57184272116852e+001,-2.46187190014958e+000

2.56342360828676e+005,-1.57186498852932e+001,-2.49520521606527e+000

2.59920766833993e+005,-1.57188745135719e+001,-2.52898318249831e+000

2.63549125525621e+005,-1.57191010538352e+001,-2.56321198653013e+000

2.67228134217075e+005,-1.57193294624747e+001,-2.59789791863858e+000

2.70958499956006e+005,-1.57195596950619e+001,-2.63304737445086e+000

2.74740939660078e+005,-1.57197917064561e+001,-2.66866685648804e+000

2.78576180254757e+005,-1.57200254509168e+001,-2.70476297589741e+000

2.82464958813007e+005,-1.57202608822209e+001,-2.74134245417119e+000

2.86408022696948e+005,-1.57204979537838e+001,-2.77841212485141e+000

2.90406129701488e+005,-1.57207366187846e+001,-2.81597893521886e+000

2.94460048199957e+005,-1.57209768302952e+001,-2.85404994796392e+000

2.98570557291775e+005,-1.57212185414130e+001,-2.89263234283917e+000

3.02738446952187e+005,-1.57214617053956e+001,-2.93173341829318e+000

3.06964518184081e+005,-1.57217062757999e+001,-2.97136059308295e+000

3.11249583171928e+005,-1.57219522066220e+001,-3.01152140786717e+000

3.15594465437872e+005,-1.57221994524406e+001,-3.05222352677558e+000

3.19999999999997e+005,-1.57224479685606e+001,-3.09347473895898e+000

3.24467033532806e+005,-1.57226977111592e+001,-3.13528296011684e+000

3.28996424529938e+005,-1.57229486374323e+001,-3.17765623400176e+000

3.33589043469155e+005,-1.57232007057416e+001,-3.22060273390421e+000

3.38245772979638e+005,-1.57234538757622e+001,-3.26413076411548e+000

3.42967508011610e+005,-1.57237081086296e+001,-3.30824876136946e+000

3.47755156008335e+005,-1.57239633670862e+001,-3.35296529626668e+000

3.52609637080511e+005,-1.57242196156269e+001,-3.39828907467729e+000

3.57531884183106e+005,-1.57244768206443e+001,-3.44422893912774e+000

3.62522843294651e+005,-1.57247349505707e+001,-3.49079387017237e+000

3.67583473599047e+005,-1.57249939760198e+001,-3.53799298774673e+000

3.72714747669902e+005,-1.57252538699254e+001,-3.58583555251219e+000

3.77917651657445e+005,-1.57255146076773e+001,-3.63433096718591e+000

3.83193185478053e+005,-1.57257761672557e+001,-3.68348877786202e+000

3.88542363006410e+005,-1.57260385293616e+001,-3.73331867532690e+000

3.93966212270369e+005,-1.57263016775437e+001,-3.78383049636700e+000

3.99465775648511e+005,-1.57265655983232e+001,-3.83503422507519e+000

4.05042110070485e+005,-1.57268302813141e+001,-3.88693999415486e+000

4.10696287220124e+005,-1.57270957193393e+001,-3.93955808622753e+000

4.16429393741414e+005,-1.57273619085446e+001,-3.99289893514246e+000

4.22242531447321e+005,-1.57276288485063e+001,-4.04697312729431e+000

4.28136817531551e+005,-1.57278965423370e+001,-4.10179140294911e+000

4.34113384783250e+005,-1.57281649967861e+001,-4.15736465758206e+000

4.40173381804713e+005,-1.57284342223360e+001,-4.21370394323034e+000

4.46317973232124e+005,-1.57287042332950e+001,-4.27082046986002e+000

4.52548339959385e+005,-1.57289750478857e+001,-4.32872560675632e+000

4.58865679365059e+005,-1.57292466883288e+001,-4.38743088393194e+000

4.65271205542494e+005,-1.57295191809239e+001,-4.44694799356201e+000

4.71766149533147e+005,-1.57297925561258e+001,-4.50728879144426e+000

4.78351759563174e+005,-1.57300668486168e+001,-4.56846529848962e+000

4.85029301283321e+005,-1.57303420973757e+001,-4.63048970224312e+000

4.91800058012158e+005,-1.57306183457435e+001,-4.69337435843865e+000

4.98665330982714e+005,-1.57308956414853e+001,-4.75713179259029e+000

5.05626439592555e+005,-1.57311740368490e+001,-4.82177470161994e+000

5.12684721657352e+005,-1.57314535886214e+001,-4.88731595552625e+000

5.19841533667984e+005,-1.57317343581815e+001,-4.95376859909429e+000

5.27098251051240e+005,-1.57320164115510e+001,-5.02114585364875e+000

5.34456268434150e+005,-1.57322998194427e+001,-5.08946111885306e+000

5.41916999912011e+005,-1.57325846573073e+001,-5.15872797455302e+000

