Freq.,VOut,OutRef

1.00000000000000e+004,-6.54334698775372e+000,-4.45138781848962e-002

1.01395947979003e+004,-6.54335090271303e+000,-4.51344420134213e-002

1.02811382665607e+004,-6.54335492750824e+000,-4.57636335311477e-002

1.04246576084112e+004,-6.54335906521509e+000,-4.64015716857109e-002

1.05701804056138e+004,-6.54336331899333e+000,-4.70483770330715e-002

1.07177346253629e+004,-6.54336769209127e+000,-4.77041717434055e-002

1.08673486252606e+004,-6.54337218784962e+000,-4.83690796117052e-002

1.10190511587661e+004,-6.54337680969897e+000,-4.90432261106314e-002

1.11728713807222e+004,-6.54338156116799e+000,-4.97267383736533e-002

1.13288388529580e+004,-6.54338644588270e+000,-5.04197452373519e-002

1.14869835499703e+004,-6.54339146756957e+000,-5.11223772593678e-002

1.16473358646846e+004,-6.54339663005906e+000,-5.18347667339955e-002

1.18099266142953e+004,-6.54340193728884e+000,-5.25570477102227e-002

1.19747870461893e+004,-6.54340739330561e+000,-5.32893560206854e-002

1.21419488439505e+004,-6.54341300226770e+000,-5.40318293041241e-002

1.23114441334492e+004,-6.54341876845015e+000,-5.47846070148809e-002

1.24833054890161e+004,-6.54342469624634e+000,-5.55478304532144e-002

1.26575659397028e+004,-6.54343079017143e+000,-5.63216427858219e-002

1.28342589756290e+004,-6.54343705486682e+000,-5.71061890599679e-002

1.30134185544193e+004,-6.54344349510116e+000,-5.79016162417983e-002

1.31950791077289e+004,-6.54345011577647e+000,-5.87080732197680e-002

1.33792755478611e+004,-6.54345692193110e+000,-5.95257108314709e-002

1.35660432744767e+004,-6.54346391874141e+000,-6.03546818987888e-002

1.37554181813974e+004,-6.54347111152918e+000,-6.11951412266755e-002

1.39474366635040e+004,-6.54347850576168e+000,-6.20472456500850e-002

1.41421356237309e+004,-6.54348610705891e+000,-6.29111540346833e-002

1.43395524801583e+004,-6.54349392119624e+000,-6.37870273091812e-002

1.45397251732031e+004,-6.54350195410748e+000,-6.46750284955189e-002

1.47426921729110e+004,-6.54351021189236e+000,-6.55753227097616e-002

1.49484924863494e+004,-6.54351870081742e+000,-6.64880772086050e-002

1.51571656651040e+004,-6.54352742732372e+000,-6.74134613907440e-002

1.53687518128801e+004,-6.54353639802910e+000,-6.83516468349371e-002

1.55832915932100e+004,-6.54354561973485e+000,-6.93028073106311e-002

1.58008262372675e+004,-6.54355509942865e+000,-7.02671188136148e-002

1.60213975517924e+004,-6.54356484429207e+000,-7.12447595714501e-002

1.62450479271247e+004,-6.54357486170363e+000,-7.22359100801272e-002

1.64718203453514e+004,-6.54358515924512e+000,-7.32407531204606e-002

1.67017583885674e+004,-6.54359574470715e+000,-7.42594737784598e-002

1.69349062472505e+004,-6.54360662609419e+000,-7.52922594722312e-002

1.71713087287550e+004,-6.54361781163094e+000,-7.63392999687141e-002

1.74110112659224e+004,-6.54362930976820e+000,-7.74007874063206e-002

1.76540599258131e+004,-6.54364112918797e+000,-7.84769163225512e-002

1.79005014185594e+004,-6.54365327881118e+000,-7.95678836655830e-002

1.81503831063432e+004,-6.54366576780168e+000,-8.06738888304255e-002

1.84037530124975e+004,-6.54367860557647e+000,-8.17951336565939e-002

1.86606598307361e+004,-6.54369180180863e+000,-8.29318224722278e-002

1.89211529345119e+004,-6.54370536643635e+000,-8.40841621018347e-002

1.91852823865052e+004,-6.54371930966847e+000,-8.52523618943751e-002

1.94530989482457e+004,-6.54373364199411e+000,-8.64366337289905e-002

1.97246540898671e+004,-6.54374837418661e+000,-8.76371920552952e-002

1.99999999999999e+004,-6.54376351731453e+000,-8.88542538916483e-002

2.02791895958005e+004,-6.54377908274636e+000,-9.00880388624438e-002

2.05622765331213e+004,-6.54379508216100e+000,-9.13387692003326e-002

2.08493152168224e+004,-6.54381152755421e+000,-9.26066697747800e-002

2.11403608112276e+004,-6.54382843124683e+000,-9.38919681102766e-002

2.14354692507258e+004,-6.54384580589506e+000,-9.51948943906226e-002

2.17346972505211e+004,-6.54386366449692e+000,-9.65156814914595e-002

2.20381023175322e+004,-6.54388202040309e+000,-9.78545649820986e-002

2.23457427614443e+004,-6.54390088732435e+000,-9.92117831517215e-002

2.26576777059159e+004,-6.54392027934232e+000,-1.00587577014907e-001

2.29739670999406e+004,-6.54394021091820e+000,-1.01982190330171e-001

2.32946717293690e+004,-6.54396069690283e+000,-1.03395869610528e-001

2.36198532285905e+004,-6.54398175254651e+000,-1.04828864137213e-001

2.39495740923785e+004,-6.54400339350942e+000,-1.06281425968977e-001

2.42838976879009e+004,-6.54402563587212e+000,-1.07753809952335e-001

2.46228882668982e+004,-6.54404849614646e+000,-1.09246273728066e-001

2.49666109780322e+004,-6.54407199128516e+000,-1.10759077749345e-001

2.53151318794055e+004,-6.54409613869481e+000,-1.12292485275741e-001

2.56685179512580e+004,-6.54412095624700e+000,-1.13846762381348e-001

2.60268371088386e+004,-6.54414646228826e+000,-1.15422177970144e-001

2.63901582154578e+004,-6.54417267565446e+000,-1.17019003762978e-001

2.67585510957221e+004,-6.54419961568061e+000,-1.18637514314882e-001

2.71320865489533e+004,-6.54422730221572e+000,-1.20277986998940e-001

2.75108363627948e+004,-6.54425575563329e+000,-1.21940702019997e-001

2.78948733270080e+004,-6.54428499684558e+000,-1.23625942402860e-001

2.82842712474618e+004,-6.54431504731654e+000,-1.25333993989840e-001

2.86791049603164e+004,-6.54434592907482e+000,-1.27065145436295e-001

2.90794503464061e+004,-6.54437766472855e+000,-1.28819688197748e-001

2.94853843458219e+004,-6.54441027747841e+000,-1.30597916523856e-001

2.98969849726987e+004,-6.54444379113222e+000,-1.32400127445451e-001

3.03143313302078e+004,-6.54447823011978e+000,-1.34226620757832e-001

3.07375036257601e+004,-6.54451361950756e+000,-1.36077699004965e-001

3.11665831864199e+004,-6.54454998501406e+000,-1.37953667459553e-001

3.16016524745350e+004,-6.54458735302432e+000,-1.39854834106376e-001

3.20427951035848e+004,-6.54462575060634e+000,-1.41781509614076e-001

3.24900958542493e+004,-6.54466520552796e+000,-1.43734007301896e-001

3.29436406907028e+004,-6.54470574627102e+000,-1.45712643123523e-001

3.34035167771346e+004,-6.54474740204867e+000,-1.47717735628921e-001

3.38698124945009e+004,-6.54479020282324e+000,-1.49749605922502e-001

3.43426174575100e+004,-6.54483417932197e+000,-1.51808577631499e-001

3.48220225318448e+004,-6.54487936305460e+000,-1.53894976862672e-001

3.53081198516260e+004,-6.54492578633166e+000,-1.56009132151839e-001

3.58010028371187e+004,-6.54497348228079e+000,-1.58151374424474e-001

3.63007662126863e+004,-6.54502248486622e+000,-1.60322036933151e-001

3.68075060249948e+004,-6.54507282890641e+000,-1.62521455205311e-001

3.73213196614721e+004,-6.54512455009323e+000,-1.64749966978340e-001

3.78423058690237e+004,-6.54517768500917e+000,-1.67007912144337e-001

3.83705647730104e+004,-6.54523227114834e+000,-1.69295632667915e-001

3.89061978964912e+004,-6.54528834693405e+000,-1.71613472522629e-001

3.94493081797342e+004,-6.54534595173992e+000,-1.73961777601158e-001

3.99999999999998e+004,-6.54540512590753e+000,-1.76340895644411e-001

4.05583791916010e+004,-6.54546591076773e+000,-1.78751176143325e-001

4.11245530662425e+004,-6.54552834865937e+000,-1.81192970251733e-001

4.16986304336447e+004,-6.54559248295072e+000,-1.83666630680427e-001

4.22807216224550e+004,-6.54565835805880e+000,-1.86172511595081e-001

4.28709385014515e+004,-6.54572601947026e+000,-1.88710968505261e-001

4.34693945010421e+004,-6.54579551376089e+000,-1.91282358151493e-001

4.40762046350642e+004,-6.54586688861753e+000,-1.93887038373336e-001

4.46914855228886e+004,-6.54594019285748e+000,-1.96525367988560e-001

4.53153554118317e+004,-6.54601547644991e+000,-1.99197706651222e-001

4.59479341998812e+004,-6.54609279053579e+000,-2.01904414712743e-001

4.65893434587380e+004,-6.54617218744936e+000,-2.04645853066915e-001

4.72397064571810e+004,-6.54625372073803e+000,-2.07422382996539e-001

4.78991481847569e+004,-6.54633744518268e+000,-2.10234366009297e-001

4.85677953758016e+004,-6.54642341681878e+000,-2.13082163660950e-001

4.92457765337964e+004,-6.54651169295637e+000,-2.15966137375558e-001

4.99332219560642e+004,-6.54660233219967e+000,-2.18886648260036e-001

5.06302637588109e+004,-6.54669539446707e+000,-2.21844056905554e-001

5.13370359025159e+004,-6.54679094101131e+000,-2.24838723177156e-001

5.20536742176771e+004,-6.54688903443758e+000,-2.27871006007399e-001

5.27803164309155e+004,-6.54698973872314e+000,-2.30941263167084e-001

5.35171021914442e+004,-6.54709311923593e+000,-2.34049851030855e-001

5.42641730979066e+004,-6.54719924275218e+000,-2.37197124338324e-001

5.50216727255895e+004,-6.54730817747373e+000,-2.40383435941824e-001

5.57897466540159e+004,-6.54741999304520e+000,-2.43609136542877e-001

5.65685424949235e+004,-6.54753476057048e+000,-2.46874574417816e-001

5.73582099206328e+004,-6.54765255262778e+000,-2.50180095139572e-001

5.81589006928121e+004,-6.54777344328495e+000,-2.53526041279045e-001

5.89707686916437e+004,-6.54789750811254e+000,-2.56912752108332e-001

5.97939699453972e+004,-6.54802482419771e+000,-2.60340563279322e-001

6.06286626604156e+004,-6.54815547015615e+000,-2.63809806498423e-001

6.14750072515201e+004,-6.54828952614191e+000,-2.67320809196135e-001

6.23331663728396e+004,-6.54842707385898e+000,-2.70873894167263e-001

6.32033049490698e+004,-6.54856819656775e+000,-2.74469379223285e-001

6.40855902071694e+004,-6.54871297909374e+000,-2.78107576811245e-001

6.49801917084985e+004,-6.54886150783219e+000,-2.81788793636055e-001

6.58872813814055e+004,-6.54901387075280e+000,-2.85513330262551e-001

6.68070335542691e+004,-6.54917015740188e+000,-2.89281480710234e-001

6.77396249890018e+004,-6.54933045890317e+000,-2.93093532033059e-001

6.86852349150199e+004,-6.54949486795591e+000,-2.96949763893525e-001

6.96440450636895e+004,-6.54966347883303e+000,-3.00850448111914e-001

7.06162397032520e+004,-6.54983638737402e+000,-3.04795848221890e-001

7.16020056742374e+004,-6.55001369097873e+000,-3.08786218996744e-001

7.26015324253724e+004,-6.55019548859601e+000,-3.12821805979956e-001

7.36150120499896e+004,-6.55038188071251e+000,-3.16902844987983e-001

7.46426393229441e+004,-6.55057296933635e+000,-3.21029561616834e-001

7.56846117380472e+004,-6.55076885797928e+000,-3.25202170730280e-001

7.67411295460207e+004,-6.55096965163597e+000,-3.29420875936348e-001

7.78123957929823e+004,-6.55117545675970e+000,-3.33685869056456e-001

7.88986163594682e+004,-6.55138638123484e+000,-3.37997329584661e-001

7.99999999999995e+004,-6.55160253434612e+000,-3.42355424135200e-001

8.11167583832018e+004,-6.55182402674418e+000,-3.46760305883943e-001

8.22491061324848e+004,-6.55205097040739e+000,-3.51212113998152e-001

8.33972608672892e+004,-6.55228347859999e+000,-3.55710973060366e-001

8.45614432449099e+004,-6.55252166582531e+000,-3.60256992486954e-001

8.57418770029029e+004,-6.55276564777665e+000,-3.64850265932040e-001

8.69387890020841e+004,-6.55301554128066e+000,-3.69490870701721e-001

8.81524092701283e+004,-6.55327146423998e+000,-3.74178867141855e-001

8.93829710457770e+004,-6.55353353556739e+000,-3.78914298044697e-001

9.06307108236633e+004,-6.55380187511769e+000,-3.83697188036791e-001

9.18958683997622e+004,-6.55407660361315e+000,-3.88527542972340e-001

9.31786869174758e+004,-6.55435784256481e+000,-3.93405349320980e-001

9.44794129143618e+004,-6.55464571418617e+000,-3.98330573570138e-001

9.57982963695136e+004,-6.55494034130434e+000,-4.03303161609587e-001

9.71355907516031e+004,-6.55524184726299e+000,-4.08323038137021e-001

9.84915530675926e+004,-6.55555035582050e+000,-4.13390106060876e-001

9.98664439121282e+004,-6.55586599104198e+000,-4.18504245912649e-001

1.01260527517622e+005,-6.55618887718461e+000,-4.23665315269780e-001

1.02674071805032e+005,-6.55651913857774e+000,-4.28873148184286e-001

1.04107348435354e+005,-6.55685689949510e+000,-4.34127554633590e-001

1.05560632861831e+005,-6.55720228402190e+000,-4.39428319975739e-001

1.07034204382888e+005,-6.55755541591397e+000,-4.44775204433384e-001

1.08528346195813e+005,-6.55791641845157e+000,-4.50167942585952e-001

1.10043345451179e+005,-6.55828541428492e+000,-4.55606242894925e-001

1.11579493308032e+005,-6.55866252527426e+000,-4.61089787244634e-001

1.13137084989847e+005,-6.55904787232206e+000,-4.66618230516842e-001

1.14716419841265e+005,-6.55944157519825e+000,-4.72191200194835e-001

1.16317801385624e+005,-6.55984375235965e+000,-4.77808295994784e-001

1.17941537383287e+005,-6.56025452076111e+000,-4.83469089540893e-001

1.19587939890794e+005,-6.56067399566096e+000,-4.89173124072817e-001

1.21257325320831e+005,-6.56110229041836e+000,-4.94919914201650e-001

1.22950014503040e+005,-6.56153951628547e+000,-5.00708945704158e-001

1.24666332745679e+005,-6.56198578219205e+000,-5.06539675369929e-001

1.26406609898139e+005,-6.56244119452358e+000,-5.12411530900124e-001

1.28171180414339e+005,-6.56290585689372e+000,-5.18323910859371e-001

1.29960383416997e+005,-6.56337986991075e+000,-5.24276184685129e-001

1.31774562762811e+005,-6.56386333093723e+000,-5.30267692764059e-001

1.33614067108538e+005,-6.56435633384566e+000,-5.36297746566361e-001

1.35479249978003e+005,-6.56485896876752e+000,-5.42365628856386e-001

1.37370469830040e+005,-6.56537132183854e+000,-5.48470593967958e-001

1.39288090127379e+005,-6.56589347493900e+000,-5.54611868160818e-001

1.41232479406504e+005,-6.56642550543041e+000,-5.60788650051317e-001

1.43204011348474e+005,-6.56696748588834e+000,-5.67000111128007e-001

1.45203064850745e+005,-6.56751948383210e+000,-5.73245396352869e-001

1.47230024099979e+005,-6.56808156145295e+000,-5.79523624845380e-001

1.49285278645888e+005,-6.56865377533916e+000,-5.85833890664022e-001

1.51369223476094e+005,-6.56923617620082e+000,-5.92175263678552e-001

1.53482259092041e+005,-6.56982880859375e+000,-5.98546790537921e-001

1.55624791585964e+005,-6.57043171064380e+000,-6.04947495737624e-001

1.57797232718936e+005,-6.57104491377188e+000,-6.11376382789539e-001

1.59999999999999e+005,-6.57166844242100e+000,-6.17832435492421e-001

1.62233516766403e+005,-6.57230231378596e+000,-6.24314619307174e-001

1.64498212264969e+005,-6.57294653754615e+000,-6.30821882840229e-001

1.66794521734578e+005,-6.57360111560323e+000,-6.37353159431786e-001

1.69122886489819e+005,-6.57426604182386e+000,-6.43907368851730e-001

1.71483754005805e+005,-6.57494130178922e+000,-6.50483419102947e-001

1.73877578004168e+005,-6.57562687255077e+000,-6.57080208337693e-001

1.76304818540256e+005,-6.57632272239574e+000,-6.63696626873680e-001

1.78765942091554e+005,-6.57702881062106e+000,-6.70331559321992e-001

1.81261421647326e+005,-6.57774508731812e+000,-6.76983886819104e-001

1.83791736799524e+005,-6.57847149316830e+000,-6.83652489365739e-001

1.86357373834951e+005,-6.57920795925255e+000,-6.90336248258438e-001

1.88958825828723e+005,-6.57995440687333e+000,-6.97034048626861e-001

1.91596592739027e+005,-6.58071074739123e+000,-7.03744782068055e-001

1.94271181503206e+005,-6.58147688207855e+000,-7.10467349362853e-001

1.96983106135185e+005,-6.58225270198787e+000,-7.17200663291563e-001

1.99732887824256e+005,-6.58303808784053e+000,-7.23943651518514e-001

2.02521055035243e+005,-6.58383290993173e+000,-7.30695259567351e-001

2.05348143610063e+005,-6.58463702805709e+000,-7.37454453855635e-001

2.08214696870707e+005,-6.58545029145869e+000,-7.44220224802755e-001

2.11121265723661e+005,-6.58627253879343e+000,-7.50991589988625e-001

2.14068408765776e+005,-6.58710359812350e+000,-7.57767597365716e-001

2.17056692391625e+005,-6.58794328692865e+000,-7.64547328518581e-001

2.20086690902357e+005,-6.58879141214441e+000,-7.71329901946397e-001

2.23158986616063e+005,-6.58964777022286e+000,-7.78114476379597e-001

2.26274169979693e+005,-6.59051214721850e+000,-7.84900254110790e-001

2.29432839682530e+005,-6.59138431890029e+000,-7.91686484328350e-001

2.32635602771247e+005,-6.59226405088764e+000,-7.98472466454566e-001

2.35883074766574e+005,-6.59315109881390e+000,-8.05257553461866e-001

2.39175879781588e+005,-6.59404520851455e+000,-8.12041155171323e-001

2.42514650641661e+005,-6.59494611624178e+000,-8.18822741516488e-001

2.45900029006080e+005,-6.59585354890523e+000,-8.25601845758397e-001

2.49332665491357e+005,-6.59676722433744e+000,-8.32378067653607e-001

2.52813219796278e+005,-6.59768685158640e+000,-8.39151076542975e-001

2.56342360828676e+005,-6.59861213123072e+000,-8.45920614379929e-001

2.59920766833993e+005,-6.59954275572160e+000,-8.52686498655231e-001

2.63549125525621e+005,-6.60047840974682e+000,-8.59448625235506e-001

2.67228134217075e+005,-6.60141877061800e+000,-8.66206971090376e-001

2.70958499956006e+005,-6.60236350868068e+000,-8.72961596899337e-001

2.74740939660078e+005,-6.60331228774495e+000,-8.79712649531451e-001

2.78576180254757e+005,-6.60426476553566e+000,-8.86460364394148e-001

2.82464958813007e+005,-6.60522059416244e+000,-8.93205067627182e-001

2.86408022696948e+005,-6.60617942060577e+000,-8.99947178153541e-001

2.90406129701488e+005,-6.60714088722047e+000,-9.06687209559508e-001

2.94460048199957e+005,-6.60810463225285e+000,-9.13425771813669e-001

2.98570557291775e+005,-6.60907029037122e+000,-9.20163572807933e-001

3.02738446952187e+005,-6.61003749320727e+000,-9.26901419722105e-001

3.06964518184081e+005,-6.61100586990793e+000,-9.33640220198394e-001

3.11249583171928e+005,-6.61197504769442e+000,-9.40380983332220e-001

3.15594465437872e+005,-6.61294465242751e+000,-9.47124820468490e-001

3.19999999999997e+005,-6.61391430917724e+000,-9.53872945804719e-001

3.24467033532806e+005,-6.61488364279509e+000,-9.60626676796562e-001

3.28996424529938e+005,-6.61585227848599e+000,-9.67387434370221e-001

3.33589043469155e+005,-6.61681984238015e+000,-9.74156742933940e-001

3.38245772979638e+005,-6.61778596210068e+000,-9.80936230197805e-001

3.42967508011610e+005,-6.61875026732628e+000,-9.87727626801219e-001

3.47755156008335e+005,-6.61971239034802e+000,-9.94532765743806e-001

3.52609637080511e+005,-6.62067196661581e+000,-1.00135358163824e+000

3.57531884183106e+005,-6.62162863527588e+000,-1.00819210977431e+000

3.62522843294651e+005,-6.62258203969562e+000,-1.01505048500730e+000

3.67583473599047e+005,-6.62353182797491e+000,-1.02193094047572e+000

3.72714747669902e+005,-6.62447765344167e+000,-1.02883580615611e+000

3.77917651657445e+005,-6.62541917513138e+000,-1.03576750725874e+000

3.83193185478053e+005,-6.62635605824841e+000,-1.04272856247339e+000

3.88542363006410e+005,-6.62728797460770e+000,-1.04972158207684e+000

3.93966212270369e+005,-6.62821460305664e+000,-1.05674926590479e+000

3.99465775648511e+005,-6.62913562987405e+000,-1.06381440120801e+000

4.05042110070485e+005,-6.63005074914867e+000,-1.07091986038576e+000

4.10696287220124e+005,-6.63095966313211e+000,-1.07806859862850e+000

4.16429393741414e+005,-6.63186208256925e+000,-1.08526365145926e+000

4.22242531447321e+005,-6.63275772700334e+000,-1.09250813219780e+000

4.28136817531551e+005,-6.63364632505580e+000,-1.09980522935399e+000

4.34113384783250e+005,-6.63452761468076e+000,-1.10715820395997e+000

4.40173381804713e+005,-6.63540134339377e+000,-1.11457038685233e+000

4.46317973232124e+005,-6.63626726847374e+000,-1.12204517592082e+000

4.52548339959385e+005,-6.63712515714015e+000,-1.12958603332256e+000

4.58865679365059e+005,-6.63797478670277e+000,-1.13719648268602e+000

4.65271205542494e+005,-6.63881594468711e+000,-1.14488010630154e+000

4.71766149533147e+005,-6.63964842893315e+000,-1.15264054232099e+000

4.78351759563174e+005,-6.64047204766947e+000,-1.16048148196685e+000

4.85029301283321e+005,-6.64128661956255e+000,-1.16840666676596e+000

4.91800058012158e+005,-6.64209197374194e+000,-1.17641988581399e+000

4.98665330982714e+005,-6.64288794980179e+000,-1.18452497308098e+000

5.05626439592555e+005,-6.64367439777976e+000,-1.19272580476369e+000

5.12684721657352e+005,-6.64445117811359e+000,-1.20102629669829e+000

5.19841533667984e+005,-6.64521816157666e+000,-1.20943040183114e+000

5.27098251051240e+005,-6.64597522919291e+000,-1.21794210776685e+000

5.34456268434150e+005,-6.64672227213232e+000,-1.22656543438818e+000

5.41916999912011e+005,-6.64745919158849e+000,-1.23530443155894e+000

