Freq.,VOut,OutRef

1.00000000000000e+004,-1.71285626682483e+001,-2.19354908135462e-001

1.01395947979003e+004,-1.71285641772961e+001,-2.22416736255480e-001

1.02811382665607e+004,-1.71285657287003e+001,-2.25521295203565e-001

1.04246576084112e+004,-1.71285673236477e+001,-2.28669181027010e-001

1.05701804056138e+004,-1.71285689633583e+001,-2.31860998075452e-001

1.07177346253629e+004,-1.71285706490864e+001,-2.35097359111014e-001

1.08673486252606e+004,-1.71285723821209e+001,-2.38378885433244e-001

1.10190511587661e+004,-1.71285741637869e+001,-2.41706206990597e-001

1.11728713807222e+004,-1.71285759954465e+001,-2.45079962503305e-001

1.13288388529580e+004,-1.71285778784998e+001,-2.48500799583262e-001

1.14869835499703e+004,-1.71285798143858e+001,-2.51969374860012e-001

1.16473358646846e+004,-1.71285818045838e+001,-2.55486354101544e-001

1.18099266142953e+004,-1.71285838506142e+001,-2.59052412345019e-001

1.19747870461893e+004,-1.71285859540400e+001,-2.62668234021141e-001

1.21419488439505e+004,-1.71285881164676e+001,-2.66334513087009e-001

1.23114441334492e+004,-1.71285903395481e+001,-2.70051953156846e-001

1.24833054890161e+004,-1.71285926249785e+001,-2.73821267635167e-001

1.26575659397028e+004,-1.71285949745034e+001,-2.77643179852510e-001

1.28342589756290e+004,-1.71285973899158e+001,-2.81518423202252e-001

1.30134185544193e+004,-1.71285998730585e+001,-2.85447741279838e-001

1.31950791077289e+004,-1.71286024258256e+001,-2.89431888025247e-001

1.33792755478611e+004,-1.71286050501640e+001,-2.93471627862839e-001

1.35660432744767e+004,-1.71286077480746e+001,-2.97567735848250e-001

1.37554181813974e+004,-1.71286105216139e+001,-3.01720997815069e-001

1.39474366635040e+004,-1.71286133728957e+001,-3.05932210521819e-001

1.41421356237309e+004,-1.71286163040926e+001,-3.10202181803601e-001

1.43395524801583e+004,-1.71286193174371e+001,-3.14531730727108e-001

1.45397251732031e+004,-1.71286224152239e+001,-3.18921687741850e-001

1.47426921729110e+004,-1.71286255998115e+001,-3.23372894837768e-001

1.49484924863494e+004,-1.71286288736240e+001,-3.27886205705437e-001

1.51571656651040e+004,-1.71286322391520e+001,-3.32462485897487e-001

1.53687518128801e+004,-1.71286356989560e+001,-3.37102612989441e-001

1.55832915932100e+004,-1.71286392556666e+001,-3.41807476748222e-001

1.58008262372675e+004,-1.71286429119880e+001,-3.46577979295610e-001

1.60213975517924e+004,-1.71286466706987e+001,-3.51415035283529e-001

1.62450479271247e+004,-1.71286505346546e+001,-3.56319572061055e-001

1.64718203453514e+004,-1.71286545067901e+001,-3.61292529852109e-001

1.67017583885674e+004,-1.71286585901211e+001,-3.66334861930647e-001

1.69349062472505e+004,-1.71286627877465e+001,-3.71447534800541e-001

1.71713087287550e+004,-1.71286671028510e+001,-3.76631528376083e-001

1.74110112659224e+004,-1.71286715387072e+001,-3.81887836167432e-001

1.76540599258131e+004,-1.71286760986781e+001,-3.87217465464237e-001

1.79005014185594e+004,-1.71286807862192e+001,-3.92621437526914e-001

1.81503831063432e+004,-1.71286856048812e+001,-3.98100787777437e-001

1.84037530124975e+004,-1.71286905583130e+001,-4.03656565990706e-001

1.86606598307361e+004,-1.71286956502636e+001,-4.09289836494114e-001

1.89211529345119e+004,-1.71287008845853e+001,-4.15001678364609e-001

1.91852823865052e+004,-1.71287062652362e+001,-4.20793185629858e-001

1.94530989482457e+004,-1.71287117962834e+001,-4.26665467472833e-001

1.97246540898671e+004,-1.71287174819053e+001,-4.32619648438728e-001

1.99999999999999e+004,-1.71287233263955e+001,-4.38656868643653e-001

2.02791895958005e+004,-1.71287293341649e+001,-4.44778283988209e-001

2.05622765331213e+004,-1.71287355097453e+001,-4.50985066370455e-001

2.08493152168224e+004,-1.71287418577930e+001,-4.57278403904409e-001

2.11403608112276e+004,-1.71287483830912e+001,-4.63659501141185e-001

2.14354692507258e+004,-1.71287550905544e+001,-4.70129579290603e-001

2.17346972505211e+004,-1.71287619852309e+001,-4.76689876448967e-001

2.20381023175322e+004,-1.71287690723072e+001,-4.83341647827690e-001

2.23457427614443e+004,-1.71287763571111e+001,-4.90086165984680e-001

2.26576777059159e+004,-1.71287838451155e+001,-4.96924721059913e-001

2.29739670999406e+004,-1.71287915419425e+001,-5.03858621012841e-001

2.32946717293690e+004,-1.71287994533671e+001,-5.10889191863539e-001

2.36198532285905e+004,-1.71288075853212e+001,-5.18017777937161e-001

2.39495740923785e+004,-1.71288159438980e+001,-5.25245742109869e-001

2.42838976879009e+004,-1.71288245353555e+001,-5.32574466060779e-001

2.46228882668982e+004,-1.71288333661218e+001,-5.40005350523785e-001

2.49666109780322e+004,-1.71288424427986e+001,-5.47539815544332e-001

2.53151318794055e+004,-1.71288517721664e+001,-5.55179300739112e-001

2.56685179512580e+004,-1.71288613611888e+001,-5.62925265559831e-001

2.60268371088386e+004,-1.71288712170173e+001,-5.70779189557674e-001

2.63901582154578e+004,-1.71288813469958e+001,-5.78742572655339e-001

2.67585510957221e+004,-1.71288917586662e+001,-5.86816935417351e-001

2.71320865489533e+004,-1.71289024597731e+001,-5.95003819327074e-001

2.75108363627948e+004,-1.71289134582689e+001,-6.03304787067060e-001

2.78948733270080e+004,-1.71289247623193e+001,-6.11721422801372e-001

2.82842712474618e+004,-1.71289363803086e+001,-6.20255332461334e-001

2.86791049603164e+004,-1.71289483208454e+001,-6.28908144036092e-001

2.90794503464061e+004,-1.71289605927679e+001,-6.37681507866542e-001

2.94853843458219e+004,-1.71289732051500e+001,-6.46577096941284e-001

2.98969849726987e+004,-1.71289861673073e+001,-6.55596607197127e-001

3.03143313302078e+004,-1.71289994888030e+001,-6.64741757823238e-001

3.07375036257601e+004,-1.71290131794538e+001,-6.74014291569617e-001

3.11665831864199e+004,-1.71290272493365e+001,-6.83415975057101e-001

3.16016524745350e+004,-1.71290417087945e+001,-6.92948599094103e-001

3.20427951035848e+004,-1.71290565684443e+001,-7.02613978991970e-001

3.24900958542493e+004,-1.71290718391820e+001,-7.12413954892061e-001

3.29436406907028e+004,-1.71290875321901e+001,-7.22350392088237e-001

3.34035167771346e+004,-1.71291036589451e+001,-7.32425181357238e-001

3.38698124945009e+004,-1.71291202312238e+001,-7.42640239294446e-001

3.43426174575100e+004,-1.71291372611109e+001,-7.52997508649836e-001

3.48220225318448e+004,-1.71291547610067e+001,-7.63498958669171e-001

3.53081198516260e+004,-1.71291727436339e+001,-7.74146585440714e-001

3.58010028371187e+004,-1.71291912220459e+001,-7.84942412243127e-001

3.63007662126863e+004,-1.71292102096343e+001,-7.95888489899493e-001

3.68075060249948e+004,-1.71292297201370e+001,-8.06986897133583e-001

3.73213196614721e+004,-1.71292497676462e+001,-8.18239740931802e-001

3.78423058690237e+004,-1.71292703666164e+001,-8.29649156908640e-001

3.83705647730104e+004,-1.71292915318733e+001,-8.41217309674110e-001

3.89061978964912e+004,-1.71293132786218e+001,-8.52946393208711e-001

3.94493081797342e+004,-1.71293356224548e+001,-8.64838631240092e-001

3.99999999999998e+004,-1.71293585793623e+001,-8.76896277623378e-001

4.05583791916010e+004,-1.71293821657395e+001,-8.89121616728938e-001

4.11245530662425e+004,-1.71294063983968e+001,-9.01516963830137e-001

4.16986304336447e+004,-1.71294312945683e+001,-9.14084665497851e-001

4.22807216224550e+004,-1.71294568719215e+001,-9.26827099998098e-001

4.28709385014515e+004,-1.71294831485662e+001,-9.39746677695525e-001

4.34693945010421e+004,-1.71295101430650e+001,-9.52845841457273e-001

4.40762046350642e+004,-1.71295378744417e+001,-9.66127067066907e-001

4.46914855228886e+004,-1.71295663621922e+001,-9.79592863636946e-001

4.53153554118317e+004,-1.71295956262937e+001,-9.93245774029628e-001

4.59479341998812e+004,-1.71296256872152e+001,-1.00708837527871e+000

4.65893434587380e+004,-1.71296565659270e+001,-1.02112327901982e+000

4.72397064571810e+004,-1.71296882839114e+001,-1.03535313192125e+000

4.78991481847569e+004,-1.71297208631728e+001,-1.04978061612043e+000

4.85677953758016e+004,-1.71297543262481e+001,-1.06440844966632e+000

4.92457765337964e+004,-1.71297886962171e+001,-1.07923938696385e+000

4.99332219560642e+004,-1.71298239967129e+001,-1.09427621922466e+000

5.06302637588109e+004,-1.71298602519327e+001,-1.10952177492074e+000

5.13370359025159e+004,-1.71298974866480e+001,-1.12497892024487e+000

5.20536742176771e+004,-1.71299357262159e+001,-1.14065055957323e+000

5.27803164309155e+004,-1.71299749965891e+001,-1.15653963593363e+000

5.35171021914442e+004,-1.71300153243269e+001,-1.17264913147855e+000

5.42641730979066e+004,-1.71300567366059e+001,-1.18898206796240e+000

5.50216727255895e+004,-1.71300992612307e+001,-1.20554150722414e+000

5.57897466540159e+004,-1.71301429266444e+001,-1.22233055167394e+000

5.65685424949235e+004,-1.71301877619393e+001,-1.23935234478424e+000

5.73582099206328e+004,-1.71302337968676e+001,-1.25661007158686e+000

5.81589006928121e+004,-1.71302810618516e+001,-1.27410695917511e+000

5.89707686916437e+004,-1.71303295879944e+001,-1.29184627720745e+000

5.97939699453972e+004,-1.71303794070902e+001,-1.30983133842184e+000

6.06286626604156e+004,-1.71304305516341e+001,-1.32806549915008e+000

6.14750072515201e+004,-1.71304830548326e+001,-1.34655215983953e+000

6.23331663728396e+004,-1.71305369506134e+001,-1.36529476558052e+000

6.32033049490698e+004,-1.71305922736346e+001,-1.38429680663682e+000

6.40855902071694e+004,-1.71306490592949e+001,-1.40356181898400e+000

6.49801917084985e+004,-1.71307073437423e+001,-1.42309338485079e+000

6.58872813814055e+004,-1.71307671638834e+001,-1.44289513326930e+000

6.68070335542691e+004,-1.71308285573917e+001,-1.46297074062622e+000

6.77396249890018e+004,-1.71308915627164e+001,-1.48332393122420e+000

6.86852349150199e+004,-1.71309562190903e+001,-1.50395847784619e+000

6.96440450636895e+004,-1.71310225665374e+001,-1.52487820232780e+000

7.06162397032520e+004,-1.71310906458799e+001,-1.54608697613403e+000

7.16020056742374e+004,-1.71311604987456e+001,-1.56758872094370e+000

7.26015324253724e+004,-1.71312321675739e+001,-1.58938740923940e+000

7.36150120499896e+004,-1.71313056956214e+001,-1.61148706490527e+000

7.46426393229441e+004,-1.71313811269679e+001,-1.63389176382928e+000

7.56846117380472e+004,-1.71314585065206e+001,-1.65660563451611e+000

7.67411295460207e+004,-1.71315378800180e+001,-1.67963285870464e+000

7.78123957929823e+004,-1.71316192940343e+001,-1.70297767199318e+000

7.88986163594682e+004,-1.71317027959813e+001,-1.72664436447288e+000

7.99999999999995e+004,-1.71317884341107e+001,-1.75063728137158e+000

8.11167583832018e+004,-1.71318762575157e+001,-1.77496082370025e+000

8.22491061324848e+004,-1.71319663161312e+001,-1.79961944891475e+000

8.33972608672892e+004,-1.71320586607336e+001,-1.82461767158144e+000

8.45614432449099e+004,-1.71321533429391e+001,-1.84996006405609e+000

8.57418770029029e+004,-1.71322504152023e+001,-1.87565125716779e+000

8.69387890020841e+004,-1.71323499308125e+001,-1.90169594091874e+000

8.81524092701283e+004,-1.71324519438897e+001,-1.92809886519015e+000

8.93829710457770e+004,-1.71325565093791e+001,-1.95486484046124e+000

9.06307108236633e+004,-1.71326636830455e+001,-1.98199873853852e+000

9.18958683997622e+004,-1.71327735214648e+001,-2.00950549329883e+000

9.31786869174758e+004,-1.71328860820164e+001,-2.03739010144261e+000

9.44794129143618e+004,-1.71330014228725e+001,-2.06565762326312e+000

9.57982963695136e+004,-1.71331196029878e+001,-2.09431318342609e+000

9.71355907516031e+004,-1.71332406820863e+001,-2.12336197176652e+000

9.84915530675926e+004,-1.71333647206479e+001,-2.15280924409925e+000

9.98664439121282e+004,-1.71334917798937e+001,-2.18266032304457e+000

1.01260527517622e+005,-1.71336219217691e+001,-2.21292059887173e+000

1.02674071805032e+005,-1.71337552089257e+001,-2.24359553035907e+000

1.04107348435354e+005,-1.71338917047027e+001,-2.27469064567066e+000

1.05560632861831e+005,-1.71340314731055e+001,-2.30621154325413e+000

1.07034204382888e+005,-1.71341745787837e+001,-2.33816389275613e+000

1.08528346195813e+005,-1.71343210870076e+001,-2.37055343596001e+000

1.10043345451179e+005,-1.71344710636423e+001,-2.40338598774340e+000

1.11579493308032e+005,-1.71346245751216e+001,-2.43666743705873e+000

1.13137084989847e+005,-1.71347816884197e+001,-2.47040374793793e+000

1.14716419841265e+005,-1.71349424710212e+001,-2.50460096052018e+000

1.16317801385624e+005,-1.71351069908900e+001,-2.53926519210670e+000

1.17941537383287e+005,-1.71352753164370e+001,-2.57440263824076e+000

1.19587939890794e+005,-1.71354475164856e+001,-2.61001957381591e+000

1.21257325320831e+005,-1.71356236602368e+001,-2.64612235421278e+000

1.22950014503040e+005,-1.71358038172318e+001,-2.68271741646715e+000

1.24666332745679e+005,-1.71359880573147e+001,-2.71981128046668e+000

1.26406609898139e+005,-1.71361764505925e+001,-2.75741055018265e+000

1.28171180414339e+005,-1.71363690673953e+001,-2.79552191493340e+000

1.29960383416997e+005,-1.71365659782347e+001,-2.83415215068408e+000

1.31774562762811e+005,-1.71367672537611e+001,-2.87330812138108e+000

1.33614067108538e+005,-1.71369729647210e+001,-2.91299678032442e+000

1.35479249978003e+005,-1.71371831819124e+001,-2.95322517157941e+000

1.37370469830040e+005,-1.71373979761406e+001,-2.99400043142766e+000

1.39288090127379e+005,-1.71376174181730e+001,-3.03532978985812e+000

1.41232479406504e+005,-1.71378415786939e+001,-3.07722057210207e+000

1.43204011348474e+005,-1.71380705282586e+001,-3.11968020021159e+000

1.45203064850745e+005,-1.71383043372482e+001,-3.16271619468073e+000

1.47230024099979e+005,-1.71385430758244e+001,-3.20633617611623e+000

1.49285278645888e+005,-1.71387868138847e+001,-3.25054786695093e+000

1.51369223476094e+005,-1.71390356210179e+001,-3.29535909320920e+000

1.53482259092041e+005,-1.71392895664615e+001,-3.34077778631934e+000

1.55624791585964e+005,-1.71395487190590e+001,-3.38681198497656e+000

1.57797232718936e+005,-1.71398131472197e+001,-3.43346983705716e+000

1.59999999999999e+005,-1.71400829188795e+001,-3.48075960158488e+000

1.62233516766403e+005,-1.71403581014636e+001,-3.52868965075013e+000

1.64498212264969e+005,-1.71406387618526e+001,-3.57726847198088e+000

1.66794521734578e+005,-1.71409249663492e+001,-3.62650467007023e+000

1.69122886489819e+005,-1.71412167806498e+001,-3.67640696935621e+000

1.71483754005805e+005,-1.71415142698180e+001,-3.72698421595730e+000

1.73877578004168e+005,-1.71418174982624e+001,-3.77824538006305e+000

1.76304818540256e+005,-1.71421265297178e+001,-3.83019955827954e+000

1.78765942091554e+005,-1.71424414272310e+001,-3.88285597603140e+000

1.81261421647326e+005,-1.71427622531513e+001,-3.93622399001615e+000

1.83791736799524e+005,-1.71430890691255e+001,-3.99031309071671e+000

1.86357373834951e+005,-1.71434219360992e+001,-4.04513290496630e+000

1.88958825828723e+005,-1.71437609143224e+001,-4.10069319856761e+000

1.91596592739027e+005,-1.71441060633630e+001,-4.15700387896527e+000

1.94271181503206e+005,-1.71444574421251e+001,-4.21407499797119e+000

1.96983106135185e+005,-1.71448151088754e+001,-4.27191675454015e+000

1.99732887824256e+005,-1.71451791212758e+001,-4.33053949759598e+000

2.02521055035243e+005,-1.71455495364244e+001,-4.38995372890668e+000

2.05348143610063e+005,-1.71459264109038e+001,-4.45017010600713e+000

2.08214696870707e+005,-1.71463098008382e+001,-4.51119944516501e+000

2.11121265723661e+005,-1.71466997619580e+001,-4.57305272439458e+000

2.14068408765776e+005,-1.71470963496747e+001,-4.63574108650827e+000

2.17056692391625e+005,-1.71474996191639e+001,-4.69927584220980e+000

2.20086690902357e+005,-1.71479096254576e+001,-4.76366847322499e+000

2.23158986616063e+005,-1.71483264235472e+001,-4.82893063546621e+000

2.26274169979693e+005,-1.71487500684952e+001,-4.89507416223037e+000

2.29432839682530e+005,-1.71491806155575e+001,-4.96211106742594e+000

2.32635602771247e+005,-1.71496181203162e+001,-5.03005354882831e+000

2.35883074766574e+005,-1.71500626388222e+001,-5.09891399135737e+000

2.39175879781588e+005,-1.71505142277489e+001,-5.16870497037870e+000

2.42514650641661e+005,-1.71509729445555e+001,-5.23943925502133e+000

2.45900029006080e+005,-1.71514388476627e+001,-5.31112981151195e+000

2.49332665491357e+005,-1.71519119966369e+001,-5.38378980652078e+000

2.52813219796278e+005,-1.71523924523868e+001,-5.45743261051743e+000

2.56342360828676e+005,-1.71528802773696e+001,-5.53207180113265e+000

2.59920766833993e+005,-1.71533755358084e+001,-5.60772116652245e+000

2.63549125525621e+005,-1.71538782939191e+001,-5.68439470873437e+000

2.67228134217075e+005,-1.71543886201486e+001,-5.76210664706860e+000

2.70958499956006e+005,-1.71549065854225e+001,-5.84087142143605e+000

2.74740939660078e+005,-1.71554322634026e+001,-5.92070369570576e+000

2.78576180254757e+005,-1.71559657307544e+001,-6.00161836104301e+000

2.82464958813007e+005,-1.71565070674236e+001,-6.08363053923322e+000

2.86408022696948e+005,-1.71570563569220e+001,-6.16675558598945e+000

2.90406129701488e+005,-1.71576136866218e+001,-6.25100909424357e+000

2.94460048199957e+005,-1.71581791480583e+001,-6.33640689741533e+000

2.98570557291775e+005,-1.71587528372411e+001,-6.42296507266071e+000

3.02738446952187e+005,-1.71593348549722e+001,-6.51069994409631e+000

3.06964518184081e+005,-1.71599253071716e+001,-6.59962808599898e+000

3.11249583171928e+005,-1.71605243052100e+001,-6.68976632597893e+000

3.15594465437872e+005,-1.71611319662471e+001,-6.78113174812649e+000

3.19999999999997e+005,-1.71617484135764e+001,-6.87374169612981e+000

3.24467033532806e+005,-1.71623737769755e+001,-6.96761377636602e+000

3.28996424529938e+005,-1.71630081930602e+001,-7.06276586096214e+000

3.33589043469155e+005,-1.71636518056452e+001,-7.15921609082899e+000

3.38245772979638e+005,-1.71643047661066e+001,-7.25698287866576e+000

3.42967508011610e+005,-1.71649672337499e+001,-7.35608491193832e+000

3.47755156008335e+005,-1.71656393761798e+001,-7.45654115582941e+000

3.52609637080511e+005,-1.71663213696736e+001,-7.55837085616398e+000

3.57531884183106e+005,-1.71670133995568e+001,-7.66159354230932e+000

3.62522843294651e+005,-1.71677156605803e+001,-7.76622903005267e+000

3.67583473599047e+005,-1.71684283572998e+001,-7.87229742445729e+000

3.72714747669902e+005,-1.71691517044560e+001,-7.97981912269839e+000

3.77917651657445e+005,-1.71698859273560e+001,-8.08881481688270e+000

3.83193185478053e+005,-1.71706312622555e+001,-8.19930549685140e+000

3.88542363006410e+005,-1.71713879567408e+001,-8.31131245297197e+000

3.93966212270369e+005,-1.71721562701122e+001,-8.42485727891712e+000

3.99465775648511e+005,-1.71729364737659e+001,-8.53996187443862e+000

4.05042110070485e+005,-1.71737288515775e+001,-8.65664844813392e+000

4.10696287220124e+005,-1.71745337002836e+001,-8.77493952021132e+000

4.16429393741414e+005,-1.71753513298644e+001,-8.89485792525604e+000

4.22242531447321e+005,-1.71761820639252e+001,-9.01642681499802e+000

4.28136817531551e+005,-1.71770262400778e+001,-9.13966966108790e+000

4.34113384783250e+005,-1.71778842103221e+001,-9.26461025788040e+000

4.40173381804713e+005,-1.71787563414263e+001,-9.39127272523071e+000

4.46317973232124e+005,-1.71796430153080e+001,-9.51968151130458e+000

4.52548339959385e+005,-1.71805446294155e+001,-9.64986139540648e+000

4.58865679365059e+005,-1.71814615971082e+001,-9.78183749082743e+000

4.65271205542494e+005,-1.71823943480387e+001,-9.91563524771499e+000

4.71766149533147e+005,-1.71833433285349e+001,-1.00512804559691e+001

4.78351759563174e+005,-1.71843090019830e+001,-1.01887992481637e+001

4.85029301283321e+005,-1.71852918492126e+001,-1.03282181024993e+001

4.91800058012158e+005,-1.71862923688826e+001,-1.04695638457852e+001

4.98665330982714e+005,-1.71873110778697e+001,-1.06128636564557e+001

5.05626439592555e+005,-1.71883485116587e+001,-1.07581450676205e+001

5.12684721657352e+005,-1.71894052247365e+001,-1.09054359701515e+001

5.19841533667984e+005,-1.71904817909886e+001,-1.10547646158064e+001

5.27098251051240e+005,-1.71915788040998e+001,-1.12061596203905e+001

5.34456268434150e+005,-1.71926968779587e+001,-1.13596499669576e+001

5.41916999912011e+005,-1.71938366470673e+001,-1.15152650090503e+001

