Freq.,VOut,OutRef

1.00000000000000e+004,-1.82269913617032e+001,-9.94913738381348e-002

1.01395947979003e+004,-1.82269936520952e+001,-1.00879751710300e-001

1.02811382665607e+004,-1.82269960067492e+001,-1.02287490688103e-001

1.04246576084112e+004,-1.82269984274648e+001,-1.03714860194976e-001

1.05701804056138e+004,-1.82270009160915e+001,-1.05162133383894e-001

1.07177346253629e+004,-1.82270034745300e+001,-1.06629587183504e-001

1.08673486252606e+004,-1.82270061047342e+001,-1.08117502349203e-001

1.10190511587661e+004,-1.82270088087130e+001,-1.09626163511963e-001

1.11728713807222e+004,-1.82270115885305e+001,-1.11155859238417e-001

1.13288388529580e+004,-1.82270144463086e+001,-1.12706882076572e-001

1.14869835499703e+004,-1.82270173842282e+001,-1.14279528613470e-001

1.16473358646846e+004,-1.82270204045307e+001,-1.15874099531280e-001

1.18099266142953e+004,-1.82270235095203e+001,-1.17490899654828e-001

1.19747870461893e+004,-1.82270267015652e+001,-1.19130238014101e-001

1.21419488439505e+004,-1.82270299830991e+001,-1.20792427901915e-001

1.23114441334492e+004,-1.82270333566234e+001,-1.22477786926261e-001

1.24833054890161e+004,-1.82270368247096e+001,-1.24186637068037e-001

1.26575659397028e+004,-1.82270403899999e+001,-1.25919304744915e-001

1.28342589756290e+004,-1.82270440552102e+001,-1.27676120867104e-001

1.30134185544193e+004,-1.82270478231320e+001,-1.29457420895467e-001

1.31950791077289e+004,-1.82270516966340e+001,-1.31263544906686e-001

1.33792755478611e+004,-1.82270556786644e+001,-1.33094837653095e-001

1.35660432744767e+004,-1.82270597722531e+001,-1.34951648624331e-001

1.37554181813974e+004,-1.82270639805147e+001,-1.36834332107964e-001

1.39474366635040e+004,-1.82270683066490e+001,-1.38743247259689e-001

1.41421356237309e+004,-1.82270727539453e+001,-1.40678758161385e-001

1.43395524801583e+004,-1.82270773257837e+001,-1.42641233888649e-001

1.45397251732031e+004,-1.82270820256376e+001,-1.44631048579615e-001

1.47426921729110e+004,-1.82270868570767e+001,-1.46648581497457e-001

1.49484924863494e+004,-1.82270918237695e+001,-1.48694217098314e-001

1.51571656651040e+004,-1.82270969294855e+001,-1.50768345103208e-001

1.53687518128801e+004,-1.82271021780988e+001,-1.52871360563756e-001

1.55832915932100e+004,-1.82271075735899e+001,-1.55003663934191e-001

1.58008262372675e+004,-1.82271131200496e+001,-1.57165661139449e-001

1.60213975517924e+004,-1.82271188216815e+001,-1.59357763648093e-001

1.62450479271247e+004,-1.82271246828046e+001,-1.61580388547476e-001

1.64718203453514e+004,-1.82271307078573e+001,-1.63833958610439e-001

1.67017583885674e+004,-1.82271369014002e+001,-1.66118902374501e-001

1.69349062472505e+004,-1.82271432681191e+001,-1.68435654214361e-001

1.71713087287550e+004,-1.82271498128290e+001,-1.70784654417288e-001

1.74110112659224e+004,-1.82271565404768e+001,-1.73166349261960e-001

1.76540599258131e+004,-1.82271634561456e+001,-1.75581191089572e-001

1.79005014185594e+004,-1.82271705650579e+001,-1.78029638388401e-001

1.81503831063432e+004,-1.82271778725795e+001,-1.80512155867739e-001

1.84037530124975e+004,-1.82271853842230e+001,-1.83029214541200e-001

1.86606598307361e+004,-1.82271931056524e+001,-1.85581291802429e-001

1.89211529345119e+004,-1.82272010426861e+001,-1.88168871512254e-001

1.91852823865052e+004,-1.82272092013022e+001,-1.90792444072366e-001

1.94530989482457e+004,-1.82272175876417e+001,-1.93452506517909e-001

1.97246540898671e+004,-1.82272262080137e+001,-1.96149562591075e-001

1.99999999999999e+004,-1.82272350688989e+001,-1.98884122833476e-001

2.02791895958005e+004,-1.82272441769548e+001,-2.01656704667018e-001

2.05622765331213e+004,-1.82272535390205e+001,-2.04467832479734e-001

2.08493152168224e+004,-1.82272631621207e+001,-2.07318037714316e-001

2.11403608112276e+004,-1.82272730534712e+001,-2.10207858954623e-001

2.14354692507258e+004,-1.82272832204840e+001,-2.13137842012602e-001

2.17346972505211e+004,-1.82272936707716e+001,-2.16108540021159e-001

2.20381023175322e+004,-1.82273044121532e+001,-2.19120513518505e-001

2.23457427614443e+004,-1.82273154526595e+001,-2.22174330543750e-001

2.26576777059159e+004,-1.82273268005384e+001,-2.25270566724034e-001

2.29739670999406e+004,-1.82273384642605e+001,-2.28409805370251e-001

2.32946717293690e+004,-1.82273504525251e+001,-2.31592637565619e-001

2.36198532285905e+004,-1.82273627742657e+001,-2.34819662262711e-001

2.39495740923785e+004,-1.82273754386562e+001,-2.38091486376596e-001

2.42838976879009e+004,-1.82273884551175e+001,-2.41408724876812e-001

2.46228882668982e+004,-1.82274018333228e+001,-2.44772000888085e-001

2.49666109780322e+004,-1.82274155832048e+001,-2.48181945782617e-001

2.53151318794055e+004,-1.82274297149625e+001,-2.51639199276239e-001

2.56685179512580e+004,-1.82274442390670e+001,-2.55144409529141e-001

2.60268371088386e+004,-1.82274591662693e+001,-2.58698233241228e-001

2.63901582154578e+004,-1.82274745076067e+001,-2.62301335751324e-001

2.67585510957221e+004,-1.82274902744105e+001,-2.65954391136068e-001

2.71320865489533e+004,-1.82275064783131e+001,-2.69658082309960e-001

2.75108363627948e+004,-1.82275231312547e+001,-2.73413101127563e-001

2.78948733270080e+004,-1.82275402454927e+001,-2.77220148479465e-001

2.82842712474618e+004,-1.82275578336081e+001,-2.81079934395781e-001

2.86791049603164e+004,-1.82275759085137e+001,-2.84993178150031e-001

2.90794503464061e+004,-1.82275944834627e+001,-2.88960608357123e-001

2.94853843458219e+004,-1.82276135720566e+001,-2.92982963078122e-001

2.98969849726987e+004,-1.82276331882537e+001,-2.97060989921485e-001

3.03143313302078e+004,-1.82276533463777e+001,-3.01195446149295e-001

3.07375036257601e+004,-1.82276740611268e+001,-3.05387098774623e-001

3.11665831864199e+004,-1.82276953475822e+001,-3.09636724670502e-001

3.16016524745350e+004,-1.82277172212176e+001,-3.13945110670621e-001

3.20427951035848e+004,-1.82277396979082e+001,-3.18313053674104e-001

3.24900958542493e+004,-1.82277627939401e+001,-3.22741360749994e-001

3.29436406907028e+004,-1.82277865260203e+001,-3.27230849239699e-001

3.34035167771346e+004,-1.82278109112864e+001,-3.31782346861679e-001

3.38698124945009e+004,-1.82278359673159e+001,-3.36396691816379e-001

3.43426174575100e+004,-1.82278617121373e+001,-3.41074732889442e-001

3.48220225318448e+004,-1.82278881642397e+001,-3.45817329553480e-001

3.53081198516260e+004,-1.82279153425833e+001,-3.50625352076439e-001

3.58010028371187e+004,-1.82279432666103e+001,-3.55499681620443e-001

3.63007662126863e+004,-1.82279719562553e+001,-3.60441210346049e-001

3.68075060249948e+004,-1.82280014319564e+001,-3.65450841516339e-001

3.73213196614721e+004,-1.82280317146663e+001,-3.70529489596838e-001

3.78423058690237e+004,-1.82280628258635e+001,-3.75678080359291e-001

3.83705647730104e+004,-1.82280947875632e+001,-3.80897550983099e-001

3.89061978964912e+004,-1.82281276223291e+001,-3.86188850154388e-001

3.94493081797342e+004,-1.82281613532855e+001,-3.91552938164607e-001

3.99999999999998e+004,-1.82281960041281e+001,-3.96990787014257e-001

4.05583791916010e+004,-1.82282315991364e+001,-4.02503380507336e-001

4.11245530662425e+004,-1.82282681631856e+001,-4.08091714349403e-001

4.16986304336447e+004,-1.82283057217586e+001,-4.13756796244979e-001

4.22807216224550e+004,-1.82283443009580e+001,-4.19499645992628e-001

4.28709385014515e+004,-1.82283839275190e+001,-4.25321295577250e-001

4.34693945010421e+004,-1.82284246288206e+001,-4.31222789266665e-001

4.40762046350642e+004,-1.82284664328991e+001,-4.37205183698757e-001

4.46914855228886e+004,-1.82285093684599e+001,-4.43269547975277e-001

4.53153554118317e+004,-1.82285534648901e+001,-4.49416963748765e-001

4.59479341998812e+004,-1.82285987522711e+001,-4.55648525310918e-001

4.65893434587380e+004,-1.82286452613910e+001,-4.61965339675333e-001

4.72397064571810e+004,-1.82286930237571e+001,-4.68368526664643e-001

4.78991481847569e+004,-1.82287420716087e+001,-4.74859218988966e-001

4.85677953758016e+004,-1.82287924379290e+001,-4.81438562329255e-001

4.92457765337964e+004,-1.82288441564581e+001,-4.88107715410663e-001

4.99332219560642e+004,-1.82288972617046e+001,-4.94867850082956e-001

5.06302637588109e+004,-1.82289517889586e+001,-5.01720151390256e-001

5.13370359025159e+004,-1.82290077743031e+001,-5.08665817643201e-001

5.20536742176771e+004,-1.82290652546263e+001,-5.15706060489085e-001

5.27803164309155e+004,-1.82291242676333e+001,-5.22842104974986e-001

5.35171021914442e+004,-1.82291848518578e+001,-5.30075189613750e-001

5.42641730979066e+004,-1.82292470466729e+001,-5.37406566444156e-001

5.50216727255895e+004,-1.82293108923026e+001,-5.44837501089094e-001

5.57897466540159e+004,-1.82293764298325e+001,-5.52369272810321e-001

5.65685424949235e+004,-1.82294437012204e+001,-5.60003174559535e-001

5.73582099206328e+004,-1.82295127493056e+001,-5.67740513031075e-001

5.81589006928121e+004,-1.82295836178197e+001,-5.75582608704475e-001

5.89707686916437e+004,-1.82296563513947e+001,-5.83530795890127e-001

5.97939699453972e+004,-1.82297309955723e+001,-5.91586422767185e-001

6.06286626604156e+004,-1.82298075968123e+001,-5.99750851421101e-001

6.14750072515201e+004,-1.82298862024993e+001,-6.08025457876916e-001

6.23331663728396e+004,-1.82299668609508e+001,-6.16411632128527e-001

6.32033049490698e+004,-1.82300496214228e+001,-6.24910778164618e-001

6.40855902071694e+004,-1.82301345341152e+001,-6.33524313994667e-001

6.49801917084985e+004,-1.82302216501772e+001,-6.42253671665709e-001

6.58872813814055e+004,-1.82303110217110e+001,-6.51100297278850e-001

6.68070335542691e+004,-1.82304027017744e+001,-6.60065651003368e-001

6.77396249890018e+004,-1.82304967443835e+001,-6.69151207086575e-001

6.86852349150199e+004,-1.82305932045133e+001,-6.78358453857326e-001

6.96440450636895e+004,-1.82306921380978e+001,-6.87688893733167e-001

7.06162397032520e+004,-1.82307936020288e+001,-6.97144043216463e-001

7.16020056742374e+004,-1.82308976541535e+001,-7.06725432891662e-001

7.26015324253724e+004,-1.82310043532702e+001,-7.16434607421562e-001

7.36150120499896e+004,-1.82311137591241e+001,-7.26273125534475e-001

7.46426393229441e+004,-1.82312259323997e+001,-7.36242560016167e-001

7.56846117380472e+004,-1.82313409347134e+001,-7.46344497692114e-001

7.67411295460207e+004,-1.82314588286030e+001,-7.56580539414062e-001

7.78123957929823e+004,-1.82315796775167e+001,-7.66952300039016e-001

7.88986163594682e+004,-1.82317035457999e+001,-7.77461408409350e-001

7.99999999999995e+004,-1.82318304986794e+001,-7.88109507332868e-001

8.11167583832018e+004,-1.82319606022467e+001,-7.98898253557398e-001

8.22491061324848e+004,-1.82320939234389e+001,-8.09829317748003e-001

8.33972608672892e+004,-1.82322305300166e+001,-8.20904384463360e-001

8.45614432449099e+004,-1.82323704905412e+001,-8.32125152131448e-001

8.57418770029029e+004,-1.82325138743482e+001,-8.43493333025843e-001

8.69387890020841e+004,-1.82326607515191e+001,-8.55010653242894e-001

8.81524092701283e+004,-1.82328111928504e+001,-8.66678852682943e-001

8.93829710457770e+004,-1.82329652698197e+001,-8.78499685029254e-001

9.06307108236633e+004,-1.82331230545500e+001,-8.90474917735328e-001

9.18958683997622e+004,-1.82332846197699e+001,-9.02606332009706e-001

9.31786869174758e+004,-1.82334500387720e+001,-9.14895722812068e-001

9.44794129143618e+004,-1.82336193853676e+001,-9.27344898848362e-001

9.57982963695136e+004,-1.82337927338385e+001,-9.39955682576068e-001

9.71355907516031e+004,-1.82339701588860e+001,-9.52729910214670e-001

9.84915530675926e+004,-1.82341517355757e+001,-9.65669431763865e-001

9.98664439121282e+004,-1.82343375392801e+001,-9.78776111032586e-001

1.01260527517622e+005,-1.82345276456168e+001,-9.92051825676241e-001

1.02674071805032e+005,-1.82347221303836e+001,-1.00549846724683e+000

1.04107348435354e+005,-1.82349210694906e+001,-1.01911794125258e+000

1.05560632861831e+005,-1.82351245388871e+001,-1.03291216723733e+000

1.07034204382888e+005,-1.82353326144867e+001,-1.04688307886721e+000

1.08528346195813e+005,-1.82355453720872e+001,-1.06103262404072e+000

1.10043345451179e+005,-1.82357628872875e+001,-1.07536276501224e+000

1.11579493308032e+005,-1.82359852354006e+001,-1.08987547853748e+000

1.13137084989847e+005,-1.82362124913623e+001,-1.10457275603954e+000

1.14716419841265e+005,-1.82364447296365e+001,-1.11945660379664e+000

1.16317801385624e+005,-1.82366820241171e+001,-1.13452904315540e+000

1.17941537383287e+005,-1.82369244480244e+001,-1.14979211077054e+000

1.19587939890794e+005,-1.82371720738003e+001,-1.16524785886996e+000

1.21257325320831e+005,-1.82374249729967e+001,-1.18089835555472e+000

1.22950014503040e+005,-1.82376832161633e+001,-1.19674568512366e+000

1.24666332745679e+005,-1.82379468727288e+001,-1.21279194843939e+000

1.26406609898139e+005,-1.82382160108812e+001,-1.22903926332246e+000

1.28171180414339e+005,-1.82384906974424e+001,-1.24548976499024e+000

1.29960383416997e+005,-1.82387709977413e+001,-1.26214560652754e+000

1.31774562762811e+005,-1.82390569754826e+001,-1.27900895940724e+000

1.33614067108538e+005,-1.82393486926130e+001,-1.29608201404632e+000

1.35479249978003e+005,-1.82396462091841e+001,-1.31336698041531e+000

1.37370469830040e+005,-1.82399495832138e+001,-1.33086608868952e+000

1.39288090127379e+005,-1.82402588705440e+001,-1.34858158995195e+000

1.41232479406504e+005,-1.82405741246968e+001,-1.36651575694997e+000

1.43204011348474e+005,-1.82408953967290e+001,-1.38467088490229e+000

1.45203064850745e+005,-1.82412227350845e+001,-1.40304929236370e+000

1.47230024099979e+005,-1.82415561854458e+001,-1.42165332214725e+000

1.49285278645888e+005,-1.82418957905846e+001,-1.44048534230339e+000

1.51369223476094e+005,-1.82422415902115e+001,-1.45954774716382e+000

1.53482259092041e+005,-1.82425936208260e+001,-1.47884295844425e+000

1.55624791585964e+005,-1.82429519155666e+001,-1.49837342641322e+000

1.57797232718936e+005,-1.82433165040615e+001,-1.51814163112589e+000

1.59999999999999e+005,-1.82436874122803e+001,-1.53815008372431e+000

1.62233516766403e+005,-1.82440646623881e+001,-1.55840132780459e+000

1.64498212264969e+005,-1.82444482726010e+001,-1.57889794085471e+000

1.66794521734578e+005,-1.82448382570441e+001,-1.59964253576093e+000

1.69122886489819e+005,-1.82452346256140e+001,-1.62063776238133e+000

1.71483754005805e+005,-1.82456373838435e+001,-1.64188630919543e+000

1.73877578004168e+005,-1.82460465327717e+001,-1.66339090501830e+000

1.76304818540256e+005,-1.82464620688188e+001,-1.68515432078906e+000

1.78765942091554e+005,-1.82468839836661e+001,-1.70717937142727e+000

1.81261421647326e+005,-1.82473122641430e+001,-1.72946891776004e+000

1.83791736799524e+005,-1.82477468921197e+001,-1.75202586851577e+000

1.86357373834951e+005,-1.82481878444079e+001,-1.77485318238909e+000

1.88958825828723e+005,-1.82486350926698e+001,-1.79795387016629e+000

1.91596592739027e+005,-1.82490886033349e+001,-1.82133099691988e+000

1.94271181503206e+005,-1.82495483375271e+001,-1.84498768426359e+000

1.96983106135185e+005,-1.82500142510004e+001,-1.86892711266698e+000

1.99732887824256e+005,-1.82504862940864e+001,-1.89315252382760e+000

2.02521055035243e+005,-1.82509644116515e+001,-1.91766722309922e+000

2.05348143610063e+005,-1.82514485430670e+001,-1.94247458196838e+000

2.08214696870707e+005,-1.82519386221902e+001,-1.96757804058268e+000

2.11121265723661e+005,-1.82524345773584e+001,-1.99298111031971e+000

2.14068408765776e+005,-1.82529363313967e+001,-2.01868737639680e+000

2.17056692391625e+005,-1.82534438016385e+001,-2.04470050051834e+000

2.20086690902357e+005,-1.82539568999599e+001,-2.07102422355251e+000

2.23158986616063e+005,-1.82544755328292e+001,-2.09766236823392e+000

2.26274169979693e+005,-1.82549996013702e+001,-2.12461884188892e+000

2.29432839682530e+005,-1.82555290014410e+001,-2.15189763917483e+000

2.32635602771247e+005,-1.82560636237270e+001,-2.17950284483310e+000

2.35883074766574e+005,-1.82566033538502e+001,-2.20743863644335e+000

2.39175879781588e+005,-1.82571480724934e+001,-2.23570928717940e+000

2.42514650641661e+005,-1.82576976555392e+001,-2.26431916855706e+000

2.45900029006080e+005,-1.82582519742253e+001,-2.29327275317102e+000

2.49332665491357e+005,-1.82588108953147e+001,-2.32257461741087e+000

2.52813219796278e+005,-1.82593742812809e+001,-2.35222944415421e+000

2.56342360828676e+005,-1.82599419905079e+001,-2.38224202542934e+000

2.59920766833993e+005,-1.82605138775054e+001,-2.41261726504039e+000

2.63549125525621e+005,-1.82610897931374e+001,-2.44336018115123e+000

2.67228134217075e+005,-1.82616695848657e+001,-2.47447590882042e+000

2.70958499956006e+005,-1.82622530970059e+001,-2.50596970248389e+000

2.74740939660078e+005,-1.82628401709966e+001,-2.53784693837776e+000

2.78576180254757e+005,-1.82634306456810e+001,-2.57011311689717e+000

2.82464958813007e+005,-1.82640243575995e+001,-2.60277386488818e+000

2.86408022696948e+005,-1.82646211412940e+001,-2.63583493786250e+000

2.90406129701488e+005,-1.82652208296213e+001,-2.66930222213884e+000

2.94460048199957e+005,-1.82658232540767e+001,-2.70318173690031e+000

2.98570557291775e+005,-1.82664282451250e+001,-2.73747963616723e+000

3.02738446952187e+005,-1.82670356325402e+001,-2.77220221068110e+000

3.06964518184081e+005,-1.82676452457502e+001,-2.80735588970082e+000

3.11249583171928e+005,-1.82682569141885e+001,-2.84294724270227e+000

3.15594465437872e+005,-1.82688704676495e+001,-2.87898298098549e+000

3.19999999999997e+005,-1.82694857366477e+001,-2.91546995918506e+000

3.24467033532806e+005,-1.82701025527793e+001,-2.95241517668415e+000

3.28996424529938e+005,-1.82707207490854e+001,-2.98982577893142e+000

3.33589043469155e+005,-1.82713401604153e+001,-3.02770905866126e+000

3.38245772979638e+005,-1.82719606237894e+001,-3.06607245701773e+000

3.42967508011610e+005,-1.82725819787605e+001,-3.10492356458359e+000

3.47755156008335e+005,-1.82732040677718e+001,-3.14427012231754e+000

3.52609637080511e+005,-1.82738267365124e+001,-3.18412002239844e+000

3.57531884183106e+005,-1.82744498342666e+001,-3.22448130898254e+000

3.62522843294651e+005,-1.82750732142591e+001,-3.26536217887592e+000

3.67583473599047e+005,-1.82756967339926e+001,-3.30677098212373e+000

3.72714747669902e+005,-1.82763202555789e+001,-3.34871622252372e+000

3.77917651657445e+005,-1.82769436460609e+001,-3.39120655806500e+000

3.83193185478053e+005,-1.82775667777267e+001,-3.43425080129821e+000

3.88542363006410e+005,-1.82781895284135e+001,-3.47785791964235e+000

3.93966212270369e+005,-1.82788117818012e+001,-3.52203703563348e+000

3.99465775648511e+005,-1.82794334276957e+001,-3.56679742712020e+000

4.05042110070485e+005,-1.82800543623000e+001,-3.61214852741060e+000

4.10696287220124e+005,-1.82806744884742e+001,-3.65809992538188e+000

4.16429393741414e+005,-1.82812937159833e+001,-3.70466136554984e+000

4.22242531447321e+005,-1.82819119617318e+001,-3.75184274811442e+000

4.28136817531551e+005,-1.82825291499860e+001,-3.79965412897930e+000

4.34113384783250e+005,-1.82831452125836e+001,-3.84810571975710e+000

4.40173381804713e+005,-1.82837600891297e+001,-3.89720788776505e+000

4.46317973232124e+005,-1.82843737271798e+001,-3.94697115601582e+000

4.52548339959385e+005,-1.82849860824099e+001,-3.99740620321326e+000

4.58865679365059e+005,-1.82855971187733e+001,-4.04852386375604e+000

4.65271205542494e+005,-1.82862068086446e+001,-4.10033512775755e+000

4.71766149533147e+005,-1.82868151329511e+001,-4.15285114108601e+000

4.78351759563174e+005,-1.82874220812917e+001,-4.20608320543337e+000

4.85029301283321e+005,-1.82880276520432e+001,-4.26004277841600e+000

4.91800058012158e+005,-1.82886318524555e+001,-4.31474147371377e+000

4.98665330982714e+005,-1.82892346987352e+001,-4.37019106125320e+000

5.05626439592555e+005,-1.82898362161181e+001,-4.42640346743792e+000

5.12684721657352e+005,-1.82904364389312e+001,-4.48339077543384e+000

5.19841533667984e+005,-1.82910354106450e+001,-4.54116522551043e+000

5.27098251051240e+005,-1.82916331839165e+001,-4.59973921544429e+000

5.34456268434150e+005,-1.82922298206233e+001,-4.65912530098924e+000

5.41916999912011e+005,-1.82928253918890e+001,-4.71933619641286e+000

