Freq.,VOut,OutRef

1.00000000000000e+004,-7.84471496721601e+000,-1.34550240213778e-001

1.01395947979003e+004,-7.84471536654051e+000,-1.36428376294502e-001

1.02811382665607e+004,-7.84471577705946e+000,-1.38332725289514e-001

1.04246576084112e+004,-7.84471619908576e+000,-1.40263652910869e-001

1.05701804056138e+004,-7.84471663294115e+000,-1.42221529965186e-001

1.07177346253629e+004,-7.84471707895595e+000,-1.44206732428679e-001

1.08673486252606e+004,-7.84471753747013e+000,-1.46219641513982e-001

1.10190511587661e+004,-7.84471800883249e+000,-1.48260643748443e-001

1.11728713807222e+004,-7.84471849340211e+000,-1.50330131041651e-001

1.13288388529580e+004,-7.84471899154775e+000,-1.52428500764438e-001

1.14869835499703e+004,-7.84471950364816e+000,-1.54556155825498e-001

1.16473358646846e+004,-7.84472003009286e+000,-1.56713504744057e-001

1.18099266142953e+004,-7.84472057128238e+000,-1.58900961728769e-001

1.19747870461893e+004,-7.84472112762792e+000,-1.61118946760172e-001

1.21419488439505e+004,-7.84472169955228e+000,-1.63367885667111e-001

1.23114441334492e+004,-7.84472228748973e+000,-1.65648210210221e-001

1.24833054890161e+004,-7.84472289188686e+000,-1.67960358161124e-001

1.26575659397028e+004,-7.84472351320249e+000,-1.70304773387977e-001

1.28342589756290e+004,-7.84472415190795e+000,-1.72681905940759e-001

1.30134185544193e+004,-7.84472480848798e+000,-1.75092212133138e-001

1.31950791077289e+004,-7.84472548344017e+000,-1.77536154634803e-001

1.33792755478611e+004,-7.84472617727616e+000,-1.80014202555072e-001

1.35660432744767e+004,-7.84472689052166e+000,-1.82526831532494e-001

1.37554181813974e+004,-7.84472762371700e+000,-1.85074523826110e-001

1.39474366635040e+004,-7.84472837741696e+000,-1.87657768409651e-001

1.41421356237309e+004,-7.84472915219194e+000,-1.90277061059118e-001

1.43395524801583e+004,-7.84472994862797e+000,-1.92932904450621e-001

1.45397251732031e+004,-7.84473076732721e+000,-1.95625808253913e-001

1.47426921729110e+004,-7.84473160890822e+000,-1.98356289231704e-001

1.49484924863494e+004,-7.84473247400653e+000,-2.01124871334997e-001

1.51571656651040e+004,-7.84473336327547e+000,-2.03932085801797e-001

1.53687518128801e+004,-7.84473427738572e+000,-2.06778471262141e-001

1.55832915932100e+004,-7.84473521702682e+000,-2.09664573834694e-001

1.58008262372675e+004,-7.84473618290690e+000,-2.12590947234260e-001

1.60213975517924e+004,-7.84473717575345e+000,-2.15558152875353e-001

1.62450479271247e+004,-7.84473819631408e+000,-2.18566759976485e-001

1.64718203453514e+004,-7.84473924535651e+000,-2.21617345671286e-001

1.67017583885674e+004,-7.84474032366956e+000,-2.24710495115045e-001

1.69349062472505e+004,-7.84474143206361e+000,-2.27846801595712e-001

1.71713087287550e+004,-7.84474257137104e+000,-2.31026866646374e-001

1.74110112659224e+004,-7.84474374244678e+000,-2.34251300159567e-001

1.76540599258131e+004,-7.84474494616925e+000,-2.37520720500129e-001

1.79005014185594e+004,-7.84474618344042e+000,-2.40835754624503e-001

1.81503831063432e+004,-7.84474745518693e+000,-2.44197038196786e-001

1.84037530124975e+004,-7.84474876236035e+000,-2.47605215710464e-001

1.86606598307361e+004,-7.84475010593839e+000,-2.51060940606000e-001

1.89211529345119e+004,-7.84475148692489e+000,-2.54564875398297e-001

1.91852823865052e+004,-7.84475290635060e+000,-2.58117691800798e-001

1.94530989482457e+004,-7.84475436527461e+000,-2.61720070847253e-001

1.97246540898671e+004,-7.84475586478407e+000,-2.65372703025338e-001

1.99999999999999e+004,-7.84475740599591e+000,-2.69076288400543e-001

2.02791895958005e+004,-7.84475899005640e+000,-2.72831536755191e-001

2.05622765331213e+004,-7.84476061814330e+000,-2.76639167712398e-001

2.08493152168224e+004,-7.84476229146527e+000,-2.80499910879467e-001

2.11403608112276e+004,-7.84476401126393e+000,-2.84414505977279e-001

2.14354692507258e+004,-7.84476577881348e+000,-2.88383702985339e-001

2.17346972505211e+004,-7.84476759542278e+000,-2.92408262274765e-001

2.20381023175322e+004,-7.84476946243508e+000,-2.96488954757482e-001

2.23457427614443e+004,-7.84477138122962e+000,-3.00626562025460e-001

2.26576777059159e+004,-7.84477335322210e+000,-3.04821876498624e-001

2.29739670999406e+004,-7.84477537986596e+000,-3.09075701571383e-001

2.32946717293690e+004,-7.84477746265305e+000,-3.13388851762955e-001

2.36198532285905e+004,-7.84477960311468e+000,-3.17762152868481e-001

2.39495740923785e+004,-7.84478180282231e+000,-3.22196442114550e-001

2.42838976879009e+004,-7.84478406338906e+000,-3.26692568311612e-001

2.46228882668982e+004,-7.84478638647048e+000,-3.31251392012859e-001

2.49666109780322e+004,-7.84478877376531e+000,-3.35873785674945e-001

2.53151318794055e+004,-7.84479122701685e+000,-3.40560633818317e-001

2.56685179512580e+004,-7.84479374801397e+000,-3.45312833191189e-001

2.60268371088386e+004,-7.84479633859205e+000,-3.50131292935921e-001

2.63901582154578e+004,-7.84479900063427e+000,-3.55016934755922e-001

2.67585510957221e+004,-7.84480173607254e+000,-3.59970693087295e-001

2.71320865489533e+004,-7.84480454688918e+000,-3.64993515267610e-001

2.75108363627948e+004,-7.84480743511695e+000,-3.70086361716730e-001

2.78948733270080e+004,-7.84481040284150e+000,-3.75250206106647e-001

2.82842712474618e+004,-7.84481345220183e+000,-3.80486035544510e-001

2.86791049603164e+004,-7.84481658539189e+000,-3.85794850751151e-001

2.90794503464061e+004,-7.84481980466116e+000,-3.91177666249242e-001

2.94853843458219e+004,-7.84482311231686e+000,-3.96635510542569e-001

2.98969849726987e+004,-7.84482651072450e+000,-4.02169426308551e-001

3.03143313302078e+004,-7.84483000230968e+000,-4.07780470586653e-001

3.07375036257601e+004,-7.84483358955873e+000,-4.13469714973723e-001

3.11665831864199e+004,-7.84483727502100e+000,-4.19238245814238e-001

3.16016524745350e+004,-7.84484106130910e+000,-4.25087164404599e-001

3.20427951035848e+004,-7.84484495110139e+000,-4.31017587185917e-001

3.24900958542493e+004,-7.84484894714228e+000,-4.37030645953631e-001

3.29436406907028e+004,-7.84485305224459e+000,-4.43127488055965e-001

3.34035167771346e+004,-7.84485726929016e+000,-4.49309276606838e-001

3.38698124945009e+004,-7.84486160123168e+000,-4.55577190692566e-001

3.43426174575100e+004,-7.84486605109438e+000,-4.61932425584270e-001

3.48220225318448e+004,-7.84487062197672e+000,-4.68376192956271e-001

3.53081198516260e+004,-7.84487531705244e+000,-4.74909721100422e-001

3.58010028371187e+004,-7.84488013957175e+000,-4.81534255148803e-001

3.63007662126863e+004,-7.84488509286303e+000,-4.88251057294470e-001

3.68075060249948e+004,-7.84489018033381e+000,-4.95061407020993e-001

3.73213196614721e+004,-7.84489540547297e+000,-5.01966601325220e-001

3.78423058690237e+004,-7.84490077185156e+000,-5.08967954953916e-001

3.83705647730104e+004,-7.84490628312452e+000,-5.16066800634607e-001

3.89061978964912e+004,-7.84491194303209e+000,-5.23264489313337e-001

3.94493081797342e+004,-7.84491775540120e+000,-5.30562390394388e-001

3.99999999999998e+004,-7.84492372414751e+000,-5.37961891979014e-001

4.05583791916010e+004,-7.84492985327557e+000,-5.45464401117936e-001

4.11245530662425e+004,-7.84493614688167e+000,-5.53071344050789e-001

4.16986304336447e+004,-7.84494260915417e+000,-5.60784166463937e-001

4.22807216224550e+004,-7.84494924437556e+000,-5.68604333739344e-001

4.28709385014515e+004,-7.84495605692347e+000,-5.76533331213648e-001

4.34693945010421e+004,-7.84496305127196e+000,-5.84572664438214e-001

4.40762046350642e+004,-7.84497023199309e+000,-5.92723859440364e-001

4.46914855228886e+004,-7.84497760375800e+000,-6.00988462989099e-001

4.53153554118317e+004,-7.84498517133806e+000,-6.09368042865276e-001

4.59479341998812e+004,-7.84499293960619e+000,-6.17864188132076e-001

4.65893434587380e+004,-7.84500091353803e+000,-6.26478509409076e-001

4.72397064571810e+004,-7.84500909821268e+000,-6.35212639153061e-001

4.78991481847569e+004,-7.84501749881405e+000,-6.44068231936115e-001

4.85677953758016e+004,-7.84502612063164e+000,-6.53046964731245e-001

4.92457765337964e+004,-7.84503496906140e+000,-6.62150537199856e-001

4.99332219560642e+004,-7.84504404960666e+000,-6.71380671981347e-001

5.06302637588109e+004,-7.84505336787832e+000,-6.80739114989932e-001

5.13370359025159e+004,-7.84506292959628e+000,-6.90227635706881e-001

5.20536742176771e+004,-7.84507274058895e+000,-6.99848027487236e-001

5.27803164309155e+004,-7.84508280679459e+000,-7.09602107857693e-001

5.35171021914442e+004,-7.84509313426065e+000,-7.19491718828791e-001

5.42641730979066e+004,-7.84510372914462e+000,-7.29518727202187e-001

5.50216727255895e+004,-7.84511459771349e+000,-7.39685024886999e-001

5.57897466540159e+004,-7.84512574634402e+000,-7.49992529215634e-001

5.65685424949235e+004,-7.84513718152200e+000,-7.60443183266935e-001

5.73582099206328e+004,-7.84514890984204e+000,-7.71038956188893e-001

5.81589006928121e+004,-7.84516093800656e+000,-7.81781843529456e-001

5.89707686916437e+004,-7.84517327282531e+000,-7.92673867566046e-001

5.97939699453972e+004,-7.84518592121391e+000,-8.03717077643143e-001

6.06286626604156e+004,-7.84519889019285e+000,-8.14913550509945e-001

6.14750072515201e+004,-7.84521218688544e+000,-8.26265390666899e-001

6.23331663728396e+004,-7.84522581851650e+000,-8.37774730709966e-001

6.32033049490698e+004,-7.84523979241010e+000,-8.49443731681940e-001

6.40855902071694e+004,-7.84525411598703e+000,-8.61274583429946e-001

6.49801917084985e+004,-7.84526879676240e+000,-8.73269504961818e-001

6.58872813814055e+004,-7.84528384234235e+000,-8.85430744812073e-001

6.68070335542691e+004,-7.84529926042114e+000,-8.97760581406672e-001

6.77396249890018e+004,-7.84531505877695e+000,-9.10261323437993e-001

6.86852349150199e+004,-7.84533124526836e+000,-9.22935310238118e-001

6.96440450636895e+004,-7.84534782782956e+000,-9.35784912161426e-001

7.06162397032520e+004,-7.84536481446570e+000,-9.48812530968490e-001

7.16020056742374e+004,-7.84538221324737e+000,-9.62020600217610e-001

7.26015324253724e+004,-7.84540003230505e+000,-9.75411585658255e-001

7.36150120499896e+004,-7.84541827982289e+000,-9.88987985630021e-001

7.46426393229441e+004,-7.84543696403189e+000,-1.00275233146869e+000

7.56846117380472e+004,-7.84545609320272e+000,-1.01670718791450e+000

7.67411295460207e+004,-7.84547567563783e+000,-1.03085515352813e+000

7.78123957929823e+004,-7.84549571966323e+000,-1.04519886110980e+000

7.88986163594682e+004,-7.84551623361935e+000,-1.05974097812581e+000

7.99999999999995e+004,-7.84553722585145e+000,-1.07448420714041e+000

8.11167583832018e+004,-7.84555870469951e+000,-1.08943128625225e+000

8.22491061324848e+004,-7.84558067848725e+000,-1.10458498953733e+000

8.33972608672892e+004,-7.84560315551019e+000,-1.11994812750165e+000

8.45614432449099e+004,-7.84562614402384e+000,-1.13552354753301e+000

8.57418770029029e+004,-7.84564965222996e+000,-1.15131413436740e+000

8.69387890020841e+004,-7.84567368826295e+000,-1.16732281055692e+000

8.81524092701283e+004,-7.84569826017501e+000,-1.18355253694692e+000

8.93829710457770e+004,-7.84572337592044e+000,-1.20000631316050e+000

9.06307108236633e+004,-7.84574904333937e+000,-1.21668717808910e+000

9.18958683997622e+004,-7.84577527013998e+000,-1.23359821039395e+000

9.31786869174758e+004,-7.84580206388048e+000,-1.25074252901264e+000

9.44794129143618e+004,-7.84582943194976e+000,-1.26812329367499e+000

9.57982963695136e+004,-7.84585738154665e+000,-1.28574370543087e+000

9.71355907516031e+004,-7.84588591965911e+000,-1.30360700718180e+000

9.84915530675926e+004,-7.84591505304162e+000,-1.32171648422551e+000

9.98664439121282e+004,-7.84594478819161e+000,-1.34007546481024e+000

1.01260527517622e+005,-7.84597513132486e+000,-1.35868732069921e+000

1.02674071805032e+005,-7.84600608835007e+000,-1.37755546774315e+000

1.04107348435354e+005,-7.84603766484140e+000,-1.39668336646888e+000

1.05560632861831e+005,-7.84606986601121e+000,-1.41607452267335e+000

1.07034204382888e+005,-7.84610269667995e+000,-1.43573248803611e+000

1.08528346195813e+005,-7.84613616124625e+000,-1.45566086073829e+000

1.10043345451179e+005,-7.84617026365491e+000,-1.47586328609883e+000

1.11579493308032e+005,-7.84620500736412e+000,-1.49634345722112e+000

1.13137084989847e+005,-7.84624039531095e+000,-1.51710511565574e+000

1.14716419841265e+005,-7.84627642987588e+000,-1.53815205207731e+000

1.16317801385624e+005,-7.84631311284613e+000,-1.55948810697428e+000

1.17941537383287e+005,-7.84635044537727e+000,-1.58111717135708e+000

1.19587939890794e+005,-7.84638842795392e+000,-1.60304318748124e+000

1.21257325320831e+005,-7.84642706034903e+000,-1.62527014958647e+000

1.22950014503040e+005,-7.84646634158164e+000,-1.64780210465484e+000

1.24666332745679e+005,-7.84650626987374e+000,-1.67064315318565e+000

1.26406609898139e+005,-7.84654684260551e+000,-1.69379744998937e+000

1.28171180414339e+005,-7.84658805626947e+000,-1.71726920500087e+000

1.29960383416997e+005,-7.84662990642330e+000,-1.74106268411242e+000

1.31774562762811e+005,-7.84667238764157e+000,-1.76518221002707e+000

1.33614067108538e+005,-7.84671549346585e+000,-1.78963216313481e+000

1.35479249978003e+005,-7.84675921635446e+000,-1.81441698240777e+000

1.37370469830040e+005,-7.84680354763012e+000,-1.83954116632061e+000

1.39288090127379e+005,-7.84684847742723e+000,-1.86500927379278e+000

1.41232479406504e+005,-7.84689399463781e+000,-1.89082592515593e+000

1.43204011348474e+005,-7.84694008685666e+000,-1.91699580314297e+000

1.45203064850745e+005,-7.84698674032506e+000,-1.94352365390755e+000

1.47230024099979e+005,-7.84703393987453e+000,-1.97041428806298e+000

1.49285278645888e+005,-7.84708166886885e+000,-1.99767258175297e+000

1.51369223476094e+005,-7.84712990914595e+000,-2.02530347774706e+000

1.53482259092041e+005,-7.84717864095905e+000,-2.05331198656301e+000

1.55624791585964e+005,-7.84722784291705e+000,-2.08170318761971e+000

1.57797232718936e+005,-7.84727749192474e+000,-2.11048223041716e+000

1.59999999999999e+005,-7.84732756312261e+000,-2.13965433574533e+000

1.62233516766403e+005,-7.84737802982595e+000,-2.16922479692547e+000

1.64498212264969e+005,-7.84742886346472e+000,-2.19919898107726e+000

1.66794521734578e+005,-7.84748003352240e+000,-2.22958233042133e+000

1.69122886489819e+005,-7.84753150747559e+000,-2.26038036360856e+000

1.71483754005805e+005,-7.84758325073336e+000,-2.29159867708466e+000

1.73877578004168e+005,-7.84763522657750e+000,-2.32324294648114e+000

1.76304818540256e+005,-7.84768739610241e+000,-2.35531892804372e+000

1.78765942091554e+005,-7.84773971815641e+000,-2.38783246008791e+000

1.81261421647326e+005,-7.84779214928301e+000,-2.42078946448960e+000

1.83791736799524e+005,-7.84784464366358e+000,-2.45419594820563e+000

1.86357373834951e+005,-7.84789715306068e+000,-2.48805800482796e+000

1.88958825828723e+005,-7.84794962676257e+000,-2.52238181616776e+000

1.91596592739027e+005,-7.84800201152887e+000,-2.55717365387345e+000

1.94271181503206e+005,-7.84805425153773e+000,-2.59243988107886e+000

1.96983106135185e+005,-7.84810628833443e+000,-2.62818695408136e+000

1.99732887824256e+005,-7.84815806078143e+000,-2.66442142405346e+000

2.02521055035243e+005,-7.84820950501024e+000,-2.70114993878378e+000

2.05348143610063e+005,-7.84826055437518e+000,-2.73837924444578e+000

2.08214696870707e+005,-7.84831113940910e+000,-2.77611618739857e+000

2.11121265723661e+005,-7.84836118778073e+000,-2.81436771601543e+000

2.14068408765776e+005,-7.84841062425480e+000,-2.85314088253893e+000

2.17056692391625e+005,-7.84845937065386e+000,-2.89244284496450e+000

2.20086690902357e+005,-7.84850734582254e+000,-2.93228086895046e+000

2.23158986616063e+005,-7.84855446559401e+000,-2.97266232975305e+000

2.26274169979693e+005,-7.84860064275906e+000,-3.01359471418513e+000

2.29432839682530e+005,-7.84864578703733e+000,-3.05508562259969e+000

2.32635602771247e+005,-7.84868980505111e+000,-3.09714277089531e+000

2.35883074766574e+005,-7.84873260030149e+000,-3.13977399254276e+000

2.39175879781588e+005,-7.84877407314699e+000,-3.18298724063236e+000

2.42514650641661e+005,-7.84881412078440e+000,-3.22679058994104e+000

2.45900029006080e+005,-7.84885263723233e+000,-3.27119223901597e+000

2.49332665491357e+005,-7.84888951331650e+000,-3.31620051227774e+000

2.52813219796278e+005,-7.84892463665786e+000,-3.36182386213675e+000

2.56342360828676e+005,-7.84895789166228e+000,-3.40807087112615e+000

2.59920766833993e+005,-7.84898915951254e+000,-3.45495025404889e+000

2.63549125525621e+005,-7.84901831816212e+000,-3.50247086013591e+000

2.67228134217075e+005,-7.84904524233073e+000,-3.55064167521714e+000

2.70958499956006e+005,-7.84906980350117e+000,-3.59947182390368e+000

2.74740939660078e+005,-7.84909186991814e+000,-3.64897057177839e+000

2.78576180254757e+005,-7.84911130658747e+000,-3.69914732759691e+000

2.82464958813007e+005,-7.84912797527677e+000,-3.75001164549714e+000

2.86408022696948e+005,-7.84914173451685e+000,-3.80157322721433e+000

2.90406129701488e+005,-7.84915243960342e+000,-3.85384192430532e+000

2.94460048199957e+005,-7.84915994259901e+000,-3.90682774037917e+000

2.98570557291775e+005,-7.84916409233507e+000,-3.96054083333236e+000

3.02738446952187e+005,-7.84916473441335e+000,-4.01499151759230e+000

3.06964518184081e+005,-7.84916171120721e+000,-4.07019026636402e+000

3.11249583171928e+005,-7.84915486186135e+000,-4.12614771388531e+000

3.15594465437872e+005,-7.84914402229092e+000,-4.18287465768561e+000

3.19999999999997e+005,-7.84912902517861e+000,-4.24038206085222e+000

3.24467033532806e+005,-7.84910969997003e+000,-4.29868105430326e+000

3.28996424529938e+005,-7.84908587286703e+000,-4.35778293906630e+000

3.33589043469155e+005,-7.84905736681821e+000,-4.41769918856610e+000

3.38245772979638e+005,-7.84902400150674e+000,-4.47844145092088e+000

3.42967508011610e+005,-7.84898559333481e+000,-4.54002155124752e+000

3.47755156008335e+005,-7.84894195540498e+000,-4.60245149397626e+000

3.52609637080511e+005,-7.84889289749702e+000,-4.66574346518007e+000

3.57531884183106e+005,-7.84883822604106e+000,-4.72990983491535e+000

3.62522843294651e+005,-7.84877774408628e+000,-4.79496315957622e+000

3.67583473599047e+005,-7.84871125126446e+000,-4.86091618426740e+000

3.72714747669902e+005,-7.84863854374860e+000,-4.92778184519464e+000

3.77917651657445e+005,-7.84855941420645e+000,-4.99557327207291e+000

3.83193185478053e+005,-7.84847365174787e+000,-5.06430379055907e+000

3.88542363006410e+005,-7.84838104186661e+000,-5.13398692470725e+000

3.93966212270369e+005,-7.84828136637593e+000,-5.20463639945075e+000

3.99465775648511e+005,-7.84817440333748e+000,-5.27626614311152e+000

4.05042110070485e+005,-7.84805992698396e+000,-5.34889028994112e+000

4.10696287220124e+005,-7.84793770763461e+000,-5.42252318269460e+000

4.16429393741414e+005,-7.84780751160370e+000,-5.49717937524028e+000

4.22242531447321e+005,-7.84766910110188e+000,-5.57287363520692e+000

4.28136817531551e+005,-7.84752223413009e+000,-5.64962094667225e+000

4.34113384783250e+005,-7.84736666436562e+000,-5.72743651289542e+000

4.40173381804713e+005,-7.84720214104090e+000,-5.80633575909437e+000

4.46317973232124e+005,-7.84702840881413e+000,-5.88633433527266e+000

4.52548339959385e+005,-7.84684520763201e+000,-5.96744811909822e+000

4.58865679365059e+005,-7.84665227258448e+000,-6.04969321883558e+000

4.65271205542494e+005,-7.84644933375119e+000,-6.13308597633581e+000

4.71766149533147e+005,-7.84623611603993e+000,-6.21764297008601e+000

4.78351759563174e+005,-7.84601233901656e+000,-6.30338101832122e+000

4.85029301283321e+005,-7.84577771672673e+000,-6.39031718220195e+000

4.91800058012158e+005,-7.84553195750912e+000,-6.47846876906071e+000

4.98665330982714e+005,-7.84527476380029e+000,-6.56785333571673e+000

5.05626439592555e+005,-7.84500583193122e+000,-6.65848869186709e+000

5.12684721657352e+005,-7.84472485191503e+000,-6.75039290355315e+000

5.19841533667984e+005,-7.84443150722660e+000,-6.84358429670497e+000

5.27098251051240e+005,-7.84412547457344e+000,-6.93808146076886e+000

5.34456268434150e+005,-7.84380642365815e+000,-7.03390325241813e+000

5.41916999912011e+005,-7.84347401693248e+000,-7.13106879935126e+000

