Freq.,VOut,OutRef

1.00000000000000e+004,-2.39749342260862e+001,-2.48799749687782e-001

1.01395947979003e+004,-2.39749376867117e+001,-2.52272270322124e-001

1.02811382665607e+004,-2.39749412444666e+001,-2.55793240328727e-001

1.04246576084112e+004,-2.39749449020720e+001,-2.59363334968859e-001

1.05701804056138e+004,-2.39749486623256e+001,-2.62983238881891e-001

1.07177346253629e+004,-2.39749525281029e+001,-2.66653646220445e-001

1.08673486252606e+004,-2.39749565023595e+001,-2.70375260776870e-001

1.10190511587661e+004,-2.39749605881337e+001,-2.74148796115977e-001

1.11728713807222e+004,-2.39749647885488e+001,-2.77974975710787e-001

1.13288388529580e+004,-2.39749691068146e+001,-2.81854533078920e-001

1.14869835499703e+004,-2.39749735462308e+001,-2.85788211919850e-001

1.16473358646846e+004,-2.39749781101891e+001,-2.89776766252349e-001

1.18099266142953e+004,-2.39749828021756e+001,-2.93820960560123e-001

1.19747870461893e+004,-2.39749876257737e+001,-2.97921569932020e-001

1.21419488439505e+004,-2.39749925846665e+001,-3.02079380209343e-001

1.23114441334492e+004,-2.39749976826397e+001,-3.06295188131227e-001

1.24833054890161e+004,-2.39750029235844e+001,-3.10569801485327e-001

1.26575659397028e+004,-2.39750083115002e+001,-3.14904039257454e-001

1.28342589756290e+004,-2.39750138504977e+001,-3.19298731787688e-001

1.30134185544193e+004,-2.39750195448022e+001,-3.23754720920900e-001

1.31950791077289e+004,-2.39750253987561e+001,-3.28272860168022e-001

1.33792755478611e+004,-2.39750314168230e+001,-3.32854014861783e-001

1.35660432744767e+004,-2.39750376035902e+001,-3.37499062321415e-001

1.37554181813974e+004,-2.39750439637726e+001,-3.42208892013299e-001

1.39474366635040e+004,-2.39750505022164e+001,-3.46984405716308e-001

1.41421356237309e+004,-2.39750572239017e+001,-3.51826517691908e-001

1.43395524801583e+004,-2.39750641339474e+001,-3.56736154852120e-001

1.45397251732031e+004,-2.39750712376140e+001,-3.61714256930527e-001

1.47426921729110e+004,-2.39750785403086e+001,-3.66761776657611e-001

1.49484924863494e+004,-2.39750860475875e+001,-3.71879679937862e-001

1.51571656651040e+004,-2.39750937651613e+001,-3.77068946026881e-001

1.53687518128801e+004,-2.39751016988989e+001,-3.82330567712954e-001

1.55832915932100e+004,-2.39751098548316e+001,-3.87665551499969e-001

1.58008262372675e+004,-2.39751182391577e+001,-3.93074917792435e-001

1.60213975517924e+004,-2.39751268582472e+001,-3.98559701084338e-001

1.62450479271247e+004,-2.39751357186459e+001,-4.04120950148956e-001

1.64718203453514e+004,-2.39751448270808e+001,-4.09759728231312e-001

1.67017583885674e+004,-2.39751541904649e+001,-4.15477113242141e-001

1.69349062472505e+004,-2.39751638159018e+001,-4.21274197957729e-001

1.71713087287550e+004,-2.39751737106917e+001,-4.27152090216256e-001

1.74110112659224e+004,-2.39751838823354e+001,-4.33111913125149e-001

1.76540599258131e+004,-2.39751943385415e+001,-4.39154805259804e-001

1.79005014185594e+004,-2.39752050872304e+001,-4.45281920875993e-001

1.81503831063432e+004,-2.39752161365410e+001,-4.51494430116492e-001

1.84037530124975e+004,-2.39752274948358e+001,-4.57793519227336e-001

1.86606598307361e+004,-2.39752391707080e+001,-4.64180390766646e-001

1.89211529345119e+004,-2.39752511729867e+001,-4.70656263829009e-001

1.91852823865052e+004,-2.39752635107437e+001,-4.77222374261724e-001

1.94530989482457e+004,-2.39752761932999e+001,-4.83879974887909e-001

1.97246540898671e+004,-2.39752892302318e+001,-4.90630335734249e-001

1.99999999999999e+004,-2.39753026313792e+001,-4.97474744255915e-001

2.02791895958005e+004,-2.39753164068506e+001,-5.04414505571822e-001

2.05622765331213e+004,-2.39753305670321e+001,-5.11450942693879e-001

2.08493152168224e+004,-2.39753451225936e+001,-5.18585396765888e-001

2.11403608112276e+004,-2.39753600844967e+001,-5.25819227302915e-001

2.14354692507258e+004,-2.39753754640029e+001,-5.33153812431710e-001

2.17346972505211e+004,-2.39753912726807e+001,-5.40590549136026e-001

2.20381023175322e+004,-2.39754075224142e+001,-5.48130853505761e-001

2.23457427614443e+004,-2.39754242254117e+001,-5.55776160984448e-001

2.26576777059159e+004,-2.39754413942136e+001,-5.63527926623630e-001

2.29739670999406e+004,-2.39754590417014e+001,-5.71387625340622e-001

2.32946717293690e+004,-2.39754771811070e+001,-5.79356752175289e-001

2.36198532285905e+004,-2.39754958260213e+001,-5.87436822551162e-001

2.39495740923785e+004,-2.39755149904039e+001,-5.95629372543802e-001

2.42838976879009e+004,-2.39755346885929e+001,-6.03935959142902e-001

2.46228882668982e+004,-2.39755549353142e+001,-6.12358160527661e-001

2.49666109780322e+004,-2.39755757456919e+001,-6.20897576338729e-001

2.53151318794055e+004,-2.39755971352588e+001,-6.29555827952330e-001

2.56685179512580e+004,-2.39756191199668e+001,-6.38334558761508e-001

2.60268371088386e+004,-2.39756417161972e+001,-6.47235434458836e-001

2.63901582154578e+004,-2.39756649407725e+001,-6.56260143320260e-001

2.67585510957221e+004,-2.39756888109674e+001,-6.65410396492714e-001

2.71320865489533e+004,-2.39757133445203e+001,-6.74687928286770e-001

2.75108363627948e+004,-2.39757385596451e+001,-6.84094496469309e-001

2.78948733270080e+004,-2.39757644750434e+001,-6.93631882560951e-001

2.82842712474618e+004,-2.39757911099169e+001,-7.03301892135301e-001

2.86791049603164e+004,-2.39758184839797e+001,-7.13106355122817e-001

2.90794503464061e+004,-2.39758466174716e+001,-7.23047126115996e-001

2.94853843458219e+004,-2.39758755311709e+001,-7.33126084677742e-001

2.98969849726987e+004,-2.39759052464084e+001,-7.43345135652622e-001

3.03143313302078e+004,-2.39759357850804e+001,-7.53706209483319e-001

3.07375036257601e+004,-2.39759671696637e+001,-7.64211262525042e-001

3.11665831864199e+004,-2.39759994232290e+001,-7.74862277368751e-001

3.16016524745350e+004,-2.39760325694561e+001,-7.85661263162382e-001

3.20427951035848e+004,-2.39760666326486e+001,-7.96610255938204e-001

3.24900958542493e+004,-2.39761016377492e+001,-8.07711318941414e-001

3.29436406907028e+004,-2.39761376103554e+001,-8.18966542961072e-001

3.34035167771346e+004,-2.39761745767351e+001,-8.30378046665586e-001

3.38698124945009e+004,-2.39762125638426e+001,-8.41947976940155e-001

3.43426174575100e+004,-2.39762515993358e+001,-8.53678509225971e-001

3.48220225318448e+004,-2.39762917115921e+001,-8.65571847864229e-001

3.53081198516260e+004,-2.39763329297259e+001,-8.77630226440980e-001

3.58010028371187e+004,-2.39763752836059e+001,-8.89855908135726e-001

3.63007662126863e+004,-2.39764188038730e+001,-9.02251186071857e-001

3.68075060249948e+004,-2.39764635219580e+001,-9.14818383671433e-001

3.73213196614721e+004,-2.39765094701001e+001,-9.27559855009546e-001

3.78423058690237e+004,-2.39765566813656e+001,-9.40477985174326e-001

3.83705647730104e+004,-2.39766051896666e+001,-9.53575190627228e-001

3.89061978964912e+004,-2.39766550297806e+001,-9.66853919567615e-001

3.94493081797342e+004,-2.39767062373694e+001,-9.80316652297587e-001

3.99999999999998e+004,-2.39767588490000e+001,-9.93965901591067e-001

4.05583791916010e+004,-2.39768129021634e+001,-1.00780421306460e+000

4.11245530662425e+004,-2.39768684352963e+001,-1.02183416555026e+000

4.16986304336447e+004,-2.39769254878009e+001,-1.03605837146958e+000

4.22807216224550e+004,-2.39769841000663e+001,-1.05047947721337e+000

4.28709385014515e+004,-2.39770443134898e+001,-1.06510016351833e+000

4.34693945010421e+004,-2.39771061704980e+001,-1.07992314585123e+000

4.40762046350642e+004,-2.39771697145691e+001,-1.09495117479020e+000

4.46914855228886e+004,-2.39772349902546e+001,-1.11018703641097e+000

4.53153554118317e+004,-2.39773020432014e+001,-1.12563355267460e+000

4.59479341998812e+004,-2.39773709201747e+001,-1.14129358181573e+000

4.65893434587380e+004,-2.39774416690801e+001,-1.15717001873393e+000

4.72397064571810e+004,-2.39775143389870e+001,-1.17326579538601e+000

4.78991481847569e+004,-2.39775889801514e+001,-1.18958388117972e+000

4.85677953758016e+004,-2.39776656440388e+001,-1.20612728337007e+000

4.92457765337964e+004,-2.39777443833479e+001,-1.22289904745632e+000

4.99332219560642e+004,-2.39778252520341e+001,-1.23990225757991e+000

5.06302637588109e+004,-2.39779083053325e+001,-1.25714003692524e+000

5.13370359025159e+004,-2.39779935997823e+001,-1.27461554811957e+000

5.20536742176771e+004,-2.39780811932497e+001,-1.29233199363766e+000

5.27803164309155e+004,-2.39781711449520e+001,-1.31029261620331e+000

5.35171021914442e+004,-2.39782635154813e+001,-1.32850069919442e+000

5.42641730979066e+004,-2.39783583668281e+001,-1.34695956704979e+000

5.50216727255895e+004,-2.39784557624047e+001,-1.36567258567534e+000

5.57897466540159e+004,-2.39785557670690e+001,-1.38464316285190e+000

5.65685424949235e+004,-2.39786584471476e+001,-1.40387474864368e+000

5.73582099206328e+004,-2.39787638704591e+001,-1.42337083580877e+000

5.81589006928121e+004,-2.39788721063371e+001,-1.44313496020832e+000

5.89707686916437e+004,-2.39789832256528e+001,-1.46317070121925e+000

5.97939699453972e+004,-2.39790973008377e+001,-1.48348168214552e+000

6.06286626604156e+004,-2.39792144059051e+001,-1.50407157063205e+000

6.14750072515201e+004,-2.39793346164725e+001,-1.52494407907733e+000

6.23331663728396e+004,-2.39794580097824e+001,-1.54610296504889e+000

6.32033049490698e+004,-2.39795846647231e+001,-1.56755203169907e+000

6.40855902071694e+004,-2.39797146618489e+001,-1.58929512818072e+000

6.49801917084985e+004,-2.39798480833998e+001,-1.61133615006564e+000

6.58872813814055e+004,-2.39799850133201e+001,-1.63367903976237e+000

6.68070335542691e+004,-2.39801255372769e+001,-1.65632778693565e+000

6.77396249890018e+004,-2.39802697426773e+001,-1.67928642892756e+000

6.86852349150199e+004,-2.39804177186849e+001,-1.70255905118049e+000

6.96440450636895e+004,-2.39805695562351e+001,-1.72614978765901e+000

7.06162397032520e+004,-2.39807253480501e+001,-1.75006282127633e+000

7.16020056742374e+004,-2.39808851886519e+001,-1.77430238432137e+000

7.26015324253724e+004,-2.39810491743748e+001,-1.79887275888762e+000

7.36150120499896e+004,-2.39812174033759e+001,-1.82377827730531e+000

7.46426393229441e+004,-2.39813899756455e+001,-1.84902332257425e+000

7.56846117380472e+004,-2.39815669930147e+001,-1.87461232880151e+000

7.67411295460207e+004,-2.39817485591624e+001,-1.90054978164167e+000

7.78123957929823e+004,-2.39819347796198e+001,-1.92684021874055e+000

7.88986163594682e+004,-2.39821257617749e+001,-1.95348823018236e+000

7.99999999999995e+004,-2.39823216148728e+001,-1.98049845894194e+000

8.11167583832018e+004,-2.39825224500162e+001,-2.00787560134226e+000

8.22491061324848e+004,-2.39827283801630e+001,-2.03562440751640e+000

8.33972608672892e+004,-2.39829395201215e+001,-2.06374968187687e+000

8.45614432449099e+004,-2.39831559865442e+001,-2.09225628358954e+000

8.57418770029029e+004,-2.39833778979185e+001,-2.12114912705759e+000

8.69387890020841e+004,-2.39836053745561e+001,-2.15043318241105e+000

8.81524092701283e+004,-2.39838385385785e+001,-2.18011347600706e+000

8.93829710457770e+004,-2.39840775139009e+001,-2.21019509093842e+000

9.06307108236633e+004,-2.39843224262134e+001,-2.24068316755412e+000

9.18958683997622e+004,-2.39845734029588e+001,-2.27158290399018e+000

9.31786869174758e+004,-2.39848305733079e+001,-2.30289955671385e+000

9.44794129143618e+004,-2.39850940681319e+001,-2.33463844108135e+000

9.57982963695136e+004,-2.39853640199715e+001,-2.36680493191012e+000

9.71355907516031e+004,-2.39856405630033e+001,-2.39940446406818e+000

9.84915530675926e+004,-2.39859238330018e+001,-2.43244253307934e+000

9.98664439121282e+004,-2.39862139672997e+001,-2.46592469574898e+000

1.01260527517622e+005,-2.39865111047436e+001,-2.49985657080797e+000

1.02674071805032e+005,-2.39868153856464e+001,-2.53424383958078e+000

1.04107348435354e+005,-2.39871269517370e+001,-2.56909224667425e+000

1.05560632861831e+005,-2.39874459461054e+001,-2.60440760069372e+000

1.07034204382888e+005,-2.39877725131444e+001,-2.64019577498501e+000

1.08528346195813e+005,-2.39881067984884e+001,-2.67646270840446e+000

1.10043345451179e+005,-2.39884489489476e+001,-2.71321440611972e+000

1.11579493308032e+005,-2.39887991124392e+001,-2.75045694044416e+000

1.13137084989847e+005,-2.39891574379142e+001,-2.78819645170429e+000

1.14716419841265e+005,-2.39895240752814e+001,-2.82643914914451e+000

1.16317801385624e+005,-2.39898991753271e+001,-2.86519131187074e+000

1.17941537383287e+005,-2.39902828896316e+001,-2.90445928983478e+000

1.19587939890794e+005,-2.39906753704822e+001,-2.94424950486212e+000

1.21257325320831e+005,-2.39910767707820e+001,-2.98456845172645e+000

1.22950014503040e+005,-2.39914872439569e+001,-3.02542269927089e+000

1.24666332745679e+005,-2.39919069438577e+001,-3.06681889158091e+000

1.26406609898139e+005,-2.39923360246607e+001,-3.10876374920967e+000

1.28171180414339e+005,-2.39927746407640e+001,-3.15126407046005e+000

1.29960383416997e+005,-2.39932229466822e+001,-3.19432673272457e+000

1.31774562762811e+005,-2.39936810969382e+001,-3.23795869388583e+000

1.33614067108538e+005,-2.39941492459526e+001,-3.28216699378034e+000

1.35479249978003e+005,-2.39946275479316e+001,-3.32695875573014e+000

1.37370469830040e+005,-2.39951161567526e+001,-3.37234118814112e+000

1.39288090127379e+005,-2.39956152258495e+001,-3.41832158617274e+000

1.41232479406504e+005,-2.39961249080958e+001,-3.46490733348356e+000

1.43204011348474e+005,-2.39966453556880e+001,-3.51210590405136e+000

1.45203064850745e+005,-2.39971767200287e+001,-3.55992486407149e+000

1.47230024099979e+005,-2.39977191516099e+001,-3.60837187393841e+000

1.49285278645888e+005,-2.39982727998965e+001,-3.65745469030889e+000

1.51369223476094e+005,-2.39988378132124e+001,-3.70718116825123e+000

1.53482259092041e+005,-2.39994143386273e+001,-3.75755926348167e+000

1.55624791585964e+005,-2.40000025218465e+001,-3.80859703469127e+000

1.57797232718936e+005,-2.40006025071030e+001,-3.86030264596278e+000

1.59999999999999e+005,-2.40012144370546e+001,-3.91268436928073e+000

1.62233516766403e+005,-2.40018384526837e+001,-3.96575058713549e+000

1.64498212264969e+005,-2.40024746932035e+001,-4.01950979522284e+000

1.66794521734578e+005,-2.40031232959688e+001,-4.07397060523999e+000

1.69122886489819e+005,-2.40037843963942e+001,-4.12914174777699e+000

1.71483754005805e+005,-2.40044581278789e+001,-4.18503207530698e+000

1.73877578004168e+005,-2.40051446217397e+001,-4.24165056527394e+000

1.76304818540256e+005,-2.40058440071531e+001,-4.29900632327646e+000

1.78765942091554e+005,-2.40065564111064e+001,-4.35710858634952e+000

1.81261421647326e+005,-2.40072819583604e+001,-4.41596672634115e+000

1.83791736799524e+005,-2.40080207714218e+001,-4.47559025338618e+000

1.86357373834951e+005,-2.40087729705294e+001,-4.53598881947039e+000

1.88958825828723e+005,-2.40095386736523e+001,-4.59717222208960e+000

1.91596592739027e+005,-2.40103179965022e+001,-4.65915040799483e+000

1.94271181503206e+005,-2.40111110525608e+001,-4.72193347702788e+000

1.96983106135185e+005,-2.40119179531221e+001,-4.78553168603769e+000

1.99732887824256e+005,-2.40127388073519e+001,-4.84995545287936e+000

2.02521055035243e+005,-2.40135737223635e+001,-4.91521536048887e+000

2.05348143610063e+005,-2.40144228033123e+001,-4.98132216103115e+000

2.08214696870707e+005,-2.40152861535085e+001,-5.04828678011601e+000

2.11121265723661e+005,-2.40161638745495e+001,-5.11612032107827e+000

2.14068408765776e+005,-2.40170560664727e+001,-5.18483406931441e+000

2.17056692391625e+005,-2.40179628279282e+001,-5.25443949667414e+000

2.20086690902357e+005,-2.40188842563740e+001,-5.32494826589631e+000

2.23158986616063e+005,-2.40198204482924e+001,-5.39637223508684e+000

2.26274169979693e+005,-2.40207714994289e+001,-5.46872346223024e+000

2.29432839682530e+005,-2.40217375050545e+001,-5.54201420972806e+000

2.32635602771247e+005,-2.40227185602500e+001,-5.61625694895795e+000

2.35883074766574e+005,-2.40237147602156e+001,-5.69146436484435e+000

2.39175879781588e+005,-2.40247262006027e+001,-5.76764936043703e+000

2.42514650641661e+005,-2.40257529778702e+001,-5.84482506148432e+000

2.45900029006080e+005,-2.40267951896654e+001,-5.92300482099954e+000

2.49332665491357e+005,-2.40278529352279e+001,-6.00220222380779e+000

2.52813219796278e+005,-2.40289263158182e+001,-6.08243109106792e+000

2.56342360828676e+005,-2.40300154351698e+001,-6.16370548476147e+000

2.59920766833993e+005,-2.40311203999650e+001,-6.24603971214073e+000

2.63549125525621e+005,-2.40322413203343e+001,-6.32944833012707e+000

2.67228134217075e+005,-2.40333783103776e+001,-6.41394614965436e+000

2.70958499956006e+005,-2.40345314887096e+001,-6.49954823994810e+000

2.74740939660078e+005,-2.40357009790251e+001,-6.58626993273356e+000

2.78576180254757e+005,-2.40368869106874e+001,-6.67412682636723e+000

2.82464958813007e+005,-2.40380894193358e+001,-6.76313478988309e+000

2.86408022696948e+005,-2.40393086475142e+001,-6.85330996694860e+000

2.90406129701488e+005,-2.40405447453174e+001,-6.94466877972505e+000

2.94460048199957e+005,-2.40417978710569e+001,-7.03722793262507e+000

2.98570557291775e+005,-2.40430681919426e+001,-7.13100441596396e+000

3.02738446952187e+005,-2.40443558847822e+001,-7.22601550949959e+000

3.06964518184081e+005,-2.40456611366938e+001,-7.32227878585693e+000

3.11249583171928e+005,-2.40469841458349e+001,-7.41981211383304e+000

3.15594465437872e+005,-2.40483251221427e+001,-7.51863366158135e+000

3.19999999999997e+005,-2.40496842880874e+001,-7.61876189967070e+000

3.24467033532806e+005,-2.40510618794355e+001,-7.72021560401848e+000

3.28996424529938e+005,-2.40524581460238e+001,-7.82301385869678e+000

3.33589043469155e+005,-2.40538733525410e+001,-7.92717605860983e+000

3.38245772979638e+005,-2.40553077793170e+001,-8.03272191204352e+000

3.42967508011610e+005,-2.40567617231196e+001,-8.13967144308756e+000

3.47755156008335e+005,-2.40582354979543e+001,-8.24804499393021e+000

3.52609637080511e+005,-2.40597294358707e+001,-8.35786322702853e+000

3.57531884183106e+005,-2.40612438877700e+001,-8.46914712715508e+000

3.62522843294651e+005,-2.40627792242164e+001,-8.58191800332422e+000

3.67583473599047e+005,-2.40643358362486e+001,-8.69619749060147e+000

3.72714747669902e+005,-2.40659141361920e+001,-8.81200755179859e+000

3.77917651657445e+005,-2.40675145584710e+001,-8.92937047905830e+000

3.83193185478053e+005,-2.40691375604196e+001,-9.04830889533390e+000

3.88542363006410e+005,-2.40707836230903e+001,-9.16884575576764e+000

3.93966212270369e+005,-2.40724532520604e+001,-9.29100434897281e+000

3.99465775648511e+005,-2.40741469782361e+001,-9.41480829822504e+000

4.05042110070485e+005,-2.40758653586522e+001,-9.54028156256779e+000

4.10696287220124e+005,-2.40776089772684e+001,-9.66744843783739e+000

4.16429393741414e+005,-2.40793784457621e+001,-9.79633355761466e+000

4.22242531447321e+005,-2.40811744043163e+001,-9.92696189410670e+000

4.28136817531551e+005,-2.40829975224030e+001,-1.00593587589659e+001

4.34113384783250e+005,-2.40848484995632e+001,-1.01935498040522e+001

4.40173381804713e+005,-2.40867280661817e+001,-1.03295610221427e+001

4.46317973232124e+005,-2.40886369842577e+001,-1.04674187475958e+001

4.52548339959385e+005,-2.40905760481721e+001,-1.06071496569734e+001

4.58865679365059e+005,-2.40925460854508e+001,-1.07487807696292e+001

4.65271205542494e+005,-2.40945479575243e+001,-1.08923394482634e+001

4.71766149533147e+005,-2.40965825604851e+001,-1.10378533994533e+001

4.78351759563174e+005,-2.40986508258423e+001,-1.11853506741615e+001

4.85029301283321e+005,-2.41007537212747e+001,-1.13348596682243e+001

4.91800058012158e+005,-2.41028922513825e+001,-1.14864091228278e+001

4.98665330982714e+005,-2.41050674584390e+001,-1.16400281249707e+001

5.05626439592555e+005,-2.41072804231418e+001,-1.17957461079199e+001

5.12684721657352e+005,-2.41095322653656e+001,-1.19535928516580e+001

5.19841533667984e+005,-2.41118241449171e+001,-1.21135984833274e+001

5.27098251051240e+005,-2.41141572622916e+001,-1.22757934776697e+001

5.34456268434150e+005,-2.41165328594345e+001,-1.24402086574633e+001

5.41916999912011e+005,-2.41189522205061e+001,-1.26068751939583e+001

