Freq.,VOut,OutRef

1.00000000000000e+004,-1.07374267329984e+001,-6.56546671884982e-002

1.01395947979003e+004,-1.07374272135492e+001,-6.65710675931705e-002

1.02811382665607e+004,-1.07374277075814e+001,-6.75002560342786e-002

1.04246576084112e+004,-1.07374282154722e+001,-6.84424108391080e-002

1.05701804056138e+004,-1.07374287376096e+001,-6.93977128165704e-002

1.07177346253629e+004,-1.07374292743923e+001,-7.03663452882764e-002

1.08673486252606e+004,-1.07374298262298e+001,-7.13484941307068e-002

1.10190511587661e+004,-1.07374303935438e+001,-7.23443478011845e-002

1.11728713807222e+004,-1.07374309767671e+001,-7.33540973802677e-002

1.13288388529580e+004,-1.07374315763445e+001,-7.43779366092840e-002

1.14869835499703e+004,-1.07374321927335e+001,-7.54160619194042e-002

1.16473358646846e+004,-1.07374328264042e+001,-7.64686724759502e-002

1.18099266142953e+004,-1.07374334778398e+001,-7.75359702117322e-002

1.19747870461893e+004,-1.07374341475366e+001,-7.86181598689801e-002

1.21419488439505e+004,-1.07374348360053e+001,-7.97154490348654e-002

1.23114441334492e+004,-1.07374355437703e+001,-8.08280481810066e-002

1.24833054890161e+004,-1.07374362713706e+001,-8.19561707060009e-002

1.26575659397028e+004,-1.07374370193606e+001,-8.31000329717507e-002

1.28342589756290e+004,-1.07374377883097e+001,-8.42598543467252e-002

1.30134185544193e+004,-1.07374385788031e+001,-8.54358572481982e-002

1.31950791077289e+004,-1.07374393914423e+001,-8.66282671816691e-002

1.33792755478611e+004,-1.07374402268452e+001,-8.78373127870281e-002

1.35660432744767e+004,-1.07374410856477e+001,-8.90632258731338e-002

1.37554181813974e+004,-1.07374419685022e+001,-9.03062414747770e-002

1.39474366635040e+004,-1.07374428760799e+001,-9.15665978843299e-002

1.41421356237309e+004,-1.07374438090702e+001,-9.28445367040633e-002

1.43395524801583e+004,-1.07374447681816e+001,-9.41403028894908e-002

1.45397251732031e+004,-1.07374457541425e+001,-9.54541447930707e-002

1.47426921729110e+004,-1.07374467677014e+001,-9.67863142134332e-002

1.49484924863494e+004,-1.07374478096269e+001,-9.81370664432863e-002

1.51571656651040e+004,-1.07374488807093e+001,-9.95066603156677e-002

1.53687518128801e+004,-1.07374499817605e+001,-1.00895358252339e-001

1.55832915932100e+004,-1.07374511136153e+001,-1.02303426309849e-001

1.58008262372675e+004,-1.07374522771308e+001,-1.03731134238310e-001

1.60213975517924e+004,-1.07374534731878e+001,-1.05178755523968e-001

1.62450479271247e+004,-1.07374547026921e+001,-1.06646567437829e-001

1.64718203453514e+004,-1.07374559665734e+001,-1.08134851099102e-001

1.67017583885674e+004,-1.07374572657879e+001,-1.09643891514188e-001

1.69349062472505e+004,-1.07374586013171e+001,-1.11173977640571e-001

1.71713087287550e+004,-1.07374599741703e+001,-1.12725402433506e-001

1.74110112659224e+004,-1.07374613853843e+001,-1.14298462900824e-001

1.76540599258131e+004,-1.07374628360239e+001,-1.15893460164976e-001

1.79005014185594e+004,-1.07374643271832e+001,-1.17510699511527e-001

1.81503831063432e+004,-1.07374658599871e+001,-1.19150490444856e-001

1.84037530124975e+004,-1.07374674355900e+001,-1.20813146754844e-001

1.86606598307361e+004,-1.07374690551788e+001,-1.22498986564658e-001

1.89211529345119e+004,-1.07374707199723e+001,-1.24208332395704e-001

1.91852823865052e+004,-1.07374724312231e+001,-1.25941511222460e-001

1.94530989482457e+004,-1.07374741902173e+001,-1.27698854539758e-001

1.97246540898671e+004,-1.07374759982765e+001,-1.29480698415646e-001

1.99999999999999e+004,-1.07374778567582e+001,-1.31287383558138e-001

2.02791895958005e+004,-1.07374797670567e+001,-1.33119255378118e-001

2.05622765331213e+004,-1.07374817306045e+001,-1.34976664047898e-001

2.08493152168224e+004,-1.07374837488727e+001,-1.36859964572061e-001

2.11403608112276e+004,-1.07374858233720e+001,-1.38769516849381e-001

2.14354692507258e+004,-1.07374879556549e+001,-1.40705685733962e-001

2.17346972505211e+004,-1.07374901473150e+001,-1.42668841111960e-001

2.20381023175322e+004,-1.07374923999897e+001,-1.44659357957481e-001

2.23457427614443e+004,-1.07374947153601e+001,-1.46677616410883e-001

2.26576777059159e+004,-1.07374970951529e+001,-1.48724001841465e-001

2.29739670999406e+004,-1.07374995411415e+001,-1.50798904918526e-001

2.32946717293690e+004,-1.07375020551465e+001,-1.52902721685747e-001

2.36198532285905e+004,-1.07375046390377e+001,-1.55035853628569e-001

2.39495740923785e+004,-1.07375072947354e+001,-1.57198707745980e-001

2.42838976879009e+004,-1.07375100242106e+001,-1.59391696630538e-001

2.46228882668982e+004,-1.07375128294878e+001,-1.61615238534336e-001

2.49666109780322e+004,-1.07375157126453e+001,-1.63869757448938e-001

2.53151318794055e+004,-1.07375186758168e+001,-1.66155683180823e-001

2.56685179512580e+004,-1.07375217211929e+001,-1.68473451428299e-001

2.60268371088386e+004,-1.07375248510226e+001,-1.70823503856409e-001

2.63901582154578e+004,-1.07375280676145e+001,-1.73206288181005e-001

2.67585510957221e+004,-1.07375313733383e+001,-1.75622258244439e-001

2.71320865489533e+004,-1.07375347706267e+001,-1.78071874096171e-001

2.75108363627948e+004,-1.07375382619767e+001,-1.80555602075801e-001

2.78948733270080e+004,-1.07375418499509e+001,-1.83073914894956e-001

2.82842712474618e+004,-1.07375455371794e+001,-1.85627291721769e-001

2.86791049603164e+004,-1.07375493263617e+001,-1.88216218261578e-001

2.90794503464061e+004,-1.07375532202677e+001,-1.90841186847070e-001

2.94853843458219e+004,-1.07375572217402e+001,-1.93502696521156e-001

2.98969849726987e+004,-1.07375613336959e+001,-1.96201253124625e-001

3.03143313302078e+004,-1.07375655591274e+001,-1.98937369386345e-001

3.07375036257601e+004,-1.07375699011058e+001,-2.01711565008451e-001

3.11665831864199e+004,-1.07375743627812e+001,-2.04524366760078e-001

3.16016524745350e+004,-1.07375789473852e+001,-2.07376308568970e-001

3.20427951035848e+004,-1.07375836582332e+001,-2.10267931608178e-001

3.24900958542493e+004,-1.07375884987260e+001,-2.13199784394489e-001

3.29436406907028e+004,-1.07375934723512e+001,-2.16172422881748e-001

3.34035167771346e+004,-1.07375985826862e+001,-2.19186410553003e-001

3.38698124945009e+004,-1.07376038333996e+001,-2.22242318518715e-001

3.43426174575100e+004,-1.07376092282534e+001,-2.25340725613817e-001

3.48220225318448e+004,-1.07376147711050e+001,-2.28482218495733e-001

3.53081198516260e+004,-1.07376204659100e+001,-2.31667391740761e-001

3.58010028371187e+004,-1.07376263167229e+001,-2.34896847949840e-001

3.63007662126863e+004,-1.07376323277010e+001,-2.38171197842770e-001

3.68075060249948e+004,-1.07376385031053e+001,-2.41491060365474e-001

3.73213196614721e+004,-1.07376448473034e+001,-2.44857062790632e-001

3.78423058690237e+004,-1.07376513647715e+001,-2.48269840822096e-001

3.83705647730104e+004,-1.07376580600971e+001,-2.51730038700172e-001

3.89061978964912e+004,-1.07376649379803e+001,-2.55238309309199e-001

3.94493081797342e+004,-1.07376720032375e+001,-2.58795314281347e-001

3.99999999999998e+004,-1.07376792608029e+001,-2.62401724107339e-001

4.05583791916010e+004,-1.07376867157310e+001,-2.66058218244290e-001

4.11245530662425e+004,-1.07376943731988e+001,-2.69765485228560e-001

4.16986304336447e+004,-1.07377022385090e+001,-2.73524222781502e-001

4.22807216224550e+004,-1.07377103170917e+001,-2.77335137927447e-001

4.28709385014515e+004,-1.07377186145066e+001,-2.81198947104357e-001

4.34693945010421e+004,-1.07377271364464e+001,-2.85116376277699e-001

4.40762046350642e+004,-1.07377358887385e+001,-2.89088161054884e-001

4.46914855228886e+004,-1.07377448773475e+001,-2.93115046804794e-001

4.53153554118317e+004,-1.07377541083782e+001,-2.97197788771274e-001

4.59479341998812e+004,-1.07377635880773e+001,-3.01337152194946e-001

4.65893434587380e+004,-1.07377733228363e+001,-3.05533912427759e-001

4.72397064571810e+004,-1.07377833191939e+001,-3.09788855058794e-001

4.78991481847569e+004,-1.07377935838384e+001,-3.14102776031255e-001

4.85677953758016e+004,-1.07378041236097e+001,-3.18476481766746e-001

4.92457765337964e+004,-1.07378149455024e+001,-3.22910789287969e-001

4.99332219560642e+004,-1.07378260566678e+001,-3.27406526342115e-001

5.06302637588109e+004,-1.07378374644155e+001,-3.31964531529748e-001

5.13370359025159e+004,-1.07378491762171e+001,-3.36585654426243e-001

5.20536742176771e+004,-1.07378611997073e+001,-3.41270755710984e-001

5.27803164309155e+004,-1.07378735426865e+001,-3.46020707296683e-001

5.35171021914442e+004,-1.07378862131227e+001,-3.50836392458292e-001

5.42641730979066e+004,-1.07378992191540e+001,-3.55718705961859e-001

5.50216727255895e+004,-1.07379125690900e+001,-3.60668554197654e-001

5.57897466540159e+004,-1.07379262714141e+001,-3.65686855310672e-001

5.65685424949235e+004,-1.07379403347851e+001,-3.70774539336069e-001

5.73582099206328e+004,-1.07379547680392e+001,-3.75932548330964e-001

5.81589006928121e+004,-1.07379695801912e+001,-3.81161836512701e-001

5.89707686916437e+004,-1.07379847804361e+001,-3.86463370393746e-001

5.97939699453972e+004,-1.07380003781509e+001,-3.91838128917497e-001

6.06286626604156e+004,-1.07380163828952e+001,-3.97287103600283e-001

6.14750072515201e+004,-1.07380328044129e+001,-4.02811298669252e-001

6.23331663728396e+004,-1.07380496526324e+001,-4.08411731202439e-001

6.32033049490698e+004,-1.07380669376682e+001,-4.14089431271884e-001

6.40855902071694e+004,-1.07380846698209e+001,-4.19845442085650e-001

6.49801917084985e+004,-1.07381028595776e+001,-4.25680820133118e-001

6.58872813814055e+004,-1.07381215176126e+001,-4.31596635328876e-001

6.68070335542691e+004,-1.07381406547866e+001,-4.37593971160416e-001

6.77396249890018e+004,-1.07381602821471e+001,-4.43673924836483e-001

6.86852349150199e+004,-1.07381804109275e+001,-4.49837607432891e-001

6.96440450636895e+004,-1.07382010525463e+001,-4.56086144048457e-001

7.06162397032520e+004,-1.07382222186062e+001,-4.62420673952438e-001

7.16020056742374e+004,-1.07382439208930e+001,-4.68842350737285e-001

7.26015324253724e+004,-1.07382661713730e+001,-4.75352342478281e-001

7.36150120499896e+004,-1.07382889821918e+001,-4.81951831885067e-001

7.46426393229441e+004,-1.07383123656717e+001,-4.88642016461877e-001

7.56846117380472e+004,-1.07383363343090e+001,-4.95424108666339e-001

7.67411295460207e+004,-1.07383609007707e+001,-5.02299336070277e-001

7.78123957929823e+004,-1.07383860778911e+001,-5.09268941524359e-001

7.88986163594682e+004,-1.07384118786678e+001,-5.16334183323204e-001

7.99999999999995e+004,-1.07384383162574e+001,-5.23496335369885e-001

8.11167583832018e+004,-1.07384654039703e+001,-5.30756687348782e-001

8.22491061324848e+004,-1.07384931552656e+001,-5.38116544895901e-001

8.33972608672892e+004,-1.07385215837454e+001,-5.45577229770371e-001

8.45614432449099e+004,-1.07385507031477e+001,-5.53140080035464e-001

8.57418770029029e+004,-1.07385805273401e+001,-5.60806450233488e-001

8.69387890020841e+004,-1.07386110703119e+001,-5.68577711571797e-001

8.81524092701283e+004,-1.07386423461662e+001,-5.76455252102583e-001

8.93829710457770e+004,-1.07386743691107e+001,-5.84440476916584e-001

9.06307108236633e+004,-1.07387071534485e+001,-5.92534808330855e-001

9.18958683997622e+004,-1.07387407135684e+001,-6.00739686083772e-001

9.31786869174758e+004,-1.07387750639334e+001,-6.09056567535356e-001

9.44794129143618e+004,-1.07388102190696e+001,-6.17486927870042e-001

9.57982963695136e+004,-1.07388461935541e+001,-6.26032260300473e-001

9.71355907516031e+004,-1.07388830020017e+001,-6.34694076283315e-001

9.84915530675926e+004,-1.07389206590514e+001,-6.43473905730267e-001

9.98664439121282e+004,-1.07389591793515e+001,-6.52373297233512e-001

1.01260527517622e+005,-1.07389985775447e+001,-6.61393818289289e-001

1.02674071805032e+005,-1.07390388682518e+001,-6.70537055528958e-001

1.04107348435354e+005,-1.07390800660542e+001,-6.79804614959706e-001

1.05560632861831e+005,-1.07391221854767e+001,-6.89198122205160e-001

1.07034204382888e+005,-1.07391652409681e+001,-6.98719222757381e-001

1.08528346195813e+005,-1.07392092468821e+001,-7.08369582232728e-001

1.10043345451179e+005,-1.07392542174562e+001,-7.18150886639226e-001

1.11579493308032e+005,-1.07393001667905e+001,-7.28064842644238e-001

1.13137084989847e+005,-1.07393471088255e+001,-7.38113177859192e-001

1.14716419841265e+005,-1.07393950573184e+001,-7.48297641124576e-001

1.16317801385624e+005,-1.07394440258190e+001,-7.58620002810269e-001

1.17941537383287e+005,-1.07394940276449e+001,-7.69082055119708e-001

1.19587939890794e+005,-1.07395450758547e+001,-7.79685612409725e-001

1.21257325320831e+005,-1.07395971832219e+001,-7.90432511513998e-001

1.22950014503040e+005,-1.07396503622062e+001,-8.01324612083671e-001

1.24666332745679e+005,-1.07397046249254e+001,-8.12363796933617e-001

1.26406609898139e+005,-1.07397599831256e+001,-8.23551972404195e-001

1.28171180414339e+005,-1.07398164481502e+001,-8.34891068734124e-001

1.29960383416997e+005,-1.07398740309094e+001,-8.46383040445155e-001

1.31774562762811e+005,-1.07399327418476e+001,-8.58029866741457e-001

1.33614067108538e+005,-1.07399925909108e+001,-8.69833551920193e-001

1.35479249978003e+005,-1.07400535875125e+001,-8.81796125800261e-001

1.37370469830040e+005,-1.07401157405003e+001,-8.93919644161764e-001

1.39288090127379e+005,-1.07401790581204e+001,-9.06206189203171e-001

1.41232479406504e+005,-1.07402435479822e+001,-9.18657870012532e-001

1.43204011348474e+005,-1.07403092170226e+001,-9.31276823058634e-001

1.45203064850745e+005,-1.07403760714693e+001,-9.44065212692614e-001

1.47230024099979e+005,-1.07404441168041e+001,-9.57025231673272e-001

1.49285278645888e+005,-1.07405133577256e+001,-9.70159101705263e-001

1.51369223476094e+005,-1.07405837981120e+001,-9.83469073999446e-001

1.53482259092041e+005,-1.07406554409836e+001,-9.96957429847052e-001

1.55624791585964e+005,-1.07407282884651e+001,-1.01062648121742e+000

1.57797232718936e+005,-1.07408023417483e+001,-1.02447857137233e+000

1.59999999999999e+005,-1.07408776010540e+001,-1.03851607550123e+000

1.62233516766403e+005,-1.07409540655958e+001,-1.05274140137534e+000

1.64498212264969e+005,-1.07410317335424e+001,-1.06715699002404e+000

1.66794521734578e+005,-1.07411106019818e+001,-1.08176531642875e+000

1.69122886489819e+005,-1.07411906668854e+001,-1.09656889024038e+000

1.71483754005805e+005,-1.07412719230726e+001,-1.11157025651669e+000

1.73877578004168e+005,-1.07413543641770e+001,-1.12677199647939e+000

1.76304818540256e+005,-1.07414379826126e+001,-1.14217672829553e+000

1.78765942091554e+005,-1.07415227695420e+001,-1.15778710787503e+000

1.81261421647326e+005,-1.07416087148451e+001,-1.17360582969493e+000

1.83791736799524e+005,-1.07416958070897e+001,-1.18963562763952e+000

1.86357373834951e+005,-1.07417840335031e+001,-1.20587927586464e+000

1.88958825828723e+005,-1.07418733799455e+001,-1.22233958968003e+000

1.91596592739027e+005,-1.07419638308855e+001,-1.23901942645442e+000

1.94271181503206e+005,-1.07420553693767e+001,-1.25592168653924e+000

1.96983106135185e+005,-1.07421479770375e+001,-1.27304931420967e+000

1.99732887824256e+005,-1.07422416340312e+001,-1.29040529862921e+000

2.02521055035243e+005,-1.07423363190510e+001,-1.30799267482904e+000

2.05348143610063e+005,-1.07424320093044e+001,-1.32581452470592e+000

2.08214696870707e+005,-1.07425286805028e+001,-1.34387397803756e+000

2.11121265723661e+005,-1.07426263068518e+001,-1.36217421351599e+000

2.14068408765776e+005,-1.07427248610448e+001,-1.38071845979319e+000

2.17056692391625e+005,-1.07428243142603e+001,-1.39950999654350e+000

2.20086690902357e+005,-1.07429246361606e+001,-1.41855215553933e+000

2.23158986616063e+005,-1.07430257948944e+001,-1.43784832174041e+000

2.26274169979693e+005,-1.07431277571022e+001,-1.45740193439385e+000

2.29432839682530e+005,-1.07432304879249e+001,-1.47721648814458e+000

2.32635602771247e+005,-1.07433339510153e+001,-1.49729553415655e+000

2.35883074766574e+005,-1.07434381085529e+001,-1.51764268124152e+000

2.39175879781588e+005,-1.07435429212619e+001,-1.53826159699646e+000

2.42514650641661e+005,-1.07436483484323e+001,-1.55915600894474e+000

2.45900029006080e+005,-1.07437543479441e+001,-1.58032970568340e+000

2.49332665491357e+005,-1.07438608762952e+001,-1.60178653803524e+000

2.52813219796278e+005,-1.07439678886311e+001,-1.62353042020068e+000

2.56342360828676e+005,-1.07440753387793e+001,-1.64556533091431e+000

2.59920766833993e+005,-1.07441831792855e+001,-1.66789531459690e+000

2.63549125525621e+005,-1.07442913614530e+001,-1.69052448251123e+000

2.67228134217075e+005,-1.07443998353854e+001,-1.71345701391063e+000

2.70958499956006e+005,-1.07445085500307e+001,-1.73669715718846e+000

2.74740939660078e+005,-1.07446174532296e+001,-1.76024923102067e+000

2.78576180254757e+005,-1.07447264917650e+001,-1.78411762550213e+000

2.82464958813007e+005,-1.07448356114141e+001,-1.80830680327812e+000

2.86408022696948e+005,-1.07449447570029e+001,-1.83282130066830e+000

2.90406129701488e+005,-1.07450538724618e+001,-1.85766572878094e+000

2.94460048199957e+005,-1.07451629008840e+001,-1.88284477461963e+000

2.98570557291775e+005,-1.07452717845844e+001,-1.90836320217992e+000

3.02738446952187e+005,-1.07453804651600e+001,-1.93422585353508e+000

3.06964518184081e+005,-1.07454888835524e+001,-1.96043764991240e+000

3.11249583171928e+005,-1.07455969801094e+001,-1.98700359275741e+000

3.15594465437872e+005,-1.07457046946485e+001,-2.01392876478767e+000

3.19999999999997e+005,-1.07458119665199e+001,-2.04121833103481e+000

3.24467033532806e+005,-1.07459187346711e+001,-2.06887753987417e+000

3.28996424529938e+005,-1.07460249377088e+001,-2.09691172404598e+000

3.33589043469155e+005,-1.07461305139635e+001,-2.12532630166072e+000

3.38245772979638e+005,-1.07462354015505e+001,-2.15412677719943e+000

3.42967508011610e+005,-1.07463395384325e+001,-2.18331874249766e+000

3.47755156008335e+005,-1.07464428624793e+001,-2.21290787772494e+000

3.52609637080511e+005,-1.07465453115271e+001,-2.24289995235144e+000

3.57531884183106e+005,-1.07466468234363e+001,-2.27330082610670e+000

3.62522843294651e+005,-1.07467473361466e+001,-2.30411644993245e+000

3.67583473599047e+005,-1.07468467877307e+001,-2.33535286692832e+000

3.72714747669902e+005,-1.07469451164462e+001,-2.36701621328919e+000

3.77917651657445e+005,-1.07470422607840e+001,-2.39911271924322e+000

3.83193185478053e+005,-1.07471381595147e+001,-2.43164870998173e+000

3.88542363006410e+005,-1.07472327517323e+001,-2.46463060659092e+000

3.93966212270369e+005,-1.07473259768946e+001,-2.49806492698028e+000

3.99465775648511e+005,-1.07474177748605e+001,-2.53195828681487e+000

4.05042110070485e+005,-1.07475080859245e+001,-2.56631740044685e+000

4.10696287220124e+005,-1.07475968508472e+001,-2.60114908185388e+000

4.16429393741414e+005,-1.07476840108825e+001,-2.63646024558203e+000

4.22242531447321e+005,-1.07477695078018e+001,-2.67225790769406e+000

4.28136817531551e+005,-1.07478532839134e+001,-2.70854918673114e+000

4.34113384783250e+005,-1.07479352820791e+001,-2.74534130468001e+000

4.40173381804713e+005,-1.07480154457269e+001,-2.78264158795551e+000

4.46317973232124e+005,-1.07480937188596e+001,-2.82045746839602e+000

4.52548339959385e+005,-1.07481700460593e+001,-2.85879648427486e+000

4.58865679365059e+005,-1.07482443724891e+001,-2.89766628132819e+000

4.65271205542494e+005,-1.07483166438898e+001,-2.93707461380176e+000

4.71766149533147e+005,-1.07483868065733e+001,-2.97702934551964e+000

4.78351759563174e+005,-1.07484548074123e+001,-3.01753845097309e+000

4.85029301283321e+005,-1.07485205938261e+001,-3.05861001643365e+000

4.91800058012158e+005,-1.07485841137623e+001,-3.10025224109207e+000

4.98665330982714e+005,-1.07486453156761e+001,-3.14247343822217e+000

5.05626439592555e+005,-1.07487041485041e+001,-3.18528203637461e+000

5.12684721657352e+005,-1.07487605616367e+001,-3.22868658059874e+000

5.19841533667984e+005,-1.07488145048851e+001,-3.27269573369538e+000

5.27098251051240e+005,-1.07488659284467e+001,-3.31731827750128e+000

5.34456268434150e+005,-1.07489147828663e+001,-3.36256311420721e+000

5.41916999912011e+005,-1.07489610189942e+001,-3.40843926770951e+000

