Freq.,VOut,OutRef

1.00000000000000e+004,-5.16231373034649e+000,-4.09041860168372e-002

1.01395947979003e+004,-5.16231436208130e+000,-4.14750516948081e-002

1.02811382665607e+004,-5.16231501153892e+000,-4.20538806178590e-002

1.04246576084112e+004,-5.16231567921589e+000,-4.26407837026564e-002

1.05701804056138e+004,-5.16231636562252e+000,-4.32358734044773e-002

1.07177346253629e+004,-5.16231707128225e+000,-4.38392637447167e-002

1.08673486252606e+004,-5.16231779673435e+000,-4.44510703168527e-002

1.10190511587661e+004,-5.16231854253230e+000,-4.50714103220342e-002

1.11728713807222e+004,-5.16231930924577e+000,-4.57004025801716e-002

1.13288388529580e+004,-5.16232009745937e+000,-4.63381675629436e-002

1.14869835499703e+004,-5.16232090777467e+000,-4.69848274062862e-002

1.16473358646846e+004,-5.16232174080956e+000,-4.76405059396806e-002

1.18099266142953e+004,-5.16232259719959e+000,-4.83053287041174e-002

1.19747870461893e+004,-5.16232347759745e+000,-4.89794229815390e-002

1.21419488439505e+004,-5.16232438267372e+000,-4.96629178165471e-002

1.23114441334492e+004,-5.16232531311888e+000,-5.03559440309921e-002

1.24833054890161e+004,-5.16232626964143e+000,-5.10586342633361e-002

1.26575659397028e+004,-5.16232725297026e+000,-5.17711229812708e-002

1.28342589756290e+004,-5.16232826385313e+000,-5.24935465202615e-002

1.30134185544193e+004,-5.16232930306055e+000,-5.32260430867069e-002

1.31950791077289e+004,-5.16233037138340e+000,-5.39687528029503e-002

1.33792755478611e+004,-5.16233146963364e+000,-5.47218177321069e-002

1.35660432744767e+004,-5.16233259864754e+000,-5.54853818868887e-002

1.37554181813974e+004,-5.16233375928274e+000,-5.62595912794963e-002

1.39474366635040e+004,-5.16233495242187e+000,-5.70445939290328e-002

1.41421356237309e+004,-5.16233617897165e+000,-5.78405398984297e-002

1.43395524801583e+004,-5.16233743986367e+000,-5.86475813214851e-002

1.45397251732031e+004,-5.16233873605536e+000,-5.94658724282332e-002

1.47426921729110e+004,-5.16234006853079e+000,-6.02955695736567e-002

1.49484924863494e+004,-5.16234143830122e+000,-6.11368312653765e-002

1.51571656651040e+004,-5.16234284640524e+000,-6.19898181984179e-002

1.53687518128801e+004,-5.16234429391138e+000,-6.28546932713140e-002

1.55832915932100e+004,-5.16234578191597e+000,-6.37316216341780e-002

1.58008262372675e+004,-5.16234731154686e+000,-6.46207707008237e-002

1.60213975517924e+004,-5.16234888396268e+000,-6.55223101885995e-002

1.62450479271247e+004,-5.16235050035380e+000,-6.64364121476138e-002

1.64718203453514e+004,-5.16235216194298e+000,-6.73632509942342e-002

1.67017583885674e+004,-5.16235386998741e+000,-6.83030035342048e-002

1.69349062472505e+004,-5.16235562577855e+000,-6.92558490015844e-002

1.71713087287550e+004,-5.16235743064270e+000,-7.02219690928738e-002

1.74110112659224e+004,-5.16235928594351e+000,-7.12015479901727e-002

1.76540599258131e+004,-5.16236119308171e+000,-7.21947724011386e-002

1.79005014185594e+004,-5.16236315349619e+000,-7.32018315923101e-002

1.81503831063432e+004,-5.16236516866542e+000,-7.42229174203485e-002

1.84037530124975e+004,-5.16236724010829e+000,-7.52582243669038e-002

1.86606598307361e+004,-5.16236936938536e+000,-7.63079495724281e-002

1.89211529345119e+004,-5.16237155810002e+000,-7.73722928700830e-002

1.91852823865052e+004,-5.16237380789867e+000,-7.84514568275725e-002

1.94530989482457e+004,-5.16237612047349e+000,-7.95456467722745e-002

1.97246540898671e+004,-5.16237849756233e+000,-8.06550708353120e-002

1.99999999999999e+004,-5.16238094095064e+000,-8.17799399836727e-002

2.02791895958005e+004,-5.16238345247224e+000,-8.29204680596461e-002

2.05622765331213e+004,-5.16238603401124e+000,-8.40768718142443e-002

2.08493152168224e+004,-5.16238868750212e+000,-8.52493709529031e-002

2.11403608112276e+004,-5.16239141493245e+000,-8.64381881636414e-002

2.14354692507258e+004,-5.16239421834366e+000,-8.76435491601037e-002

2.17346972505211e+004,-5.16239709983235e+000,-8.88656827210682e-002

2.20381023175322e+004,-5.16240006155161e+000,-9.01048207296455e-002

2.23457427614443e+004,-5.16240310571338e+000,-9.13611982081401e-002

2.26576777059159e+004,-5.16240623458856e+000,-9.26350533652842e-002

2.29739670999406e+004,-5.16240945050942e+000,-9.39266276334770e-002

2.32946717293690e+004,-5.16241275587149e+000,-9.52361657054618e-002

2.36198532285905e+004,-5.16241615313449e+000,-9.65639155812910e-002

2.39495740923785e+004,-5.16241964482358e+000,-9.79101286111499e-002

2.42838976879009e+004,-5.16242323353272e+000,-9.92750595280972e-002

2.46228882668982e+004,-5.16242692192463e+000,-1.00658966500415e-001

2.49666109780322e+004,-5.16243071273325e+000,-1.02062111171199e-001

2.53151318794055e+004,-5.16243460876604e+000,-1.03484758697058e-001

2.56685179512580e+004,-5.16243861290464e+000,-1.04927177799975e-001

2.60268371088386e+004,-5.16244272810807e+000,-1.06389640803155e-001

2.63901582154578e+004,-5.16244695741372e+000,-1.07872423680203e-001

2.67585510957221e+004,-5.16245130393949e+000,-1.09375806100049e-001

2.71320865489533e+004,-5.16245577088616e+000,-1.10900071468699e-001

2.75108363627948e+004,-5.16246036153865e+000,-1.12445506979859e-001

2.78948733270080e+004,-5.16246507926970e+000,-1.14012403651416e-001

2.82842712474618e+004,-5.16246992753957e+000,-1.15601056386343e-001

2.86791049603164e+004,-5.16247490990060e+000,-1.17211764004328e-001

2.90794503464061e+004,-5.16248002999779e+000,-1.18844829298997e-001

2.94853843458219e+004,-5.16248529157192e+000,-1.20500559080251e-001

2.98969849726987e+004,-5.16249069846161e+000,-1.22179264222627e-001

3.03143313302078e+004,-5.16249625460555e+000,-1.23881259714766e-001

3.07375036257601e+004,-5.16250196404491e+000,-1.25606864707010e-001

3.11665831864199e+004,-5.16250783092571e+000,-1.27356402561176e-001

3.16016524745350e+004,-5.16251385950196e+000,-1.29130200894721e-001

3.20427951035848e+004,-5.16252005413682e+000,-1.30928591638319e-001

3.24900958542493e+004,-5.16252641930663e+000,-1.32751911077361e-001

3.29436406907028e+004,-5.16253295960261e+000,-1.34600499906263e-001

3.34035167771346e+004,-5.16253967973378e+000,-1.36474703277599e-001

3.38698124945009e+004,-5.16254658452954e+000,-1.38374870853731e-001

3.43426174575100e+004,-5.16255367894239e+000,-1.40301356855761e-001

3.48220225318448e+004,-5.16256096805125e+000,-1.42254520113505e-001

3.53081198516260e+004,-5.16256845706319e+000,-1.44234724121677e-001

3.58010028371187e+004,-5.16257615131733e+000,-1.46242337085331e-001

3.63007662126863e+004,-5.16258405628753e+000,-1.48277731972841e-001

3.68075060249948e+004,-5.16259217758454e+000,-1.50341286572810e-001

3.73213196614721e+004,-5.16260052095977e+000,-1.52433383540754e-001

3.78423058690237e+004,-5.16260909230832e+000,-1.54554410451226e-001

3.83705647730104e+004,-5.16261789767132e+000,-1.56704759854792e-001

3.89061978964912e+004,-5.16262694323979e+000,-1.58884829325313e-001

3.94493081797342e+004,-5.16263623535734e+000,-1.61095021515404e-001

3.99999999999998e+004,-5.16264578052334e+000,-1.63335744208758e-001

4.05583791916010e+004,-5.16265558539598e+000,-1.65607410373638e-001

4.11245530662425e+004,-5.16266565679588e+000,-1.67910438212903e-001

4.16986304336447e+004,-5.16267600170878e+000,-1.70245251221294e-001

4.22807216224550e+004,-5.16268662728895e+000,-1.72612278235805e-001

4.28709385014515e+004,-5.16269754086280e+000,-1.75011953487190e-001

4.34693945010421e+004,-5.16270874993139e+000,-1.77444716658391e-001

4.40762046350642e+004,-5.16272026217448e+000,-1.79911012931172e-001

4.46914855228886e+004,-5.16273208545327e+000,-1.82411293043758e-001

4.53153554118317e+004,-5.16274422781401e+000,-1.84946013341039e-001

4.59479341998812e+004,-5.16275669749097e+000,-1.87515635829697e-001

4.65893434587380e+004,-5.16276950290989e+000,-1.90120628229663e-001

4.72397064571810e+004,-5.16278265269133e+000,-1.92761464026021e-001

4.78991481847569e+004,-5.16279615565375e+000,-1.95438622523139e-001

4.85677953758016e+004,-5.16281002081675e+000,-1.98152588896311e-001

4.92457765337964e+004,-5.16282425740450e+000,-2.00903854242744e-001

4.99332219560642e+004,-5.16283887484833e+000,-2.03692915636904e-001

5.06302637588109e+004,-5.16285388279076e+000,-2.06520276177124e-001

5.13370359025159e+004,-5.16286929108768e+000,-2.09386445041681e-001

5.20536742176771e+004,-5.16288510981181e+000,-2.12291937538300e-001

5.27803164309155e+004,-5.16290134925554e+000,-2.15237275155314e-001

5.35171021914442e+004,-5.16291801993412e+000,-2.18222985610230e-001

5.42641730979066e+004,-5.16293513258792e+000,-2.21249602903728e-001

5.50216727255895e+004,-5.16295269818541e+000,-2.24317667368504e-001

5.57897466540159e+004,-5.16297072792619e+000,-2.27427725714663e-001

5.65685424949235e+004,-5.16298923324273e+000,-2.30580331085524e-001

5.73582099206328e+004,-5.16300822580335e+000,-2.33776043101771e-001

5.81589006928121e+004,-5.16302771751408e+000,-2.37015427912573e-001

5.89707686916437e+004,-5.16304772052129e+000,-2.40299058240741e-001

5.97939699453972e+004,-5.16306824721308e+000,-2.43627513432781e-001

6.06286626604156e+004,-5.16308931022126e+000,-2.47001379505878e-001

6.14750072515201e+004,-5.16311092242321e+000,-2.50421249192531e-001

6.23331663728396e+004,-5.16313309694286e+000,-2.53887721989466e-001

6.32033049490698e+004,-5.16315584715238e+000,-2.57401404200383e-001

6.40855902071694e+004,-5.16317918667273e+000,-2.60962908983799e-001

6.49801917084985e+004,-5.16320312937446e+000,-2.64572856397604e-001

6.58872813814055e+004,-5.16322768937829e+000,-2.68231873442251e-001

6.68070335542691e+004,-5.16325288105524e+000,-2.71940594105572e-001

6.77396249890018e+004,-5.16327871902649e+000,-2.75699659406466e-001

6.86852349150199e+004,-5.16330521816298e+000,-2.79509717437802e-001

6.96440450636895e+004,-5.16333239358457e+000,-2.83371423409218e-001

7.06162397032520e+004,-5.16336026065901e+000,-2.87285439689804e-001

7.16020056742374e+004,-5.16338883500035e+000,-2.91252435850321e-001

7.26015324253724e+004,-5.16341813246694e+000,-2.95273088705491e-001

7.36150120499896e+004,-5.16344816915949e+000,-2.99348082353998e-001

7.46426393229441e+004,-5.16347896141755e+000,-3.03478108223834e-001

7.56846117380472e+004,-5.16351052581718e+000,-3.07663865108649e-001

7.67411295460207e+004,-5.16354287916627e+000,-3.11906059214933e-001

7.78123957929823e+004,-5.16357603850140e+000,-3.16205404195918e-001

7.88986163594682e+004,-5.16361002108151e+000,-3.20562621203937e-001

7.99999999999995e+004,-5.16364484438413e+000,-3.24978438920592e-001

8.11167583832018e+004,-5.16368052609824e+000,-3.29453593607876e-001

8.22491061324848e+004,-5.16371708411802e+000,-3.33988829147364e-001

8.33972608672892e+004,-5.16375453653586e+000,-3.38584897082365e-001

8.45614432449099e+004,-5.16379290163405e+000,-3.43242556664376e-001

8.57418770029029e+004,-5.16383219787639e+000,-3.47962574895299e-001

8.69387890020841e+004,-5.16387244389849e+000,-3.52745726576701e-001

8.81524092701283e+004,-5.16391365849787e+000,-3.57592794353926e-001

8.93829710457770e+004,-5.16395586062306e+000,-3.62504568765335e-001

9.06307108236633e+004,-5.16399906936156e+000,-3.67481848293440e-001

9.18958683997622e+004,-5.16404330392725e+000,-3.72525439416396e-001

9.31786869174758e+004,-5.16408858364743e+000,-3.77636156658933e-001

9.44794129143618e+004,-5.16413492794740e+000,-3.82814822654570e-001

9.57982963695136e+004,-5.16418235633601e+000,-3.88062268198528e-001

9.71355907516031e+004,-5.16423088838902e+000,-3.93379332311921e-001

9.84915530675926e+004,-5.16428054373171e+000,-3.98766862306464e-001

9.98664439121282e+004,-5.16433134202064e+000,-4.04225713852017e-001

1.01260527517622e+005,-5.16438330292433e+000,-4.09756751048346e-001

1.02674071805032e+005,-5.16443644610293e+000,-4.15360846501168e-001

1.04107348435354e+005,-5.16449079118634e+000,-4.21038881404246e-001

1.05560632861831e+005,-5.16454635775233e+000,-4.26791745620063e-001

1.07034204382888e+005,-5.16460316530198e+000,-4.32620337776246e-001

1.08528346195813e+005,-5.16466123323575e+000,-4.38525565356413e-001

1.10043345451179e+005,-5.16472058082674e+000,-4.44508344805412e-001

1.11579493308032e+005,-5.16478122719387e+000,-4.50569601637785e-001

1.13137084989847e+005,-5.16484319127350e+000,-4.56710270553298e-001

1.14716419841265e+005,-5.16490649179002e+000,-4.62931295559960e-001

1.16317801385624e+005,-5.16497114722533e+000,-4.69233630104294e-001

1.17941537383287e+005,-5.16503717578665e+000,-4.75618237213661e-001

1.19587939890794e+005,-5.16510459537386e+000,-4.82086089643121e-001

1.21257325320831e+005,-5.16517342354508e+000,-4.88638170035716e-001

1.22950014503040e+005,-5.16524367748170e+000,-4.95275471088989e-001

1.24666332745679e+005,-5.16531537395194e+000,-5.01998995734547e-001

1.26406609898139e+005,-5.16538852927291e+000,-5.08809757331894e-001

1.28171180414339e+005,-5.16546315927266e+000,-5.15708779866275e-001

1.29960383416997e+005,-5.16553927924992e+000,-5.22697098169073e-001

1.31774562762811e+005,-5.16561690393415e+000,-5.29775758140282e-001

1.33614067108538e+005,-5.16569604744343e+000,-5.36945816995312e-001

1.35479249978003e+005,-5.16577672324211e+000,-5.44208343518856e-001

1.37370469830040e+005,-5.16585894409768e+000,-5.51564418337054e-001

1.39288090127379e+005,-5.16594272203658e+000,-5.59015134202068e-001

1.41232479406504e+005,-5.16602806829896e+000,-5.66561596299279e-001

1.43204011348474e+005,-5.16611499329381e+000,-5.74204922562617e-001

1.45203064850745e+005,-5.16620350655253e+000,-5.81946244013681e-001

1.47230024099979e+005,-5.16629361668282e+000,-5.89786705114432e-001

1.49285278645888e+005,-5.16638533132113e+000,-5.97727464143913e-001

1.51369223476094e+005,-5.16647865708607e+000,-6.05769693587228e-001

1.53482259092041e+005,-5.16657359953126e+000,-6.13914580546200e-001

1.55624791585964e+005,-5.16667016309718e+000,-6.22163327174735e-001

1.57797232718936e+005,-5.16676835106476e+000,-6.30517151125690e-001

1.59999999999999e+005,-5.16686816550804e+000,-6.38977286024809e-001

1.62233516766403e+005,-5.16696960724715e+000,-6.47544981965166e-001

1.64498212264969e+005,-5.16707267580259e+000,-6.56221506019349e-001

1.66794521734578e+005,-5.16717736934944e+000,-6.65008142775905e-001

1.69122886489819e+005,-5.16728368467241e+000,-6.73906194898210e-001

1.71483754005805e+005,-5.16739161712231e+000,-6.82916983702430e-001

1.73877578004168e+005,-5.16750116057348e+000,-6.92041849757456e-001

1.76304818540256e+005,-5.16761230738160e+000,-7.01282153512939e-001

1.78765942091554e+005,-5.16772504834455e+000,-7.10639275939268e-001

1.81261421647326e+005,-5.16783937266370e+000,-7.20114619196232e-001

1.83791736799524e+005,-5.16795526790732e+000,-7.29709607321927e-001

1.86357373834951e+005,-5.16807271997605e+000,-7.39425686940556e-001

1.88958825828723e+005,-5.16819171307044e+000,-7.49264327994041e-001

1.91596592739027e+005,-5.16831222966074e+000,-7.59227024492657e-001

1.94271181503206e+005,-5.16843425045965e+000,-7.69315295282850e-001

1.96983106135185e+005,-5.16855775439684e+000,-7.79530684840083e-001

1.99732887824256e+005,-5.16868271859715e+000,-7.89874764074537e-001

2.02521055035243e+005,-5.16880911836147e+000,-8.00349131157203e-001

2.05348143610063e+005,-5.16893692715061e+000,-8.10955412362826e-001

2.08214696870707e+005,-5.16906611657274e+000,-8.21695262926997e-001

2.11121265723661e+005,-5.16919665637412e+000,-8.32570367920240e-001

2.14068408765776e+005,-5.16932851443349e+000,-8.43582443133122e-001

2.17056692391625e+005,-5.16946165675990e+000,-8.54733235977145e-001

2.20086690902357e+005,-5.16959604749499e+000,-8.66024526391870e-001

2.23158986616063e+005,-5.16973164891841e+000,-8.77458127766559e-001

2.26274169979693e+005,-5.16986842145774e+000,-8.89035887867411e-001

2.29432839682530e+005,-5.17000632370202e+000,-9.00759689773623e-001

2.32635602771247e+005,-5.17014531242032e+000,-9.12631452814988e-001

2.35883074766574e+005,-5.17028534258334e+000,-9.24653133517317e-001

2.39175879781588e+005,-5.17042636738982e+000,-9.36826726548096e-001

2.42514650641661e+005,-5.17056833829710e+000,-9.49154265663046e-001

2.45900029006080e+005,-5.17071120505598e+000,-9.61637824649450e-001

2.49332665491357e+005,-5.17085491574921e+000,-9.74279518270112e-001

2.52813219796278e+005,-5.17099941683463e+000,-9.87081503199711e-001

2.56342360828676e+005,-5.17114465319231e+000,-1.00004597895519e+000

2.59920766833993e+005,-5.17129056817507e+000,-1.01317518882063e+000

2.63549125525621e+005,-5.17143710366352e+000,-1.02647142075876e+000

2.67228134217075e+005,-5.17158420012461e+000,-1.03993700831375e+000

2.70958499956006e+005,-5.17173179667330e+000,-1.05357433150072e+000

2.74740939660078e+005,-5.17187983113844e+000,-1.06738581767964e+000

2.78576180254757e+005,-5.17202824013109e+000,-1.08137394241524e+000

2.82464958813007e+005,-5.17217695911630e+000,-1.09554123031883e+000

2.86408022696948e+005,-5.17232592248765e+000,-1.10989025587124e+000

2.90406129701488e+005,-5.17247506364426e+000,-1.12442364422607e+000

2.94460048199957e+005,-5.17262431507006e+000,-1.13914407199466e+000

2.98570557291775e+005,-5.17277360841512e+000,-1.15405426800621e+000

3.02738446952187e+005,-5.17292287457938e+000,-1.16915701404508e+000

3.06964518184081e+005,-5.17307204379649e+000,-1.18445514556987e+000

3.11249583171928e+005,-5.17322104572053e+000,-1.19995155240166e+000

3.15594465437872e+005,-5.17336980951238e+000,-1.21564917939312e+000

3.19999999999997e+005,-5.17351826392733e+000,-1.23155102707007e+000

3.24467033532806e+005,-5.17366633740253e+000,-1.24766015225037e+000

3.28996424529938e+005,-5.17381395814504e+000,-1.26397966863557e+000

3.33589043469155e+005,-5.17396105421876e+000,-1.28051274738014e+000

3.38245772979638e+005,-5.17410755363147e+000,-1.29726261763354e+000

3.42967508011610e+005,-5.17425338442028e+000,-1.31423256706121e+000

3.47755156008335e+005,-5.17439847473614e+000,-1.33142594233888e+000

3.52609637080511e+005,-5.17454275292665e+000,-1.34884614962689e+000

3.57531884183106e+005,-5.17468614761702e+000,-1.36649665502019e+000

3.62522843294651e+005,-5.17482858778881e+000,-1.38438098497835e+000

3.67583473599047e+005,-5.17497000285639e+000,-1.40250272673486e+000

3.72714747669902e+005,-5.17511032274049e+000,-1.42086552868817e+000

3.77917651657445e+005,-5.17524947793867e+000,-1.43947310077610e+000

3.83193185478053e+005,-5.17538739959310e+000,-1.45832921483169e+000

3.88542363006410e+005,-5.17552401955455e+000,-1.47743770492512e+000

3.93966212270369e+005,-5.17565927044256e+000,-1.49680246769601e+000

3.99465775648511e+005,-5.17579308570218e+000,-1.51642746266941e+000

4.05042110070485e+005,-5.17592539965667e+000,-1.53631671256524e+000

4.10696287220124e+005,-5.17605614755581e+000,-1.55647430359938e+000

4.16429393741414e+005,-5.17618526562018e+000,-1.57690438577839e+000

4.22242531447321e+005,-5.17631269108079e+000,-1.59761117319120e+000

4.28136817531551e+005,-5.17643836221462e+000,-1.61859894429726e+000

4.34113384783250e+005,-5.17656221837505e+000,-1.63987204221606e+000

4.40173381804713e+005,-5.17668420001826e+000,-1.66143487501699e+000

4.46317973232124e+005,-5.17680424872447e+000,-1.68329191601399e+000

4.52548339959385e+005,-5.17692230721476e+000,-1.70544770406610e+000

4.58865679365059e+005,-5.17703831936313e+000,-1.72790684388344e+000

4.65271205542494e+005,-5.17715223020386e+000,-1.75067400634603e+000

4.71766149533147e+005,-5.17726398593416e+000,-1.77375392883153e+000

4.78351759563174e+005,-5.17737353391257e+000,-1.79715141555568e+000

4.85029301283321e+005,-5.17748082265219e+000,-1.82087133793052e+000

4.91800058012158e+005,-5.17758580181008e+000,-1.84491863493519e+000

4.98665330982714e+005,-5.17768842217198e+000,-1.86929831350850e+000

5.05626439592555e+005,-5.17778863563243e+000,-1.89401544896061e+000

5.12684721657352e+005,-5.17788639517164e+000,-1.91907518540215e+000

5.19841533667984e+005,-5.17798165482726e+000,-1.94448273620224e+000

5.27098251051240e+005,-5.17807436966298e+000,-1.97024338446598e+000

5.34456268434150e+005,-5.17816449573279e+000,-1.99636248353917e+000

5.41916999912011e+005,-5.17825199004237e+000,-2.02284545753755e+000

