Freq.,VOut,OutRef

1.00000000000000e+004,-1.88827151048630e+001,-1.74414197884332e-001

1.01395947979003e+004,-1.88827175717937e+001,-1.76848457527385e-001

1.02811382665607e+004,-1.88827201079497e+001,-1.79316678159780e-001

1.04246576084112e+004,-1.88827227152697e+001,-1.81819333011869e-001

1.05701804056138e+004,-1.88827253957466e+001,-1.84356901883688e-001

1.07177346253629e+004,-1.88827281514290e+001,-1.86929871235029e-001

1.08673486252606e+004,-1.88827309844223e+001,-1.89538734280010e-001

1.10190511587661e+004,-1.88827338968909e+001,-1.92183991074452e-001

1.11728713807222e+004,-1.88827368910595e+001,-1.94866148613315e-001

1.13288388529580e+004,-1.88827399692145e+001,-1.97585720925485e-001

1.14869835499703e+004,-1.88827431337065e+001,-2.00343229168368e-001

1.16473358646846e+004,-1.88827463869511e+001,-2.03139201726927e-001

1.18099266142953e+004,-1.88827497314313e+001,-2.05974174313419e-001

1.19747870461893e+004,-1.88827531696995e+001,-2.08848690064379e-001

1.21419488439505e+004,-1.88827567043784e+001,-2.11763299646936e-001

1.23114441334492e+004,-1.88827603381646e+001,-2.14718561354931e-001

1.24833054890161e+004,-1.88827640738291e+001,-2.17715041219336e-001

1.26575659397028e+004,-1.88827679142201e+001,-2.20753313110976e-001

1.28342589756290e+004,-1.88827718622648e+001,-2.23833958848277e-001

1.30134185544193e+004,-1.88827759209721e+001,-2.26957568303195e-001

1.31950791077289e+004,-1.88827800934341e+001,-2.30124739514681e-001

1.33792755478611e+004,-1.88827843828289e+001,-2.33336078796596e-001

1.35660432744767e+004,-1.88827887924230e+001,-2.36592200850291e-001

1.37554181813974e+004,-1.88827933255732e+001,-2.39893728882460e-001

1.39474366635040e+004,-1.88827979857297e+001,-2.43241294714462e-001

1.41421356237309e+004,-1.88828027764382e+001,-2.46635538903770e-001

1.43395524801583e+004,-1.88828077013427e+001,-2.50077110861471e-001

1.45397251732031e+004,-1.88828127641881e+001,-2.53566668971331e-001

1.47426921729110e+004,-1.88828179688230e+001,-2.57104880710969e-001

1.49484924863494e+004,-1.88828233192029e+001,-2.60692422774040e-001

1.51571656651040e+004,-1.88828288193921e+001,-2.64329981198038e-001

1.53687518128801e+004,-1.88828344735678e+001,-2.68018251488277e-001

1.55832915932100e+004,-1.88828402860225e+001,-2.71757938742250e-001

1.58008262372675e+004,-1.88828462611673e+001,-2.75549757785158e-001

1.60213975517924e+004,-1.88828524035351e+001,-2.79394433296505e-001

1.62450479271247e+004,-1.88828587177841e+001,-2.83292699941920e-001

1.64718203453514e+004,-1.88828652087005e+001,-2.87245302511996e-001

1.67017583885674e+004,-1.88828718812033e+001,-2.91252996050991e-001

1.69349062472505e+004,-1.88828787403461e+001,-2.95316546002035e-001

1.71713087287550e+004,-1.88828857913226e+001,-2.99436728337810e-001

1.74110112659224e+004,-1.88828930394687e+001,-3.03614329709466e-001

1.76540599258131e+004,-1.88829004902677e+001,-3.07850147581984e-001

1.79005014185594e+004,-1.88829081493531e+001,-3.12144990384316e-001

1.81503831063432e+004,-1.88829160225136e+001,-3.16499677651036e-001

1.84037530124975e+004,-1.88829241156967e+001,-3.20915040170371e-001

1.86606598307361e+004,-1.88829324350130e+001,-3.25391920137445e-001

1.89211529345119e+004,-1.88829409867407e+001,-3.29931171300942e-001

1.91852823865052e+004,-1.88829497773301e+001,-3.34533659117027e-001

1.94530989482457e+004,-1.88829588134081e+001,-3.39200260906064e-001

1.97246540898671e+004,-1.88829681017827e+001,-3.43931866008095e-001

1.99999999999999e+004,-1.88829776494484e+001,-3.48729375939633e-001

2.02791895958005e+004,-1.88829874635904e+001,-3.53593704556285e-001

2.05622765331213e+004,-1.88829975515901e+001,-3.58525778214172e-001

2.08493152168224e+004,-1.88830079210305e+001,-3.63526535930615e-001

2.11403608112276e+004,-1.88830185797006e+001,-3.68596929556597e-001

2.14354692507258e+004,-1.88830295356020e+001,-3.73737923936360e-001

2.17346972505211e+004,-1.88830407969537e+001,-3.78950497083384e-001

2.20381023175322e+004,-1.88830523721980e+001,-3.84235640348382e-001

2.23457427614443e+004,-1.88830642700063e+001,-3.89594358592504e-001

2.26576777059159e+004,-1.88830764992854e+001,-3.95027670363992e-001

2.29739670999406e+004,-1.88830890691832e+001,-4.00536608073576e-001

2.32946717293690e+004,-1.88831019890950e+001,-4.06122218176472e-001

2.36198532285905e+004,-1.88831152686704e+001,-4.11785561348036e-001

2.39495740923785e+004,-1.88831289178194e+001,-4.17527712670804e-001

2.42838976879009e+004,-1.88831429467190e+001,-4.23349761818351e-001

2.46228882668982e+004,-1.88831573658209e+001,-4.29252813239638e-001

2.49666109780322e+004,-1.88831721858572e+001,-4.35237986352006e-001

2.53151318794055e+004,-1.88831874178494e+001,-4.41306415725230e-001

2.56685179512580e+004,-1.88832030731136e+001,-4.47459251280964e-001

2.60268371088386e+004,-1.88832191632702e+001,-4.53697658480507e-001

2.63901582154578e+004,-1.88832357002498e+001,-4.60022818526884e-001

2.67585510957221e+004,-1.88832526963023e+001,-4.66435928557993e-001

2.71320865489533e+004,-1.88832701640042e+001,-4.72938201849001e-001

2.75108363627948e+004,-1.88832881162672e+001,-4.79530868015878e-001

2.78948733270080e+004,-1.88833065663464e+001,-4.86215173215187e-001

2.82842712474618e+004,-1.88833255278492e+001,-4.92992380353128e-001

2.86791049603164e+004,-1.88833450147435e+001,-4.99863769292427e-001

2.90794503464061e+004,-1.88833650413670e+001,-5.06830637061715e-001

2.94853843458219e+004,-1.88833856224363e+001,-5.13894298066153e-001

2.98969849726987e+004,-1.88834067730562e+001,-5.21056084301625e-001

3.03143313302078e+004,-1.88834285087293e+001,-5.28317345569204e-001

3.07375036257601e+004,-1.88834508453652e+001,-5.35679449693077e-001

3.11665831864199e+004,-1.88834737992910e+001,-5.43143782738460e-001

3.16016524745350e+004,-1.88834973872611e+001,-5.50711749232235e-001

3.20427951035848e+004,-1.88835216264674e+001,-5.58384772384930e-001

3.24900958542493e+004,-1.88835465345498e+001,-5.66164294315719e-001

3.29436406907028e+004,-1.88835721296070e+001,-5.74051776278103e-001

3.34035167771346e+004,-1.88835984302071e+001,-5.82048698886270e-001

3.38698124945009e+004,-1.88836254553989e+001,-5.90156562345245e-001

3.43426174575100e+004,-1.88836532247229e+001,-5.98376886681868e-001

3.48220225318448e+004,-1.88836817582230e+001,-6.06711211976840e-001

3.53081198516260e+004,-1.88837110764577e+001,-6.15161098599108e-001

3.58010028371187e+004,-1.88837412005123e+001,-6.23728127441627e-001

3.63007662126863e+004,-1.88837721520109e+001,-6.32413900158324e-001

3.68075060249948e+004,-1.88838039531284e+001,-6.41220039401994e-001

3.73213196614721e+004,-1.88838366266028e+001,-6.50148189067450e-001

3.78423058690237e+004,-1.88838701957482e+001,-6.59200014528727e-001

3.83705647730104e+004,-1.88839046844670e+001,-6.68377202886309e-001

3.89061978964912e+004,-1.88839401172632e+001,-6.77681463207737e-001

3.94493081797342e+004,-1.88839765192553e+001,-6.87114526777307e-001

3.99999999999998e+004,-1.88840139161896e+001,-6.96678147339096e-001

4.05583791916010e+004,-1.88840523344539e+001,-7.06374101346973e-001

4.11245530662425e+004,-1.88840918010903e+001,-7.16204188214666e-001

4.16986304336447e+004,-1.88841323438098e+001,-7.26170230563730e-001

4.22807216224550e+004,-1.88841739910058e+001,-7.36274074477628e-001

4.28709385014515e+004,-1.88842167717678e+001,-7.46517589752478e-001

4.34693945010421e+004,-1.88842607158960e+001,-7.56902670151142e-001

4.40762046350642e+004,-1.88843058539154e+001,-7.67431233657215e-001

4.46914855228886e+004,-1.88843522170899e+001,-7.78105222730200e-001

4.53153554118317e+004,-1.88843998374369e+001,-7.88926604562306e-001

4.59479341998812e+004,-1.88844487477421e+001,-7.99897371333457e-001

4.65893434587380e+004,-1.88844989815733e+001,-8.11019540471483e-001

4.72397064571810e+004,-1.88845505732961e+001,-8.22295154905566e-001

4.78991481847569e+004,-1.88846035580875e+001,-8.33726283329438e-001

4.85677953758016e+004,-1.88846579719514e+001,-8.45315020458116e-001

4.92457765337964e+004,-1.88847138517329e+001,-8.57063487286511e-001

4.99332219560642e+004,-1.88847712351328e+001,-8.68973831352103e-001

5.06302637588109e+004,-1.88848301607230e+001,-8.81048226991129e-001

5.13370359025159e+004,-1.88848906679603e+001,-8.93288875602664e-001

5.20536742176771e+004,-1.88849527972011e+001,-9.05698005906948e-001

5.27803164309155e+004,-1.88850165897159e+001,-9.18277874207780e-001

5.35171021914442e+004,-1.88850820877038e+001,-9.31030764650181e-001

5.42641730979066e+004,-1.88851493343062e+001,-9.43958989485615e-001

5.50216727255895e+004,-1.88852183736210e+001,-9.57064889329389e-001

5.57897466540159e+004,-1.88852892507160e+001,-9.70350833422222e-001

5.65685424949235e+004,-1.88853620116427e+001,-9.83819219892428e-001

5.73582099206328e+004,-1.88854367034494e+001,-9.97472476014533e-001

5.81589006928121e+004,-1.88855133741938e+001,-1.01131305847044e+000

5.89707686916437e+004,-1.88855920729560e+001,-1.02534345360980e+000

5.97939699453972e+004,-1.88856728498499e+001,-1.03956617770997e+000

6.06286626604156e+004,-1.88857557560355e+001,-1.05398377723459e+000

6.14750072515201e+004,-1.88858408437297e+001,-1.06859882909581e+000

6.23331663728396e+004,-1.88859281662172e+001,-1.08341394090964e+000

6.32033049490698e+004,-1.88860177778603e+001,-1.09843175125918e+000

6.40855902071694e+004,-1.88861097341086e+001,-1.11365492994997e+000

6.49801917084985e+004,-1.88862040915077e+001,-1.12908617827089e+000

6.58872813814055e+004,-1.88863009077070e+001,-1.14472822925233e+000

6.68070335542691e+004,-1.88864002414672e+001,-1.16058384792411e+000

6.77396249890018e+004,-1.88865021526669e+001,-1.17665583157417e+000

6.86852349150199e+004,-1.88866067023072e+001,-1.19294701000832e+000

6.96440450636895e+004,-1.88867139525177e+001,-1.20946024580709e+000

7.06162397032520e+004,-1.88868239665583e+001,-1.22619843458716e+000

7.16020056742374e+004,-1.88869368088228e+001,-1.24316450525946e+000

7.26015324253724e+004,-1.88870525448395e+001,-1.26036142029028e+000

7.36150120499896e+004,-1.88871712412715e+001,-1.27779217596176e+000

7.46426393229441e+004,-1.88872929659151e+001,-1.29545980263459e+000

7.56846117380472e+004,-1.88874177876969e+001,-1.31336736501179e+000

7.67411295460207e+004,-1.88875457766697e+001,-1.33151796240351e+000

7.78123957929823e+004,-1.88876770040070e+001,-1.34991472899300e+000

7.88986163594682e+004,-1.88878115419949e+001,-1.36856083410643e+000

7.99999999999995e+004,-1.88879494640234e+001,-1.38745948248422e+000

8.11167583832018e+004,-1.88880908445754e+001,-1.40661391455598e+000

8.22491061324848e+004,-1.88882357592137e+001,-1.42602740671698e+000

8.33972608672892e+004,-1.88883842845659e+001,-1.44570327160978e+000

8.45614432449099e+004,-1.88885364983081e+001,-1.46564485841172e+000

8.57418770029029e+004,-1.88886924791452e+001,-1.48585555312276e+000

8.69387890020841e+004,-1.88888523067898e+001,-1.50633877886306e+000

8.81524092701283e+004,-1.88890160619389e+001,-1.52709799617376e+000

8.93829710457770e+004,-1.88891838262469e+001,-1.54813670332742e+000

9.06307108236633e+004,-1.88893556822979e+001,-1.56945843664161e+000

9.18958683997622e+004,-1.88895317135739e+001,-1.59106677080443e+000

9.31786869174758e+004,-1.88897120044211e+001,-1.61296531920739e+000

9.44794129143618e+004,-1.88898966400129e+001,-1.63515773428827e+000

9.57982963695136e+004,-1.88900857063111e+001,-1.65764770788412e+000

9.71355907516031e+004,-1.88902792900222e+001,-1.68043897159874e+000

9.84915530675926e+004,-1.88904774785528e+001,-1.70353529717882e+000

9.98664439121282e+004,-1.88906803599607e+001,-1.72694049690724e+000

1.01260527517622e+005,-1.88908880229029e+001,-1.75065842401054e+000

1.02674071805032e+005,-1.88911005565805e+001,-1.77469297308213e+000

1.04107348435354e+005,-1.88913180506806e+001,-1.79904808052428e+000

1.05560632861831e+005,-1.88915405953146e+001,-1.82372772500641e+000

1.07034204382888e+005,-1.88917682809529e+001,-1.84873592794744e+000

1.08528346195813e+005,-1.88920011983564e+001,-1.87407675401791e+000

1.10043345451179e+005,-1.88922394385045e+001,-1.89975431166424e+000

1.11579493308032e+005,-1.88924830925194e+001,-1.92577275366048e+000

1.13137084989847e+005,-1.88927322515878e+001,-1.95213627768466e+000

1.14716419841265e+005,-1.88929870068772e+001,-1.97884912692464e+000

1.16317801385624e+005,-1.88932474494510e+001,-2.00591559071301e+000

1.17941537383287e+005,-1.88935136701783e+001,-2.03334000519515e+000

1.19587939890794e+005,-1.88937857596411e+001,-2.06112675402852e+000

1.21257325320831e+005,-1.88940638080383e+001,-2.08928026912102e+000

1.22950014503040e+005,-1.88943479050854e+001,-2.11780503140416e+000

1.24666332745679e+005,-1.88946381399122e+001,-2.14670557164698e+000

1.26406609898139e+005,-1.88949346009565e+001,-2.17598647131180e+000

1.28171180414339e+005,-1.88952373758551e+001,-2.20565236345228e+000

1.29960383416997e+005,-1.88955465513314e+001,-2.23570793365976e+000

1.31774562762811e+005,-1.88958622130817e+001,-2.26615792105411e+000

1.33614067108538e+005,-1.88961844456567e+001,-2.29700711932811e+000

1.35479249978003e+005,-1.88965133323427e+001,-2.32826037784179e+000

1.37370469830040e+005,-1.88968489550395e+001,-2.35992260277058e+000

1.39288090127379e+005,-1.88971913941371e+001,-2.39199875831165e+000

1.41232479406504e+005,-1.88975407283895e+001,-2.42449386794759e+000

1.43204011348474e+005,-1.88978970347890e+001,-2.45741301576976e+000

1.45203064850745e+005,-1.88982603884378e+001,-2.49076134786595e+000

1.47230024099979e+005,-1.88986308624201e+001,-2.52454407376998e+000

1.49285278645888e+005,-1.88990085276726e+001,-2.55876646798013e+000

1.51369223476094e+005,-1.88993934528564e+001,-2.59343387154298e+000

1.53482259092041e+005,-1.88997857042286e+001,-2.62855169370890e+000

1.55624791585964e+005,-1.89001853455146e+001,-2.66412541365778e+000

1.57797232718936e+005,-1.89005924377822e+001,-2.70016058229694e+000

1.59999999999999e+005,-1.89010070393174e+001,-2.73666282413503e+000

1.62233516766403e+005,-1.89014292055022e+001,-2.77363783922873e+000

1.64498212264969e+005,-1.89018589886959e+001,-2.81109140520693e+000

1.66794521734578e+005,-1.89022964381191e+001,-2.84902937937127e+000

1.69122886489819e+005,-1.89027415997421e+001,-2.88745770087592e+000

1.71483754005805e+005,-1.89031945161773e+001,-2.92638239298275e+000

1.73877578004168e+005,-1.89036552265779e+001,-2.96580956539627e+000

1.76304818540256e+005,-1.89041237665405e+001,-3.00574541667773e+000

1.78765942091554e+005,-1.89046001680161e+001,-3.04619623673557e+000

1.81261421647326e+005,-1.89050844592263e+001,-3.08716840939354e+000

1.83791736799524e+005,-1.89055766645887e+001,-3.12866841503624e+000

1.86357373834951e+005,-1.89060768046491e+001,-3.17070283333043e+000

1.88958825828723e+005,-1.89065848960238e+001,-3.21327834601926e+000

1.91596592739027e+005,-1.89071009513509e+001,-3.25640173979055e+000

1.94271181503206e+005,-1.89076249792518e+001,-3.30007990921517e+000

1.96983106135185e+005,-1.89081569843039e+001,-3.34431985975439e+000

1.99732887824256e+005,-1.89086969670244e+001,-3.38912871083163e+000

2.02521055035243e+005,-1.89092449238662e+001,-3.43451369896982e+000

2.05348143610063e+005,-1.89098008472264e+001,-3.48048218098758e+000

2.08214696870707e+005,-1.89103647254688e+001,-3.52704163725114e+000

2.11121265723661e+005,-1.89109365429585e+001,-3.57419967498024e+000

2.14068408765776e+005,-1.89115162801126e+001,-3.62196403160308e+000

2.17056692391625e+005,-1.89121039134643e+001,-3.67034257815497e+000

2.20086690902357e+005,-1.89126994157426e+001,-3.71934332271848e+000

2.23158986616063e+005,-1.89133027559677e+001,-3.76897441389715e+000

2.26274169979693e+005,-1.89139138995622e+001,-3.81924414432052e+000

2.29432839682530e+005,-1.89145328084782e+001,-3.87016095417492e+000

2.32635602771247e+005,-1.89151594413412e+001,-3.92173343475255e+000

2.35883074766574e+005,-1.89157937536108e+001,-3.97397033201594e+000

2.39175879781588e+005,-1.89164356977575e+001,-4.02688055017027e+000

2.42514650641661e+005,-1.89170852234569e+001,-4.08047315523846e+000

2.45900029006080e+005,-1.89177422778005e+001,-4.13475737863330e+000

2.49332665491357e+005,-1.89184068055239e+001,-4.18974262072014e+000

2.52813219796278e+005,-1.89190787492506e+001,-4.24543845436474e+000

2.56342360828676e+005,-1.89197580497534e+001,-4.30185462845993e+000

2.59920766833993e+005,-1.89204446462317e+001,-4.35900107142525e+000

2.63549125525621e+005,-1.89211384766047e+001,-4.41688789467437e+000

2.67228134217075e+005,-1.89218394778200e+001,-4.47552539604357e+000

2.70958499956006e+005,-1.89225475861783e+001,-4.53492406317712e+000

2.74740939660078e+005,-1.89232627376716e+001,-4.59509457686180e+000

2.78576180254757e+005,-1.89239848683366e+001,-4.65604781430925e+000

2.82464958813007e+005,-1.89247139146207e+001,-4.71779485237720e+000

2.86408022696948e+005,-1.89254498137615e+001,-4.78034697072840e+000

2.90406129701488e+005,-1.89261925041782e+001,-4.84371565492046e+000

2.94460048199957e+005,-1.89269419258742e+001,-4.90791259942453e+000

2.98570557291775e+005,-1.89276980208507e+001,-4.97294971056831e+000

3.02738446952187e+005,-1.89284607335293e+001,-5.03883910940012e+000

3.06964518184081e+005,-1.89292300111838e+001,-5.10559313447337e+000

3.11249583171928e+005,-1.89300058043802e+001,-5.17322434454511e+000

3.15594465437872e+005,-1.89307880674230e+001,-5.24174552119177e+000

3.19999999999997e+005,-1.89315767588077e+001,-5.31116967133674e+000

3.24467033532806e+005,-1.89323718416782e+001,-5.38151002969179e+000

3.28996424529938e+005,-1.89331732842889e+001,-5.45278006110993e+000

3.33589043469155e+005,-1.89339810604688e+001,-5.52499346285057e+000

3.38245772979638e+005,-1.89347951500881e+001,-5.59816416675936e+000

3.42967508011610e+005,-1.89356155395264e+001,-5.67230634136022e+000

3.47755156008335e+005,-1.89364422221398e+001,-5.74743439386503e+000

3.52609637080511e+005,-1.89372751987289e+001,-5.82356297209964e+000

3.57531884183106e+005,-1.89381144780035e+001,-5.90070696635156e+000

3.62522843294651e+005,-1.89389600770460e+001,-5.97888151114081e+000

3.67583473599047e+005,-1.89398120217705e+001,-6.05810198691745e+000

3.72714747669902e+005,-1.89406703473782e+001,-6.13838402168919e+000

3.77917651657445e+005,-1.89415350988084e+001,-6.21974349258531e+000

3.83193185478053e+005,-1.89424063311830e+001,-6.30219652735819e+000

3.88542363006410e+005,-1.89432841102452e+001,-6.38575950582963e+000

3.93966212270369e+005,-1.89441685127923e+001,-6.47044906128614e+000

3.99465775648511e+005,-1.89450596270997e+001,-6.55628208182943e+000

4.05042110070485e+005,-1.89459575533388e+001,-6.64327571168532e+000

4.10696287220124e+005,-1.89468624039855e+001,-6.73144735247971e+000

4.16429393741414e+005,-1.89477743042218e+001,-6.82081466448559e+000

4.22242531447321e+005,-1.89486933923275e+001,-6.91139556784726e+000

4.28136817531551e+005,-1.89496198200645e+001,-7.00320824378838e+000

4.34113384783250e+005,-1.89505537530508e+001,-7.09627113580951e+000

4.40173381804713e+005,-1.89514953711269e+001,-7.19060295088125e+000

4.46317973232124e+005,-1.89524448687135e+001,-7.28622266063813e+000

4.52548339959385e+005,-1.89534024551592e+001,-7.38314950258095e+000

4.58865679365059e+005,-1.89543683550812e+001,-7.48140298129208e+000

4.65271205542494e+005,-1.89553428086972e+001,-7.58100286966974e+000

4.71766149533147e+005,-1.89563260721489e+001,-7.68196921018632e+000

4.78351759563174e+005,-1.89573184178189e+001,-7.78432231617637e+000

4.85029301283321e+005,-1.89583201346399e+001,-7.88808277316075e+000

4.91800058012158e+005,-1.89593315283968e+001,-7.99327144020910e+000

4.98665330982714e+005,-1.89603529220239e+001,-8.09990945134669e+000

5.05626439592555e+005,-1.89613846558950e+001,-8.20801821701087e+000

5.12684721657352e+005,-1.89624270881098e+001,-8.31761942555981e+000

5.19841533667984e+005,-1.89634805947751e+001,-8.42873504483671e+000

5.27098251051240e+005,-1.89645455702827e+001,-8.54138732379526e+000

5.34456268434150e+005,-1.89656224275846e+001,-8.65559879418619e+000

5.41916999912011e+005,-1.89667115984652e+001,-8.77139227231167e+000

