Freq.,VOut,OutRef

1.00000000000000e+004,-1.76318569721886e+001,-2.59228813111214e-001

1.01395947979003e+004,-1.76318590228038e+001,-2.62847178461530e-001

1.02811382665607e+004,-1.76318611309790e+001,-2.66516040143894e-001

1.04246576084112e+004,-1.76318632983272e+001,-2.70236102460855e-001

1.05701804056138e+004,-1.76318655265064e+001,-2.74008079522528e-001

1.07177346253629e+004,-1.76318678172211e+001,-2.77832695377915e-001

1.08673486252606e+004,-1.76318701722233e+001,-2.81710684158627e-001

1.10190511587661e+004,-1.76318725933140e+001,-2.85642790213896e-001

1.11728713807222e+004,-1.76318750823444e+001,-2.89629768254917e-001

1.13288388529580e+004,-1.76318776412172e+001,-2.93672383496941e-001

1.14869835499703e+004,-1.76318802718883e+001,-2.97771411804047e-001

1.16473358646846e+004,-1.76318829763683e+001,-3.01927639837698e-001

1.18099266142953e+004,-1.76318857567238e+001,-3.06141865204487e-001

1.19747870461893e+004,-1.76318886150790e+001,-3.10414896608828e-001

1.21419488439505e+004,-1.76318915536170e+001,-3.14747554007229e-001

1.23114441334492e+004,-1.76318945745822e+001,-3.19140668760245e-001

1.24833054890161e+004,-1.76318976802814e+001,-3.23595083792698e-001

1.26575659397028e+004,-1.76319008730855e+001,-3.28111653754605e-001

1.28342589756290e+004,-1.76319041554316e+001,-3.32691245178186e-001

1.30134185544193e+004,-1.76319075298245e+001,-3.37334736646868e-001

1.31950791077289e+004,-1.76319109988388e+001,-3.42043018959808e-001

1.33792755478611e+004,-1.76319145651206e+001,-3.46816995298906e-001

1.35660432744767e+004,-1.76319182313897e+001,-3.51657581401639e-001

1.37554181813974e+004,-1.76319220004416e+001,-3.56565705731251e-001

1.39474366635040e+004,-1.76319258751494e+001,-3.61542309657085e-001

1.41421356237309e+004,-1.76319298584661e+001,-3.66588347625853e-001

1.43395524801583e+004,-1.76319339534266e+001,-3.71704787347285e-001

1.45397251732031e+004,-1.76319381631503e+001,-3.76892609973133e-001

1.47426921729110e+004,-1.76319424908429e+001,-3.82152810284535e-001

1.49484924863494e+004,-1.76319469397994e+001,-3.87486396876056e-001

1.51571656651040e+004,-1.76319515134059e+001,-3.92894392349786e-001

1.53687518128801e+004,-1.76319562151425e+001,-3.98377833504506e-001

1.55832915932100e+004,-1.76319610485859e+001,-4.03937771531231e-001

1.58008262372675e+004,-1.76319660174116e+001,-4.09575272212467e-001

1.60213975517924e+004,-1.76319711253973e+001,-4.15291416120338e-001

1.62450479271247e+004,-1.76319763764248e+001,-4.21087298820984e-001

1.64718203453514e+004,-1.76319817744837e+001,-4.26964031078821e-001

1.67017583885674e+004,-1.76319873236740e+001,-4.32922739064138e-001

1.69349062472505e+004,-1.76319930282086e+001,-4.38964564567197e-001

1.71713087287550e+004,-1.76319988924172e+001,-4.45090665208715e-001

1.74110112659224e+004,-1.76320049207491e+001,-4.51302214657482e-001

1.76540599258131e+004,-1.76320111177761e+001,-4.57600402850793e-001

1.79005014185594e+004,-1.76320174881965e+001,-4.63986436214473e-001

1.81503831063432e+004,-1.76320240368379e+001,-4.70461537890427e-001

1.84037530124975e+004,-1.76320307686612e+001,-4.77026947962898e-001

1.86606598307361e+004,-1.76320376887637e+001,-4.83683923690365e-001

1.89211529345119e+004,-1.76320448023834e+001,-4.90433739738591e-001

1.91852823865052e+004,-1.76320521149020e+001,-4.97277688420351e-001

1.94530989482457e+004,-1.76320596318496e+001,-5.04217079931988e-001

1.97246540898671e+004,-1.76320673589078e+001,-5.11253242599211e-001

1.99999999999999e+004,-1.76320753019146e+001,-5.18387523122761e-001

2.02791895958005e+004,-1.76320834668681e+001,-5.25621286827944e-001

2.05622765331213e+004,-1.76320918599308e+001,-5.32955917917205e-001

2.08493152168224e+004,-1.76321004874345e+001,-5.40392819725133e-001

2.11403608112276e+004,-1.76321093558838e+001,-5.47933414981109e-001

2.14354692507258e+004,-1.76321184719619e+001,-5.55579146067142e-001

2.17346972505211e+004,-1.76321278425342e+001,-5.63331475288044e-001

2.20381023175322e+004,-1.76321374746542e+001,-5.71191885137577e-001

2.23457427614443e+004,-1.76321473755677e+001,-5.79161878573264e-001

2.26576777059159e+004,-1.76321575527181e+001,-5.87242979290373e-001

2.29739670999406e+004,-1.76321680137517e+001,-5.95436732004320e-001

2.32946717293690e+004,-1.76321787665234e+001,-6.03744702730372e-001

2.36198532285905e+004,-1.76321898191013e+001,-6.12168479072965e-001

2.39495740923785e+004,-1.76322011797729e+001,-6.20709670514813e-001

2.42838976879009e+004,-1.76322128570511e+001,-6.29369908709921e-001

2.46228882668982e+004,-1.76322248596792e+001,-6.38150847783050e-001

2.49666109780322e+004,-1.76322371966382e+001,-6.47054164627538e-001

2.53151318794055e+004,-1.76322498771514e+001,-6.56081559214467e-001

2.56685179512580e+004,-1.76322629106921e+001,-6.65234754896456e-001

2.60268371088386e+004,-1.76322763069893e+001,-6.74515498723926e-001

2.63901582154578e+004,-1.76322900760346e+001,-6.83925561758812e-001

2.67585510957221e+004,-1.76323042280887e+001,-6.93466739394712e-001

2.71320865489533e+004,-1.76323187736888e+001,-7.03140851681336e-001

2.75108363627948e+004,-1.76323337236552e+001,-7.12949743652015e-001

2.78948733270080e+004,-1.76323490890985e+001,-7.22895285655886e-001

2.82842712474618e+004,-1.76323648814279e+001,-7.32979373690630e-001

2.86791049603164e+004,-1.76323811123576e+001,-7.43203929745828e-001

2.90794503464061e+004,-1.76323977939151e+001,-7.53570902144335e-001

2.94853843458219e+004,-1.76324149384492e+001,-7.64082265889698e-001

2.98969849726987e+004,-1.76324325586381e+001,-7.74740023018528e-001

3.03143313302078e+004,-1.76324506674973e+001,-7.85546202956800e-001

3.07375036257601e+004,-1.76324692783882e+001,-7.96502862878841e-001

3.11665831864199e+004,-1.76324884050272e+001,-8.07612088070506e-001

3.16016524745350e+004,-1.76325080614939e+001,-8.18875992299734e-001

3.20427951035848e+004,-1.76325282622400e+001,-8.30296718187902e-001

3.24900958542493e+004,-1.76325490220995e+001,-8.41876437585125e-001

3.29436406907028e+004,-1.76325703562966e+001,-8.53617351954544e-001

3.34035167771346e+004,-1.76325922804565e+001,-8.65521692753960e-001

3.38698124945009e+004,-1.76326148106144e+001,-8.77591721827521e-001

3.43426174575100e+004,-1.76326379632261e+001,-8.89829731799210e-001

3.48220225318448e+004,-1.76326617551772e+001,-9.02238046472032e-001

3.53081198516260e+004,-1.76326862037942e+001,-9.14819021228851e-001

3.58010028371187e+004,-1.76327113268550e+001,-9.27575043440984e-001

3.63007662126863e+004,-1.76327371425991e+001,-9.40508532878581e-001

3.68075060249948e+004,-1.76327636697391e+001,-9.53621942128674e-001

3.73213196614721e+004,-1.76327909274712e+001,-9.66917757013593e-001

3.78423058690237e+004,-1.76328189354873e+001,-9.80398497016142e-001

3.83705647730104e+004,-1.76328477139858e+001,-9.94066715710549e-001

3.89061978964912e+004,-1.76328772836837e+001,-1.00792500119524e+000

3.94493081797342e+004,-1.76329076658283e+001,-1.02197597653206e+000

3.99999999999998e+004,-1.76329388822094e+001,-1.03622230018905e+000

4.05583791916010e+004,-1.76329709551716e+001,-1.05066666648806e+000

4.11245530662425e+004,-1.76330039076268e+001,-1.06531180605838e+000

4.16986304336447e+004,-1.76330377630666e+001,-1.08016048629201e+000

4.22807216224550e+004,-1.76330725455756e+001,-1.09521551180701e+000

4.28709385014515e+004,-1.76331082798441e+001,-1.11047972491220e+000

4.34693945010421e+004,-1.76331449911813e+001,-1.12595600607926e+000

4.40762046350642e+004,-1.76331827055288e+001,-1.14164727441824e+000

4.46914855228886e+004,-1.76332214494742e+001,-1.15755648815827e+000

4.53153554118317e+004,-1.76332612502649e+001,-1.17368664513108e+000

4.59479341998812e+004,-1.76333021358214e+001,-1.19004078326293e+000

4.65893434587380e+004,-1.76333441347522e+001,-1.20662198106807e+000

4.72397064571810e+004,-1.76333872763671e+001,-1.22343335814894e+000

4.78991481847569e+004,-1.76334315906922e+001,-1.24047807569895e+000

4.85677953758016e+004,-1.76334771084839e+001,-1.25775933701304e+000

4.92457765337964e+004,-1.76335238612438e+001,-1.27528038800055e+000

4.99332219560642e+004,-1.76335718812329e+001,-1.29304451770450e+000

5.06302637588109e+004,-1.76336212014867e+001,-1.31105505882450e+000

5.13370359025159e+004,-1.76336718558301e+001,-1.32931538824524e+000

5.20536742176771e+004,-1.76337238788920e+001,-1.34782892757054e+000

5.27803164309155e+004,-1.76337773061206e+001,-1.36659914366094e+000

5.35171021914442e+004,-1.76338321737981e+001,-1.38562954917698e+000

5.42641730979066e+004,-1.76338885190562e+001,-1.40492370312806e+000

5.50216727255895e+004,-1.76339463798908e+001,-1.42448521142435e+000

5.57897466540159e+004,-1.76340057951770e+001,-1.44431772743632e+000

5.65685424949235e+004,-1.76340668046847e+001,-1.46442495255824e+000

5.73582099206328e+004,-1.76341294490929e+001,-1.48481063677592e+000

5.81589006928121e+004,-1.76341937700051e+001,-1.50547857924049e+000

5.89707686916437e+004,-1.76342598099641e+001,-1.52643262884823e+000

5.97939699453972e+004,-1.76343276124666e+001,-1.54767668482437e+000

6.06286626604156e+004,-1.76343972219779e+001,-1.56921469731219e+000

6.14750072515201e+004,-1.76344686839464e+001,-1.59105066796919e+000

6.23331663728396e+004,-1.76345420448179e+001,-1.61318865056746e+000

6.32033049490698e+004,-1.76346173520496e+001,-1.63563275159854e+000

6.40855902071694e+004,-1.76346946541239e+001,-1.65838713088724e+000

6.49801917084985e+004,-1.76347740005621e+001,-1.68145600220775e+000

6.58872813814055e+004,-1.76348554419375e+001,-1.70484363390866e+000

6.68070335542691e+004,-1.76349390298883e+001,-1.72855434954070e+000

6.77396249890018e+004,-1.76350248171302e+001,-1.75259252849423e+000

6.86852349150199e+004,-1.76351128574686e+001,-1.77696260664015e+000

6.96440450636895e+004,-1.76352032058103e+001,-1.80166907697816e+000

7.06162397032520e+004,-1.76352959181741e+001,-1.82671649029332e+000

7.16020056742374e+004,-1.76353910517025e+001,-1.85210945581576e+000

7.26015324253724e+004,-1.76354886646709e+001,-1.87785264189090e+000

7.36150120499896e+004,-1.76355888164973e+001,-1.90395077665547e+000

7.46426393229441e+004,-1.76356915677515e+001,-1.93040864871978e+000

7.56846117380472e+004,-1.76357969801625e+001,-1.95723110786063e+000

7.67411295460207e+004,-1.76359051166265e+001,-1.98442306571873e+000

7.78123957929823e+004,-1.76360160412132e+001,-2.01198949650717e+000

7.88986163594682e+004,-1.76361298191711e+001,-2.03993543772674e+000

7.99999999999995e+004,-1.76362465169331e+001,-2.06826599089070e+000

8.11167583832018e+004,-1.76363662021197e+001,-2.09698632225926e+000

8.22491061324848e+004,-1.76364889435421e+001,-2.12610166358355e+000

8.33972608672892e+004,-1.76366148112036e+001,-2.15561731285822e+000

8.45614432449099e+004,-1.76367438763010e+001,-2.18553863508653e+000

8.57418770029029e+004,-1.76368762112235e+001,-2.21587106305508e+000

8.69387890020841e+004,-1.76370118895512e+001,-2.24662009812157e+000

8.81524092701283e+004,-1.76371509860519e+001,-2.27779131101199e+000

8.93829710457770e+004,-1.76372935766772e+001,-2.30939034263344e+000

9.06307108236633e+004,-1.76374397385565e+001,-2.34142290489683e+000

9.18958683997622e+004,-1.76375895499900e+001,-2.37389478155689e+000

9.31786869174758e+004,-1.76377430904400e+001,-2.40681182906346e+000

9.44794129143618e+004,-1.76379004405210e+001,-2.44017997743048e+000

9.57982963695136e+004,-1.76380616819879e+001,-2.47400523111930e+000

9.71355907516031e+004,-1.76382268977225e+001,-2.50829366993930e+000

9.84915530675926e+004,-1.76383961717190e+001,-2.54305144996627e+000

9.98664439121282e+004,-1.76385695890669e+001,-2.57828480447863e+000

1.01260527517622e+005,-1.76387472359326e+001,-2.61400004491455e+000

1.02674071805032e+005,-1.76389291995397e+001,-2.65020356184677e+000

1.04107348435354e+005,-1.76391155681465e+001,-2.68690182598104e+000

1.05560632861831e+005,-1.76393064310225e+001,-2.72410138917607e+000

1.07034204382888e+005,-1.76395018784224e+001,-2.76180888548677e+000

1.08528346195813e+005,-1.76397020015591e+001,-2.80003103223290e+000

1.10043345451179e+005,-1.76399068925739e+001,-2.83877463109240e+000

1.11579493308032e+005,-1.76401166445056e+001,-2.87804656922224e+000

1.13137084989847e+005,-1.76403313512571e+001,-2.91785382040754e+000

1.14716419841265e+005,-1.76405511075608e+001,-2.95820344624082e+000

1.16317801385624e+005,-1.76407760089414e+001,-2.99910259733049e+000

1.17941537383287e+005,-1.76410061516779e+001,-3.04055851454425e+000

1.19587939890794e+005,-1.76412416327628e+001,-3.08257853028363e+000

1.21257325320831e+005,-1.76414825498606e+001,-3.12517006979485e+000

1.22950014503040e+005,-1.76417290012637e+001,-3.16834065251643e+000

1.24666332745679e+005,-1.76419810858478e+001,-3.21209789346517e+000

1.26406609898139e+005,-1.76422389030247e+001,-3.25644950466120e+000

1.28171180414339e+005,-1.76425025526947e+001,-3.30140329659441e+000

1.29960383416997e+005,-1.76427721351974e+001,-3.34696717973444e+000

1.31774562762811e+005,-1.76430477512612e+001,-3.39314916608359e+000

1.33614067108538e+005,-1.76433295019519e+001,-3.43995737077819e+000

1.35479249978003e+005,-1.76436174886209e+001,-3.48740001373496e+000

1.37370469830040e+005,-1.76439118128521e+001,-3.53548542134839e+000

1.39288090127379e+005,-1.76442125764088e+001,-3.58422202823805e+000

1.41232479406504e+005,-1.76445198811805e+001,-3.63361837904881e+000

1.43204011348474e+005,-1.76448338291291e+001,-3.68368313030464e+000

1.45203064850745e+005,-1.76451545222359e+001,-3.73442505231799e+000

1.47230024099979e+005,-1.76454820624487e+001,-3.78585303115575e+000

1.49285278645888e+005,-1.76458165516300e+001,-3.83797607066389e+000

1.51369223476094e+005,-1.76461580915063e+001,-3.89080329455200e+000

1.53482259092041e+005,-1.76465067836180e+001,-3.94434394853759e+000

1.55624791585964e+005,-1.76468627292724e+001,-3.99860740255406e+000

1.57797232718936e+005,-1.76472260294973e+001,-4.05360315302164e+000

1.59999999999999e+005,-1.76475967849984e+001,-4.10934082518099e+000

1.62233516766403e+005,-1.76479750961181e+001,-4.16583017549470e+000

1.64498212264969e+005,-1.76483610627990e+001,-4.22308109411324e+000

1.66794521734578e+005,-1.76487547845497e+001,-4.28110360740768e+000

1.69122886489819e+005,-1.76491563604155e+001,-4.33990788057053e+000

1.71483754005805e+005,-1.76495658889535e+001,-4.39950422028348e+000

1.73877578004168e+005,-1.76499834682121e+001,-4.45990307745420e+000

1.76304818540256e+005,-1.76504091957168e+001,-4.52111505001885e+000

1.78765942091554e+005,-1.76508431684610e+001,-4.58315088581660e+000

1.81261421647326e+005,-1.76512854829039e+001,-4.64602148552766e+000

1.83791736799524e+005,-1.76517362349746e+001,-4.70973790568094e+000

1.86357373834951e+005,-1.76521955200843e+001,-4.77431136172812e+000

1.88958825828723e+005,-1.76526634331455e+001,-4.83975323118302e+000

1.91596592739027e+005,-1.76531400686005e+001,-4.90607505682577e+000

1.94271181503206e+005,-1.76536255204577e+001,-4.97328854997021e+000

1.96983106135185e+005,-1.76541198823382e+001,-5.04140559379433e+000

1.99732887824256e+005,-1.76546232475312e+001,-5.11043824672940e+000

2.02521055035243e+005,-1.76551357090608e+001,-5.18039874590949e+000

2.05348143610063e+005,-1.76556573597623e+001,-5.25129951067434e+000

2.08214696870707e+005,-1.76561882923709e+001,-5.32315314612944e+000

2.11121265723661e+005,-1.76567285996209e+001,-5.39597244675486e+000

2.14068408765776e+005,-1.76572783743576e+001,-5.46977040006431e+000

2.17056692391625e+005,-1.76578377096613e+001,-5.54456019030945e+000

2.20086690902357e+005,-1.76584066989842e+001,-5.62035520222571e+000

2.23158986616063e+005,-1.76589854363003e+001,-5.69716902481918e+000

2.26274169979693e+005,-1.76595740162685e+001,-5.77501545518790e+000

2.29432839682530e+005,-1.76601725344096e+001,-5.85390850237578e+000

2.32635602771247e+005,-1.76607810872970e+001,-5.93386239125423e+000

2.35883074766574e+005,-1.76613997727617e+001,-6.01489156642988e+000

2.39175879781588e+005,-1.76620286901112e+001,-6.09701069617053e+000

2.42514650641661e+005,-1.76626679403632e+001,-6.18023467634919e+000

2.45900029006080e+005,-1.76633176264930e+001,-6.26457863439959e+000

2.49332665491357e+005,-1.76639778536963e+001,-6.35005793327997e+000

2.52813219796278e+005,-1.76646487296655e+001,-6.43668817544042e+000

2.56342360828676e+005,-1.76653303648812e+001,-6.52448520678999e+000

2.59920766833993e+005,-1.76660228729174e+001,-6.61346512065899e+000

2.63549125525621e+005,-1.76667263707614e+001,-6.70364426175310e+000

2.67228134217075e+005,-1.76674409791471e+001,-6.79503923009393e+000

2.70958499956006e+005,-1.76681668229022e+001,-6.88766688494287e+000

2.74740939660078e+005,-1.76689040313094e+001,-6.98154434870476e+000

2.78576180254757e+005,-1.76696527384799e+001,-7.07668901080663e+000

2.82464958813007e+005,-1.76704130837403e+001,-7.17311853154863e+000

2.86408022696948e+005,-1.76711852120319e+001,-7.27085084592380e+000

2.90406129701488e+005,-1.76719692743212e+001,-7.36990416740306e+000

2.94460048199957e+005,-1.76727654280232e+001,-7.47029699168297e+000

2.98570557291775e+005,-1.76735738374345e+001,-7.57204810039304e+000

3.02738446952187e+005,-1.76743946741780e+001,-7.67517656476096e+000

3.06964518184081e+005,-1.76752281176564e+001,-7.77970174923328e+000

3.11249583171928e+005,-1.76760743555164e+001,-7.88564331504851e+000

3.15594465437872e+005,-1.76769335841207e+001,-7.99302122376338e+000

3.19999999999997e+005,-1.76778060090287e+001,-8.10185574072869e+000

3.24467033532806e+005,-1.76786918454851e+001,-8.21216743851581e+000

3.28996424529938e+005,-1.76795913189148e+001,-8.32397720029185e+000

3.33589043469155e+005,-1.76805046654256e+001,-8.43730622314312e+000

3.38245772979638e+005,-1.76814321323151e+001,-8.55217602134872e+000

3.42967508011610e+005,-1.76823739785842e+001,-8.66860842960218e+000

3.47755156008335e+005,-1.76833304754550e+001,-8.78662560618283e+000

3.52609637080511e+005,-1.76843019068926e+001,-8.90625003607953e+000

3.57531884183106e+005,-1.76852885701306e+001,-9.02750453406442e+000

3.62522843294651e+005,-1.76862907762002e+001,-9.15041224772171e+000

3.67583473599047e+005,-1.76873088504614e+001,-9.27499666043072e+000

3.72714747669902e+005,-1.76883431331366e+001,-9.40128159430679e+000

3.77917651657445e+005,-1.76893939798461e+001,-9.52929121310225e+000

3.83193185478053e+005,-1.76904617621451e+001,-9.65905002506804e+000

3.88542363006410e+005,-1.76915468680612e+001,-9.79058288578107e+000

3.93966212270369e+005,-1.76926497026339e+001,-9.92391500093892e+000

3.99465775648511e+005,-1.76937706884528e+001,-1.00590719291238e+001

4.05042110070485e+005,-1.76949102661984e+001,-1.01960795845418e+001

4.10696287220124e+005,-1.76960688951810e+001,-1.03349642397361e+001

4.16429393741414e+005,-1.76972470538808e+001,-1.04757525282818e+001

4.22242531447321e+005,-1.76984452404882e+001,-1.06184714474624e+001

4.28136817531551e+005,-1.76996639734428e+001,-1.07631483609326e+001

4.34113384783250e+005,-1.77009037919743e+001,-1.09098110013694e+001

4.40173381804713e+005,-1.77021652566416e+001,-1.10584874731166e+001

4.46317973232124e+005,-1.77034489498736e+001,-1.12092062548236e+001

4.52548339959385e+005,-1.77047554765096e+001,-1.13619962020811e+001

4.58865679365059e+005,-1.77060854643406e+001,-1.15168865500607e+001

4.65271205542494e+005,-1.77074395646514e+001,-1.16739069161542e+001

4.71766149533147e+005,-1.77088184527640e+001,-1.18330873026208e+001

4.78351759563174e+005,-1.77102228285822e+001,-1.19944580992424e+001

4.85029301283321e+005,-1.77116534171387e+001,-1.21580500859881e+001

4.91800058012158e+005,-1.77131109691439e+001,-1.23238944356903e+001

4.98665330982714e+005,-1.77145962615375e+001,-1.24920227167356e+001

5.05626439592555e+005,-1.77161100980438e+001,-1.26624668957686e+001

5.12684721657352e+005,-1.77176533097299e+001,-1.28352593404124e+001

5.19841533667984e+005,-1.77192267555691e+001,-1.30104328220045e+001

5.27098251051240e+005,-1.77208313230078e+001,-1.31880205183506e+001

5.34456268434150e+005,-1.77224679285386e+001,-1.33680560164930e+001

5.41916999912011e+005,-1.77241375182791e+001,-1.35505733154982e+001

