Freq.,VOut,OutRef

1.00000000000000e+004,-1.27440939345846e+001,-1.03235509374473e-001

1.01395947979003e+004,-1.27440948184722e+001,-1.04676436750572e-001

1.02811382665607e+004,-1.27440957271580e+001,-1.06137470808235e-001

1.04246576084112e+004,-1.27440966613362e+001,-1.07618891890643e-001

1.05701804056138e+004,-1.27440976217201e+001,-1.09120984242778e-001

1.07177346253629e+004,-1.27440986090435e+001,-1.10644036058795e-001

1.08673486252606e+004,-1.27440996240601e+001,-1.12188339542514e-001

1.10190511587661e+004,-1.27441006675451e+001,-1.13754190960210e-001

1.11728713807222e+004,-1.27441017402948e+001,-1.15341890697159e-001

1.13288388529580e+004,-1.27441028431277e+001,-1.16951743316729e-001

1.14869835499703e+004,-1.27441039768854e+001,-1.18584057611485e-001

1.16473358646846e+004,-1.27441051424329e+001,-1.20239146667918e-001

1.18099266142953e+004,-1.27441063406589e+001,-1.21917327924023e-001

1.19747870461893e+004,-1.27441075724774e+001,-1.23618923225336e-001

1.21419488439505e+004,-1.27441088388269e+001,-1.25344258894443e-001

1.23114441334492e+004,-1.27441101406727e+001,-1.27093665782129e-001

1.24833054890161e+004,-1.27441114790070e+001,-1.28867479333934e-001

1.26575659397028e+004,-1.27441128548491e+001,-1.30666039657001e-001

1.28342589756290e+004,-1.27441142692467e+001,-1.32489691579971e-001

1.30134185544193e+004,-1.27441157232767e+001,-1.34338784718261e-001

1.31950791077289e+004,-1.27441172180459e+001,-1.36213673540079e-001

1.33792755478611e+004,-1.27441187546918e+001,-1.38114717432580e-001

1.35660432744767e+004,-1.27441203343830e+001,-1.40042280772897e-001

1.37554181813974e+004,-1.27441219583214e+001,-1.41996732988929e-001

1.39474366635040e+004,-1.27441236277409e+001,-1.43978448639431e-001

1.41421356237309e+004,-1.27441253439109e+001,-1.45987807471447e-001

1.43395524801583e+004,-1.27441271081350e+001,-1.48025194502449e-001

1.45397251732031e+004,-1.27441289217532e+001,-1.50091000086790e-001

1.47426921729110e+004,-1.27441307861426e+001,-1.52185619989738e-001

1.49484924863494e+004,-1.27441327027180e+001,-1.54309455461905e-001

1.51571656651040e+004,-1.27441346729339e+001,-1.56462913312437e-001

1.53687518128801e+004,-1.27441366982843e+001,-1.58646405987228e-001

1.55832915932100e+004,-1.27441387803050e+001,-1.60860351644411e-001

1.58008262372675e+004,-1.27441409205736e+001,-1.63105174233765e-001

1.60213975517924e+004,-1.27441431207116e+001,-1.65381303572939e-001

1.62450479271247e+004,-1.27441453823849e+001,-1.67689175429520e-001

1.64718203453514e+004,-1.27441477073053e+001,-1.70029231601414e-001

1.67017583885674e+004,-1.27441500972322e+001,-1.72401919996257e-001

1.69349062472505e+004,-1.27441525539726e+001,-1.74807694721449e-001

1.71713087287550e+004,-1.27441550793835e+001,-1.77247016159597e-001

1.74110112659224e+004,-1.27441576753731e+001,-1.79720351059646e-001

1.76540599258131e+004,-1.27441603439016e+001,-1.82228172620037e-001

1.79005014185594e+004,-1.27441630869833e+001,-1.84770960578416e-001

1.81503831063432e+004,-1.27441659066873e+001,-1.87349201298711e-001

1.84037530124975e+004,-1.27441688051400e+001,-1.89963387857973e-001

1.86606598307361e+004,-1.27441717845252e+001,-1.92614020145227e-001

1.89211529345119e+004,-1.27441748470871e+001,-1.95301604942820e-001

1.91852823865052e+004,-1.27441779951306e+001,-1.98026656028188e-001

1.94530989482457e+004,-1.27441812310240e+001,-2.00789694263417e-001

1.97246540898671e+004,-1.27441845572002e+001,-2.03591247689504e-001

1.99999999999999e+004,-1.27441879761579e+001,-2.06431851628547e-001

2.02791895958005e+004,-1.27441914904645e+001,-2.09312048775295e-001

2.05622765331213e+004,-1.27441951027567e+001,-2.12232389299491e-001

2.08493152168224e+004,-1.27441988157432e+001,-2.15193430944852e-001

2.11403608112276e+004,-1.27442026322062e+001,-2.18195739130165e-001

2.14354692507258e+004,-1.27442065550030e+001,-2.21239887054755e-001

2.17346972505211e+004,-1.27442105870689e+001,-2.24326455797513e-001

2.20381023175322e+004,-1.27442147314182e+001,-2.27456034425399e-001

2.23457427614443e+004,-1.27442189911469e+001,-2.30629220098385e-001

2.26576777059159e+004,-1.27442233694346e+001,-2.33846618178468e-001

2.29739670999406e+004,-1.27442278695468e+001,-2.37108842336771e-001

2.32946717293690e+004,-1.27442324948365e+001,-2.40416514666121e-001

2.36198532285905e+004,-1.27442372487475e+001,-2.43770265789331e-001

2.39495740923785e+004,-1.27442421348157e+001,-2.47170734976016e-001

2.42838976879009e+004,-1.27442471566723e+001,-2.50618570253086e-001

2.46228882668982e+004,-1.27442523180458e+001,-2.54114428521240e-001

2.49666109780322e+004,-1.27442576227642e+001,-2.57658975674650e-001

2.53151318794055e+004,-1.27442630747579e+001,-2.61252886716246e-001

2.56685179512580e+004,-1.27442686780625e+001,-2.64896845876367e-001

2.60268371088386e+004,-1.27442744368210e+001,-2.68591546736661e-001

2.63901582154578e+004,-1.27442803552865e+001,-2.72337692350809e-001

2.67585510957221e+004,-1.27442864378251e+001,-2.76135995369113e-001

2.71320865489533e+004,-1.27442926889187e+001,-2.79987178162584e-001

2.75108363627948e+004,-1.27442991131683e+001,-2.83891972948622e-001

2.78948733270080e+004,-1.27443057152960e+001,-2.87851121920962e-001

2.82842712474618e+004,-1.27443125001487e+001,-2.91865377378240e-001

2.86791049603164e+004,-1.27443194727010e+001,-2.95935501853781e-001

2.90794503464061e+004,-1.27443266380579e+001,-3.00062268250048e-001

2.94853843458219e+004,-1.27443340014587e+001,-3.04246459968520e-001

2.98969849726987e+004,-1.27443415682797e+001,-3.08488871048072e-001

3.03143313302078e+004,-1.27443493440378e+001,-3.12790306299631e-001

3.07375036257601e+004,-1.27443573343935e+001,-3.17151581445069e-001

3.11665831864199e+004,-1.27443655451546e+001,-3.21573523255101e-001

3.16016524745350e+004,-1.27443739822796e+001,-3.26056969691678e-001

3.20427951035848e+004,-1.27443826518813e+001,-3.30602770049021e-001

3.24900958542493e+004,-1.27443915602304e+001,-3.35211785098411e-001

3.29436406907028e+004,-1.27444007137588e+001,-3.39884887232355e-001

3.34035167771346e+004,-1.27444101190641e+001,-3.44622960610097e-001

3.38698124945009e+004,-1.27444197829127e+001,-3.49426901308963e-001

3.43426174575100e+004,-1.27444297122438e+001,-3.54297617470936e-001

3.48220225318448e+004,-1.27444399141737e+001,-3.59236029454631e-001

3.53081198516260e+004,-1.27444503959992e+001,-3.64243069987342e-001

3.58010028371187e+004,-1.27444611652019e+001,-3.69319684320154e-001

3.63007662126863e+004,-1.27444722294526e+001,-3.74466830380439e-001

3.68075060249948e+004,-1.27444835966148e+001,-3.79685478932875e-001

3.73213196614721e+004,-1.27444952747493e+001,-3.84976613733882e-001

3.78423058690237e+004,-1.27445072721184e+001,-3.90341231692032e-001

3.83705647730104e+004,-1.27445195971902e+001,-3.95780343031573e-001

3.89061978964912e+004,-1.27445322586425e+001,-4.01294971453187e-001

3.94493081797342e+004,-1.27445452653684e+001,-4.06886154295880e-001

3.99999999999998e+004,-1.27445586264791e+001,-4.12554942706922e-001

4.05583791916010e+004,-1.27445723513098e+001,-4.18302401805409e-001

4.11245530662425e+004,-1.27445864494233e+001,-4.24129610850981e-001

4.16986304336447e+004,-1.27446009306150e+001,-4.30037663415190e-001

4.22807216224550e+004,-1.27446158049172e+001,-4.36027667550525e-001

4.28709385014515e+004,-1.27446310826040e+001,-4.42100745964620e-001

4.34693945010421e+004,-1.27446467741959e+001,-4.48258036191505e-001

4.40762046350642e+004,-1.27446628904638e+001,-4.54500690771894e-001

4.46914855228886e+004,-1.27446794424348e+001,-4.60829877423453e-001

4.53153554118317e+004,-1.27446964413958e+001,-4.67246779224298e-001

4.59479341998812e+004,-1.27447138988991e+001,-4.73752594787745e-001

4.65893434587380e+004,-1.27447318267661e+001,-4.80348538447390e-001

4.72397064571810e+004,-1.27447502370927e+001,-4.87035840437204e-001

4.78991481847569e+004,-1.27447691422538e+001,-4.93815747073009e-001

4.85677953758016e+004,-1.27447885549075e+001,-5.00689520940530e-001

4.92457765337964e+004,-1.27448084880001e+001,-5.07658441080896e-001

4.99332219560642e+004,-1.27448289547706e+001,-5.14723803175212e-001

5.06302637588109e+004,-1.27448499687551e+001,-5.21886919735953e-001

5.13370359025159e+004,-1.27448715437911e+001,-5.29149120297141e-001

5.20536742176771e+004,-1.27448936940223e+001,-5.36511751603339e-001

5.27803164309155e+004,-1.27449164339021e+001,-5.43976177804301e-001

5.35171021914442e+004,-1.27449397781986e+001,-5.51543780648475e-001

5.42641730979066e+004,-1.27449637419984e+001,-5.59215959676508e-001

5.50216727255895e+004,-1.27449883407103e+001,-5.66994132420397e-001

5.57897466540159e+004,-1.27450135900694e+001,-5.74879734598821e-001

5.65685424949235e+004,-1.27450395061408e+001,-5.82874220317258e-001

5.73582099206328e+004,-1.27450661053229e+001,-5.90979062268303e-001

5.81589006928121e+004,-1.27450934043511e+001,-5.99195751933164e-001

5.89707686916437e+004,-1.27451214203008e+001,-6.07525799783030e-001

5.97939699453972e+004,-1.27451501705902e+001,-6.15970735486566e-001

6.06286626604156e+004,-1.27451796729834e+001,-6.24532108112137e-001

6.14750072515201e+004,-1.27452099455924e+001,-6.33211486336489e-001

6.23331663728396e+004,-1.27452410068796e+001,-6.42010458653443e-001

6.32033049490698e+004,-1.27452728756599e+001,-6.50930633581149e-001

6.40855902071694e+004,-1.27453055711022e+001,-6.59973639875746e-001

6.49801917084985e+004,-1.27453391127304e+001,-6.69141126742571e-001

6.58872813814055e+004,-1.27453735204247e+001,-6.78434764050192e-001

6.68070335542691e+004,-1.27454088144222e+001,-6.87856242547044e-001

6.77396249890018e+004,-1.27454450153167e+001,-6.97407274077038e-001

6.86852349150199e+004,-1.27454821440590e+001,-7.07089591799727e-001

6.96440450636895e+004,-1.27455202219556e+001,-7.16904950410260e-001

7.06162397032520e+004,-1.27455592706678e+001,-7.26855126361562e-001

7.16020056742374e+004,-1.27455993122102e+001,-7.36941918089230e-001

7.26015324253724e+004,-1.27456403689479e+001,-7.47167146237250e-001

7.36150120499896e+004,-1.27456824635943e+001,-7.57532653886046e-001

7.46426393229441e+004,-1.27457256192070e+001,-7.68040306784212e-001

7.56846117380472e+004,-1.27457698591846e+001,-7.78691993579066e-001

7.67411295460207e+004,-1.27458152072612e+001,-7.89489626053288e-001

7.78123957929823e+004,-1.27458616875011e+001,-8.00435139362879e-001

7.88986163594682e+004,-1.27459093242929e+001,-8.11530492277114e-001

7.99999999999995e+004,-1.27459581423427e+001,-8.22777667420052e-001

8.11167583832018e+004,-1.27460081666656e+001,-8.34178671520661e-001

8.22491061324848e+004,-1.27460594225778e+001,-8.45735535659685e-001

8.33972608672892e+004,-1.27461119356866e+001,-8.57450315523257e-001

8.45614432449099e+004,-1.27461657318807e+001,-8.69325091659614e-001

8.57418770029029e+004,-1.27462208373178e+001,-8.81361969740197e-001

8.69387890020841e+004,-1.27462772784131e+001,-8.93563080825121e-001

8.81524092701283e+004,-1.27463350818255e+001,-9.05930581630732e-001

8.93829710457770e+004,-1.27463942744427e+001,-9.18466654806507e-001

9.06307108236633e+004,-1.27464548833668e+001,-9.31173509210844e-001

9.18958683997622e+004,-1.27465169358960e+001,-9.44053380198421e-001

9.31786869174758e+004,-1.27465804595076e+001,-9.57108529910834e-001

9.44794129143618e+004,-1.27466454818386e+001,-9.70341247570788e-001

9.57982963695136e+004,-1.27467120306653e+001,-9.83753849787207e-001

9.71355907516031e+004,-1.27467801338809e+001,-9.97348680865578e-001

9.84915530675926e+004,-1.27468498194733e+001,-1.01112811312502e+000

9.98664439121282e+004,-1.27469211155000e+001,-1.02509454722286e+000

1.01260527517622e+005,-1.27469940500623e+001,-1.03925041249040e+000

1.02674071805032e+005,-1.27470686512780e+001,-1.05359816727563e+000

1.04107348435354e+005,-1.27471449472529e+001,-1.06814029929331e+000

1.05560632861831e+005,-1.27472229660496e+001,-1.08287932599106e+000

1.07034204382888e+005,-1.27473027356567e+001,-1.09781779491892e+000

1.08528346195813e+005,-1.27473842839549e+001,-1.11295828411665e+000

1.10043345451179e+005,-1.27474676386822e+001,-1.12830340250831e+000

1.11579493308032e+005,-1.27475528273974e+001,-1.14385579031040e+000

1.13137084989847e+005,-1.27476398774420e+001,-1.15961811945673e+000

1.14716419841265e+005,-1.27477288159007e+001,-1.17559309403243e+000

1.16317801385624e+005,-1.27478196695600e+001,-1.19178345072586e+000

1.17941537383287e+005,-1.27479124648655e+001,-1.20819195929392e+000

1.19587939890794e+005,-1.27480072278774e+001,-1.22482142304615e+000

1.21257325320831e+005,-1.27481039842247e+001,-1.24167467934492e+000

1.22950014503040e+005,-1.27482027590575e+001,-1.25875460012104e+000

1.24666332745679e+005,-1.27483035769982e+001,-1.27606409241259e+000

1.26406609898139e+005,-1.27484064620909e+001,-1.29360609892014e+000

1.28171180414339e+005,-1.27485114377493e+001,-1.31138359858482e+000

1.29960383416997e+005,-1.27486185267039e+001,-1.32939960718385e+000

1.31774562762811e+005,-1.27487277509464e+001,-1.34765717795403e+000

1.33614067108538e+005,-1.27488391316747e+001,-1.36615940223382e+000

1.35479249978003e+005,-1.27489526892354e+001,-1.38490941013020e+000

1.37370469830040e+005,-1.27490684430648e+001,-1.40391037121423e+000

1.39288090127379e+005,-1.27491864116308e+001,-1.42316549523700e+000

1.41232479406504e+005,-1.27493066123718e+001,-1.44267803287570e+000

1.43204011348474e+005,-1.27494290616355e+001,-1.46245127650780e+000

1.45203064850745e+005,-1.27495537746176e+001,-1.48248856100996e+000

1.47230024099979e+005,-1.27496807652988e+001,-1.50279326459139e+000

1.49285278645888e+005,-1.27498100463822e+001,-1.52336880965354e+000

1.51369223476094e+005,-1.27499416292300e+001,-1.54421866368152e+000

1.53482259092041e+005,-1.27500755237999e+001,-1.56534634016763e+000

1.55624791585964e+005,-1.27502117385821e+001,-1.58675539956794e+000

1.57797232718936e+005,-1.27503502805355e+001,-1.60844945028954e+000

1.59999999999999e+005,-1.27504911550251e+001,-1.63043214971372e+000

1.62233516766403e+005,-1.27506343657598e+001,-1.65270720525217e+000

1.64498212264969e+005,-1.27507799147302e+001,-1.67527837543712e+000

1.66794521734578e+005,-1.27509278021486e+001,-1.69814947104891e+000

1.69122886489819e+005,-1.27510780263887e+001,-1.72132435627484e+000

1.71483754005805e+005,-1.27512305839283e+001,-1.74480694990838e+000

1.73877578004168e+005,-1.27513854692919e+001,-1.76860122657990e+000

1.76304818540256e+005,-1.27515426749962e+001,-1.79271121802671e+000

1.78765942091554e+005,-1.27517021914979e+001,-1.81714101439495e+000

1.81261421647326e+005,-1.27518640071424e+001,-1.84189476558263e+000

1.83791736799524e+005,-1.27520281081169e+001,-1.86697668261208e+000

1.86357373834951e+005,-1.27521944784048e+001,-1.89239103904210e+000

1.88958825828723e+005,-1.27523630997438e+001,-1.91814217241331e+000

1.91596592739027e+005,-1.27525339515870e+001,-1.94423448572694e+000

1.94271181503206e+005,-1.27527070110681e+001,-1.97067244895821e+000

1.96983106135185e+005,-1.27528822529696e+001,-1.99746060060164e+000

1.99732887824256e+005,-1.27530596496955e+001,-2.02460354924949e+000

2.02521055035243e+005,-1.27532391712476e+001,-2.05210597519951e+000

2.05348143610063e+005,-1.27534207852073e+001,-2.07997263209283e+000

2.08214696870707e+005,-1.27536044567210e+001,-2.10820834858113e+000

2.11121265723661e+005,-1.27537901484909e+001,-2.13681803001960e+000

2.14068408765776e+005,-1.27539778207703e+001,-2.16580666018695e+000

2.17056692391625e+005,-1.27541674313651e+001,-2.19517930302764e+000

2.20086690902357e+005,-1.27543589356393e+001,-2.22494110441850e+000

2.23158986616063e+005,-1.27545522865271e+001,-2.25509729395456e+000

2.26274169979693e+005,-1.27547474345502e+001,-2.28565318675340e+000

2.29432839682530e+005,-1.27549443278407e+001,-2.31661418527821e+000

2.32635602771247e+005,-1.27551429121698e+001,-2.34798578117255e+000

2.35883074766574e+005,-1.27553431309828e+001,-2.37977355711075e+000

2.39175879781588e+005,-1.27555449254390e+001,-2.41198318865745e+000

2.42514650641661e+005,-1.27557482344592e+001,-2.44462044613499e+000

2.45900029006080e+005,-1.27559529947768e+001,-2.47769119649859e+000

2.49332665491357e+005,-1.27561591409969e+001,-2.51120140521415e+000

2.52813219796278e+005,-1.27563666056599e+001,-2.54515713813819e+000

2.56342360828676e+005,-1.27565753193109e+001,-2.57956456339785e+000

2.59920766833993e+005,-1.27567852105756e+001,-2.61442995326747e+000

2.63549125525621e+005,-1.27569962062403e+001,-2.64975968604020e+000

2.67228134217075e+005,-1.27572082313382e+001,-2.68556024789478e+000

2.70958499956006e+005,-1.27574212092400e+001,-2.72183823475044e+000

2.74740939660078e+005,-1.27576350617503e+001,-2.75860035411234e+000

2.78576180254757e+005,-1.27578497092073e+001,-2.79585342690559e+000

2.82464958813007e+005,-1.27580650705881e+001,-2.83360438929137e+000

2.86408022696948e+005,-1.27582810636171e+001,-2.87186029447148e+000

2.90406129701488e+005,-1.27584976048787e+001,-2.91062831447008e+000

2.94460048199957e+005,-1.27587146099327e+001,-2.94991574190161e+000

2.98570557291775e+005,-1.27589319934337e+001,-2.98972999171420e+000

3.02738446952187e+005,-1.27591496692522e+001,-3.03007860291446e+000

3.06964518184081e+005,-1.27593675505986e+001,-3.07096924026968e+000

3.11249583171928e+005,-1.27595855501486e+001,-3.11240969598616e+000

3.15594465437872e+005,-1.27598035801704e+001,-3.15440789136582e+000

3.19999999999997e+005,-1.27600215526528e+001,-3.19697187843825e+000

3.24467033532806e+005,-1.27602393794338e+001,-3.24010984156920e+000

3.28996424529938e+005,-1.27604569723298e+001,-3.28383009904640e+000

3.33589043469155e+005,-1.27606742432639e+001,-3.32814110464056e+000

3.38245772979638e+005,-1.27608911043941e+001,-3.37305144914513e+000

3.42967508011610e+005,-1.27611074682403e+001,-3.41856986189317e+000

3.47755156008335e+005,-1.27613232478094e+001,-3.46470521225377e+000

3.52609637080511e+005,-1.27615383567190e+001,-3.51146651110785e+000

3.57531884183106e+005,-1.27617527093184e+001,-3.55886291230586e+000

3.62522843294651e+005,-1.27619662208069e+001,-3.60690371410720e+000

3.67583473599047e+005,-1.27621788073497e+001,-3.65559836060638e+000

3.72714747669902e+005,-1.27623903861891e+001,-3.70495644314246e+000

3.77917651657445e+005,-1.27626008757530e+001,-3.75498770169949e+000

3.83193185478053e+005,-1.27628101957589e+001,-3.80570202629571e+000

3.88542363006410e+005,-1.27630182673133e+001,-3.85710945836576e+000

3.93966212270369e+005,-1.27632250130071e+001,-3.90922019213871e+000

3.99465775648511e+005,-1.27634303570053e+001,-3.96204457601309e+000

4.05042110070485e+005,-1.27636342251318e+001,-4.01559311393161e+000

4.10696287220124e+005,-1.27638365449492e+001,-4.06987646676047e+000

4.16429393741414e+005,-1.27640372458328e+001,-4.12490545367257e+000

4.22242531447321e+005,-1.27642362590390e+001,-4.18069105353918e+000

4.28136817531551e+005,-1.27644335177674e+001,-4.23724440633485e+000

4.34113384783250e+005,-1.27646289572182e+001,-4.29457681455481e+000

4.40173381804713e+005,-1.27648225146425e+001,-4.35269974464956e+000

4.46317973232124e+005,-1.27650141293870e+001,-4.41162482848012e+000

4.52548339959385e+005,-1.27652037429331e+001,-4.47136386479570e+000

4.58865679365059e+005,-1.27653912989290e+001,-4.53192882073772e+000

4.65271205542494e+005,-1.27655767432173e+001,-4.59333183337125e+000

4.71766149533147e+005,-1.27657600238551e+001,-4.65558521124884e+000

4.78351759563174e+005,-1.27659410911295e+001,-4.71870143600836e+000

4.85029301283321e+005,-1.27661198975664e+001,-4.78269316400658e+000

4.91800058012158e+005,-1.27662963979346e+001,-4.84757322799369e+000

4.98665330982714e+005,-1.27664705492441e+001,-4.91335463882820e+000

5.05626439592555e+005,-1.27666423107382e+001,-4.98005058723653e+000

5.12684721657352e+005,-1.27668116438820e+001,-5.04767444561942e+000

5.19841533667984e+005,-1.27669785123448e+001,-5.11623976990735e+000

5.27098251051240e+005,-1.27671428819778e+001,-5.18576030146578e+000

5.34456268434150e+005,-1.27673047207882e+001,-5.25624996905421e+000

5.41916999912011e+005,-1.27674639989073e+001,-5.32772289084006e+000

