Freq.,VOut,OutRef

1.00000000000000e+004,-2.25193717359603e+001,-3.72978459062093e-001

1.01395947979003e+004,-2.25193768026963e+001,-3.78184261896293e-001

1.02811382665607e+004,-2.25193820116671e+001,-3.83462701848386e-001

1.04246576084112e+004,-2.25193873668597e+001,-3.88814791488862e-001

1.05701804056138e+004,-2.25193928723722e+001,-3.94241557464180e-001

1.07177346253629e+004,-2.25193985324174e+001,-3.99744040689102e-001

1.08673486252606e+004,-2.25194043513254e+001,-4.05323296545834e-001

1.10190511587661e+004,-2.25194103335478e+001,-4.10980395080589e-001

1.11728713807222e+004,-2.25194164836600e+001,-4.16716421207830e-001

1.13288388529580e+004,-2.25194228063655e+001,-4.22532474912519e-001

1.14869835499703e+004,-2.25194293064987e+001,-4.28429671460385e-001

1.16473358646846e+004,-2.25194359890293e+001,-4.34409141603863e-001

1.18099266142953e+004,-2.25194428590656e+001,-4.40472031799069e-001

1.19747870461893e+004,-2.25194499218579e+001,-4.46619504420370e-001

1.21419488439505e+004,-2.25194571828036e+001,-4.52852737976611e-001

1.23114441334492e+004,-2.25194646474502e+001,-4.59172927335563e-001

1.24833054890161e+004,-2.25194723214999e+001,-4.65581283946924e-001

1.26575659397028e+004,-2.25194802108140e+001,-4.72079036069451e-001

1.28342589756290e+004,-2.25194883214167e+001,-4.78667429002278e-001

1.30134185544193e+004,-2.25194966595006e+001,-4.85347725316885e-001

1.31950791077289e+004,-2.25195052314301e+001,-4.92121205096659e-001

1.33792755478611e+004,-2.25195140437472e+001,-4.98989166172508e-001

1.35660432744767e+004,-2.25195231031759e+001,-5.05952924367507e-001

1.37554181813974e+004,-2.25195324166273e+001,-5.13013813743554e-001

1.39474366635040e+004,-2.25195419912046e+001,-5.20173186849185e-001

1.41421356237309e+004,-2.25195518342087e+001,-5.27432414972701e-001

1.43395524801583e+004,-2.25195619531435e+001,-5.34792888396397e-001

1.45397251732031e+004,-2.25195723557211e+001,-5.42256016659354e-001

1.47426921729110e+004,-2.25195830498684e+001,-5.49823228814338e-001

1.49484924863494e+004,-2.25195940437319e+001,-5.57495973698101e-001

1.51571656651040e+004,-2.25196053456846e+001,-5.65275720197530e-001

1.53687518128801e+004,-2.25196169643318e+001,-5.73163957525381e-001

1.55832915932100e+004,-2.25196289085176e+001,-5.81162195492097e-001

1.58008262372675e+004,-2.25196411873312e+001,-5.89271964790047e-001

1.60213975517924e+004,-2.25196538101138e+001,-5.97494817274350e-001

1.62450479271247e+004,-2.25196667864658e+001,-6.05832326248458e-001

1.64718203453514e+004,-2.25196801262529e+001,-6.14286086758490e-001

1.67017583885674e+004,-2.25196938396145e+001,-6.22857715884156e-001

1.69349062472505e+004,-2.25197079369704e+001,-6.31548853037709e-001

1.71713087287550e+004,-2.25197224290287e+001,-6.40361160266330e-001

1.74110112659224e+004,-2.25197373267935e+001,-6.49296322556395e-001

1.76540599258131e+004,-2.25197526415731e+001,-6.58356048143500e-001

1.79005014185594e+004,-2.25197683849883e+001,-6.67542068825774e-001

1.81503831063432e+004,-2.25197845689805e+001,-6.76856140281151e-001

1.84037530124975e+004,-2.25198012058210e+001,-6.86300042386704e-001

1.86606598307361e+004,-2.25198183081192e+001,-6.95875579546660e-001

1.89211529345119e+004,-2.25198358888323e+001,-7.05584581018167e-001

1.91852823865052e+004,-2.25198539612745e+001,-7.15428901246902e-001

1.94530989482457e+004,-2.25198725391266e+001,-7.25410420203458e-001

1.97246540898671e+004,-2.25198916364461e+001,-7.35531043722526e-001

1.99999999999999e+004,-2.25199112676767e+001,-7.45792703853024e-001

2.02791895958005e+004,-2.25199314476595e+001,-7.56197359202136e-001

2.05622765331213e+004,-2.25199521916432e+001,-7.66746995293095e-001

2.08493152168224e+004,-2.25199735152949e+001,-7.77443624921990e-001

2.11403608112276e+004,-2.25199954347116e+001,-7.88289288520260e-001

2.14354692507258e+004,-2.25200179664317e+001,-7.99286054520261e-001

2.17346972505211e+004,-2.25200411274465e+001,-8.10436019728337e-001

2.20381023175322e+004,-2.25200649352125e+001,-8.21741309697644e-001

2.23457427614443e+004,-2.25200894076638e+001,-8.33204079109872e-001

2.26576777059159e+004,-2.25201145632243e+001,-8.44826512159432e-001

2.29739670999406e+004,-2.25201404208214e+001,-8.56610822941141e-001

2.32946717293690e+004,-2.25201669998989e+001,-8.68559255843121e-001

2.36198532285905e+004,-2.25201943204307e+001,-8.80674085946274e-001

2.39495740923785e+004,-2.25202224029348e+001,-8.92957619423837e-001

2.42838976879009e+004,-2.25202512684876e+001,-9.05412193950961e-001

2.46228882668982e+004,-2.25202809387388e+001,-9.18040179113436e-001

2.49666109780322e+004,-2.25203114359258e+001,-9.30843976826676e-001

2.53151318794055e+004,-2.25203427828899e+001,-9.43826021752263e-001

2.56685179512580e+004,-2.25203750030916e+001,-9.56988781727005e-001

2.60268371088386e+004,-2.25204081206266e+001,-9.70334758190725e-001

2.63901582154578e+004,-2.25204421602428e+001,-9.83866486621568e-001

2.67585510957221e+004,-2.25204771473565e+001,-9.97586536975046e-001

2.71320865489533e+004,-2.25205131080707e+001,-1.01149751412795e+000

2.75108363627948e+004,-2.25205500691918e+001,-1.02560205832693e+000

2.78948733270080e+004,-2.25205880582483e+001,-1.03990284564300e+000

2.82842712474618e+004,-2.25206271035091e+001,-1.05440258842827e+000

2.86791049603164e+004,-2.25206672340028e+001,-1.06910403578031e+000

2.90794503464061e+004,-2.25207084795365e+001,-1.08400997400895e+000

2.94853843458219e+004,-2.25207508707163e+001,-1.09912322710921e+000

2.98969849726987e+004,-2.25207944389670e+001,-1.11444665723799e+000

3.03143313302078e+004,-2.25208392165533e+001,-1.12998316519741e+000

3.07375036257601e+004,-2.25208852366005e+001,-1.14573569092035e+000

3.11665831864199e+004,-2.25209325331166e+001,-1.16170721396320e+000

3.16016524745350e+004,-2.25209811410144e+001,-1.17790075400020e+000

3.20427951035848e+004,-2.25210310961334e+001,-1.19431937132796e+000

3.24900958542493e+004,-2.25210824352639e+001,-1.21096616736811e+000

3.29436406907028e+004,-2.25211351961700e+001,-1.22784428517909e+000

3.34035167771346e+004,-2.25211894176134e+001,-1.24495690997244e+000

3.38698124945009e+004,-2.25212451393786e+001,-1.26230726963140e+000

3.43426174575100e+004,-2.25213024022974e+001,-1.27989863523704e+000

3.48220225318448e+004,-2.25213612482750e+001,-1.29773432159536e+000

3.53081198516260e+004,-2.25214217203155e+001,-1.31581768777433e+000

3.58010028371187e+004,-2.25214838625488e+001,-1.33415213764032e+000

3.63007662126863e+004,-2.25215477202576e+001,-1.35274112040315e+000

3.68075060249948e+004,-2.25216133399053e+001,-1.37158813116141e+000

3.73213196614721e+004,-2.25216807691637e+001,-1.39069671145737e+000

3.78423058690237e+004,-2.25217500569418e+001,-1.41007044983247e+000

3.83705647730104e+004,-2.25218212534152e+001,-1.42971298238920e+000

3.89061978964912e+004,-2.25218944100557e+001,-1.44962799335577e+000

3.94493081797342e+004,-2.25219695796615e+001,-1.46981921565763e+000

3.99999999999998e+004,-2.25220468163880e+001,-1.49029043149012e+000

4.05583791916010e+004,-2.25221261757789e+001,-1.51104547289920e+000

4.11245530662425e+004,-2.25222077147984e+001,-1.53208822236172e+000

4.16986304336447e+004,-2.25222914918631e+001,-1.55342261337556e+000

4.22807216224550e+004,-2.25223775668751e+001,-1.57505263104753e+000

4.28709385014515e+004,-2.25224660012554e+001,-1.59698231269104e+000

4.34693945010421e+004,-2.25225568579772e+001,-1.61921574842425e+000

4.40762046350642e+004,-2.25226502016012e+001,-1.64175708177220e+000

4.46914855228886e+004,-2.25227460983092e+001,-1.66461051027641e+000

4.53153554118317e+004,-2.25228446159407e+001,-1.68778028610254e+000

4.59479341998812e+004,-2.25229458240274e+001,-1.71127071665696e+000

4.65893434587380e+004,-2.25230497938306e+001,-1.73508616520426e+000

4.72397064571810e+004,-2.25231565983766e+001,-1.75923105148905e+000

4.78991481847569e+004,-2.25232663124951e+001,-1.78370985236090e+000

4.85677953758016e+004,-2.25233790128555e+001,-1.80852710240394e+000

4.92457765337964e+004,-2.25234947780055e+001,-1.83368739456735e+000

4.99332219560642e+004,-2.25236136884091e+001,-1.85919538080331e+000

5.06302637588109e+004,-2.25237358264851e+001,-1.88505577270291e+000

5.13370359025159e+004,-2.25238612766463e+001,-1.91127334213956e+000

5.20536742176771e+004,-2.25239901253383e+001,-1.93785292191470e+000

5.27803164309155e+004,-2.25241224610794e+001,-1.96479940640411e+000

5.35171021914442e+004,-2.25242583744998e+001,-1.99211775221002e+000

5.42641730979066e+004,-2.25243979583822e+001,-2.01981297881450e+000

5.50216727255895e+004,-2.25245413077012e+001,-2.04789016923744e+000

5.57897466540159e+004,-2.25246885196640e+001,-2.07635447069539e+000

5.65685424949235e+004,-2.25248396937507e+001,-2.10521109526396e+000

5.73582099206328e+004,-2.25249949317546e+001,-2.13446532054372e+000

5.81589006928121e+004,-2.25251543378225e+001,-2.16412249032814e+000

5.89707686916437e+004,-2.25253180184954e+001,-2.19418801527450e+000

5.97939699453972e+004,-2.25254860827483e+001,-2.22466737357693e+000

6.06286626604156e+004,-2.25256586420312e+001,-2.25556611164319e+000

6.14750072515201e+004,-2.25258358103080e+001,-2.28688984477379e+000

6.23331663728396e+004,-2.25260177040974e+001,-2.31864425784316e+000

6.32033049490698e+004,-2.25262044425114e+001,-2.35083510598447e+000

6.40855902071694e+004,-2.25263961472948e+001,-2.38346821527798e+000

6.49801917084985e+004,-2.25265929428639e+001,-2.41654948343992e+000

6.58872813814055e+004,-2.25267949563444e+001,-2.45008488051754e+000

6.68070335542691e+004,-2.25270023176092e+001,-2.48408044958447e+000

6.77396249890018e+004,-2.25272151593150e+001,-2.51854230744161e+000

6.86852349150199e+004,-2.25274336169388e+001,-2.55347664532051e+000

6.96440450636895e+004,-2.25276578288132e+001,-2.58888972958971e+000

7.06162397032520e+004,-2.25278879361604e+001,-2.62478790246683e+000

7.16020056742374e+004,-2.25281240831265e+001,-2.66117758273262e+000

7.26015324253724e+004,-2.25283664168133e+001,-2.69806526645143e+000

7.36150120499896e+004,-2.25286150873096e+001,-2.73545752769514e+000

7.46426393229441e+004,-2.25288702477215e+001,-2.77336101927203e+000

7.56846117380472e+004,-2.25291320542003e+001,-2.81178247346251e+000

7.67411295460207e+004,-2.25294006659708e+001,-2.85072870275945e+000

7.78123957929823e+004,-2.25296762453555e+001,-2.89020660061500e+000

7.88986163594682e+004,-2.25299589577996e+001,-2.93022314219521e+000

7.99999999999995e+004,-2.25302489718924e+001,-2.97078538514134e+000

8.11167583832018e+004,-2.25305464593877e+001,-3.01190047033987e+000

8.22491061324848e+004,-2.25308515952223e+001,-3.05357562270044e+000

8.33972608672892e+004,-2.25311645575315e+001,-3.09581815194424e+000

8.45614432449099e+004,-2.25314855276633e+001,-3.13863545340309e+000

8.57418770029029e+004,-2.25318146901901e+001,-3.18203500882766e+000

8.69387890020841e+004,-2.25321522329171e+001,-3.22602438721065e+000

8.81524092701283e+004,-2.25324983468893e+001,-3.27061124562143e+000

8.93829710457770e+004,-2.25328532263950e+001,-3.31580333005458e+000

9.06307108236633e+004,-2.25332170689671e+001,-3.36160847629579e+000

9.18958683997622e+004,-2.25335900753805e+001,-3.40803461080224e+000

9.31786869174758e+004,-2.25339724496478e+001,-3.45508975160223e+000

9.44794129143618e+004,-2.25343643990112e+001,-3.50278200921349e+000

9.57982963695136e+004,-2.25347661339306e+001,-3.55111958758314e+000

9.71355907516031e+004,-2.25351778680701e+001,-3.60011078504857e+000

9.84915530675926e+004,-2.25355998182788e+001,-3.64976399532422e+000

9.98664439121282e+004,-2.25360322045703e+001,-3.70008770851240e+000

1.01260527517622e+005,-2.25364752500976e+001,-3.75109051214285e+000

1.02674071805032e+005,-2.25369291811239e+001,-3.80278109224171e+000

1.04107348435354e+005,-2.25373942269913e+001,-3.85516823443144e+000

1.05560632861831e+005,-2.25378706200839e+001,-3.90826082506506e+000

1.07034204382888e+005,-2.25383585957891e+001,-3.96206785239615e+000

1.08528346195813e+005,-2.25388583924532e+001,-4.01659840778702e+000

1.10043345451179e+005,-2.25393702513353e+001,-4.07186168695713e+000

1.11579493308032e+005,-2.25398944165554e+001,-4.12786699127582e+000

1.13137084989847e+005,-2.25404311350405e+001,-4.18462372909913e+000

1.14716419841265e+005,-2.25409806564659e+001,-4.24214141715612e+000

1.16317801385624e+005,-2.25415432331939e+001,-4.30042968198631e+000

1.17941537383287e+005,-2.25421191202078e+001,-4.35949826142999e+000

1.19587939890794e+005,-2.25427085750438e+001,-4.41935700617690e+000

1.21257325320831e+005,-2.25433118577187e+001,-4.48001588137399e+000

1.22950014503040e+005,-2.25439292306550e+001,-4.54148496829591e+000

1.24666332745679e+005,-2.25445609586032e+001,-4.60377446608148e+000

1.26406609898139e+005,-2.25452073085609e+001,-4.66689469354055e+000

1.28171180414339e+005,-2.25458685496901e+001,-4.73085609103089e+000

1.29960383416997e+005,-2.25465449532323e+001,-4.79566922241283e+000

1.31774562762811e+005,-2.25472367924212e+001,-4.86134477708178e+000

1.33614067108538e+005,-2.25479443423950e+001,-4.92789357208196e+000

1.35479249978003e+005,-2.25486678801065e+001,-4.99532655430693e+000

1.37370469830040e+005,-2.25494076842333e+001,-5.06365480278720e+000

1.39288090127379e+005,-2.25501640350879e+001,-5.13288953107058e+000

1.41232479406504e+005,-2.25509372145276e+001,-5.20304208969617e+000

1.43204011348474e+005,-2.25517275058656e+001,-5.27412396876635e+000

1.45203064850745e+005,-2.25525351937837e+001,-5.34614680062037e+000

1.47230024099979e+005,-2.25533605642466e+001,-5.41912236261017e+000

1.49285278645888e+005,-2.25542039044196e+001,-5.49306257998366e+000

1.51369223476094e+005,-2.25550655025891e+001,-5.56797952887580e+000

1.53482259092041e+005,-2.25559456480878e+001,-5.64388543941134e+000

1.55624791585964e+005,-2.25568446312246e+001,-5.72079269892124e+000

1.57797232718936e+005,-2.25577627432203e+001,-5.79871385527429e+000

1.59999999999999e+005,-2.25587002761503e+001,-5.87766162032566e+000

1.62233516766403e+005,-2.25596575228944e+001,-5.95764887348436e+000

1.64498212264969e+005,-2.25606347770957e+001,-6.03868866540047e+000

1.66794521734578e+005,-2.25616323331281e+001,-6.12079422177364e+000

1.69122886489819e+005,-2.25626504860755e+001,-6.20397894728153e+000

1.71483754005805e+005,-2.25636895317215e+001,-6.28825642963197e+000

1.73877578004168e+005,-2.25647497665523e+001,-6.37364044373399e+000

1.76304818540256e+005,-2.25658314877728e+001,-6.46014495599203e+000

1.78765942091554e+005,-2.25669349933382e+001,-6.54778412871864e+000

1.81261421647326e+005,-2.25680605820010e+001,-6.63657232466537e+000

1.83791736799524e+005,-2.25692085533748e+001,-6.72652411167203e+000

1.86357373834951e+005,-2.25703792080173e+001,-6.81765426742747e+000

1.88958825828723e+005,-2.25715728475316e+001,-6.90997778434520e+000

1.91596592739027e+005,-2.25727897746887e+001,-7.00350987454352e+000

1.94271181503206e+005,-2.25740302935713e+001,-7.09826597493287e+000

1.96983106135185e+005,-2.25752947097406e+001,-7.19426175240157e+000

1.99732887824256e+005,-2.25765833304269e+001,-7.29151310909735e+000

2.02521055035243e+005,-2.25778964647452e+001,-7.39003618779820e+000

2.05348143610063e+005,-2.25792344239369e+001,-7.48984737736746e+000

2.08214696870707e+005,-2.25805975216384e+001,-7.59096331828635e+000

2.11121265723661e+005,-2.25819860741783e+001,-7.69340090825682e+000

2.14068408765776e+005,-2.25834004009026e+001,-7.79717730786767e+000

2.17056692391625e+005,-2.25848408245312e+001,-7.90230994631638e+000

2.20086690902357e+005,-2.25863076715434e+001,-8.00881652717721e+000

2.23158986616063e+005,-2.25878012725968e+001,-8.11671503420817e+000

2.26274169979693e+005,-2.25893219629765e+001,-8.22602373718672e+000

2.29432839682530e+005,-2.25908700830782e+001,-8.33676119776466e+000

2.32635602771247e+005,-2.25924459789245e+001,-8.44894627533341e+000

2.35883074766574e+005,-2.25940500027147e+001,-8.56259813288787e+000

2.39175879781588e+005,-2.25956825134081e+001,-8.67773624287951e+000

2.42514650641661e+005,-2.25973438773433e+001,-8.79438039304783e+000

2.45900029006080e+005,-2.25990344688901e+001,-8.91255069221872e+000

2.49332665491357e+005,-2.26007546711371e+001,-9.03226757605947e+000

2.52813219796278e+005,-2.26025048766138e+001,-9.15355181277885e+000

2.56342360828676e+005,-2.26042854880460e+001,-9.27642450876142e+000

2.59920766833993e+005,-2.26060969191471e+001,-9.40090711412417e+000

2.63549125525621e+005,-2.26079395954411e+001,-9.52702142818586e+000

2.67228134217075e+005,-2.26098139551208e+001,-9.65478960483704e+000

2.70958499956006e+005,-2.26117204499370e+001,-9.78423415780053e+000

2.74740939660078e+005,-2.26136595461208e+001,-9.91537796577138e+000

2.78576180254757e+005,-2.26156317253371e+001,-1.00482442774267e+001

2.82464958813007e+005,-2.26176374856680e+001,-1.01828567162953e+001

2.86408022696948e+005,-2.26196773426258e+001,-1.03192392854782e+001

2.90406129701488e+005,-2.26217518301948e+001,-1.04574163722088e+001

2.94460048199957e+005,-2.26238615019000e+001,-1.05974127522483e+001

2.98570557291775e+005,-2.26260069319018e+001,-1.07392535941035e+001

3.02738446952187e+005,-2.26281887161158e+001,-1.08829644630639e+001

3.06964518184081e+005,-2.26304074733562e+001,-1.10285713250479e+001

3.11249583171928e+005,-2.26326638465010e+001,-1.11761005502542e+001

3.15594465437872e+005,-2.26349585036781e+001,-1.13255789166113e+001

3.19999999999997e+005,-2.26372921394706e+001,-1.14770336130212e+001

3.24467033532806e+005,-2.26396654761403e+001,-1.16304922423922e+001

3.28996424529938e+005,-2.26420792648670e+001,-1.17859828244576e+001

3.33589043469155e+005,-2.26445342870028e+001,-1.19435337983784e+001

3.38245772979638e+005,-2.26470313553402e+001,-1.21031740251251e+001

3.42967508011610e+005,-2.26495713153911e+001,-1.22649327896405e+001

3.47755156008335e+005,-2.26521550466775e+001,-1.24288398027795e+001

3.52609637080511e+005,-2.26547834640299e+001,-1.25949252030284e+001

3.57531884183106e+005,-2.26574575188939e+001,-1.27632195580012e+001

3.62522843294651e+005,-2.26601782006432e+001,-1.29337538657166e+001

3.67583473599047e+005,-2.26629465378972e+001,-1.31065595556548e+001

3.72714747669902e+005,-2.26657635998422e+001,-1.32816684895983e+001

3.77917651657445e+005,-2.26686304975556e+001,-1.34591129622564e+001

3.83193185478053e+005,-2.26715483853308e+001,-1.36389257016792e+001

3.88542363006410e+005,-2.26745184620031e+001,-1.38211398694620e+001

3.93966212270369e+005,-2.26775419722746e+001,-1.40057890607444e+001

3.99465775648511e+005,-2.26806202080382e+001,-1.41929073040085e+001

4.05042110070485e+005,-2.26837545096985e+001,-1.43825290606783e+001

4.10696287220124e+005,-2.26869462674905e+001,-1.45746892245262e+001

4.16429393741414e+005,-2.26901969227946e+001,-1.47694231208901e+001

4.22242531447321e+005,-2.26935079694473e+001,-1.49667665057045e+001

4.28136817531551e+005,-2.26968809550476e+001,-1.51667555643502e+001

4.34113384783250e+005,-2.27003174822589e+001,-1.53694269103271e+001

4.40173381804713e+005,-2.27038192101045e+001,-1.55748175837532e+001

4.46317973232124e+005,-2.27073878552598e+001,-1.57829650496928e+001

4.52548339959385e+005,-2.27110251933371e+001,-1.59939071963188e+001

4.58865679365059e+005,-2.27147330601663e+001,-1.62076823329104e+001

4.65271205542494e+005,-2.27185133530694e+001,-1.64243291876905e+001

4.71766149533147e+005,-2.27223680321303e+001,-1.66438869055024e+001

4.78351759563174e+005,-2.27262991214586e+001,-1.68663950453308e+001

4.85029301283321e+005,-2.27303087104485e+001,-1.70918935776651e+001

4.91800058012158e+005,-2.27343989550340e+001,-1.73204228817083e+001

4.98665330982714e+005,-2.27385720789377e+001,-1.75520237424300e+001

5.05626439592555e+005,-2.27428303749166e+001,-1.77867373474628e+001

5.12684721657352e+005,-2.27471762060037e+001,-1.80246052838428e+001

5.19841533667984e+005,-2.27516120067451e+001,-1.82656695345908e+001

5.27098251051240e+005,-2.27561402844347e+001,-1.85099724751324e+001

5.34456268434150e+005,-2.27607636203450e+001,-1.87575568695540e+001

5.41916999912011e+005,-2.27654846709550e+001,-1.90084658666917e+001

