Freq.,VOut,OutRef

1.00000000000000e+004,-2.00610425911771e+001,-1.95478085125266e-001

1.01395947979003e+004,-2.00610454734059e+001,-1.98206316824012e-001

1.02811382665607e+004,-2.00610484365168e+001,-2.00972610288873e-001

1.04246576084112e+004,-2.00610514827752e+001,-2.03777495871852e-001

1.05701804056138e+004,-2.00610546145098e+001,-2.06621511285717e-001

1.07177346253629e+004,-2.00610578341143e+001,-2.09505201706599e-001

1.08673486252606e+004,-2.00610611440489e+001,-2.12429119878483e-001

1.10190511587661e+004,-2.00610645468426e+001,-2.15393826212886e-001

1.11728713807222e+004,-2.00610680450951e+001,-2.18399888895661e-001

1.13288388529580e+004,-2.00610716414781e+001,-2.21447883995190e-001

1.14869835499703e+004,-2.00610753387381e+001,-2.24538395567582e-001

1.16473358646846e+004,-2.00610791396980e+001,-2.27672015768045e-001

1.18099266142953e+004,-2.00610830472593e+001,-2.30849344960631e-001

1.19747870461893e+004,-2.00610870644042e+001,-2.34070991830261e-001

1.21419488439505e+004,-2.00610911941981e+001,-2.37337573497057e-001

1.23114441334492e+004,-2.00610954397915e+001,-2.40649715630356e-001

1.24833054890161e+004,-2.00610998044227e+001,-2.44008052567177e-001

1.26575659397028e+004,-2.00611042914199e+001,-2.47413227428887e-001

1.28342589756290e+004,-2.00611089042040e+001,-2.50865892240470e-001

1.30134185544193e+004,-2.00611136462907e+001,-2.54366708054257e-001

1.31950791077289e+004,-2.00611185212938e+001,-2.57916345069254e-001

1.33792755478611e+004,-2.00611235329273e+001,-2.61515482757450e-001

1.35660432744767e+004,-2.00611286850079e+001,-2.65164809992246e-001

1.37554181813974e+004,-2.00611339814590e+001,-2.68865025168421e-001

1.39474366635040e+004,-2.00611394263120e+001,-2.72616836341729e-001

1.41421356237309e+004,-2.00611450237107e+001,-2.76420961350947e-001

1.43395524801583e+004,-2.00611507779138e+001,-2.80278127953587e-001

1.45397251732031e+004,-2.00611566932977e+001,-2.84189073962814e-001

1.47426921729110e+004,-2.00611627743601e+001,-2.88154547378121e-001

1.49484924863494e+004,-2.00611690257235e+001,-2.92175306527229e-001

1.51571656651040e+004,-2.00611754521380e+001,-2.96252120203245e-001

1.53687518128801e+004,-2.00611820584853e+001,-3.00385767805972e-001

1.55832915932100e+004,-2.00611888497820e+001,-3.04577039485772e-001

1.58008262372675e+004,-2.00611958311835e+001,-3.08826736287287e-001

1.60213975517924e+004,-2.00612030079874e+001,-3.13135670295486e-001

1.62450479271247e+004,-2.00612103856379e+001,-3.17504664784993e-001

1.64718203453514e+004,-2.00612179697292e+001,-3.21934554369320e-001

1.67017583885674e+004,-2.00612257660099e+001,-3.26426185152414e-001

1.69349062472505e+004,-2.00612337803868e+001,-3.30980414885000e-001

1.71713087287550e+004,-2.00612420189301e+001,-3.35598113115133e-001

1.74110112659224e+004,-2.00612504878765e+001,-3.40280161352036e-001

1.76540599258131e+004,-2.00612591936348e+001,-3.45027453218899e-001

1.79005014185594e+004,-2.00612681427897e+001,-3.49840894619950e-001

1.81503831063432e+004,-2.00612773421073e+001,-3.54721403900211e-001

1.84037530124975e+004,-2.00612867985392e+001,-3.59669912011574e-001

1.86606598307361e+004,-2.00612965192281e+001,-3.64687362680333e-001

1.89211529345119e+004,-2.00613065115126e+001,-3.69774712575397e-001

1.91852823865052e+004,-2.00613167829323e+001,-3.74932931481184e-001

1.94530989482457e+004,-2.00613273412336e+001,-3.80163002469161e-001

1.97246540898671e+004,-2.00613381943748e+001,-3.85465922071438e-001

1.99999999999999e+004,-2.00613493505318e+001,-3.90842700463130e-001

2.02791895958005e+004,-2.00613608181042e+001,-3.96294361635553e-001

2.05622765331213e+004,-2.00613726057211e+001,-4.01821943580276e-001

2.08493152168224e+004,-2.00613847222465e+001,-4.07426498473430e-001

2.11403608112276e+004,-2.00613971767865e+001,-4.13109092858386e-001

2.14354692507258e+004,-2.00614099786955e+001,-4.18870807834591e-001

2.17346972505211e+004,-2.00614231375818e+001,-4.24712739247465e-001

2.20381023175322e+004,-2.00614366633156e+001,-4.30635997878683e-001

2.23457427614443e+004,-2.00614505660348e+001,-4.36641709641436e-001

2.26576777059159e+004,-2.00614648561527e+001,-4.42731015773978e-001

2.29739670999406e+004,-2.00614795443648e+001,-4.48905073039096e-001

2.32946717293690e+004,-2.00614946416561e+001,-4.55165053924999e-001

2.36198532285905e+004,-2.00615101593091e+001,-4.61512146844378e-001

2.39495740923785e+004,-2.00615261089110e+001,-4.67947556341605e-001

2.42838976879009e+004,-2.00615425023618e+001,-4.74472503296787e-001

2.46228882668982e+004,-2.00615593518823e+001,-4.81088225136410e-001

2.49666109780322e+004,-2.00615766700225e+001,-4.87795976042862e-001

2.53151318794055e+004,-2.00615944696697e+001,-4.94597027166573e-001

2.56685179512580e+004,-2.00616127640578e+001,-5.01492666840848e-001

2.60268371088386e+004,-2.00616315667754e+001,-5.08484200800565e-001

2.63901582154578e+004,-2.00616508917750e+001,-5.15572952400913e-001

2.67585510957221e+004,-2.00616707533827e+001,-5.22760262835350e-001

2.71320865489533e+004,-2.00616911663072e+001,-5.30047491363623e-001

2.75108363627948e+004,-2.00617121456494e+001,-5.37436015534199e-001

2.78948733270080e+004,-2.00617337069124e+001,-5.44927231413372e-001

2.82842712474618e+004,-2.00617558660119e+001,-5.52522553813421e-001

2.86791049603164e+004,-2.00617786392858e+001,-5.60223416525861e-001

2.90794503464061e+004,-2.00618020435051e+001,-5.68031272554509e-001

2.94853843458219e+004,-2.00618260958847e+001,-5.75947594349860e-001

2.98969849726987e+004,-2.00618508140941e+001,-5.83973874050363e-001

3.03143313302078e+004,-2.00618762162686e+001,-5.92111623719933e-001

3.07375036257601e+004,-2.00619023210210e+001,-6.00362375589375e-001

3.11665831864199e+004,-2.00619291474526e+001,-6.08727682302216e-001

3.16016524745350e+004,-2.00619567151659e+001,-6.17209117158851e-001

3.20427951035848e+004,-2.00619850442755e+001,-6.25808274366400e-001

3.24900958542493e+004,-2.00620141554220e+001,-6.34526769284555e-001

3.29436406907028e+004,-2.00620440697828e+001,-6.43366238682668e-001

3.34035167771346e+004,-2.00620748090862e+001,-6.52328340988134e-001

3.38698124945009e+004,-2.00621063956236e+001,-6.61414756545140e-001

3.43426174575100e+004,-2.00621388522634e+001,-6.70627187869114e-001

3.48220225318448e+004,-2.00621722024639e+001,-6.79967359908439e-001

3.53081198516260e+004,-2.00622064702871e+001,-6.89437020302323e-001

3.58010028371187e+004,-2.00622416804129e+001,-6.99037939644998e-001

3.63007662126863e+004,-2.00622778581532e+001,-7.08771911748396e-001

3.68075060249948e+004,-2.00623150294660e+001,-7.18640753908828e-001

3.73213196614721e+004,-2.00623532209701e+001,-7.28646307173826e-001

3.78423058690237e+004,-2.00623924599604e+001,-7.38790436609277e-001

3.83705647730104e+004,-2.00624327744224e+001,-7.49075031571467e-001

3.89061978964912e+004,-2.00624741930474e+001,-7.59502005978539e-001

3.94493081797342e+004,-2.00625167452487e+001,-7.70073298581401e-001

3.99999999999998e+004,-2.00625604611762e+001,-7.80790873241260e-001

4.05583791916010e+004,-2.00626053717336e+001,-7.91656719200935e-001

4.11245530662425e+004,-2.00626515085932e+001,-8.02672851365554e-001

4.16986304336447e+004,-2.00626989042129e+001,-8.13841310578718e-001

4.22807216224550e+004,-2.00627475918525e+001,-8.25164163899745e-001

4.28709385014515e+004,-2.00627976055900e+001,-8.36643504887756e-001

4.34693945010421e+004,-2.00628489803389e+001,-8.48281453878430e-001

4.40762046350642e+004,-2.00629017518647e+001,-8.60080158268169e-001

4.46914855228886e+004,-2.00629559568021e+001,-8.72041792796080e-001

4.53153554118317e+004,-2.00630116326719e+001,-8.84168559828579e-001

4.59479341998812e+004,-2.00630688178989e+001,-8.96462689640645e-001

4.65893434587380e+004,-2.00631275518285e+001,-9.08926440704524e-001

4.72397064571810e+004,-2.00631878747449e+001,-9.21562099970614e-001

4.78991481847569e+004,-2.00632498278879e+001,-9.34371983158299e-001

4.85677953758016e+004,-2.00633134534713e+001,-9.47358435036679e-001

4.92457765337964e+004,-2.00633787946994e+001,-9.60523829716001e-001

4.99332219560642e+004,-2.00634458957856e+001,-9.73870570931451e-001

5.06302637588109e+004,-2.00635148019696e+001,-9.87401092331405e-001

5.13370359025159e+004,-2.00635855595348e+001,-1.00111785776399e+000

5.20536742176771e+004,-2.00636582158258e+001,-1.01502336156508e+000

5.27803164309155e+004,-2.00637328192658e+001,-1.02912012884480e+000

5.35171021914442e+004,-2.00638094193743e+001,-1.04341071577485e+000

5.42641730979066e+004,-2.00638880667831e+001,-1.05789770987606e+000

5.50216727255895e+004,-2.00639688132544e+001,-1.07258373030432e+000

5.57897466540159e+004,-2.00640517116967e+001,-1.08747142813850e+000

5.65685424949235e+004,-2.00641368161816e+001,-1.10256348666480e+000

5.73582099206328e+004,-2.00642241819595e+001,-1.11786262166547e+000

5.81589006928121e+004,-2.00643138654760e+001,-1.13337158170222e+000

5.89707686916437e+004,-2.00644059243867e+001,-1.14909314840171e+000

5.97939699453972e+004,-2.00645004175727e+001,-1.16503013674177e+000

6.06286626604156e+004,-2.00645974051547e+001,-1.18118539533396e+000

6.14750072515201e+004,-2.00646969485072e+001,-1.19756180670867e+000

6.23331663728396e+004,-2.00647991102718e+001,-1.21416228759866e+000

6.32033049490698e+004,-2.00649039543704e+001,-1.23098978922027e+000

6.40855902071694e+004,-2.00650115460166e+001,-1.24804729755844e+000

6.49801917084985e+004,-2.00651219517277e+001,-1.26533783364706e+000

6.58872813814055e+004,-2.00652352393348e+001,-1.28286445385219e+000

6.68070335542691e+004,-2.00653514779932e+001,-1.30063025015152e+000

6.77396249890018e+004,-2.00654707381903e+001,-1.31863835041831e+000

6.86852349150199e+004,-2.00655930917539e+001,-1.33689191870048e+000

6.96440450636895e+004,-2.00657186118591e+001,-1.35539415550290e+000

7.06162397032520e+004,-2.00658473730331e+001,-1.37414829806937e+000

7.16020056742374e+004,-2.00659794511603e+001,-1.39315762066297e+000

7.26015324253724e+004,-2.00661149234851e+001,-1.41242543484874e+000

7.36150120499896e+004,-2.00662538686135e+001,-1.43195508977725e+000

7.46426393229441e+004,-2.00663963665130e+001,-1.45174997246813e+000

7.56846117380472e+004,-2.00665424985120e+001,-1.47181350809448e+000

7.67411295460207e+004,-2.00666923472960e+001,-1.49214916027119e+000

7.78123957929823e+004,-2.00668459969034e+001,-1.51276043134095e+000

7.88986163594682e+004,-2.00670035327188e+001,-1.53365086266694e+000

7.99999999999995e+004,-2.00671650414643e+001,-1.55482403492526e+000

8.11167583832018e+004,-2.00673306111896e+001,-1.57628356840038e+000

8.22491061324848e+004,-2.00675003312587e+001,-1.59803312328639e+000

8.33972608672892e+004,-2.00676742923356e+001,-1.62007639999004e+000

8.45614432449099e+004,-2.00678525863672e+001,-1.64241713943801e+000

8.57418770029029e+004,-2.00680353065635e+001,-1.66505912339279e+000

8.69387890020841e+004,-2.00682225473758e+001,-1.68800617476963e+000

8.81524092701283e+004,-2.00684144044721e+001,-1.71126215796416e+000

8.93829710457770e+004,-2.00686109747095e+001,-1.73483097918487e+000

9.06307108236633e+004,-2.00688123561043e+001,-1.75871658679520e+000

9.18958683997622e+004,-2.00690186477991e+001,-1.78292297166258e+000

9.31786869174758e+004,-2.00692299500264e+001,-1.80745416752046e+000

9.44794129143618e+004,-2.00694463640694e+001,-1.83231425133943e+000

9.57982963695136e+004,-2.00696679922201e+001,-1.85750734370863e+000

9.71355907516031e+004,-2.00698949377330e+001,-1.88303760923518e+000

9.84915530675926e+004,-2.00701273047767e+001,-1.90890925695241e+000

9.98664439121282e+004,-2.00703651983808e+001,-1.93512654074738e+000

1.01260527517622e+005,-2.00706087243805e+001,-1.96169375980450e+000

1.02674071805032e+005,-2.00708579893563e+001,-1.98861525906568e+000

1.04107348435354e+005,-2.00711131005713e+001,-2.01589542971243e+000

1.05560632861831e+005,-2.00713741659036e+001,-2.04353870966821e+000

1.07034204382888e+005,-2.00716412937758e+001,-2.07154958412329e+000

1.08528346195813e+005,-2.00719145930804e+001,-2.09993258608502e+000

1.10043345451179e+005,-2.00721941731007e+001,-2.12869229695435e+000

1.11579493308032e+005,-2.00724801434290e+001,-2.15783334712854e+000

1.13137084989847e+005,-2.00727726138798e+001,-2.18736041663671e+000

1.14716419841265e+005,-2.00730716944001e+001,-2.21727823580515e+000

1.16317801385624e+005,-2.00733774949748e+001,-2.24759158595668e+000

1.17941537383287e+005,-2.00736901255287e+001,-2.27830530014817e+000

1.19587939890794e+005,-2.00740096958252e+001,-2.30942426394275e+000

1.21257325320831e+005,-2.00743363153603e+001,-2.34095341622472e+000

1.22950014503040e+005,-2.00746700932538e+001,-2.37289775005615e+000

1.24666332745679e+005,-2.00750111381362e+001,-2.40526231357838e+000

1.26406609898139e+005,-2.00753595580327e+001,-2.43805221096005e+000

1.28171180414339e+005,-2.00757154602433e+001,-2.47127260339629e+000

1.29960383416997e+005,-2.00760789512208e+001,-2.50492871015693e+000

1.31774562762811e+005,-2.00764501364444e+001,-2.53902580969116e+000

1.33614067108538e+005,-2.00768291202916e+001,-2.57356924078829e+000

1.35479249978003e+005,-2.00772160059073e+001,-2.60856440379620e+000

1.37370469830040e+005,-2.00776108950702e+001,-2.64401676190404e+000

1.39288090127379e+005,-2.00780138880577e+001,-2.67993184248512e+000

1.41232479406504e+005,-2.00784250835089e+001,-2.71631523850829e+000

1.43204011348474e+005,-2.00788445782864e+001,-2.75317261001790e+000

1.45203064850745e+005,-2.00792724673367e+001,-2.79050968568200e+000

1.47230024099979e+005,-2.00797088435501e+001,-2.82833226441671e+000

1.49285278645888e+005,-2.00801537976212e+001,-2.86664621708313e+000

1.51369223476094e+005,-2.00806074179080e+001,-2.90545748826195e+000

1.53482259092041e+005,-2.00810697902936e+001,-2.94477209810739e+000

1.55624791585964e+005,-2.00815409980477e+001,-2.98459614428039e+000

1.57797232718936e+005,-2.00820211216906e+001,-3.02493580396656e+000

1.59999999999999e+005,-2.00825102388591e+001,-3.06579733597521e+000

1.62233516766403e+005,-2.00830084241756e+001,-3.10718708292465e+000

1.64498212264969e+005,-2.00835157491207e+001,-3.14911147351429e+000

1.66794521734578e+005,-2.00840322819093e+001,-3.19157702488243e+000

1.69122886489819e+005,-2.00845580873724e+001,-3.23459034505370e+000

1.71483754005805e+005,-2.00850932268441e+001,-3.27815813547186e+000

1.73877578004168e+005,-2.00856377580537e+001,-3.32228719362461e+000

1.76304818540256e+005,-2.00861917350265e+001,-3.36698441575353e+000

1.78765942091554e+005,-2.00867552079903e+001,-3.41225679965499e+000

1.81261421647326e+005,-2.00873282232916e+001,-3.45811144756509e+000

1.83791736799524e+005,-2.00879108233197e+001,-3.50455556913534e+000

1.86357373834951e+005,-2.00885030464419e+001,-3.55159648448908e+000

1.88958825828723e+005,-2.00891049269477e+001,-3.59924162736559e+000

1.91596592739027e+005,-2.00897164950054e+001,-3.64749854834236e+000

1.94271181503206e+005,-2.00903377766303e+001,-3.69637491813988e+000

1.96983106135185e+005,-2.00909687936655e+001,-3.74587853100169e+000

1.99732887824256e+005,-2.00916095637763e+001,-3.79601730814878e+000

2.02521055035243e+005,-2.00922601004591e+001,-3.84679930130442e+000

2.05348143610063e+005,-2.00929204130641e+001,-3.89823269628663e+000

2.08214696870707e+005,-2.00935905068346e+001,-3.95032581666368e+000

2.11121265723661e+005,-2.00942703829619e+001,-4.00308712746757e+000

2.14068408765776e+005,-2.00949600386567e+001,-4.05652523896287e+000

2.17056692391625e+005,-2.00956594672382e+001,-4.11064891046414e+000

2.20086690902357e+005,-2.00963686582404e+001,-4.16546705419676e+000

2.23158986616063e+005,-2.00970875975370e+001,-4.22098873919810e+000

2.26274169979693e+005,-2.00978162674848e+001,-4.27722319524936e+000

2.29432839682530e+005,-2.00985546470859e+001,-4.33417981683500e+000

2.32635602771247e+005,-2.00993027121695e+001,-4.39186816712334e+000

2.35883074766574e+005,-2.01000604355924e+001,-4.45029798195982e+000

2.39175879781588e+005,-2.01008277874605e+001,-4.50947917386802e+000

2.42514650641661e+005,-2.01016047353684e+001,-4.56942183605262e+000

2.45900029006080e+005,-2.01023912446600e+001,-4.63013624639507e+000

2.49332665491357e+005,-2.01031872787086e+001,-4.69163287143660e+000

2.52813219796278e+005,-2.01039927992158e+001,-4.75392237034117e+000

2.56342360828676e+005,-2.01048077665314e+001,-4.81701559883293e+000

2.59920766833993e+005,-2.01056321399905e+001,-4.88092361309856e+000

2.63549125525621e+005,-2.01064658782711e+001,-4.94565767365129e+000

2.67228134217075e+005,-2.01073089397694e+001,-5.01122924914574e+000

2.70958499956006e+005,-2.01081612829928e+001,-5.07765002014221e+000

2.74740939660078e+005,-2.01090228669710e+001,-5.14493188280896e+000

2.78576180254757e+005,-2.01098936516829e+001,-5.21308695256204e+000

2.82464958813007e+005,-2.01107735985003e+001,-5.28212756763171e+000

2.86408022696948e+005,-2.01116626706469e+001,-5.35206629255359e+000

2.90406129701488e+005,-2.01125608336711e+001,-5.42291592157895e+000

2.94460048199957e+005,-2.01134680559332e+001,-5.49468948199865e+000

2.98570557291775e+005,-2.01143843091049e+001,-5.56740023737690e+000

3.02738446952187e+005,-2.01153095686804e+001,-5.64106169069307e+000

3.06964518184081e+005,-2.01162438144991e+001,-5.71568758738423e+000

3.11249583171928e+005,-2.01171870312765e+001,-5.79129191829034e+000

3.15594465437872e+005,-2.01181392091453e+001,-5.86788892249681e+000

3.19999999999997e+005,-2.01191003442030e+001,-5.94549309007439e+000

3.24467033532806e+005,-2.01200704390667e+001,-6.02411916471370e+000

3.28996424529938e+005,-2.01210495034323e+001,-6.10378214625665e+000

3.33589043469155e+005,-2.01220375546391e+001,-6.18449729312052e+000

3.38245772979638e+005,-2.01230346182369e+001,-6.26628012462045e+000

3.42967508011610e+005,-2.01240407285550e+001,-6.34914642318657e+000

3.47755156008335e+005,-2.01250559292726e+001,-6.43311223648141e+000

3.52609637080511e+005,-2.01260802739891e+001,-6.51819387941664e+000

3.57531884183106e+005,-2.01271138267935e+001,-6.60440793607394e+000

3.62522843294651e+005,-2.01281566628312e+001,-6.69177126153261e+000

3.67583473599047e+005,-2.01292088688682e+001,-6.78030098360748e+000

3.72714747669902e+005,-2.01302705438523e+001,-6.87001450450016e+000

3.77917651657445e+005,-2.01313417994680e+001,-6.96092950237136e+000

3.83193185478053e+005,-2.01324227606878e+001,-7.05306393283492e+000

3.88542363006410e+005,-2.01335135663161e+001,-7.14643603038237e+000

3.93966212270369e+005,-2.01346143695273e+001,-7.24106430974171e+000

3.99465775648511e+005,-2.01357253383963e+001,-7.33696756717652e+000

4.05042110070485e+005,-2.01368466564211e+001,-7.43416488173132e+000

4.10696287220124e+005,-2.01379785230380e+001,-7.53267561643085e+000

4.16429393741414e+005,-2.01391211541277e+001,-7.63251941943750e+000

4.22242531447321e+005,-2.01402747825131e+001,-7.73371622517462e+000

4.28136817531551e+005,-2.01414396584480e+001,-7.83628625542221e+000

4.34113384783250e+005,-2.01426160500974e+001,-7.94025002039152e+000

4.40173381804713e+005,-2.01438042440084e+001,-8.04562831978470e+000

4.46317973232124e+005,-2.01450045455728e+001,-8.15244224384618e+000

4.52548339959385e+005,-2.01462172794800e+001,-8.26071317441362e+000

4.58865679365059e+005,-2.01474427901633e+001,-8.37046278597090e+000

4.65271205542494e+005,-2.01486814422356e+001,-8.48171304671441e+000

4.71766149533147e+005,-2.01499336209198e+001,-8.59448621963412e+000

4.78351759563174e+005,-2.01511997324701e+001,-8.70880486361756e+000

4.85029301283321e+005,-2.01524802045870e+001,-8.82469183458107e+000

4.91800058012158e+005,-2.01537754868266e+001,-8.94217028663397e+000

4.98665330982714e+005,-2.01550860510029e+001,-9.06126367328018e+000

5.05626439592555e+005,-2.01564123915865e+001,-9.18199574866141e+000

5.12684721657352e+005,-2.01577550260977e+001,-9.30439056884711e+000

5.19841533667984e+005,-2.01591144954974e+001,-9.42847249317308e+000

5.27098251051240e+005,-2.01604913645738e+001,-9.55426618563466e+000

5.34456268434150e+005,-2.01618862223278e+001,-9.68179661633434e+000

5.41916999912011e+005,-2.01632996823578e+001,-9.81108906298936e+000

