Freq.,VOut,OutRef

1.00000000000000e+004,-2.77368885181681e+001,-7.22794084557155e-002

1.01395947979003e+004,-2.77368892523332e+001,-7.32882501910745e-002

1.02811382665607e+004,-2.77368900070997e+001,-7.43111688426187e-002

1.04246576084112e+004,-2.77368907830445e+001,-7.53483606655963e-002

1.05701804056138e+004,-2.77368915807607e+001,-7.64000246406165e-002

1.07177346253629e+004,-2.77368924008582e+001,-7.74663625143001e-002

1.08673486252606e+004,-2.77368932439631e+001,-7.85475788420508e-002

1.10190511587661e+004,-2.77368941107197e+001,-7.96438810187652e-002

1.11728713807222e+004,-2.77368950017903e+001,-8.07554793211770e-002

1.13288388529580e+004,-2.77368959178551e+001,-8.18825869523214e-002

1.14869835499703e+004,-2.77368968596132e+001,-8.30254200757917e-002

1.16473358646846e+004,-2.77368978277841e+001,-8.41841978563426e-002

1.18099266142953e+004,-2.77368988231063e+001,-8.53591425059756e-002

1.19747870461893e+004,-2.77368998463396e+001,-8.65504793201578e-002

1.21419488439505e+004,-2.77369008982646e+001,-8.77584367253542e-002

1.23114441334492e+004,-2.77369019796834e+001,-8.89832463214796e-002

1.24833054890161e+004,-2.77369030914208e+001,-9.02251429200110e-002

1.26575659397028e+004,-2.77369042343245e+001,-9.14843645931281e-002

1.28342589756290e+004,-2.77369054092653e+001,-9.27611527205357e-002

1.30134185544193e+004,-2.77369066171389e+001,-9.40557520259243e-002

1.31950791077289e+004,-2.77369078588653e+001,-9.53684106330576e-002

1.33792755478611e+004,-2.77369091353903e+001,-9.66993801049828e-002

1.35660432744767e+004,-2.77369104476859e+001,-9.80489154962695e-002

1.37554181813974e+004,-2.77369117967512e+001,-9.94172753954931e-002

1.39474366635040e+004,-2.77369131836127e+001,-1.00804721979493e-001

1.41421356237309e+004,-2.77369146093254e+001,-1.02211521058590e-001

1.43395524801583e+004,-2.77369160749741e+001,-1.03637942124365e-001

1.45397251732031e+004,-2.77369175816731e+001,-1.05084258405099e-001

1.47426921729110e+004,-2.77369191305675e+001,-1.06550746916701e-001

1.49484924863494e+004,-2.77369207228342e+001,-1.08037688508562e-001

1.51571656651040e+004,-2.77369223596831e+001,-1.09545367918795e-001

1.53687518128801e+004,-2.77369240423571e+001,-1.11074073829537e-001

1.55832915932100e+004,-2.77369257721333e+001,-1.12624098918829e-001

1.58008262372675e+004,-2.77369275503246e+001,-1.14195739914205e-001

1.60213975517924e+004,-2.77369293782798e+001,-1.15789297648522e-001

1.62450479271247e+004,-2.77369312573850e+001,-1.17405077115318e-001

1.64718203453514e+004,-2.77369331890644e+001,-1.19043387528206e-001

1.67017583885674e+004,-2.77369351747819e+001,-1.20704542371088e-001

1.69349062472505e+004,-2.77369372160413e+001,-1.22388859463361e-001

1.71713087287550e+004,-2.77369393143877e+001,-1.24096661016791e-001

1.74110112659224e+004,-2.77369414714095e+001,-1.25828273689850e-001

1.76540599258131e+004,-2.77369436887380e+001,-1.27584028655573e-001

1.79005014185594e+004,-2.77369459680495e+001,-1.29364261657984e-001

1.81503831063432e+004,-2.77369483110666e+001,-1.31169313073302e-001

1.84037530124975e+004,-2.77369507195592e+001,-1.32999527974847e-001

1.86606598307361e+004,-2.77369531953453e+001,-1.34855256195157e-001

1.89211529345119e+004,-2.77369557402932e+001,-1.36736852389023e-001

1.91852823865052e+004,-2.77369583563223e+001,-1.38644676100318e-001

1.94530989482457e+004,-2.77369610454046e+001,-1.40579091825342e-001

1.97246540898671e+004,-2.77369638095655e+001,-1.42540469083191e-001

1.99999999999999e+004,-2.77369666508866e+001,-1.44529182477260e-001

2.02791895958005e+004,-2.77369695715057e+001,-1.46545611767223e-001

2.05622765331213e+004,-2.77369725736192e+001,-1.48590141939322e-001

2.08493152168224e+004,-2.77369756594835e+001,-1.50663163269921e-001

2.11403608112276e+004,-2.77369788314160e+001,-1.52765071404271e-001

2.14354692507258e+004,-2.77369820917978e+001,-1.54896267420665e-001

2.17346972505211e+004,-2.77369854430745e+001,-1.57057157906512e-001

2.20381023175322e+004,-2.77369888877579e+001,-1.59248155031845e-001

2.23457427614443e+004,-2.77369924284279e+001,-1.61469676622727e-001

2.26576777059159e+004,-2.77369960677352e+001,-1.63722146232656e-001

2.29739670999406e+004,-2.77369998084012e+001,-1.66005993224828e-001

2.32946717293690e+004,-2.77370036532216e+001,-1.68321652844392e-001

2.36198532285905e+004,-2.77370076050673e+001,-1.70669566297053e-001

2.39495740923785e+004,-2.77370116668869e+001,-1.73050180827005e-001

2.42838976879009e+004,-2.77370158417085e+001,-1.75463949797552e-001

2.46228882668982e+004,-2.77370201326417e+001,-1.77911332770283e-001

2.49666109780322e+004,-2.77370245428797e+001,-1.80392795587805e-001

2.53151318794055e+004,-2.77370290757015e+001,-1.82908810453341e-001

2.56685179512580e+004,-2.77370337344742e+001,-1.85459856015973e-001

2.60268371088386e+004,-2.77370385226547e+001,-1.88046417455035e-001

2.63901582154578e+004,-2.77370434437927e+001,-1.90668986562263e-001

2.67585510957221e+004,-2.77370485015328e+001,-1.93328061830517e-001

2.71320865489533e+004,-2.77370536996167e+001,-1.96024148538413e-001

2.75108363627948e+004,-2.77370590418857e+001,-1.98757758839837e-001

2.78948733270080e+004,-2.77370645322832e+001,-2.01529411852643e-001

2.82842712474618e+004,-2.77370701748575e+001,-2.04339633746007e-001

2.86791049603164e+004,-2.77370759737643e+001,-2.07188957832865e-001

2.90794503464061e+004,-2.77370819332686e+001,-2.10077924663128e-001

2.94853843458219e+004,-2.77370880577489e+001,-2.13007082112596e-001

2.98969849726987e+004,-2.77370943516985e+001,-2.15976985478839e-001

3.03143313302078e+004,-2.77371008197293e+001,-2.18988197575089e-001

3.07375036257601e+004,-2.77371074665742e+001,-2.22041288825499e-001

3.11665831864199e+004,-2.77371142970903e+001,-2.25136837362051e-001

3.16016524745350e+004,-2.77371213162614e+001,-2.28275429122262e-001

3.20427951035848e+004,-2.77371285292018e+001,-2.31457657945634e-001

3.24900958542493e+004,-2.77371359411589e+001,-2.34684125675041e-001

3.29436406907028e+004,-2.77371435575162e+001,-2.37955442257090e-001

3.34035167771346e+004,-2.77371513837973e+001,-2.41272225839744e-001

3.38698124945009e+004,-2.77371594256681e+001,-2.44635102881835e-001

3.43426174575100e+004,-2.77371676889411e+001,-2.48044708247576e-001

3.48220225318448e+004,-2.77371761795782e+001,-2.51501685317580e-001

3.53081198516260e+004,-2.77371849036947e+001,-2.55006686089873e-001

3.58010028371187e+004,-2.77371938675619e+001,-2.58560371288482e-001

3.63007662126863e+004,-2.77372030776116e+001,-2.62163410469019e-001

3.68075060249948e+004,-2.77372125404392e+001,-2.65816482127152e-001

3.73213196614721e+004,-2.77372222628076e+001,-2.69520273808323e-001

3.78423058690237e+004,-2.77372322516506e+001,-2.73275482215613e-001

3.83705647730104e+004,-2.77372425140774e+001,-2.77082813321424e-001

3.89061978964912e+004,-2.77372530573753e+001,-2.80942982482158e-001

3.94493081797342e+004,-2.77372638890147e+001,-2.84856714546019e-001

3.99999999999998e+004,-2.77372750166523e+001,-2.88824743969635e-001

4.05583791916010e+004,-2.77372864481355e+001,-2.92847814932504e-001

4.11245530662425e+004,-2.77372981915061e+001,-2.96926681451014e-001

4.16986304336447e+004,-2.77373102550045e+001,-3.01062107496660e-001

4.22807216224550e+004,-2.77373226470740e+001,-3.05254867111164e-001

4.28709385014515e+004,-2.77373353763648e+001,-3.09505744525876e-001

4.34693945010421e+004,-2.77373484517377e+001,-3.13815534281707e-001

4.40762046350642e+004,-2.77373618822693e+001,-3.18185041347205e-001

4.46914855228886e+004,-2.77373756772553e+001,-3.22615081239786e-001

4.53153554118317e+004,-2.77373898462154e+001,-3.27106480147646e-001

4.59479341998812e+004,-2.77374043988974e+001,-3.31660075052530e-001

4.65893434587380e+004,-2.77374193452812e+001,-3.36276713852627e-001

4.72397064571810e+004,-2.77374346955837e+001,-3.40957255486334e-001

4.78991481847569e+004,-2.77374504602626e+001,-3.45702570057471e-001

4.85677953758016e+004,-2.77374666500213e+001,-3.50513538960909e-001

4.92457765337964e+004,-2.77374832758125e+001,-3.55391055010584e-001

4.99332219560642e+004,-2.77375003488432e+001,-3.60336022563535e-001

5.06302637588109e+004,-2.77375178805788e+001,-3.65349357651522e-001

5.13370359025159e+004,-2.77375358827472e+001,-3.70431988107703e-001

5.20536742176771e+004,-2.77375543673434e+001,-3.75584853696898e-001

5.27803164309155e+004,-2.77375733466334e+001,-3.80808906247001e-001

5.35171021914442e+004,-2.77375928331587e+001,-3.86105109778784e-001

5.42641730979066e+004,-2.77376128397403e+001,-3.91474440638025e-001

5.50216727255895e+004,-2.77376333794830e+001,-3.96917887627932e-001

5.57897466540159e+004,-2.77376544657790e+001,-4.02436452145368e-001

5.65685424949235e+004,-2.77376761123120e+001,-4.08031148310961e-001

5.73582099206328e+004,-2.77376983330616e+001,-4.13703003106461e-001

5.81589006928121e+004,-2.77377211423062e+001,-4.19453056509361e-001

5.89707686916437e+004,-2.77377445546272e+001,-4.25282361630819e-001

5.97939699453972e+004,-2.77377685849125e+001,-4.31191984850664e-001

6.06286626604156e+004,-2.77377932483597e+001,-4.37183005957029e-001

6.14750072515201e+004,-2.77378185604793e+001,-4.43256518284986e-001

6.23331663728396e+004,-2.77378445370983e+001,-4.49413628854477e-001

6.32033049490698e+004,-2.77378711943623e+001,-4.55655458511908e-001

6.40855902071694e+004,-2.77378985487390e+001,-4.61983142071115e-001

6.49801917084985e+004,-2.77379266170201e+001,-4.68397828455468e-001

6.58872813814055e+004,-2.77379554163242e+001,-4.74900680839581e-001

6.68070335542691e+004,-2.77379849640980e+001,-4.81492876794713e-001

6.77396249890018e+004,-2.77380152781190e+001,-4.88175608432146e-001

6.86852349150199e+004,-2.77380463764965e+001,-4.94950082547884e-001

6.96440450636895e+004,-2.77380782776729e+001,-5.01817520772915e-001

7.06162397032520e+004,-2.77381110004247e+001,-5.08779159715338e-001

7.16020056742374e+004,-2.77381445638629e+001,-5.15836251115546e-001

7.26015324253724e+004,-2.77381789874333e+001,-5.22990061990528e-001

7.36150120499896e+004,-2.77382142909165e+001,-5.30241874788293e-001

7.46426393229441e+004,-2.77382504944270e+001,-5.37592987540585e-001

7.56846117380472e+004,-2.77382876184125e+001,-5.45044714014037e-001

7.67411295460207e+004,-2.77383256836523e+001,-5.52598383869246e-001

7.78123957929823e+004,-2.77383647112554e+001,-5.60255342815443e-001

7.88986163594682e+004,-2.77384047226580e+001,-5.68016952770546e-001

7.99999999999995e+004,-2.77384457396210e+001,-5.75884592020476e-001

8.11167583832018e+004,-2.77384877842259e+001,-5.83859655383874e-001

8.22491061324848e+004,-2.77385308788710e+001,-5.91943554375487e-001

8.33972608672892e+004,-2.77385750462672e+001,-6.00137717372438e-001

8.45614432449099e+004,-2.77386203094318e+001,-6.08443589785555e-001

8.57418770029029e+004,-2.77386666916835e+001,-6.16862634230339e-001

8.69387890020841e+004,-2.77387142166350e+001,-6.25396330702071e-001

8.81524092701283e+004,-2.77387629081862e+001,-6.34046176753590e-001

8.93829710457770e+004,-2.77388127905159e+001,-6.42813687677009e-001

9.06307108236633e+004,-2.77388638880731e+001,-6.51700396686877e-001

9.18958683997622e+004,-2.77389162255670e+001,-6.60707855110733e-001

9.31786869174758e+004,-2.77389698279573e+001,-6.69837632578364e-001

9.44794129143618e+004,-2.77390247204423e+001,-6.79091317220929e-001

9.57982963695136e+004,-2.77390809284469e+001,-6.88470515870964e-001

9.71355907516031e+004,-2.77391384776094e+001,-6.97976854269029e-001

9.84915530675926e+004,-2.77391973937682e+001,-7.07611977272103e-001

9.98664439121282e+004,-2.77392577029460e+001,-7.17377549074893e-001

1.01260527517622e+005,-2.77393194313345e+001,-7.27275253428257e-001

1.02674071805032e+005,-2.77393826052775e+001,-7.37306793870085e-001

1.04107348435354e+005,-2.77394472512530e+001,-7.47473893960367e-001

1.05560632861831e+005,-2.77395133958541e+001,-7.57778297523984e-001

1.07034204382888e+005,-2.77395810657694e+001,-7.68221768901632e-001

1.08528346195813e+005,-2.77396502877620e+001,-7.78806093206892e-001

1.10043345451179e+005,-2.77397210886474e+001,-7.89533076594277e-001

1.11579493308032e+005,-2.77397934952704e+001,-8.00404546534388e-001

1.13137084989847e+005,-2.77398675344814e+001,-8.11422352098987e-001

1.14716419841265e+005,-2.77399432331103e+001,-8.22588364258691e-001

1.16317801385624e+005,-2.77400206179414e+001,-8.33904476185020e-001

1.17941537383287e+005,-2.77400997156851e+001,-8.45372603571821e-001

1.19587939890794e+005,-2.77401805529497e+001,-8.56994684963025e-001

1.21257325320831e+005,-2.77402631562127e+001,-8.68772682091529e-001

1.22950014503040e+005,-2.77403475517894e+001,-8.80708580237917e-001

1.24666332745679e+005,-2.77404337658021e+001,-8.92804388595954e-001

1.26406609898139e+005,-2.77405218241473e+001,-9.05062140655120e-001

1.28171180414339e+005,-2.77406117524630e+001,-9.17483894598110e-001

1.29960383416997e+005,-2.77407035760936e+001,-9.30071733714785e-001

1.31774562762811e+005,-2.77407973200557e+001,-9.42827766829287e-001

1.33614067108538e+005,-2.77408930090018e+001,-9.55754128746924e-001

1.35479249978003e+005,-2.77409906671835e+001,-9.68852980718751e-001

1.37370469830040e+005,-2.77410903184149e+001,-9.82126510921350e-001

1.39288090127379e+005,-2.77411919860342e+001,-9.95576934958479e-001

1.41232479406504e+005,-2.77412956928655e+001,-1.00920649638201e+000

1.43204011348474e+005,-2.77414014611799e+001,-1.02301746723092e+000

1.45203064850745e+005,-2.77415093126565e+001,-1.03701214859308e+000

1.47230024099979e+005,-2.77416192683430e+001,-1.05119287118792e+000

1.49285278645888e+005,-2.77417313486160e+001,-1.06556199597132e+000

1.51369223476094e+005,-2.77418455731414e+001,-1.08012191476281e+000

1.53482259092041e+005,-2.77419619608355e+001,-1.09487505089510e+000

1.55624791585964e+005,-2.77420805298248e+001,-1.10982385988992e+000

1.57797232718936e+005,-2.77422012974082e+001,-1.12497083015454e+000

1.59999999999999e+005,-2.77423242800178e+001,-1.14031848370550e+000

1.62233516766403e+005,-2.77424494931817e+001,-1.15586937691635e+000

1.64498212264969e+005,-2.77425769514870e+001,-1.17162610129113e+000

1.66794521734578e+005,-2.77427066685439e+001,-1.18759128426181e+000

1.69122886489819e+005,-2.77428386569510e+001,-1.20376759001394e+000

1.71483754005805e+005,-2.77429729282617e+001,-1.22015772033718e+000

1.73877578004168e+005,-2.77431094929525e+001,-1.23676441550182e+000

1.76304818540256e+005,-2.77432483603927e+001,-1.25359045516151e+000

1.78765942091554e+005,-2.77433895388160e+001,-1.27063865928317e+000

1.81261421647326e+005,-2.77435330352942e+001,-1.28791188910075e+000

1.83791736799524e+005,-2.77436788557131e+001,-1.30541304809771e+000

1.86357373834951e+005,-2.77438270047510e+001,-1.32314508301258e+000

1.88958825828723e+005,-2.77439774858598e+001,-1.34111098487096e+000

1.91596592739027e+005,-2.77441303012485e+001,-1.35931379004255e+000

1.94271181503206e+005,-2.77442854518704e+001,-1.37775658132254e+000

1.96983106135185e+005,-2.77444429374132e+001,-1.39644248903526e+000

1.99732887824256e+005,-2.77446027562924e+001,-1.41537469216194e+000

2.02521055035243e+005,-2.77447649056481e+001,-1.43455641949212e+000

2.05348143610063e+005,-2.77449293813468e+001,-1.45399095079235e+000

2.08214696870707e+005,-2.77450961779848e+001,-1.47368161800003e+000

2.11121265723661e+005,-2.77452652888982e+001,-1.49363180643297e+000

2.14068408765776e+005,-2.77454367061755e+001,-1.51384495601860e+000

2.17056692391625e+005,-2.77456104206750e+001,-1.53432456254000e+000

2.20086690902357e+005,-2.77457864220470e+001,-1.55507417889823e+000

2.23158986616063e+005,-2.77459646987605e+001,-1.57609741638671e+000

2.26274169979693e+005,-2.77461452381343e+001,-1.59739794598158e+000

2.29432839682530e+005,-2.77463280263733e+001,-1.61897949964033e+000

2.32635602771247e+005,-2.77465130486099e+001,-1.64084587161252e+000

2.35883074766574e+005,-2.77467002889497e+001,-1.66300091975743e+000

2.39175879781588e+005,-2.77468897305225e+001,-1.68544856686963e+000

2.42514650641661e+005,-2.77470813555390e+001,-1.70819280200647e+000

2.45900029006080e+005,-2.77472751453514e+001,-1.73123768182286e+000

2.49332665491357e+005,-2.77474710805198e+001,-1.75458733190397e+000

2.52813219796278e+005,-2.77476691408834e+001,-1.77824594809949e+000

2.56342360828676e+005,-2.77478693056364e+001,-1.80221779785579e+000

2.59920766833993e+005,-2.77480715534094e+001,-1.82650722154358e+000

2.63549125525621e+005,-2.77482758623549e+001,-1.85111863378092e+000

2.67228134217075e+005,-2.77484822102378e+001,-1.87605652474905e+000

2.70958499956006e+005,-2.77486905745303e+001,-1.90132546149990e+000

2.74740939660078e+005,-2.77489009325115e+001,-1.92693008925361e+000

2.78576180254757e+005,-2.77491132613709e+001,-1.95287513268327e+000

2.82464958813007e+005,-2.77493275383161e+001,-1.97916539718862e+000

2.86408022696948e+005,-2.77495437406843e+001,-2.00580577015430e+000

2.90406129701488e+005,-2.77497618460573e+001,-2.03280122219271e+000

2.94460048199957e+005,-2.77499818323804e+001,-2.06015680837111e+000

2.98570557291775e+005,-2.77502036780837e+001,-2.08787766942044e+000

3.02738446952187e+005,-2.77504273622068e+001,-2.11596903292694e+000

3.06964518184081e+005,-2.77506528645261e+001,-2.14443621450288e+000

3.11249583171928e+005,-2.77508801656842e+001,-2.17328461894029e+000

3.15594465437872e+005,-2.77511092473219e+001,-2.20251974134170e+000

3.19999999999997e+005,-2.77513400922111e+001,-2.23214716823333e+000

3.24467033532806e+005,-2.77515726843900e+001,-2.26217257865560e+000

3.28996424529938e+005,-2.77518070092992e+001,-2.29260174523474e+000

3.33589043469155e+005,-2.77520430539186e+001,-2.32344053523258e+000

3.38245772979638e+005,-2.77522808069051e+001,-2.35469491157778e+000

3.42967508011610e+005,-2.77525202587302e+001,-2.38637093387703e+000

3.47755156008335e+005,-2.77527614018186e+001,-2.41847475940602e+000

3.52609637080511e+005,-2.77530042306849e+001,-2.45101264408446e+000

3.57531884183106e+005,-2.77532487420718e+001,-2.48399094343177e+000

3.62522843294651e+005,-2.77534949350857e+001,-2.51741611350787e+000

3.67583473599047e+005,-2.77537428113326e+001,-2.55129471183724e+000

3.72714747669902e+005,-2.77539923750516e+001,-2.58563339832131e+000

3.77917651657445e+005,-2.77542436332482e+001,-2.62043893613634e+000

3.83193185478053e+005,-2.77544965958247e+001,-2.65571819262117e+000

3.88542363006410e+005,-2.77547512757093e+001,-2.69147814015642e+000

3.93966212270369e+005,-2.77550076889834e+001,-2.72772585703429e+000

3.99465775648511e+005,-2.77552658550064e+001,-2.76446852832304e+000

4.05042110070485e+005,-2.77555257965378e+001,-2.80171344672911e+000

4.10696287220124e+005,-2.77557875398576e+001,-2.83946801345446e+000

4.16429393741414e+005,-2.77560511148838e+001,-2.87773973905552e+000

4.22242531447321e+005,-2.77563165552874e+001,-2.91653624430270e+000

4.28136817531551e+005,-2.77565838986046e+001,-2.95586526104516e+000

4.34113384783250e+005,-2.77568531863466e+001,-2.99573463307961e+000

4.40173381804713e+005,-2.77571244641067e+001,-3.03615231702841e+000

4.46317973232124e+005,-2.77573977816644e+001,-3.07712638322689e+000

4.52548339959385e+005,-2.77576731930875e+001,-3.11866501662198e+000

4.58865679365059e+005,-2.77579507568311e+001,-3.16077651768628e+000

4.65271205542494e+005,-2.77582305358344e+001,-3.20346930334655e+000

4.71766149533147e+005,-2.77585125976152e+001,-3.24675190792987e+000

4.78351759563174e+005,-2.77587970143620e+001,-3.29063298413142e+000

4.85029301283321e+005,-2.77590838630238e+001,-3.33512130399984e+000

4.91800058012158e+005,-2.77593732253986e+001,-3.38022575995022e+000

4.98665330982714e+005,-2.77596651882191e+001,-3.42595536579852e+000

5.05626439592555e+005,-2.77599598432376e+001,-3.47231925782409e+000

5.12684721657352e+005,-2.77602572873091e+001,-3.51932669585936e+000

5.19841533667984e+005,-2.77605576224732e+001,-3.56698706440936e+000

5.27098251051240e+005,-2.77608609560350e+001,-3.61530987380152e+000

5.34456268434150e+005,-2.77611674006450e+001,-3.66430476136825e+000

5.41916999912011e+005,-2.77614770743793e+001,-3.71398149266105e+000

