Freq.,VOut,OutRef

1.00000000000000e+004,-1.02964678268712e+000,-1.54723364201343e-001

1.01395947979003e+004,-1.02964674166090e+000,-1.56883217565589e-001

1.02811382665607e+004,-1.02964669947981e+000,-1.59073221177372e-001

1.04246576084112e+004,-1.02964665611140e+000,-1.61293795910005e-001

1.05701804056138e+004,-1.02964661152235e+000,-1.63545368511443e-001

1.07177346253629e+004,-1.02964656567813e+000,-1.65828371688299e-001

1.08673486252606e+004,-1.02964651854329e+000,-1.68143244186685e-001

1.10190511587661e+004,-1.02964647008162e+000,-1.70490430875675e-001

1.11728713807222e+004,-1.02964642025567e+000,-1.72870382835307e-001

1.13288388529580e+004,-1.02964636902699e+000,-1.75283557441361e-001

1.14869835499703e+004,-1.02964631635581e+000,-1.77730418456165e-001

1.16473358646846e+004,-1.02964626220181e+000,-1.80211436111355e-001

1.18099266142953e+004,-1.02964620652293e+000,-1.82727087205920e-001

1.19747870461893e+004,-1.02964614927627e+000,-1.85277855193030e-001

1.21419488439505e+004,-1.02964609041761e+000,-1.87864230273258e-001

1.23114441334492e+004,-1.02964602990141e+000,-1.90486709491257e-001

1.24833054890161e+004,-1.02964596768096e+000,-1.93145796828065e-001

1.26575659397028e+004,-1.02964590370831e+000,-1.95842003300105e-001

1.28342589756290e+004,-1.02964583793375e+000,-1.98575847057705e-001

1.30134185544193e+004,-1.02964577030670e+000,-2.01347853481833e-001

1.31950791077289e+004,-1.02964570077471e+000,-2.04158555288268e-001

1.33792755478611e+004,-1.02964562928407e+000,-2.07008492628325e-001

1.35660432744767e+004,-1.02964555577959e+000,-2.09898213191890e-001

1.37554181813974e+004,-1.02964548020420e+000,-2.12828272315416e-001

1.39474366635040e+004,-1.02964540249969e+000,-2.15799233084689e-001

1.41421356237309e+004,-1.02964532260574e+000,-2.18811666447531e-001

1.43395524801583e+004,-1.02964524046072e+000,-2.21866151318085e-001

1.45397251732031e+004,-1.02964515600090e+000,-2.24963274694057e-001

1.47426921729110e+004,-1.02964506916104e+000,-2.28103631763530e-001

1.49484924863494e+004,-1.02964497987370e+000,-2.31287826025687e-001

1.51571656651040e+004,-1.02964488806996e+000,-2.34516469399402e-001

1.53687518128801e+004,-1.02964479367848e+000,-2.37790182348260e-001

1.55832915932100e+004,-1.02964469662634e+000,-2.41109593993233e-001

1.58008262372675e+004,-1.02964459683828e+000,-2.44475342237960e-001

1.60213975517924e+004,-1.02964449423690e+000,-2.47888073889567e-001

1.62450479271247e+004,-1.02964438874274e+000,-2.51348444782265e-001

1.64718203453514e+004,-1.02964428027392e+000,-2.54857119906190e-001

1.67017583885674e+004,-1.02964416874644e+000,-2.58414773529876e-001

1.69349062472505e+004,-1.02964405407366e+000,-2.62022089336735e-001

1.71713087287550e+004,-1.02964393616659e+000,-2.65679760549983e-001

1.74110112659224e+004,-1.02964381493377e+000,-2.69388490069206e-001

1.76540599258131e+004,-1.02964369028109e+000,-2.73148990604664e-001

1.79005014185594e+004,-1.02964356211182e+000,-2.76961984813655e-001

1.81503831063432e+004,-1.02964343032617e+000,-2.80828205441498e-001

1.84037530124975e+004,-1.02964329482192e+000,-2.84748395458223e-001

1.86606598307361e+004,-1.02964315549378e+000,-2.88723308204743e-001

1.89211529345119e+004,-1.02964301223324e+000,-2.92753707537191e-001

1.91852823865052e+004,-1.02964286492911e+000,-2.96840367970471e-001

1.94530989482457e+004,-1.02964271346665e+000,-3.00984074831955e-001

1.97246540898671e+004,-1.02964255772803e+000,-3.05185624407944e-001

1.99999999999999e+004,-1.02964239759199e+000,-3.09445824099445e-001

2.02791895958005e+004,-1.02964223293382e+000,-3.13765492575353e-001

2.05622765331213e+004,-1.02964206362529e+000,-3.18145459930383e-001

2.08493152168224e+004,-1.02964188953447e+000,-3.22586567844804e-001

2.11403608112276e+004,-1.02964171052561e+000,-3.27089669746123e-001

2.14354692507258e+004,-1.02964152645907e+000,-3.31655630972047e-001

2.17346972505211e+004,-1.02964133719134e+000,-3.36285328937155e-001

2.20381023175322e+004,-1.02964114257462e+000,-3.40979653302073e-001

2.23457427614443e+004,-1.02964094245693e+000,-3.45739506143254e-001

2.26576777059159e+004,-1.02964073668197e+000,-3.50565802126391e-001

2.29739670999406e+004,-1.02964052508899e+000,-3.55459468682030e-001

2.32946717293690e+004,-1.02964030751244e+000,-3.60421446184933e-001

2.36198532285905e+004,-1.02964008378229e+000,-3.65452688131837e-001

2.39495740923785e+004,-1.02963985372332e+000,-3.70554161327655e-001

2.42838976879009e+004,-1.02963961715545e+000,-3.75726846068914e-001

2.46228882668982e+004,-1.02963937389343e+000,-3.80971736332206e-001

2.49666109780322e+004,-1.02963912374647e+000,-3.86289839966875e-001

2.53151318794055e+004,-1.02963886651855e+000,-3.91682178885495e-001

2.56685179512580e+004,-1.02963860200780e+000,-3.97149789262412e-001

2.60268371088386e+004,-1.02963833000662e+000,-4.02693721731187e-001

2.63901582154578e+004,-1.02963805030139e+000,-4.08315041587260e-001

2.67585510957221e+004,-1.02963776267223e+000,-4.14014828992778e-001

2.71320865489533e+004,-1.02963746689297e+000,-4.19794179182002e-001

2.75108363627948e+004,-1.02963716273090e+000,-4.25654202673284e-001

2.78948733270080e+004,-1.02963684994669e+000,-4.31596025480733e-001

2.82842712474618e+004,-1.02963652829374e+000,-4.37620789332692e-001

2.86791049603164e+004,-1.02963619751858e+000,-4.43729651888222e-001

2.90794503464061e+004,-1.02963585736021e+000,-4.49923786960893e-001

2.94853843458219e+004,-1.02963550755021e+000,-4.56204384742956e-001

2.98969849726987e+004,-1.02963514781216e+000,-4.62572652035249e-001

3.03143313302078e+004,-1.02963477786183e+000,-4.69029812475995e-001

3.07375036257601e+004,-1.02963439740635e+000,-4.75577106780039e-001

3.11665831864199e+004,-1.02963400614468e+000,-4.82215792971494e-001

3.16016524745350e+004,-1.02963360376682e+000,-4.88947146629523e-001

3.20427951035848e+004,-1.02963318995360e+000,-4.95772461131177e-001

3.24900958542493e+004,-1.02963276437670e+000,-5.02693047899484e-001

3.29436406907028e+004,-1.02963232669811e+000,-5.09710236654916e-001

3.34035167771346e+004,-1.02963187656996e+000,-5.16825375671038e-001

3.38698124945009e+004,-1.02963141363402e+000,-5.24039832033725e-001

3.43426174575100e+004,-1.02963093752176e+000,-5.31354991900972e-001

3.48220225318448e+004,-1.02963044785357e+000,-5.38772260772153e-001

3.53081198516260e+004,-1.02962994423897e+000,-5.46293063753768e-001

3.58010028371187e+004,-1.02962942627560e+000,-5.53918845836906e-001

3.63007662126863e+004,-1.02962889354955e+000,-5.61651072170489e-001

3.68075060249948e+004,-1.02962834563453e+000,-5.69491228344569e-001

3.73213196614721e+004,-1.02962778209171e+000,-5.77440820674566e-001

3.78423058690237e+004,-1.02962720246913e+000,-5.85501376490884e-001

3.83705647730104e+004,-1.02962660630165e+000,-5.93674444429355e-001

3.89061978964912e+004,-1.02962599311016e+000,-6.01961594731192e-001

3.94493081797342e+004,-1.02962536240136e+000,-6.10364419542062e-001

3.99999999999998e+004,-1.02962471366738e+000,-6.18884533217394e-001

4.05583791916010e+004,-1.02962404638490e+000,-6.27523572633936e-001

4.11245530662425e+004,-1.02962336001543e+000,-6.36283197499954e-001

4.16986304336447e+004,-1.02962265400411e+000,-6.45165090676002e-001

4.22807216224550e+004,-1.02962192777945e+000,-6.54170958497856e-001

4.28709385014515e+004,-1.02962118075299e+000,-6.63302531101191e-001

4.34693945010421e+004,-1.02962041231864e+000,-6.72561562754580e-001

4.40762046350642e+004,-1.02961962185191e+000,-6.81949832196139e-001

4.46914855228886e+004,-1.02961880870977e+000,-6.91469142973082e-001

4.53153554118317e+004,-1.02961797222961e+000,-7.01121323788346e-001

4.59479341998812e+004,-1.02961711172893e+000,-7.10908228850811e-001

4.65893434587380e+004,-1.02961622650457e+000,-7.20831738230053e-001

4.72397064571810e+004,-1.02961531583213e+000,-7.30893758216804e-001

4.78991481847569e+004,-1.02961437896523e+000,-7.41096221688213e-001

4.85677953758016e+004,-1.02961341513481e+000,-7.51441088478541e-001

4.92457765337964e+004,-1.02961242354847e+000,-7.61930345753315e-001

4.99332219560642e+004,-1.02961140338965e+000,-7.72566008391282e-001

5.06302637588109e+004,-1.02961035381685e+000,-7.83350119369800e-001

5.13370359025159e+004,-1.02960927396294e+000,-7.94284750155508e-001

5.20536742176771e+004,-1.02960816293415e+000,-8.05372001102330e-001

5.27803164309155e+004,-1.02960701980943e+000,-8.16614001852250e-001

5.35171021914442e+004,-1.02960584363926e+000,-8.28012911744682e-001

5.42641730979066e+004,-1.02960463344508e+000,-8.39570920228285e-001

5.50216727255895e+004,-1.02960338821812e+000,-8.51290247281124e-001

5.57897466540159e+004,-1.02960210691843e+000,-8.63173143836067e-001

5.65685424949235e+004,-1.02960078847396e+000,-8.75221892210523e-001

5.73582099206328e+004,-1.02959943177938e+000,-8.87438806544577e-001

5.81589006928121e+004,-1.02959803569512e+000,-8.99826233242918e-001

5.89707686916437e+004,-1.02959659904604e+000,-9.12386551425409e-001

5.97939699453972e+004,-1.02959512062070e+000,-9.25122173380347e-001

6.06286626604156e+004,-1.02959359916950e+000,-9.38035545028711e-001

6.14750072515201e+004,-1.02959203340391e+000,-9.51129146390878e-001

6.23331663728396e+004,-1.02959042199521e+000,-9.64405492060453e-001

6.32033049490698e+004,-1.02958876357274e+000,-9.77867131687661e-001

6.40855902071694e+004,-1.02958705672287e+000,-9.91516650466163e-001

6.49801917084985e+004,-1.02958529998744e+000,-1.00535666962715e+000

6.58872813814055e+004,-1.02958349186233e+000,-1.01938984694211e+000

6.68070335542691e+004,-1.02958163079576e+000,-1.03361887723132e+000

6.77396249890018e+004,-1.02957971518693e+000,-1.04804649287866e+000

6.86852349150199e+004,-1.02957774338419e+000,-1.06267546435544e+000

6.96440450636895e+004,-1.02957571368343e+000,-1.07750860075019e+000

7.06162397032520e+004,-1.02957362432627e+000,-1.09254875030588e+000

7.16020056742374e+004,-1.02957147349821e+000,-1.10779880096579e+000

7.26015324253724e+004,-1.02956925932675e+000,-1.12326168092570e+000

7.36150120499896e+004,-1.02956697987958e+000,-1.13894035919392e+000

7.46426393229441e+004,-1.02956463316224e+000,-1.15483784615985e+000

7.56846117380472e+004,-1.02956221711636e+000,-1.17095719417010e+000

7.67411295460207e+004,-1.02955972961726e+000,-1.18730149811260e+000

7.78123957929823e+004,-1.02955716847171e+000,-1.20387389600925e+000

7.88986163594682e+004,-1.02955453141569e+000,-1.22067756961583e+000

7.99999999999995e+004,-1.02955181611207e+000,-1.23771574503131e+000

8.11167583832018e+004,-1.02954902014789e+000,-1.25499169331560e+000

8.22491061324848e+004,-1.02954614103183e+000,-1.27250873111601e+000

8.33972608672892e+004,-1.02954317619179e+000,-1.29027022130118e+000

8.45614432449099e+004,-1.02954012297183e+000,-1.30827957360584e+000

8.57418770029029e+004,-1.02953697862938e+000,-1.32654024528370e+000

8.69387890020841e+004,-1.02953374033249e+000,-1.34505574176902e+000

8.81524092701283e+004,-1.02953040515647e+000,-1.36382961734826e+000

8.93829710457770e+004,-1.02952697008106e+000,-1.38286547584075e+000

9.06307108236633e+004,-1.02952343198681e+000,-1.40216697128978e+000

9.18958683997622e+004,-1.02951978765200e+000,-1.42173780866177e+000

9.31786869174758e+004,-1.02951603374909e+000,-1.44158174455642e+000

9.44794129143618e+004,-1.02951216684094e+000,-1.46170258792757e+000

9.57982963695136e+004,-1.02950818337730e+000,-1.48210420081245e+000

9.71355907516031e+004,-1.02950407969083e+000,-1.50279049907276e+000

9.84915530675926e+004,-1.02949985199319e+000,-1.52376545314506e+000

9.98664439121282e+004,-1.02949549637101e+000,-1.54503308880266e+000

1.01260527517622e+005,-1.02949100878137e+000,-1.56659748792882e+000

1.02674071805032e+005,-1.02948638504771e+000,-1.58846278929879e+000

1.04107348435354e+005,-1.02948162085523e+000,-1.61063318937496e+000

1.05560632861831e+005,-1.02947671174621e+000,-1.63311294311273e+000

1.07034204382888e+005,-1.02947165311509e+000,-1.65590636477802e+000

1.08528346195813e+005,-1.02946644020372e+000,-1.67901782877493e+000

1.10043345451179e+005,-1.02946106809613e+000,-1.70245177048827e+000

1.11579493308032e+005,-1.02945553171322e+000,-1.72621268713490e+000

1.13137084989847e+005,-1.02944982580739e+000,-1.75030513862911e+000

1.14716419841265e+005,-1.02944394495691e+000,-1.77473374846006e+000

1.16317801385624e+005,-1.02943788356013e+000,-1.79950320458162e+000

1.17941537383287e+005,-1.02943163582958e+000,-1.82461826031481e+000

1.19587939890794e+005,-1.02942519578578e+000,-1.85008373526357e+000

1.21257325320831e+005,-1.02941855725102e+000,-1.87590451624335e+000

1.22950014503040e+005,-1.02941171384280e+000,-1.90208555822340e+000

1.24666332745679e+005,-1.02940465896718e+000,-1.92863188528261e+000

1.26406609898139e+005,-1.02939738581198e+000,-1.95554859157829e+000

1.28171180414339e+005,-1.02938988733963e+000,-1.98284084233083e+000

1.29960383416997e+005,-1.02938215627999e+000,-2.01051387481974e+000

1.31774562762811e+005,-1.02937418512286e+000,-2.03857299939793e+000

1.33614067108538e+005,-1.02936596611040e+000,-2.06702360051611e+000

1.35479249978003e+005,-1.02935749122919e+000,-2.09587113776606e+000

1.37370469830040e+005,-1.02934875220215e+000,-2.12512114693720e+000

1.39288090127379e+005,-1.02933974048047e+000,-2.15477924108778e+000

1.41232479406504e+005,-1.02933044723485e+000,-2.18485111163374e+000

1.43204011348474e+005,-1.02932086334706e+000,-2.21534252945107e+000

1.45203064850745e+005,-1.02931097940076e+000,-2.24625934599646e+000

1.47230024099979e+005,-1.02930078567259e+000,-2.27760749444221e+000

1.49285278645888e+005,-1.02929027212275e+000,-2.30939299082893e+000

1.51369223476094e+005,-1.02927942838537e+000,-2.34162193523493e+000

1.53482259092041e+005,-1.02926824375876e+000,-2.37430051296223e+000

1.55624791585964e+005,-1.02925670719527e+000,-2.40743499574016e+000

1.57797232718936e+005,-1.02924480729134e+000,-2.44103174294597e+000

1.59999999999999e+005,-1.02923253227655e+000,-2.47509720284449e+000

1.62233516766403e+005,-1.02921987000333e+000,-2.50963791384435e+000

1.64498212264969e+005,-1.02920680793566e+000,-2.54466050577397e+000

1.66794521734578e+005,-1.02919333313806e+000,-2.58017170117502e+000

1.69122886489819e+005,-1.02917943226428e+000,-2.61617831661476e+000

1.71483754005805e+005,-1.02916509154532e+000,-2.65268726401895e+000

1.73877578004168e+005,-1.02915029677775e+000,-2.68970555202236e+000

1.76304818540256e+005,-1.02913503331152e+000,-2.72724028734028e+000

1.78765942091554e+005,-1.02911928603751e+000,-2.76529867615899e+000

1.81261421647326e+005,-1.02910303937495e+000,-2.80388802554740e+000

1.83791736799524e+005,-1.02908627725853e+000,-2.84301574488854e+000

1.86357373834951e+005,-1.02906898312523e+000,-2.88268934733197e+000

1.88958825828723e+005,-1.02905113990104e+000,-2.92291645126782e+000

1.91596592739027e+005,-1.02903272998707e+000,-2.96370478182131e+000

1.94271181503206e+005,-1.02901373524591e+000,-3.00506217236968e+000

1.96983106135185e+005,-1.02899413698750e+000,-3.04699656608045e+000

1.99732887824256e+005,-1.02897391595433e+000,-3.08951601747241e+000

2.02521055035243e+005,-1.02895305230726e+000,-3.13262869399894e+000

2.05348143610063e+005,-1.02893152561013e+000,-3.17634287765413e+000

2.08214696870707e+005,-1.02890931481468e+000,-3.22066696660227e+000

2.11121265723661e+005,-1.02888639824511e+000,-3.26560947682999e+000

2.14068408765776e+005,-1.02886275358219e+000,-3.31117904382300e+000

2.17056692391625e+005,-1.02883835784699e+000,-3.35738442426654e+000

2.20086690902357e+005,-1.02881318738474e+000,-3.40423449777031e+000

2.23158986616063e+005,-1.02878721784792e+000,-3.45173826861734e+000

2.26274169979693e+005,-1.02876042417922e+000,-3.49990486753881e+000

2.29432839682530e+005,-1.02873278059423e+000,-3.54874355351338e+000

2.32635602771247e+005,-1.02870426056359e+000,-3.59826371559320e+000

2.35883074766574e+005,-1.02867483679506e+000,-3.64847487475385e+000

2.39175879781588e+005,-1.02864448121493e+000,-3.69938668577308e+000

2.42514650641661e+005,-1.02861316494928e+000,-3.75100893913401e+000

2.45900029006080e+005,-1.02858085830468e+000,-3.80335156295681e+000

2.49332665491357e+005,-1.02854753074862e+000,-3.85642462495670e+000

2.52813219796278e+005,-1.02851315088944e+000,-3.91023833442998e+000

2.56342360828676e+005,-1.02847768645578e+000,-3.96480304426839e+000

2.59920766833993e+005,-1.02844110427567e+000,-4.02012925300138e+000

2.63549125525621e+005,-1.02840337025500e+000,-4.07622760686763e+000

2.67228134217075e+005,-1.02836444935556e+000,-4.13310890191552e+000

2.70958499956006e+005,-1.02832430557262e+000,-4.19078408613321e+000

2.74740939660078e+005,-1.02828290191190e+000,-4.24926426160891e+000

2.78576180254757e+005,-1.02824020036580e+000,-4.30856068672122e+000

2.82464958813007e+005,-1.02819616188937e+000,-4.36868477836143e+000

2.86408022696948e+005,-1.02815074637542e+000,-4.42964811418512e+000

2.90406129701488e+005,-1.02810391262892e+000,-4.49146243489806e+000

2.94460048199957e+005,-1.02805561834096e+000,-4.55413964657252e+000

2.98570557291775e+005,-1.02800582006184e+000,-4.61769182299686e+000

3.02738446952187e+005,-1.02795447317333e+000,-4.68213120805898e+000

3.06964518184081e+005,-1.02790153186044e+000,-4.74747021816283e+000

3.11249583171928e+005,-1.02784694908207e+000,-4.81372144467952e+000

3.15594465437872e+005,-1.02779067654103e+000,-4.88089765643350e+000

3.19999999999997e+005,-1.02773266465318e+000,-4.94901180222373e+000

3.24467033532806e+005,-1.02767286251553e+000,-5.01807701338138e+000

3.28996424529938e+005,-1.02761121787347e+000,-5.08810660636393e+000

3.33589043469155e+005,-1.02754767708710e+000,-5.15911408538642e+000

3.38245772979638e+005,-1.02748218509650e+000,-5.23111314509084e+000

3.42967508011610e+005,-1.02741468538586e+000,-5.30411767325376e+000

3.47755156008335e+005,-1.02734511994672e+000,-5.37814175353319e+000

3.52609637080511e+005,-1.02727342923986e+000,-5.45319966825599e+000

3.57531884183106e+005,-1.02719955215622e+000,-5.52930590124474e+000

3.62522843294651e+005,-1.02712342597660e+000,-5.60647514068688e+000

3.67583473599047e+005,-1.02704498632992e+000,-5.68472228204565e+000

3.72714747669902e+005,-1.02696416715056e+000,-5.76406243101356e+000

3.77917651657445e+005,-1.02688090063409e+000,-5.84451090650997e+000

3.83193185478053e+005,-1.02679511719180e+000,-5.92608324372272e+000

3.88542363006410e+005,-1.02670674540385e+000,-6.00879519719521e+000

3.93966212270369e+005,-1.02661571197080e+000,-6.09266274395969e+000

3.99465775648511e+005,-1.02652194166415e+000,-6.17770208671696e+000

4.05042110070485e+005,-1.02642535727471e+000,-6.26392965706453e+000

4.10696287220124e+005,-1.02632587956005e+000,-6.35136211877350e+000

4.16429393741414e+005,-1.02622342719004e+000,-6.44001637111429e+000

4.22242531447321e+005,-1.02611791669083e+000,-6.52990955223396e+000

4.28136817531551e+005,-1.02600926238722e+000,-6.62105904258461e+000

4.34113384783250e+005,-1.02589737634338e+000,-6.71348246840443e+000

4.40173381804713e+005,-1.02578216830174e+000,-6.80719770525216e+000

4.46317973232124e+005,-1.02566354562020e+000,-6.90222288159647e+000

4.52548339959385e+005,-1.02554141320755e+000,-6.99857638246054e+000

4.58865679365059e+005,-1.02541567345691e+000,-7.09627685312366e+000

4.65271205542494e+005,-1.02528622617762e+000,-7.19534320288033e+000

4.71766149533147e+005,-1.02515296852476e+000,-7.29579460885901e+000

4.78351759563174e+005,-1.02501579492719e+000,-7.39765051989937e+000

4.85029301283321e+005,-1.02487459701326e+000,-7.50093066049271e+000

4.91800058012158e+005,-1.02472926353463e+000,-7.60565503478308e+000

4.98665330982714e+005,-1.02457968028821e+000,-7.71184393063304e+000

5.05626439592555e+005,-1.02442573003562e+000,-7.81951792375368e+000

5.12684721657352e+005,-1.02426729242082e+000,-7.92869788190106e+000

5.19841533667984e+005,-1.02410424388561e+000,-8.03940496913966e+000

5.27098251051240e+005,-1.02393645758257e+000,-8.15166065017508e+000

5.34456268434150e+005,-1.02376380328624e+000,-8.26548669475623e+000

5.41916999912011e+005,-1.02358614730166e+000,-8.38090518214891e+000

