Freq.,VOut,OutRef

1.00000000000000e+004,-3.16625877452766e+001,-4.41747986923339e-001

1.01395947979003e+004,-3.16625933712957e+001,-4.47913860601186e-001

1.02811382665607e+004,-3.16625991553028e+001,-4.54165777047660e-001

1.04246576084112e+004,-3.16626051017289e+001,-4.60504936120142e-001

1.05701804056138e+004,-3.16626112151297e+001,-4.66932554371382e-001

1.07177346253629e+004,-3.16626175001878e+001,-4.73449865282968e-001

1.08673486252606e+004,-3.16626239617169e+001,-4.80058119495751e-001

1.10190511587661e+004,-3.16626306046657e+001,-4.86758585049766e-001

1.11728713807222e+004,-3.16626374341207e+001,-4.93552547623316e-001

1.13288388529580e+004,-3.16626444553110e+001,-5.00441310777770e-001

1.14869835499703e+004,-3.16626516736120e+001,-5.07426196201326e-001

1.16473358646846e+004,-3.16626590945491e+001,-5.14508543963462e-001

1.18099266142953e+004,-3.16626667238022e+001,-5.21689712765352e-001

1.19747870461893e+004,-3.16626745672099e+001,-5.28971080198214e-001

1.21419488439505e+004,-3.16626826307741e+001,-5.36354043003255e-001

1.23114441334492e+004,-3.16626909206640e+001,-5.43840017336600e-001

1.24833054890161e+004,-3.16626994432216e+001,-5.51430439034906e-001

1.26575659397028e+004,-3.16627082049656e+001,-5.59126763888046e-001

1.28342589756290e+004,-3.16627172125968e+001,-5.66930467914022e-001

1.30134185544193e+004,-3.16627264730031e+001,-5.74843047634847e-001

1.31950791077289e+004,-3.16627359932645e+001,-5.82866020362671e-001

1.33792755478611e+004,-3.16627457806588e+001,-5.91000924481737e-001

1.35660432744767e+004,-3.16627558426667e+001,-5.99249319739878e-001

1.37554181813974e+004,-3.16627661869772e+001,-6.07612787543182e-001

1.39474366635040e+004,-3.16627768214943e+001,-6.16092931251194e-001

1.41421356237309e+004,-3.16627877543418e+001,-6.24691376479525e-001

1.43395524801583e+004,-3.16627989938704e+001,-6.33409771403739e-001

1.45397251732031e+004,-3.16628105486631e+001,-6.42249787072057e-001

1.47426921729110e+004,-3.16628224275422e+001,-6.51213117715907e-001

1.49484924863494e+004,-3.16628346395756e+001,-6.60301481067852e-001

1.51571656651040e+004,-3.16628471940838e+001,-6.69516618684807e-001

1.53687518128801e+004,-3.16628601006465e+001,-6.78860296272827e-001

1.55832915932100e+004,-3.16628733691102e+001,-6.88334304019174e-001

1.58008262372675e+004,-3.16628870095953e+001,-6.97940456923737e-001

1.60213975517924e+004,-3.16629010325036e+001,-7.07680595142063e-001

1.62450479271247e+004,-3.16629154485260e+001,-7.17556584325503e-001

1.64718203453514e+004,-3.16629302686507e+001,-7.27570315971246e-001

1.67017583885674e+004,-3.16629455041712e+001,-7.37723707774531e-001

1.69349062472505e+004,-3.16629611666945e+001,-7.48018703984637e-001

1.71713087287550e+004,-3.16629772681501e+001,-7.58457275766976e-001

1.74110112659224e+004,-3.16629938207984e+001,-7.69041421571251e-001

1.76540599258131e+004,-3.16630108372403e+001,-7.79773167499099e-001

1.79005014185594e+004,-3.16630283304258e+001,-7.90654567683828e-001

1.81503831063432e+004,-3.16630463136643e+001,-8.01687704667706e-001

1.84037530124975e+004,-3.16630648006339e+001,-8.12874689789874e-001

1.86606598307361e+004,-3.16630838053917e+001,-8.24217663575330e-001

1.89211529345119e+004,-3.16631033423839e+001,-8.35718796132675e-001

1.91852823865052e+004,-3.16631234264567e+001,-8.47380287551570e-001

1.94530989482457e+004,-3.16631440728672e+001,-8.59204368310563e-001

1.97246540898671e+004,-3.16631652972942e+001,-8.71193299687377e-001

1.99999999999999e+004,-3.16631871158501e+001,-8.83349374173536e-001

2.02791895958005e+004,-3.16632095450924e+001,-8.95674915897767e-001

2.05622765331213e+004,-3.16632326020359e+001,-9.08172281051183e-001

2.08493152168224e+004,-3.16632563041651e+001,-9.20843858318671e-001

2.11403608112276e+004,-3.16632806694467e+001,-9.33692069316085e-001

2.14354692507258e+004,-3.16633057163429e+001,-9.46719369035076e-001

2.17346972505211e+004,-3.16633314638248e+001,-9.59928246287233e-001

2.20381023175322e+004,-3.16633579313859e+001,-9.73321224160919e-001

2.23457427614443e+004,-3.16633851390564e+001,-9.86900860479831e-001

2.26576777059159e+004,-3.16634131074176e+001,-1.00066974826606e+000

2.29739670999406e+004,-3.16634418576163e+001,-1.01463051621330e+000

2.32946717293690e+004,-3.16634714113810e+001,-1.02878582916014e+000

2.36198532285905e+004,-3.16635017910362e+001,-1.04313838857476e+000

2.39495740923785e+004,-3.16635330195195e+001,-1.05769093304109e+000

2.42838976879009e+004,-3.16635651203973e+001,-1.07244623875308e+000

2.46228882668982e+004,-3.16635981178819e+001,-1.08740712001344e+000

2.49666109780322e+004,-3.16636320368484e+001,-1.10257642974101e+000

2.53151318794055e+004,-3.16636669028528e+001,-1.11795705998063e+000

2.56685179512580e+004,-3.16637027421500e+001,-1.13355194242094e+000

2.60268371088386e+004,-3.16637395817120e+001,-1.14936404891833e+000

2.63901582154578e+004,-3.16637774492470e+001,-1.16539639202770e+000

2.67585510957221e+004,-3.16638163732194e+001,-1.18165202553677e+000

2.71320865489533e+004,-3.16638563828691e+001,-1.19813404500824e+000

2.75108363627948e+004,-3.16638975082322e+001,-1.21484558833095e+000

2.78948733270080e+004,-3.16639397801622e+001,-1.23178983627070e+000

2.82842712474618e+004,-3.16639832303508e+001,-1.24897001303405e+000

2.86791049603164e+004,-3.16640278913509e+001,-1.26638938683436e+000

2.90794503464061e+004,-3.16640737965978e+001,-1.28405127046675e+000

2.94853843458219e+004,-3.16641209804336e+001,-1.30195902188641e+000

2.98969849726987e+004,-3.16641694781298e+001,-1.32011604479766e+000

3.03143313302078e+004,-3.16642193259118e+001,-1.33852578924467e+000

3.07375036257601e+004,-3.16642705609839e+001,-1.35719175221331e+000

3.11665831864199e+004,-3.16643232215541e+001,-1.37611747823601e+000

3.16016524745350e+004,-3.16643773468605e+001,-1.39530656000391e+000

3.20427951035848e+004,-3.16644329771974e+001,-1.41476263898880e+000

3.24900958542493e+004,-3.16644901539428e+001,-1.43448940606648e+000

3.29436406907028e+004,-3.16645489195857e+001,-1.45449060215069e+000

3.34035167771346e+004,-3.16646093177550e+001,-1.47477001883189e+000

3.38698124945009e+004,-3.16646713932481e+001,-1.49533149902353e+000

3.43426174575100e+004,-3.16647351920608e+001,-1.51617893761483e+000

3.48220225318448e+004,-3.16648007614176e+001,-1.53731628212983e+000

3.53081198516260e+004,-3.16648681498025e+001,-1.55874753339313e+000

3.58010028371187e+004,-3.16649374069913e+001,-1.58047674620362e+000

3.63007662126863e+004,-3.16650085840830e+001,-1.60250803001354e+000

3.68075060249948e+004,-3.16650817335340e+001,-1.62484554961441e+000

3.73213196614721e+004,-3.16651569091911e+001,-1.64749352583052e+000

3.78423058690237e+004,-3.16652341663264e+001,-1.67045623621871e+000

3.83705647730104e+004,-3.16653135616721e+001,-1.69373801577481e+000

3.89061978964912e+004,-3.16653951534575e+001,-1.71734325764658e+000

3.94493081797342e+004,-3.16654790014444e+001,-1.74127641385405e+000

3.99999999999998e+004,-3.16655651669655e+001,-1.76554199601709e+000

4.05583791916010e+004,-3.16656537129625e+001,-1.79014457608681e+000

4.11245530662425e+004,-3.16657447040247e+001,-1.81508878708828e+000

4.16986304336447e+004,-3.16658382064293e+001,-1.84037932386490e+000

4.22807216224550e+004,-3.16659342881814e+001,-1.86602094383476e+000

4.28709385014515e+004,-3.16660330190559e+001,-1.89201846774845e+000

4.34693945010421e+004,-3.16661344706393e+001,-1.91837678045729e+000

4.40762046350642e+004,-3.16662387163725e+001,-1.94510083168744e+000

4.46914855228886e+004,-3.16663458315948e+001,-1.97219563681850e+000

4.53153554118317e+004,-3.16664558935882e+001,-1.99966627767171e+000

4.59479341998812e+004,-3.16665689816226e+001,-2.02751790330304e+000

4.65893434587380e+004,-3.16666851770022e+001,-2.05575573080283e+000

4.72397064571810e+004,-3.16668045631121e+001,-2.08438504610287e+000

4.78991481847569e+004,-3.16669272254660e+001,-2.11341120478871e+000

4.85677953758016e+004,-3.16670532517550e+001,-2.14283963291973e+000

4.92457765337964e+004,-3.16671827318961e+001,-2.17267582785544e+000

4.99332219560642e+004,-3.16673157580833e+001,-2.20292535908676e+000

5.06302637588109e+004,-3.16674524248374e+001,-2.23359386907578e+000

5.13370359025159e+004,-3.16675928290583e+001,-2.26468707410085e+000

5.20536742176771e+004,-3.16677370700770e+001,-2.29621076510802e+000

5.27803164309155e+004,-3.16678852497089e+001,-2.32817080856866e+000

5.35171021914442e+004,-3.16680374723073e+001,-2.36057314734441e+000

5.42641730979066e+004,-3.16681938448186e+001,-2.39342380155748e+000

5.50216727255895e+004,-3.16683544768370e+001,-2.42672886946727e+000

5.57897466540159e+004,-3.16685194806609e+001,-2.46049452835405e+000

5.65685424949235e+004,-3.16686889713492e+001,-2.49472703540790e+000

5.73582099206328e+004,-3.16688630667792e+001,-2.52943272862494e+000

5.81589006928121e+004,-3.16690418877041e+001,-2.56461802770936e+000

5.89707686916437e+004,-3.16692255578118e+001,-2.60028943498159e+000

5.97939699453972e+004,-3.16694142037841e+001,-2.63645353629355e+000

6.06286626604156e+004,-3.16696079553567e+001,-2.67311700194906e+000

6.14750072515201e+004,-3.16698069453793e+001,-2.71028658763220e+000

6.23331663728396e+004,-3.16700113098763e+001,-2.74796913534065e+000

6.32033049490698e+004,-3.16702211881084e+001,-2.78617157432718e+000

6.40855902071694e+004,-3.16704367226344e+001,-2.82490092204571e+000

6.49801917084985e+004,-3.16706580593734e+001,-2.86416428510602e+000

6.58872813814055e+004,-3.16708853476669e+001,-2.90396886023404e+000

6.68070335542691e+004,-3.16711187403424e+001,-2.94432193523962e+000

6.77396249890018e+004,-3.16713583937759e+001,-2.98523088999166e+000

6.86852349150199e+004,-3.16716044679561e+001,-3.02670319739891e+000

6.96440450636895e+004,-3.16718571265471e+001,-3.06874642440060e+000

7.06162397032520e+004,-3.16721165369532e+001,-3.11136823296256e+000

7.16020056742374e+004,-3.16723828703817e+001,-3.15457638108262e+000

7.26015324253724e+004,-3.16726563019079e+001,-3.19837872380298e+000

7.36150120499896e+004,-3.16729370105382e+001,-3.24278321423168e+000

7.46426393229441e+004,-3.16732251792744e+001,-3.28779790457281e+000

7.56846117380472e+004,-3.16735209951771e+001,-3.33343094716580e+000

7.67411295460207e+004,-3.16738246494299e+001,-3.37969059553241e+000

7.78123957929823e+004,-3.16741363374019e+001,-3.42658520543759e+000

7.88986163594682e+004,-3.16744562587114e+001,-3.47412323595557e+000

7.99999999999995e+004,-3.16747846172879e+001,-3.52231325055089e+000

8.11167583832018e+004,-3.16751216214352e+001,-3.57116391816789e+000

8.22491061324848e+004,-3.16754674838924e+001,-3.62068401433442e+000

8.33972608672892e+004,-3.16758224218952e+001,-3.67088242227651e+000

8.45614432449099e+004,-3.16761866572369e+001,-3.72176813404640e+000

8.57418770029029e+004,-3.16765604163280e+001,-3.77335025166531e+000

8.69387890020841e+004,-3.16769439302551e+001,-3.82563798828005e+000

8.81524092701283e+004,-3.16773374348397e+001,-3.87864066933591e+000

8.93829710457770e+004,-3.16777411706955e+001,-3.93236773376536e+000

9.06307108236633e+004,-3.16781553832849e+001,-3.98682873519485e+000

9.18958683997622e+004,-3.16785803229747e+001,-4.04203334316910e+000

9.31786869174758e+004,-3.16790162450906e+001,-4.09799134439614e+000

9.44794129143618e+004,-3.16794634099707e+001,-4.15471264401188e+000

9.57982963695136e+004,-3.16799220830181e+001,-4.21220726686696e+000

9.71355907516031e+004,-3.16803925347515e+001,-4.27048535883766e+000

9.84915530675926e+004,-3.16808750408560e+001,-4.32955718815951e+000

9.98664439121282e+004,-3.16813698822317e+001,-4.38943314678882e+000

1.01260527517622e+005,-3.16818773450411e+001,-4.45012375179022e+000

1.02674071805032e+005,-3.16823977207558e+001,-4.51163964675388e+000

1.04107348435354e+005,-3.16829313062013e+001,-4.57399160324394e+000

1.05560632861831e+005,-3.16834784036014e+001,-4.63719052227854e+000

1.07034204382888e+005,-3.16840393206208e+001,-4.70124743584422e+000

1.08528346195813e+005,-3.16846143704066e+001,-4.76617350844716e+000

1.10043345451179e+005,-3.16852038716290e+001,-4.83198003870130e+000

1.11579493308032e+005,-3.16858081485204e+001,-4.89867846095868e+000

1.13137084989847e+005,-3.16864275309146e+001,-4.96628034697890e+000

1.14716419841265e+005,-3.16870623542838e+001,-5.03479740764632e+000

1.16317801385624e+005,-3.16877129597760e+001,-5.10424149473058e+000

1.17941537383287e+005,-3.16883796942509e+001,-5.17462460269919e+000

1.19587939890794e+005,-3.16890629103164e+001,-5.24595887057853e+000

1.21257325320831e+005,-3.16897629663634e+001,-5.31825658387030e+000

1.22950014503040e+005,-3.16904802266020e+001,-5.39153017652340e+000

1.24666332745679e+005,-3.16912150610972e+001,-5.46579223296348e+000

1.26406609898139e+005,-3.16919678458047e+001,-5.54105549018552e+000

1.28171180414339e+005,-3.16927389626079e+001,-5.61733283990743e+000

1.29960383416997e+005,-3.16935287993558e+001,-5.69463733079165e+000

1.31774562762811e+005,-3.16943377499026e+001,-5.77298217073437e+000

1.33614067108538e+005,-3.16951662141480e+001,-5.85238072922607e+000

1.35479249978003e+005,-3.16960145980807e+001,-5.93284653978562e+000

1.37370469830040e+005,-3.16968833138242e+001,-6.01439330247006e+000

1.39288090127379e+005,-3.16977727796851e+001,-6.09703488646410e+000

1.41232479406504e+005,-3.16986834202058e+001,-6.18078533274914e+000

1.43204011348474e+005,-3.16996156662207e+001,-6.26565885685543e+000

1.45203064850745e+005,-3.17005699549169e+001,-6.35166985170090e+000

1.47230024099979e+005,-3.17015467299012e+001,-6.43883289051620e+000

1.49285278645888e+005,-3.17025464412718e+001,-6.52716272985901e+000

1.51369223476094e+005,-3.17035695456972e+001,-6.61667431272029e+000

1.53482259092041e+005,-3.17046165065027e+001,-6.70738277172303e+000

1.55624791585964e+005,-3.17056877937644e+001,-6.79930343241502e+000

1.57797232718936e+005,-3.17067838844124e+001,-6.89245181665709e+000

1.59999999999999e+005,-3.17079052623439e+001,-6.98684364610855e+000

1.62233516766403e+005,-3.17090524185467e+001,-7.08249484580890e+000

1.64498212264969e+005,-3.17102258512338e+001,-7.17942154785874e+000

1.66794521734578e+005,-3.17114260659913e+001,-7.27764009519701e+000

1.69122886489819e+005,-3.17126535759387e+001,-7.37716704547794e+000

1.71483754005805e+005,-3.17139089019044e+001,-7.47801917504385e+000

1.73877578004168e+005,-3.17151925726157e+001,-7.58021348299715e+000

1.76304818540256e+005,-3.17165051249061e+001,-7.68376719536445e+000

1.78765942091554e+005,-3.17178471039391e+001,-7.78869776935852e+000

1.81261421647326e+005,-3.17192190634512e+001,-7.89502289772980e+000

1.83791736799524e+005,-3.17206215660144e+001,-8.00276051320921e+000

1.86357373834951e+005,-3.17220551833185e+001,-8.11192879303736e+000

1.88958825828723e+005,-3.17235204964766e+001,-8.22254616357803e+000

1.91596592739027e+005,-3.17250180963522e+001,-8.33463130501115e+000

1.94271181503206e+005,-3.17265485839102e+001,-8.44820315610319e+000

1.96983106135185e+005,-3.17281125705942e+001,-8.56328091904669e+000

1.99732887824256e+005,-3.17297106787285e+001,-8.67988406436792e+000

2.02521055035243e+005,-3.17313435419473e+001,-8.79803233589474e+000

2.05348143610063e+005,-3.17330118056528e+001,-8.91774575577842e+000

2.08214696870707e+005,-3.17347161275014e+001,-9.03904462956322e+000

2.11121265723661e+005,-3.17364571779208e+001,-9.16194955129842e+000

2.14068408765776e+005,-3.17382356406572e+001,-9.28648140868147e+000

2.17056692391625e+005,-3.17400522133550e+001,-9.41266138822820e+000

2.20086690902357e+005,-3.17419076081682e+001,-9.54051098045922e+000

2.23158986616063e+005,-3.17438025524066e+001,-9.67005198509427e+000

2.26274169979693e+005,-3.17457377892139e+001,-9.80130651624601e+000

2.29432839682530e+005,-3.17477140782828e+001,-9.93429700760187e+000

2.32635602771247e+005,-3.17497321966031e+001,-1.00690462175866e+001

2.35883074766574e+005,-3.17517929392470e+001,-1.02055772344921e+001

2.39175879781588e+005,-3.17538971201899e+001,-1.03439134815662e+001

2.42514650641661e+005,-3.17560455731674e+001,-1.04840787220489e+001

2.45900029006080e+005,-3.17582391525689e+001,-1.06260970641453e+001

2.49332665491357e+005,-3.17604787343681e+001,-1.07699929659216e+001

2.52813219796278e+005,-3.17627652170905e+001,-1.09157912401175e+001

2.56342360828676e+005,-3.17650995228164e+001,-1.10635170588584e+001

2.59920766833993e+005,-3.17674825982221e+001,-1.12131959582595e+001

2.63549125525621e+005,-3.17699154156557e+001,-1.13648538429083e+001

2.67228134217075e+005,-3.17723989742504e+001,-1.15185169902148e+001

2.70958499956006e+005,-3.17749343010717e+001,-1.16742120546177e+001

2.74740939660078e+005,-3.17775224523012e+001,-1.18319660716354e+001

2.78576180254757e+005,-3.17801645144532e+001,-1.19918064617509e+001

2.82464958813007e+005,-3.17828616056261e+001,-1.21537610341187e+001

2.86408022696948e+005,-3.17856148767858e+001,-1.23178579900847e+001

2.90406129701488e+005,-3.17884255130818e+001,-1.24841259265068e+001

2.94460048199957e+005,-3.17912947351933e+001,-1.26525938388683e+001

2.98570557291775e+005,-3.17942238007063e+001,-1.28232911241721e+001

3.02738446952187e+005,-3.17972140055190e+001,-1.29962475836091e+001

3.06964518184081e+005,-3.18002666852747e+001,-1.31714934249886e+001

3.11249583171928e+005,-3.18033832168214e+001,-1.33490592649262e+001

3.15594465437872e+005,-3.18065650196972e+001,-1.35289761307784e+001

3.19999999999997e+005,-3.18098135576380e+001,-1.37112754623165e+001

3.24467033532806e+005,-3.18131303401095e+001,-1.38959891131358e+001

3.28996424529938e+005,-3.18165169238592e+001,-1.40831493517892e+001

3.33589043469155e+005,-3.18199749144885e+001,-1.42727888626434e+001

3.38245772979638e+005,-3.18235059680432e+001,-1.44649407464496e+001

3.42967508011610e+005,-3.18271117926207e+001,-1.46596385206250e+001

3.47755156008335e+005,-3.18307941499927e+001,-1.48569161192393e+001

3.52609637080511e+005,-3.18345548572419e+001,-1.50568078927050e+001

3.57531884183106e+005,-3.18383957884117e+001,-1.52593486071635e+001

3.62522843294651e+005,-3.18423188761659e+001,-1.54645734435688e+001

3.67583473599047e+005,-3.18463261134598e+001,-1.56725179964618e+001

3.72714747669902e+005,-3.18504195552183e+001,-1.58832182724355e+001

3.77917651657445e+005,-3.18546013200221e+001,-1.60967106882878e+001

3.83193185478053e+005,-3.18588735917989e+001,-1.63130320688606e+001

3.88542363006410e+005,-3.18632386215193e+001,-1.65322196445631e+001

3.93966212270369e+005,-3.18676987288964e+001,-1.67543110485780e+001

3.99465775648511e+005,-3.18722563040867e+001,-1.69793443137509e+001

4.05042110070485e+005,-3.18769138093926e+001,-1.72073578691592e+001

4.10696287220124e+005,-3.18816737809636e+001,-1.74383905363616e+001

4.16429393741414e+005,-3.18865388304976e+001,-1.76724815253264e+001

4.22242531447321e+005,-3.18915116469383e+001,-1.79096704300376e+001

4.28136817531551e+005,-3.18965949981703e+001,-1.81499972237783e+001

4.34113384783250e+005,-3.19017917327088e+001,-1.83935022540890e+001

4.40173381804713e+005,-3.19071047813847e+001,-1.86402262374017e+001

4.46317973232124e+005,-3.19125371590231e+001,-1.88902102533456e+001

4.52548339959385e+005,-3.19180919661140e+001,-1.91434957387253e+001

4.58865679365059e+005,-3.19237723904750e+001,-1.94001244811681e+001

4.65271205542494e+005,-3.19295817089060e+001,-1.96601386124384e+001

4.71766149533147e+005,-3.19355232888316e+001,-1.99235806014178e+001

4.78351759563174e+005,-3.19416005899345e+001,-2.01904932467463e+001

4.85029301283321e+005,-3.19478171657761e+001,-2.04609196691241e+001

4.91800058012158e+005,-3.19541766654039e+001,-2.07349033032676e+001

4.98665330982714e+005,-3.19606828349458e+001,-2.10124878895191e+001

5.05626439592555e+005,-3.19673395191885e+001,-2.12937174651027e+001

5.12684721657352e+005,-3.19741506631407e+001,-2.15786363550259e+001

5.19841533667984e+005,-3.19811203135783e+001,-2.18672891626181e+001

5.27098251051240e+005,-3.19882526205716e+001,-2.21597207597047e+001

5.34456268434150e+005,-3.19955518389927e+001,-2.24559762764088e+001

5.41916999912011e+005,-3.20030223300017e+001,-2.27561010905767e+001

