Freq.,VOut,OutRef

1.00000000000000e+004,-1.13100338931747e+001,-1.02759591643077e-001

1.01395947979003e+004,-1.13100356865966e+001,-1.04193679100268e-001

1.02811382665607e+004,-1.13100375303327e+001,-1.05647769432966e-001

1.04246576084112e+004,-1.13100394257918e+001,-1.07122141179596e-001

1.05701804056138e+004,-1.13100413744215e+001,-1.08617076742902e-001

1.07177346253629e+004,-1.13100433777102e+001,-1.10132862433601e-001

1.08673486252606e+004,-1.13100454371870e+001,-1.11669788532823e-001

1.10190511587661e+004,-1.13100475544246e+001,-1.13228149334187e-001

1.11728713807222e+004,-1.13100497310384e+001,-1.14808243210898e-001

1.13288388529580e+004,-1.13100519686896e+001,-1.16410372663110e-001

1.14869835499703e+004,-1.13100542690856e+001,-1.18034844374220e-001

1.16473358646846e+004,-1.13100566339806e+001,-1.19681969274484e-001

1.18099266142953e+004,-1.13100590651780e+001,-1.21352062592219e-001

1.19747870461893e+004,-1.13100615645319e+001,-1.23045443910963e-001

1.21419488439505e+004,-1.13100641339469e+001,-1.24762437235622e-001

1.23114441334492e+004,-1.13100667753813e+001,-1.26503371046704e-001

1.24833054890161e+004,-1.13100694908472e+001,-1.28268578363833e-001

1.26575659397028e+004,-1.13100722824132e+001,-1.30058396800689e-001

1.28342589756290e+004,-1.13100751522049e+001,-1.31873168638113e-001

1.30134185544193e+004,-1.13100781024067e+001,-1.33713240878481e-001

1.31950791077289e+004,-1.13100811352643e+001,-1.35578965309731e-001

1.33792755478611e+004,-1.13100842530848e+001,-1.37470698575847e-001

1.35660432744767e+004,-1.13100874582400e+001,-1.39388802235266e-001

1.37554181813974e+004,-1.13100907531667e+001,-1.41333642831627e-001

1.39474366635040e+004,-1.13100941403698e+001,-1.43305591957275e-001

1.41421356237309e+004,-1.13100976224233e+001,-1.45305026323041e-001

1.43395524801583e+004,-1.13101012019721e+001,-1.47332327828416e-001

1.45397251732031e+004,-1.13101048817346e+001,-1.49387883627561e-001

1.47426921729110e+004,-1.13101086645047e+001,-1.51472086197888e-001

1.49484924863494e+004,-1.13101125531524e+001,-1.53585333420158e-001

1.51571656651040e+004,-1.13101165506279e+001,-1.55728028639848e-001

1.53687518128801e+004,-1.13101206599625e+001,-1.57900580745292e-001

1.55832915932100e+004,-1.13101248842713e+001,-1.60103404241072e-001

1.58008262372675e+004,-1.13101292267550e+001,-1.62336919321030e-001

1.60213975517924e+004,-1.13101336907027e+001,-1.64601551946845e-001

1.62450479271247e+004,-1.13101382794937e+001,-1.66897733920222e-001

1.64718203453514e+004,-1.13101429966010e+001,-1.69225902962408e-001

1.67017583885674e+004,-1.13101478455926e+001,-1.71586502790983e-001

1.69349062472505e+004,-1.13101528301348e+001,-1.73979983201287e-001

1.71713087287550e+004,-1.13101579539944e+001,-1.76406800144438e-001

1.74110112659224e+004,-1.13101632210417e+001,-1.78867415808594e-001

1.76540599258131e+004,-1.13101686352537e+001,-1.81362298697855e-001

1.79005014185594e+004,-1.13101742007154e+001,-1.83891923722681e-001

1.81503831063432e+004,-1.13101799216248e+001,-1.86456772273125e-001

1.84037530124975e+004,-1.13101858022940e+001,-1.89057332311975e-001

1.86606598307361e+004,-1.13101918471534e+001,-1.91694098456903e-001

1.89211529345119e+004,-1.13101980607547e+001,-1.94367572064231e-001

1.91852823865052e+004,-1.13102044477734e+001,-1.97078261321504e-001

1.94530989482457e+004,-1.13102110130130e+001,-1.99826681331728e-001

1.97246540898671e+004,-1.13102177614079e+001,-2.02613354203269e-001

1.99999999999999e+004,-1.13102246980269e+001,-2.05438809141648e-001

2.02791895958005e+004,-1.13102318280767e+001,-2.08303582539836e-001

2.05622765331213e+004,-1.13102391569054e+001,-2.11208218070178e-001

2.08493152168224e+004,-1.13102466900070e+001,-2.14153266774160e-001

2.11403608112276e+004,-1.13102544330238e+001,-2.17139287164342e-001

2.14354692507258e+004,-1.13102623917517e+001,-2.20166845310924e-001

2.17346972505211e+004,-1.13102705721434e+001,-2.23236514941046e-001

2.20381023175322e+004,-1.13102789803124e+001,-2.26348877537405e-001

2.23457427614443e+004,-1.13102876225378e+001,-2.29504522432000e-001

2.26576777059159e+004,-1.13102965052678e+001,-2.32704046908603e-001

2.29739670999406e+004,-1.13103056351247e+001,-2.35948056299301e-001

2.32946717293690e+004,-1.13103150189091e+001,-2.39237164086463e-001

2.36198532285905e+004,-1.13103246636044e+001,-2.42571992004666e-001

2.39495740923785e+004,-1.13103345763818e+001,-2.45953170141210e-001

2.42838976879009e+004,-1.13103447646047e+001,-2.49381337041905e-001

2.46228882668982e+004,-1.13103552358338e+001,-2.52857139812337e-001

2.49666109780322e+004,-1.13103659978318e+001,-2.56381234227107e-001

2.53151318794055e+004,-1.13103770585693e+001,-2.59954284830663e-001

2.56685179512580e+004,-1.13103884262291e+001,-2.63576965047928e-001

2.60268371088386e+004,-1.13104001092120e+001,-2.67249957291243e-001

2.63901582154578e+004,-1.13104121161421e+001,-2.70973953068685e-001

2.67585510957221e+004,-1.13104244558729e+001,-2.74749653091321e-001

2.71320865489533e+004,-1.13104371374919e+001,-2.78577767389591e-001

2.75108363627948e+004,-1.13104501703273e+001,-2.82459015416754e-001

2.78948733270080e+004,-1.13104635639537e+001,-2.86394126167422e-001

2.82842712474618e+004,-1.13104773281982e+001,-2.90383838285087e-001

2.86791049603164e+004,-1.13104914731461e+001,-2.94428900180549e-001

2.90794503464061e+004,-1.13105060091481e+001,-2.98530070139810e-001

2.94853843458219e+004,-1.13105209468253e+001,-3.02688116448323e-001

2.98969849726987e+004,-1.13105362970776e+001,-3.06903817496094e-001

3.03143313302078e+004,-1.13105520710888e+001,-3.11177961901341e-001

3.07375036257601e+004,-1.13105682803339e+001,-3.15511348626404e-001

3.11665831864199e+004,-1.13105849365859e+001,-3.19904787094132e-001

3.16016524745350e+004,-1.13106020519236e+001,-3.24359097305357e-001

3.20427951035848e+004,-1.13106196387375e+001,-3.28875109960578e-001

3.24900958542493e+004,-1.13106377097380e+001,-3.33453666577395e-001

3.29436406907028e+004,-1.13106562779623e+001,-3.38095619612789e-001

3.34035167771346e+004,-1.13106753567822e+001,-3.42801832580706e-001

3.38698124945009e+004,-1.13106949599120e+001,-3.47573180174643e-001

3.43426174575100e+004,-1.13107151014155e+001,-3.52410548389565e-001

3.48220225318448e+004,-1.13107357957145e+001,-3.57314834643344e-001

3.53081198516260e+004,-1.13107570575967e+001,-3.62286947899992e-001

3.58010028371187e+004,-1.13107789022235e+001,-3.67327808789941e-001

3.63007662126863e+004,-1.13108013451388e+001,-3.72438349734854e-001

3.68075060249948e+004,-1.13108244022769e+001,-3.77619515070556e-001

3.73213196614721e+004,-1.13108480899710e+001,-3.82872261169613e-001

3.78423058690237e+004,-1.13108724249619e+001,-3.88197556565848e-001

3.83705647730104e+004,-1.13108974244065e+001,-3.93596382077156e-001

3.89061978964912e+004,-1.13109231058868e+001,-3.99069730929799e-001

3.94493081797342e+004,-1.13109494874183e+001,-4.04618608880861e-001

3.99999999999998e+004,-1.13109765874592e+001,-4.10244034344659e-001

4.05583791916010e+004,-1.13110044249195e+001,-4.15947038512798e-001

4.11245530662425e+004,-1.13110330191700e+001,-4.21728665480624e-001

4.16986304336447e+004,-1.13110623900510e+001,-4.27589972368579e-001

4.22807216224550e+004,-1.13110925578823e+001,-4.33532029446212e-001

4.28709385014515e+004,-1.13111235434716e+001,-4.39555920254669e-001

4.34693945010421e+004,-1.13111553681246e+001,-4.45662741728628e-001

4.40762046350642e+004,-1.13111880536533e+001,-4.51853604319692e-001

4.46914855228886e+004,-1.13112216223866e+001,-4.58129632114781e-001

4.53153554118317e+004,-1.13112560971786e+001,-4.64491962959766e-001

4.59479341998812e+004,-1.13112915014183e+001,-4.70941748579943e-001

4.65893434587380e+004,-1.13113278590390e+001,-4.77480154696282e-001

4.72397064571810e+004,-1.13113651945277e+001,-4.84108361148472e-001

4.78991481847569e+004,-1.13114035329340e+001,-4.90827562009053e-001

4.85677953758016e+004,-1.13114428998794e+001,-4.97638965705132e-001

4.92457765337964e+004,-1.13114833215668e+001,-5.04543795129057e-001

4.99332219560642e+004,-1.13115248247890e+001,-5.11543287758213e-001

5.06302637588109e+004,-1.13115674369380e+001,-5.18638695766424e-001

5.13370359025159e+004,-1.13116111860136e+001,-5.25831286138633e-001

5.20536742176771e+004,-1.13116561006321e+001,-5.33122340781265e-001

5.27803164309155e+004,-1.13117022100346e+001,-5.40513156634156e-001

5.35171021914442e+004,-1.13117495440956e+001,-5.48005045777934e-001

5.42641730979066e+004,-1.13117981333307e+001,-5.55599335543943e-001

5.50216727255895e+004,-1.13118480089046e+001,-5.63297368618561e-001

5.57897466540159e+004,-1.13118992026384e+001,-5.71100503150030e-001

5.65685424949235e+004,-1.13119517470172e+001,-5.79010112849050e-001

5.73582099206328e+004,-1.13120056751963e+001,-5.87027587094598e-001

5.81589006928121e+004,-1.13120610210085e+001,-5.95154331029435e-001

5.89707686916437e+004,-1.13121178189697e+001,-6.03391765660830e-001

5.97939699453972e+004,-1.13121761042846e+001,-6.11741327957000e-001

6.06286626604156e+004,-1.13122359128518e+001,-6.20204470942929e-001

6.14750072515201e+004,-1.13122972812690e+001,-6.28782663790008e-001

6.23331663728396e+004,-1.13123602468362e+001,-6.37477391912022e-001

6.32033049490698e+004,-1.13124248475603e+001,-6.46290157050375e-001

6.40855902071694e+004,-1.13124911221570e+001,-6.55222477365070e-001

6.49801917084985e+004,-1.13125591100535e+001,-6.64275887517416e-001

6.58872813814055e+004,-1.13126288513900e+001,-6.73451938756518e-001

6.68070335542691e+004,-1.13127003870200e+001,-6.82752199000327e-001

6.77396249890018e+004,-1.13127737585104e+001,-6.92178252916558e-001

6.86852349150199e+004,-1.13128490081403e+001,-7.01731702001863e-001

6.96440450636895e+004,-1.13129261788992e+001,-7.11414164657684e-001

7.06162397032520e+004,-1.13130053144838e+001,-7.21227276267594e-001

7.16020056742374e+004,-1.13130864592935e+001,-7.31172689270379e-001

7.26015324253724e+004,-1.13131696584263e+001,-7.41252073233029e-001

7.36150120499896e+004,-1.13132549576712e+001,-7.51467114923590e-001

7.46426393229441e+004,-1.13133424035012e+001,-7.61819518379588e-001

7.56846117380472e+004,-1.13134320430641e+001,-7.72311004980671e-001

7.67411295460207e+004,-1.13135239241723e+001,-7.82943313514237e-001

7.78123957929823e+004,-1.13136180952907e+001,-7.93718200246413e-001

7.88986163594682e+004,-1.13137146055234e+001,-8.04637438989833e-001

7.99999999999995e+004,-1.13138135045991e+001,-8.15702821170769e-001

8.11167583832018e+004,-1.13139148428536e+001,-8.26916155899478e-001

8.22491061324848e+004,-1.13140186712123e+001,-8.38279270037344e-001

8.33972608672892e+004,-1.13141250411693e+001,-8.49794008268483e-001

8.45614432449099e+004,-1.13142340047654e+001,-8.61462233170496e-001

8.57418770029029e+004,-1.13143456145640e+001,-8.73285825288379e-001

8.69387890020841e+004,-1.13144599236249e+001,-8.85266683208353e-001

8.81524092701283e+004,-1.13145769854754e+001,-8.97406723638089e-001

8.93829710457770e+004,-1.13146968540803e+001,-9.09707881485481e-001

9.06307108236633e+004,-1.13148195838088e+001,-9.22172109945659e-001

9.18958683997622e+004,-1.13149452293986e+001,-9.34801380589244e-001

9.31786869174758e+004,-1.13150738459188e+001,-9.47597683457968e-001

9.44794129143618e+004,-1.13152054887291e+001,-9.60563027163065e-001

9.57982963695136e+004,-1.13153402134365e+001,-9.73699438992898e-001

9.71355907516031e+004,-1.13154780758507e+001,-9.87008965025166e-001

9.84915530675926e+004,-1.13156191319343e+001,-1.00049367025035e+000

9.98664439121282e+004,-1.13157634377520e+001,-1.01415563870214e+000

1.01260527517622e+005,-1.13159110494165e+001,-1.02799697359633e+000

1.02674071805032e+005,-1.13160620230311e+001,-1.04201979748229e+000

1.04107348435354e+005,-1.13162164146295e+001,-1.05622625240701e+000

1.05560632861831e+005,-1.13163742801123e+001,-1.07061850008914e+000

1.07034204382888e+005,-1.13165356751807e+001,-1.08519872211008e+000

1.08528346195813e+005,-1.13167006552667e+001,-1.09996912011808e+000

1.10043345451179e+005,-1.13168692754601e+001,-1.11493191604944e+000

1.11579493308032e+005,-1.13170415904329e+001,-1.13008935236668e+000

1.13137084989847e+005,-1.13172176543590e+001,-1.14544369231812e+000

1.14716419841265e+005,-1.13173975208325e+001,-1.16099722021294e+000

1.16317801385624e+005,-1.13175812427808e+001,-1.17675224172390e+000

1.17941537383287e+005,-1.13177688723764e+001,-1.19271108420701e+000

1.19587939890794e+005,-1.13179604609430e+001,-1.20887609705242e+000

1.21257325320831e+005,-1.13181560588613e+001,-1.22524965205503e+000

1.22950014503040e+005,-1.13183557154688e+001,-1.24183414381714e+000

1.24666332745679e+005,-1.13185594789585e+001,-1.25863199017907e+000

1.26406609898139e+005,-1.13187673962734e+001,-1.27564563268072e+000

1.28171180414339e+005,-1.13189795129984e+001,-1.29287753705613e+000

1.29960383416997e+005,-1.13191958732493e+001,-1.31033019376111e+000

1.31774562762811e+005,-1.13194165195589e+001,-1.32800611853950e+000

1.33614067108538e+005,-1.13196414927607e+001,-1.34590785302298e+000

1.35479249978003e+005,-1.13198708318694e+001,-1.36403796537525e+000

1.37370469830040e+005,-1.13201045739603e+001,-1.38239905097238e+000

1.39288090127379e+005,-1.13203427540449e+001,-1.40099373313051e+000

1.41232479406504e+005,-1.13205854049460e+001,-1.41982466387392e+000

1.43204011348474e+005,-1.13208325571702e+001,-1.43889452475141e+000

1.45203064850745e+005,-1.13210842387793e+001,-1.45820602770002e+000

1.47230024099979e+005,-1.13213404752597e+001,-1.47776191595770e+000

1.49285278645888e+005,-1.13216012893919e+001,-1.49756496502652e+000

1.51369223476094e+005,-1.13218667011183e+001,-1.51761798368839e+000

1.53482259092041e+005,-1.13221367274116e+001,-1.53792381507342e+000

1.55624791585964e+005,-1.13224113821417e+001,-1.55848533778472e+000

1.57797232718936e+005,-1.13226906759448e+001,-1.57930546707669e+000

1.59999999999999e+005,-1.13229746160912e+001,-1.60038715609176e+000

1.62233516766403e+005,-1.13232632063559e+001,-1.62173339715511e+000

1.64498212264969e+005,-1.13235564468892e+001,-1.64334722312705e+000

1.66794521734578e+005,-1.13238543340901e+001,-1.66523170881646e+000

1.69122886489819e+005,-1.13241568604818e+001,-1.68738997245083e+000

1.71483754005805e+005,-1.13244640145897e+001,-1.70982517721033e+000

1.73877578004168e+005,-1.13247757808229e+001,-1.73254053281981e+000

1.76304818540256e+005,-1.13250921393593e+001,-1.75553929720143e+000

1.78765942091554e+005,-1.13254130660347e+001,-1.77882477818713e+000

1.81261421647326e+005,-1.13257385322369e+001,-1.80240033529179e+000

1.83791736799524e+005,-1.13260685048048e+001,-1.82626938154480e+000

1.86357373834951e+005,-1.13264029459327e+001,-1.85043538537888e+000

1.88958825828723e+005,-1.13267418130818e+001,-1.87490187257741e+000

1.91596592739027e+005,-1.13270850588970e+001,-1.89967242827579e+000

1.94271181503206e+005,-1.13274326311321e+001,-1.92475069901876e+000

1.96983106135185e+005,-1.13277844725815e+001,-1.95014039486828e+000

1.99732887824256e+005,-1.13281405210209e+001,-1.97584529156304e+000

2.02521055035243e+005,-1.13285007091558e+001,-2.00186923272473e+000

2.05348143610063e+005,-1.13288649645796e+001,-2.02821613211010e+000

2.08214696870707e+005,-1.13292332097408e+001,-2.05488997590639e+000

2.11121265723661e+005,-1.13296053619192e+001,-2.08189482506569e+000

2.14068408765776e+005,-1.13299813332144e+001,-2.10923481767503e+000

2.17056692391625e+005,-1.13303610305426e+001,-2.13691417136031e+000

2.20086690902357e+005,-1.13307443556450e+001,-2.16493718571968e+000

2.23158986616063e+005,-1.13311312051083e+001,-2.19330824478082e+000

2.26274169979693e+005,-1.13315214703945e+001,-2.22203181948158e+000

2.29432839682530e+005,-1.13319150378847e+001,-2.25111247016476e+000

2.32635602771247e+005,-1.13323117889321e+001,-2.28055484909001e+000

2.35883074766574e+005,-1.13327115999291e+001,-2.31036370294841e+000

2.39175879781588e+005,-1.13331143423847e+001,-2.34054387538594e+000

2.42514650641661e+005,-1.13335198830146e+001,-2.37110030952159e+000

2.45900029006080e+005,-1.13339280838425e+001,-2.40203805046301e+000

2.49332665491357e+005,-1.13343388023143e+001,-2.43336224780982e+000

2.52813219796278e+005,-1.13347518914227e+001,-2.46507815814049e+000

2.56342360828676e+005,-1.13351671998443e+001,-2.49719114748127e+000

2.59920766833993e+005,-1.13355845720866e+001,-2.52970669374991e+000

2.63549125525621e+005,-1.13360038486476e+001,-2.56263038916654e+000

2.67228134217075e+005,-1.13364248661845e+001,-2.59596794263575e+000

2.70958499956006e+005,-1.13368474576932e+001,-2.62972518208493e+000

2.74740939660078e+005,-1.13372714526970e+001,-2.66390805676353e+000

2.78576180254757e+005,-1.13376966774454e+001,-2.69852263949222e+000

2.82464958813007e+005,-1.13381229551199e+001,-2.73357512886506e+000

2.86408022696948e+005,-1.13385501060495e+001,-2.76907185139303e+000

2.90406129701488e+005,-1.13389779479320e+001,-2.80501926359266e+000

2.94460048199957e+005,-1.13394062960631e+001,-2.84142395401392e+000

2.98570557291775e+005,-1.13398349635704e+001,-2.87829264520182e+000

3.02738446952187e+005,-1.13402637616535e+001,-2.91563219559554e+000

3.06964518184081e+005,-1.13406924998271e+001,-2.95344960135704e+000

3.11249583171928e+005,-1.13411209861690e+001,-2.99175199813135e+000

3.15594465437872e+005,-1.13415490275698e+001,-3.03054666273480e+000

3.19999999999997e+005,-1.13419764299846e+001,-3.06984101477207e+000

3.24467033532806e+005,-1.13424029986858e+001,-3.10964261818167e+000

3.28996424529938e+005,-1.13428285385156e+001,-3.14995918270621e+000

3.33589043469155e+005,-1.13432528541377e+001,-3.19079856529382e+000

3.38245772979638e+005,-1.13436757502876e+001,-3.23216877142639e+000

3.42967508011610e+005,-1.13440970320197e+001,-3.27407795637642e+000

3.47755156008335e+005,-1.13445165049513e+001,-3.31653442639834e+000

3.52609637080511e+005,-1.13449339755023e+001,-3.35954663985016e+000

3.57531884183106e+005,-1.13453492511290e+001,-3.40312320825186e+000

3.62522843294651e+005,-1.13457621405532e+001,-3.44727289728201e+000

3.67583473599047e+005,-1.13461724539834e+001,-3.49200462771504e+000

3.72714747669902e+005,-1.13465800033288e+001,-3.53732747630487e+000

3.77917651657445e+005,-1.13469846024057e+001,-3.58325067661423e+000

3.83193185478053e+005,-1.13473860671344e+001,-3.62978361979935e+000

3.88542363006410e+005,-1.13477842157267e+001,-3.67693585534909e+000

3.93966212270369e+005,-1.13481788688636e+001,-3.72471709178657e+000

3.99465775648511e+005,-1.13485698498626e+001,-3.77313719733539e+000

4.05042110070485e+005,-1.13489569848333e+001,-3.82220620055915e+000

4.10696287220124e+005,-1.13493401028221e+001,-3.87193429097382e+000

4.16429393741414e+005,-1.13497190359453e+001,-3.92233181964319e+000

4.22242531447321e+005,-1.13500936195092e+001,-3.97340929976111e+000

4.28136817531551e+005,-1.13504636921185e+001,-4.02517740722480e+000

4.34113384783250e+005,-1.13508290957726e+001,-4.07764698120463e+000

4.40173381804713e+005,-1.13511896759470e+001,-4.13082902472011e+000

4.46317973232124e+005,-1.13515452816651e+001,-4.18473470521974e+000

4.52548339959385e+005,-1.13518957655540e+001,-4.23937535517865e+000

4.58865679365059e+005,-1.13522409838896e+001,-4.29476247271230e+000

4.65271205542494e+005,-1.13525807966276e+001,-4.35090772221779e+000

4.71766149533147e+005,-1.13529150674223e+001,-4.40782293504122e+000

4.78351759563174e+005,-1.13532436636329e+001,-4.46552011018365e+000

4.85029301283321e+005,-1.13535664563170e+001,-4.52401141504295e+000

4.91800058012158e+005,-1.13538833202123e+001,-4.58330918620418e+000

4.98665330982714e+005,-1.13541941337059e+001,-4.64342593027553e+000

5.05626439592555e+005,-1.13544987787927e+001,-4.70437432477973e+000

5.12684721657352e+005,-1.13547971410220e+001,-4.76616721910266e+000

5.19841533667984e+005,-1.13550891094328e+001,-4.82881763550429e+000

5.27098251051240e+005,-1.13553745764799e+001,-4.89233877019374e+000

5.34456268434150e+005,-1.13556534379479e+001,-4.95674399447486e+000

5.41916999912011e+005,-1.13559255928575e+001,-5.02204685596392e+000

