Freq.,VOut,OutRef

1.00000000000000e+004,-1.50761761737550e+001,-1.65640479518470e-001

1.01395947979003e+004,-1.50761771132325e+001,-1.67952558077352e-001

1.02811382665607e+004,-1.50761780790738e+001,-1.70296904571899e-001

1.04246576084112e+004,-1.50761790720174e+001,-1.72673969127512e-001

1.05701804056138e+004,-1.50761800928225e+001,-1.75084208141069e-001

1.07177346253629e+004,-1.50761811422691e+001,-1.77528084367436e-001

1.08673486252606e+004,-1.50761822211593e+001,-1.80006067004738e-001

1.10190511587661e+004,-1.50761833303173e+001,-1.82518631787626e-001

1.11728713807222e+004,-1.50761844705906e+001,-1.85066261073663e-001

1.13288388529580e+004,-1.50761856428499e+001,-1.87649443940715e-001

1.14869835499703e+004,-1.50761868479906e+001,-1.90268676273617e-001

1.16473358646846e+004,-1.50761880869328e+001,-1.92924460863097e-001

1.18099266142953e+004,-1.50761893606221e+001,-1.95617307500322e-001

1.19747870461893e+004,-1.50761906700308e+001,-1.98347733070993e-001

1.21419488439505e+004,-1.50761920161579e+001,-2.01116261659474e-001

1.23114441334492e+004,-1.50761934000303e+001,-2.03923424643360e-001

1.24833054890161e+004,-1.50761948227036e+001,-2.06769760795416e-001

1.26575659397028e+004,-1.50761962852626e+001,-2.09655816387032e-001

1.28342589756290e+004,-1.50761977888226e+001,-2.12582145290430e-001

1.30134185544193e+004,-1.50761993345292e+001,-2.15549309087020e-001

1.31950791077289e+004,-1.50762009235606e+001,-2.18557877169828e-001

1.33792755478611e+004,-1.50762025571271e+001,-2.21608426853893e-001

1.35660432744767e+004,-1.50762042364730e+001,-2.24701543484326e-001

1.37554181813974e+004,-1.50762059628770e+001,-2.27837820549664e-001

1.39474366635040e+004,-1.50762077376534e+001,-2.31017859789981e-001

1.41421356237309e+004,-1.50762095621526e+001,-2.34242271317784e-001

1.43395524801583e+004,-1.50762114377628e+001,-2.37511673724195e-001

1.45397251732031e+004,-1.50762133659106e+001,-2.40826694204442e-001

1.47426921729110e+004,-1.50762153480619e+001,-2.44187968672026e-001

1.49484924863494e+004,-1.50762173857237e+001,-2.47596141878436e-001

1.51571656651040e+004,-1.50762194804438e+001,-2.51051867540293e-001

1.53687518128801e+004,-1.50762216338140e+001,-2.54555808454101e-001

1.55832915932100e+004,-1.50762238474689e+001,-2.58108636631112e-001

1.58008262372675e+004,-1.50762261230893e+001,-2.61711033414854e-001

1.60213975517924e+004,-1.50762284624020e+001,-2.65363689615897e-001

1.62450479271247e+004,-1.50762308671811e+001,-2.69067305642638e-001

1.64718203453514e+004,-1.50762333392505e+001,-2.72822591625376e-001

1.67017583885674e+004,-1.50762358804838e+001,-2.76630267559318e-001

1.69349062472505e+004,-1.50762384928062e+001,-2.80491063436261e-001

1.71713087287550e+004,-1.50762411781965e+001,-2.84405719379304e-001

1.74110112659224e+004,-1.50762439386876e+001,-2.88374985785262e-001

1.76540599258131e+004,-1.50762467763682e+001,-2.92399623466680e-001

1.79005014185594e+004,-1.50762496933847e+001,-2.96480403790221e-001

1.81503831063432e+004,-1.50762526919426e+001,-3.00618108825010e-001

1.84037530124975e+004,-1.50762557743077e+001,-3.04813531487953e-001

1.86606598307361e+004,-1.50762589428081e+001,-3.09067475692387e-001

1.89211529345119e+004,-1.50762621998360e+001,-3.13380756497717e-001

1.91852823865052e+004,-1.50762655478489e+001,-3.17754200263844e-001

1.94530989482457e+004,-1.50762689893715e+001,-3.22188644805331e-001

1.97246540898671e+004,-1.50762725269981e+001,-3.26684939545003e-001

1.99999999999999e+004,-1.50762761633935e+001,-3.31243945676643e-001

2.02791895958005e+004,-1.50762799012956e+001,-3.35866536322277e-001

2.05622765331213e+004,-1.50762837435170e+001,-3.40553596696686e-001

2.08493152168224e+004,-1.50762876929469e+001,-3.45306024272393e-001

2.11403608112276e+004,-1.50762917525536e+001,-3.50124728944166e-001

2.14354692507258e+004,-1.50762959253858e+001,-3.55010633202462e-001

2.17346972505211e+004,-1.50763002145756e+001,-3.59964672300394e-001

2.20381023175322e+004,-1.50763046233401e+001,-3.64987794430460e-001

2.23457427614443e+004,-1.50763091549838e+001,-3.70080960897234e-001

2.26576777059159e+004,-1.50763138129008e+001,-3.75245146298647e-001

2.29739670999406e+004,-1.50763186005772e+001,-3.80481338704707e-001

2.32946717293690e+004,-1.50763235215938e+001,-3.85790539838682e-001

2.36198532285905e+004,-1.50763285796278e+001,-3.91173765265907e-001

2.39495740923785e+004,-1.50763337784561e+001,-3.96632044576412e-001

2.42838976879009e+004,-1.50763391219577e+001,-4.02166421577686e-001

2.46228882668982e+004,-1.50763446141155e+001,-4.07777954486853e-001

2.49666109780322e+004,-1.50763502590206e+001,-4.13467716122101e-001

2.53151318794055e+004,-1.50763560608732e+001,-4.19236794104162e-001

2.56685179512580e+004,-1.50763620239871e+001,-4.25086291051483e-001

2.60268371088386e+004,-1.50763681527912e+001,-4.31017324784655e-001

2.63901582154578e+004,-1.50763744518333e+001,-4.37031028531021e-001

2.67585510957221e+004,-1.50763809257831e+001,-4.43128551129136e-001

2.71320865489533e+004,-1.50763875794345e+001,-4.49311057241750e-001

2.75108363627948e+004,-1.50763944177099e+001,-4.55579727564278e-001

2.78948733270080e+004,-1.50764014456622e+001,-4.61935759043739e-001

2.82842712474618e+004,-1.50764086684791e+001,-4.68380365092343e-001

2.86791049603164e+004,-1.50764160914857e+001,-4.74914775810426e-001

2.90794503464061e+004,-1.50764237201486e+001,-4.81540238206620e-001

2.94853843458219e+004,-1.50764315600787e+001,-4.88258016425860e-001

2.98969849726987e+004,-1.50764396170353e+001,-4.95069391975697e-001

3.03143313302078e+004,-1.50764478969294e+001,-5.01975663959435e-001

3.07375036257601e+004,-1.50764564058276e+001,-5.08978149306947e-001

3.11665831864199e+004,-1.50764651499559e+001,-5.16078183014667e-001

3.16016524745350e+004,-1.50764741357034e+001,-5.23277118381189e-001

3.20427951035848e+004,-1.50764833696264e+001,-5.30576327253336e-001

3.24900958542493e+004,-1.50764928584524e+001,-5.37977200268381e-001

3.29436406907028e+004,-1.50765026090839e+001,-5.45481147104098e-001

3.34035167771346e+004,-1.50765126286029e+001,-5.53089596729267e-001

3.38698124945009e+004,-1.50765229242751e+001,-5.60803997656394e-001

3.43426174575100e+004,-1.50765335035541e+001,-5.68625818199976e-001

3.48220225318448e+004,-1.50765443740858e+001,-5.76556546735621e-001

3.53081198516260e+004,-1.50765555437128e+001,-5.84597691963810e-001

3.58010028371187e+004,-1.50765670204792e+001,-5.92750783175061e-001

3.63007662126863e+004,-1.50765788126349e+001,-6.01017370519355e-001

3.68075060249948e+004,-1.50765909286405e+001,-6.09399025277656e-001

3.73213196614721e+004,-1.50766033771720e+001,-6.17897340136897e-001

3.78423058690237e+004,-1.50766161671255e+001,-6.26513929471068e-001

3.83705647730104e+004,-1.50766293076224e+001,-6.35250429617980e-001

3.89061978964912e+004,-1.50766428080141e+001,-6.44108499167309e-001

3.94493081797342e+004,-1.50766566778870e+001,-6.53089819248052e-001

3.99999999999998e+004,-1.50766709270681e+001,-6.62196093817627e-001

4.05583791916010e+004,-1.50766855656295e+001,-6.71429049957694e-001

4.11245530662425e+004,-1.50767006038941e+001,-6.80790438171704e-001

4.16986304336447e+004,-1.50767160524407e+001,-6.90282032684997e-001

4.22807216224550e+004,-1.50767319221094e+001,-6.99905631748695e-001

4.28709385014515e+004,-1.50767482240071e+001,-7.09663057947474e-001

4.34693945010421e+004,-1.50767649695127e+001,-7.19556158510375e-001

4.40762046350642e+004,-1.50767821702829e+001,-7.29586805624535e-001

4.46914855228886e+004,-1.50767998382576e+001,-7.39756896751879e-001

4.53153554118317e+004,-1.50768179856657e+001,-7.50068354950747e-001

4.59479341998812e+004,-1.50768366250300e+001,-7.60523129200772e-001

4.65893434587380e+004,-1.50768557691741e+001,-7.71123194728295e-001

4.72397064571810e+004,-1.50768754312269e+001,-7.81870553339743e-001

4.78991481847569e+004,-1.50768956246290e+001,-7.92767233754898e-001

4.85677953758016e+004,-1.50769163631383e+001,-8.03815291944565e-001

4.92457765337964e+004,-1.50769376608352e+001,-8.15016811473865e-001

4.99332219560642e+004,-1.50769595321293e+001,-8.26373903845972e-001

5.06302637588109e+004,-1.50769819917642e+001,-8.37888708850830e-001

5.13370359025159e+004,-1.50770050548239e+001,-8.49563394917835e-001

5.20536742176771e+004,-1.50770287367379e+001,-8.61400159472363e-001

5.27803164309155e+004,-1.50770530532872e+001,-8.73401229294009e-001

5.35171021914442e+004,-1.50770780206099e+001,-8.85568860881294e-001

5.42641730979066e+004,-1.50771036552067e+001,-8.97905340817450e-001

5.50216727255895e+004,-1.50771299739461e+001,-9.10412986142458e-001

5.57897466540159e+004,-1.50771569940706e+001,-9.23094144726020e-001

5.65685424949235e+004,-1.50771847332011e+001,-9.35951195647602e-001

5.73582099206328e+004,-1.50772132093429e+001,-9.48986549577615e-001

5.81589006928121e+004,-1.50772424408902e+001,-9.62202649163918e-001

5.89707686916437e+004,-1.50772724466317e+001,-9.75601969421719e-001

5.97939699453972e+004,-1.50773032457551e+001,-9.89187018128353e-001

6.06286626604156e+004,-1.50773348578518e+001,-1.00296033622087e+000

6.14750072515201e+004,-1.50773673029218e+001,-1.01692449819776e+000

6.23331663728396e+004,-1.50774006013774e+001,-1.03108211252729e+000

6.32033049490698e+004,-1.50774347740481e+001,-1.04543582205654e+000

6.40855902071694e+004,-1.50774698421839e+001,-1.05998830442707e+000

6.49801917084985e+004,-1.50775058274594e+001,-1.07474227249345e+000

6.58872813814055e+004,-1.50775427519771e+001,-1.08970047474849e+000

6.68070335542691e+004,-1.50775806382704e+001,-1.10486569575104e+000

6.77396249890018e+004,-1.50776195093066e+001,-1.12024075655850e+000

6.86852349150199e+004,-1.50776593884893e+001,-1.13582851516467e+000

6.96440450636895e+004,-1.50777002996605e+001,-1.15163186694366e+000

7.06162397032520e+004,-1.50777422671025e+001,-1.16765374509572e+000

7.16020056742374e+004,-1.50777853155394e+001,-1.18389712109980e+000

7.26015324253724e+004,-1.50778294701378e+001,-1.20036500517273e+000

7.36150120499896e+004,-1.50778747565072e+001,-1.21706044673166e+000

7.46426393229441e+004,-1.50779212007004e+001,-1.23398653486160e+000

7.56846117380472e+004,-1.50779688292126e+001,-1.25114639879250e+000

7.67411295460207e+004,-1.50780176689809e+001,-1.26854320837486e+000

7.78123957929823e+004,-1.50780677473820e+001,-1.28618017457021e+000

7.88986163594682e+004,-1.50781190922305e+001,-1.30406054994062e+000

7.99999999999995e+004,-1.50781717317761e+001,-1.32218762914835e+000

8.11167583832018e+004,-1.50782256946998e+001,-1.34056474946070e+000

8.22491061324848e+004,-1.50782810101099e+001,-1.35919529126170e+000

8.33972608672892e+004,-1.50783377075371e+001,-1.37808267857258e+000

8.45614432449099e+004,-1.50783958169288e+001,-1.39723037957723e+000

8.57418770029029e+004,-1.50784553686428e+001,-1.41664190715565e+000

8.69387890020841e+004,-1.50785163934398e+001,-1.43632081942791e+000

8.81524092701283e+004,-1.50785789224756e+001,-1.45627072030299e+000

8.93829710457770e+004,-1.50786429872913e+001,-1.47649526003897e+000

9.06307108236633e+004,-1.50787086198048e+001,-1.49699813580916e+000

9.18958683997622e+004,-1.50787758522982e+001,-1.51778309228088e+000

9.31786869174758e+004,-1.50788447174073e+001,-1.53885392220207e+000

9.44794129143618e+004,-1.50789152481080e+001,-1.56021446699733e+000

9.57982963695136e+004,-1.50789874777023e+001,-1.58186861737692e+000

9.71355907516031e+004,-1.50790614398038e+001,-1.60382031395427e+000

9.84915530675926e+004,-1.50791371683210e+001,-1.62607354787618e+000

9.98664439121282e+004,-1.50792146974404e+001,-1.64863236146625e+000

1.01260527517622e+005,-1.50792940616078e+001,-1.67150084887791e+000

1.02674071805032e+005,-1.50793752955087e+001,-1.69468315676294e+000

1.04107348435354e+005,-1.50794584340477e+001,-1.71818348495266e+000

1.05560632861831e+005,-1.50795435123262e+001,-1.74200608715426e+000

1.07034204382888e+005,-1.50796305656192e+001,-1.76615527166034e+000

1.08528346195813e+005,-1.50797196293505e+001,-1.79063540207627e+000

1.10043345451179e+005,-1.50798107390672e+001,-1.81545089806121e+000

1.11579493308032e+005,-1.50799039304123e+001,-1.84060623608887e+000

1.13137084989847e+005,-1.50799992390966e+001,-1.86610595022286e+000

1.14716419841265e+005,-1.50800967008683e+001,-1.89195463291365e+000

1.16317801385624e+005,-1.50801963514830e+001,-1.91815693581150e+000

1.17941537383287e+005,-1.50802982266707e+001,-1.94471757060262e+000

1.19587939890794e+005,-1.50804023621024e+001,-1.97164130986262e+000

1.21257325320831e+005,-1.50805087933559e+001,-1.99893298793421e+000

1.22950014503040e+005,-1.50806175558791e+001,-2.02659750182656e+000

1.24666332745679e+005,-1.50807286849532e+001,-2.05463981213806e+000

1.26406609898139e+005,-1.50808422156544e+001,-2.08306494400198e+000

1.28171180414339e+005,-1.50809581828147e+001,-2.11187798805922e+000

1.29960383416997e+005,-1.50810766209809e+001,-2.14108410145685e+000

1.31774562762811e+005,-1.50811975643738e+001,-2.17068850887063e+000

1.33614067108538e+005,-1.50813210468456e+001,-2.20069650355984e+000

1.35479249978003e+005,-1.50814471018364e+001,-2.23111344844764e+000

1.37370469830040e+005,-1.50815757623306e+001,-2.26194477723197e+000

1.39288090127379e+005,-1.50817070608122e+001,-2.29319599552746e+000

1.41232479406504e+005,-1.50818410292195e+001,-2.32487268203875e+000

1.43204011348474e+005,-1.50819776988995e+001,-2.35698048976478e+000

1.45203064850745e+005,-1.50821171005614e+001,-2.38952514723953e+000

1.47230024099979e+005,-1.50822592642312e+001,-2.42251245980322e+000

1.49285278645888e+005,-1.50824042192045e+001,-2.45594831091079e+000

1.51369223476094e+005,-1.50825519940006e+001,-2.48983866347641e+000

1.53482259092041e+005,-1.50827026163164e+001,-2.52418956125252e+000

1.55624791585964e+005,-1.50828561129807e+001,-2.55900713024859e+000

1.57797232718936e+005,-1.50830125099088e+001,-2.59429758018563e+000

1.59999999999999e+005,-1.50831718320584e+001,-2.63006720599202e+000

1.62233516766403e+005,-1.50833341033858e+001,-2.66632238933555e+000

1.64498212264969e+005,-1.50834993468037e+001,-2.70306960019815e+000

1.66794521734578e+005,-1.50836675841398e+001,-2.74031539848883e+000

1.69122886489819e+005,-1.50838388360978e+001,-2.77806643569837e+000

1.71483754005805e+005,-1.50840131222189e+001,-2.81632945659488e+000

1.73877578004168e+005,-1.50841904608468e+001,-2.85511130095976e+000

1.76304818540256e+005,-1.50843708690932e+001,-2.89441890536721e+000

1.78765942091554e+005,-1.50845543628075e+001,-2.93425930500232e+000

1.81261421647326e+005,-1.50847409565475e+001,-2.97463963552330e+000

1.83791736799524e+005,-1.50849306635547e+001,-3.01556713496355e+000

1.86357373834951e+005,-1.50851234957312e+001,-3.05704914567554e+000

1.88958825828723e+005,-1.50853194636212e+001,-3.09909311631547e+000

1.91596592739027e+005,-1.50855185763955e+001,-3.14170660386833e+000

1.94271181503206e+005,-1.50857208418399e+001,-3.18489727571264e+000

1.96983106135185e+005,-1.50859262663487e+001,-3.22867291172477e+000

1.99732887824256e+005,-1.50861348549209e+001,-3.27304140642153e+000

2.02521055035243e+005,-1.50863466111626e+001,-3.31801077114154e+000

2.05348143610063e+005,-1.50865615372932e+001,-3.36358913626108e+000

2.08214696870707e+005,-1.50867796341572e+001,-3.40978475344812e+000

2.11121265723661e+005,-1.50870009012409e+001,-3.45660599794860e+000

2.14068408765776e+005,-1.50872253366950e+001,-3.50406137090749e+000

2.17056692391625e+005,-1.50874529373622e+001,-3.55215950172060e+000

2.20086690902357e+005,-1.50876836988114e+001,-3.60090915041726e+000

2.23158986616063e+005,-1.50879176153767e+001,-3.65031921007162e+000

2.26274169979693e+005,-1.50881546802039e+001,-3.70039870924040e+000

2.29432839682530e+005,-1.50883948853018e+001,-3.75115681442761e+000

2.32635602771247e+005,-1.50886382216012e+001,-3.80260283257031e+000

2.35883074766574e+005,-1.50888846790188e+001,-3.85474621354859e+000

2.39175879781588e+005,-1.50891342465288e+001,-3.90759655271401e+000

2.42514650641661e+005,-1.50893869122404e+001,-3.96116359343535e+000

2.45900029006080e+005,-1.50896426634815e+001,-4.01545722966234e+000

2.49332665491357e+005,-1.50899014868897e+001,-4.07048750850042e+000

2.52813219796278e+005,-1.50901633685089e+001,-4.12626463279980e+000

2.56342360828676e+005,-1.50904282938927e+001,-4.18279896375349e+000

2.59920766833993e+005,-1.50906962482143e+001,-4.24010102350292e+000

2.63549125525621e+005,-1.50909672163820e+001,-4.29818149775020e+000

2.67228134217075e+005,-1.50912411831613e+001,-4.35705123837422e+000

2.70958499956006e+005,-1.50915181333024e+001,-4.41672126604874e+000

2.74740939660078e+005,-1.50917980516743e+001,-4.47720277286226e+000

2.78576180254757e+005,-1.50920809234033e+001,-4.53850712493516e+000

2.82464958813007e+005,-1.50923667340176e+001,-4.60064586503537e+000

2.86408022696948e+005,-1.50926554695965e+001,-4.66363071518983e+000

2.90406129701488e+005,-1.50929471169249e+001,-4.72747357928962e+000

2.94460048199957e+005,-1.50932416636520e+001,-4.79218654568952e+000

2.98570557291775e+005,-1.50935390984537e+001,-4.85778188979973e+000

3.02738446952187e+005,-1.50938394112002e+001,-4.92427207666892e+000

3.06964518184081e+005,-1.50941425931260e+001,-4.99166976355689e+000

3.11249583171928e+005,-1.50944486370034e+001,-5.05998780250026e+000

3.15594465437872e+005,-1.50947575373197e+001,-5.12923924286434e+000

3.19999999999997e+005,-1.50950692904554e+001,-5.19943733388781e+000

3.24467033532806e+005,-1.50953838948664e+001,-5.27059552721472e+000

3.28996424529938e+005,-1.50957013512665e+001,-5.34272747941749e+000

3.33589043469155e+005,-1.50960216628121e+001,-5.41584705450954e+000

3.38245772979638e+005,-1.50963448352882e+001,-5.48996832644841e+000

3.42967508011610e+005,-1.50966708772946e+001,-5.56510558163081e+000

3.47755156008335e+005,-1.50969998004330e+001,-5.64127332137962e+000

3.52609637080511e+005,-1.50973316194934e+001,-5.71848626442461e+000

3.57531884183106e+005,-1.50976663526417e+001,-5.79675934937693e+000

3.62522843294651e+005,-1.50980040216052e+001,-5.87610773720120e+000

3.67583473599047e+005,-1.50983446518580e+001,-5.95654681368433e+000

3.72714747669902e+005,-1.50986882728051e+001,-6.03809219190438e+000

3.77917651657445e+005,-1.50990349179656e+001,-6.12075971470008e+000

3.83193185478053e+005,-1.50993846251530e+001,-6.20456545714519e+000

3.88542363006410e+005,-1.50997374366551e+001,-6.28952572902683e+000

3.93966212270369e+005,-1.51000933994109e+001,-6.37565707733366e+000

3.99465775648511e+005,-1.51004525651853e+001,-6.46297628875182e+000

4.05042110070485e+005,-1.51008149907419e+001,-6.55150039217688e+000

4.10696287220124e+005,-1.51011807380129e+001,-6.64124666123762e+000

4.16429393741414e+005,-1.51015498742665e+001,-6.73223261684047e+000

4.22242531447321e+005,-1.51019224722714e+001,-6.82447602973261e+000

4.28136817531551e+005,-1.51022986104589e+001,-6.91799492308946e+000

4.34113384783250e+005,-1.51026783730824e+001,-7.01280757512694e+000

4.40173381804713e+005,-1.51030618503732e+001,-7.10893252174347e+000

4.46317973232124e+005,-1.51034491386947e+001,-7.20638855919182e+000

4.52548339959385e+005,-1.51038403406933e+001,-7.30519474678627e+000

4.58865679365059e+005,-1.51042355654473e+001,-7.40537040964485e+000

4.65271205542494e+005,-1.51046349286124e+001,-7.50693514147177e+000

4.71766149533147e+005,-1.51050385525659e+001,-7.60990880738079e+000

4.78351759563174e+005,-1.51054465665480e+001,-7.71431154676332e+000

4.85029301283321e+005,-1.51058591068018e+001,-7.82016377620182e+000

4.91800058012158e+005,-1.51062763167108e+001,-7.92748619243343e+000

4.98665330982714e+005,-1.51066983469350e+001,-8.03629977536316e+000

5.05626439592555e+005,-1.51071253555465e+001,-8.14662579113114e+000

5.12684721657352e+005,-1.51075575081626e+001,-8.25848579523487e+000

5.19841533667984e+005,-1.51079949780793e+001,-8.37190163570746e+000

5.27098251051240e+005,-1.51084379464034e+001,-8.48689545635617e+000

5.34456268434150e+005,-1.51088866021855e+001,-8.60348970005984e+000

5.41916999912011e+005,-1.51093411425514e+001,-8.72170711212980e+000

