Freq.,VOut,OutRef

1.00000000000000e+004,-2.24331964103303e+001,-4.41592725361628e-001

1.01395947979003e+004,-2.24332015232674e+001,-4.47756464255482e-001

1.02811382665607e+004,-2.24332067797747e+001,-4.54006217499962e-001

1.04246576084112e+004,-2.24332121838786e+001,-4.60343184613868e-001

1.05701804056138e+004,-2.24332177397182e+001,-4.66768581810153e-001

1.07177346253629e+004,-2.24332234515482e+001,-4.73283642227710e-001

1.08673486252606e+004,-2.24332293237424e+001,-4.79889616163047e-001

1.10190511587661e+004,-2.24332353607970e+001,-4.86587771309228e-001

1.11728713807222e+004,-2.24332415673336e+001,-4.93379392996556e-001

1.13288388529580e+004,-2.24332479481034e+001,-5.00265784435131e-001

1.14869835499703e+004,-2.24332545079901e+001,-5.07248266961920e-001

1.16473358646846e+004,-2.24332612520138e+001,-5.14328180292553e-001

1.18099266142953e+004,-2.24332681853352e+001,-5.21506882773086e-001

1.19747870461893e+004,-2.24332753132589e+001,-5.28785751638276e-001

1.21419488439505e+004,-2.24332826412376e+001,-5.36166183272076e-001

1.23114441334492e+004,-2.24332901748764e+001,-5.43649593471074e-001

1.24833054890161e+004,-2.24332979199370e+001,-5.51237417712469e-001

1.26575659397028e+004,-2.24333058823417e+001,-5.58931111425958e-001

1.28342589756290e+004,-2.24333140681782e+001,-5.66732150267711e-001

1.30134185544193e+004,-2.24333224837040e+001,-5.74642030399291e-001

1.31950791077289e+004,-2.24333311353512e+001,-5.82662268769840e-001

1.33792755478611e+004,-2.24333400297312e+001,-5.90794403403167e-001

1.35660432744767e+004,-2.24333491736401e+001,-5.99039993684668e-001

1.37554181813974e+004,-2.24333585740627e+001,-6.07400620659525e-001

1.39474366635040e+004,-2.24333682381794e+001,-6.15877887326142e-001

1.41421356237309e+004,-2.24333781733700e+001,-6.24473418940255e-001

1.43395524801583e+004,-2.24333883872203e+001,-6.33188863319822e-001

1.45397251732031e+004,-2.24333988875269e+001,-6.42025891155527e-001

1.47426921729110e+004,-2.24334096823038e+001,-6.50986196322691e-001

1.49484924863494e+004,-2.24334207797882e+001,-6.60071496201089e-001

1.51571656651040e+004,-2.24334321884460e+001,-6.69283531996482e-001

1.53687518128801e+004,-2.24334439169792e+001,-6.78624069066130e-001

1.55832915932100e+004,-2.24334559743316e+001,-6.88094897250930e-001

1.58008262372675e+004,-2.24334683696952e+001,-6.97697831210528e-001

1.60213975517924e+004,-2.24334811125183e+001,-7.07434710760331e-001

1.62450479271247e+004,-2.24334942125110e+001,-7.17307401218773e-001

1.64718203453514e+004,-2.24335076796535e+001,-7.27317793753500e-001

1.67017583885674e+004,-2.24335215242028e+001,-7.37467805734717e-001

1.69349062472505e+004,-2.24335357567011e+001,-7.47759381092984e-001

1.71713087287550e+004,-2.24335503879825e+001,-7.58194490681369e-001

1.74110112659224e+004,-2.24335654291819e+001,-7.68775132643054e-001

1.76540599258131e+004,-2.24335808917430e+001,-7.79503332780484e-001

1.79005014185594e+004,-2.24335967874265e+001,-7.90381144935693e-001

1.81503831063432e+004,-2.24336131283189e+001,-8.01410651367930e-001

1.84037530124975e+004,-2.24336299268414e+001,-8.12593963142367e-001

1.86606598307361e+004,-2.24336471957591e+001,-8.23933220519540e-001

1.89211529345119e+004,-2.24336649481903e+001,-8.35430593353183e-001

1.91852823865052e+004,-2.24336831976158e+001,-8.47088281490882e-001

1.94530989482457e+004,-2.24337019578894e+001,-8.58908515179154e-001

1.97246540898671e+004,-2.24337212432476e+001,-8.70893555476714e-001

1.99999999999999e+004,-2.24337410683198e+001,-8.83045694670644e-001

2.02791895958005e+004,-2.24337614481394e+001,-8.95367256698521e-001

2.05622765331213e+004,-2.24337823981546e+001,-9.07860597574832e-001

2.08493152168224e+004,-2.24338039342395e+001,-9.20528105825559e-001

2.11403608112276e+004,-2.24338260727053e+001,-9.33372202925203e-001

2.14354692507258e+004,-2.24338488303130e+001,-9.46395343738882e-001

2.17346972505211e+004,-2.24338722242847e+001,-9.59600016975534e-001

2.20381023175322e+004,-2.24338962723163e+001,-9.72988745638487e-001

2.23457427614443e+004,-2.24339209925902e+001,-9.86564087487966e-001

2.26576777059159e+004,-2.24339464037883e+001,-1.00032863550775e+000

2.29739670999406e+004,-2.24339725251056e+001,-1.01428501837508e+000

2.32946717293690e+004,-2.24339993762639e+001,-1.02843590093928e+000

2.36198532285905e+004,-2.24340269775255e+001,-1.04278398470526e+000

2.39495740923785e+004,-2.24340553497083e+001,-1.05733200832241e+000

2.42838976879009e+004,-2.24340845141998e+001,-1.07208274808084e+000

2.46228882668982e+004,-2.24341144929730e+001,-1.08703901841076e+000

2.49666109780322e+004,-2.24341453086016e+001,-1.10220367239184e+000

2.53151318794055e+004,-2.24341769842760e+001,-1.11757960226426e+000

2.56685179512580e+004,-2.24342095438196e+001,-1.13316973995025e+000

2.60268371088386e+004,-2.24342430117057e+001,-1.14897705757844e+000

2.63901582154578e+004,-2.24342774130744e+001,-1.16500456801574e+000

2.67585510957221e+004,-2.24343127737502e+001,-1.18125532540644e+000

2.71320865489533e+004,-2.24343491202605e+001,-1.19773242571486e+000

2.75108363627948e+004,-2.24343864798532e+001,-1.21443900727807e+000

2.78948733270080e+004,-2.24344248805163e+001,-1.23137825136077e+000

2.82842712474618e+004,-2.24344643509970e+001,-1.24855338272012e+000

2.86791049603164e+004,-2.24345049208213e+001,-1.26596767017612e+000

2.90794503464061e+004,-2.24345466203147e+001,-1.28362442718744e+000

2.94853843458219e+004,-2.24345894806226e+001,-1.30152701243411e+000

2.98969849726987e+004,-2.24346335337316e+001,-1.31967883040723e+000

3.03143313302078e+004,-2.24346788124916e+001,-1.33808333200604e+000

3.07375036257601e+004,-2.24347253506375e+001,-1.35674401514041e+000

3.11665831864199e+004,-2.24347731828124e+001,-1.37566442533895e+000

3.16016524745350e+004,-2.24348223445909e+001,-1.39484815636753e+000

3.20427951035848e+004,-2.24348728725027e+001,-1.41429885085067e+000

3.24900958542493e+004,-2.24349248040569e+001,-1.43402020090165e+000

3.29436406907028e+004,-2.24349781777674e+001,-1.45401594875973e+000

3.34035167771346e+004,-2.24350330331780e+001,-1.47428988743193e+000

3.38698124945009e+004,-2.24350894108885e+001,-1.49484586134591e+000

3.43426174575100e+004,-2.24351473525816e+001,-1.51568776700322e+000

3.48220225318448e+004,-2.24352069010497e+001,-1.53681955364719e+000

3.53081198516260e+004,-2.24352681002231e+001,-1.55824522393124e+000

3.58010028371187e+004,-2.24353309951981e+001,-1.57996883459720e+000

3.63007662126863e+004,-2.24353956322663e+001,-1.60199449716109e+000

3.68075060249948e+004,-2.24354620589441e+001,-1.62432637860284e+000

3.73213196614721e+004,-2.24355303240029e+001,-1.64696870206721e+000

3.78423058690237e+004,-2.24356004775000e+001,-1.66992574756733e+000

3.83705647730104e+004,-2.24356725708103e+001,-1.69320185269887e+000

3.89061978964912e+004,-2.24357466566583e+001,-1.71680141335858e+000

3.94493081797342e+004,-2.24358227891510e+001,-1.74072888447072e+000

3.99999999999998e+004,-2.24359010238111e+001,-1.76498878072292e+000

4.05583791916010e+004,-2.24359814176116e+001,-1.78958567730291e+000

4.11245530662425e+004,-2.24360640290101e+001,-1.81452421064962e+000

4.16986304336447e+004,-2.24361489179846e+001,-1.83980907920560e+000

4.22807216224550e+004,-2.24362361460694e+001,-1.86544504417937e+000

4.28709385014515e+004,-2.24363257763918e+001,-1.89143693031483e+000

4.34693945010421e+004,-2.24364178737100e+001,-1.91778962666443e+000

4.40762046350642e+004,-2.24365125044509e+001,-1.94450808737400e+000

4.46914855228886e+004,-2.24366097367487e+001,-1.97159733247125e+000

4.53153554118317e+004,-2.24367096404847e+001,-1.99906244866239e+000

4.59479341998812e+004,-2.24368122873274e+001,-2.02690859013545e+000

4.65893434587380e+004,-2.24369177507735e+001,-2.05514097937018e+000

4.72397064571810e+004,-2.24370261061888e+001,-2.08376490795659e+000

4.78991481847569e+004,-2.24371374308510e+001,-2.11278573741749e+000

4.85677953758016e+004,-2.24372518039921e+001,-2.14220890004084e+000

4.92457765337964e+004,-2.24373693068420e+001,-2.17203989971716e+000

4.99332219560642e+004,-2.24374900226727e+001,-2.20228431278389e+000

5.06302637588109e+004,-2.24376140368429e+001,-2.23294778887836e+000

5.13370359025159e+004,-2.24377414368434e+001,-2.26403605179551e+000

5.20536742176771e+004,-2.24378723123433e+001,-2.29555490035301e+000

5.27803164309155e+004,-2.24380067552360e+001,-2.32751020926461e+000

5.35171021914442e+004,-2.24381448596872e+001,-2.35990793001767e+000

5.42641730979066e+004,-2.24382867221821e+001,-2.39275409176150e+000

5.50216727255895e+004,-2.24384324415738e+001,-2.42605480219736e+000

5.57897466540159e+004,-2.24385821191323e+001,-2.45981624848089e+000

5.65685424949235e+004,-2.24387358585935e+001,-2.49404469812660e+000

5.73582099206328e+004,-2.24388937662100e+001,-2.52874649992185e+000

5.81589006928121e+004,-2.24390559507999e+001,-2.56392808484868e+000

5.89707686916437e+004,-2.24392225237993e+001,-2.59959596700844e+000

5.97939699453972e+004,-2.24393935993122e+001,-2.63575674455873e+000

6.06286626604156e+004,-2.24395692941626e+001,-2.67241710065366e+000

6.14750072515201e+004,-2.24397497279466e+001,-2.70958380439145e+000

6.23331663728396e+004,-2.24399350230844e+001,-2.74726371177199e+000

6.32033049490698e+004,-2.24401253048731e+001,-2.78546376665799e+000

6.40855902071694e+004,-2.24403207015393e+001,-2.82419100174631e+000

6.49801917084985e+004,-2.24405213442921e+001,-2.86345253954536e+000

6.58872813814055e+004,-2.24407273673769e+001,-2.90325559335983e+000

6.68070335542691e+004,-2.24409389081277e+001,-2.94360746828452e+000

6.77396249890018e+004,-2.24411561070216e+001,-2.98451556220501e+000

6.86852349150199e+004,-2.24413791077314e+001,-3.02598736680569e+000

6.96440450636895e+004,-2.24416080571794e+001,-3.06803046858856e+000

7.06162397032520e+004,-2.24418431055910e+001,-3.11065254989709e+000

7.16020056742374e+004,-2.24420844065472e+001,-3.15386138995239e+000

7.26015324253724e+004,-2.24423321170386e+001,-3.19766486589488e+000

7.36150120499896e+004,-2.24425863975174e+001,-3.24207095383809e+000

7.46426393229441e+004,-2.24428474119504e+001,-3.28708772993064e+000

7.56846117380472e+004,-2.24431153278707e+001,-3.33272337142847e+000

7.67411295460207e+004,-2.24433903164299e+001,-3.37898615777736e+000

7.78123957929823e+004,-2.24436725524494e+001,-3.42588447170667e+000

7.88986163594682e+004,-2.24439622144703e+001,-3.47342680033387e+000

7.99999999999995e+004,-2.24442594848045e+001,-3.52162173628105e+000

8.11167583832018e+004,-2.24445645495832e+001,-3.57047797880399e+000

8.22491061324848e+004,-2.24448775988059e+001,-3.62000433493405e+000

8.33972608672892e+004,-2.24451988263884e+001,-3.67020972063302e+000

8.45614432449099e+004,-2.24455284302091e+001,-3.72110316196297e+000

8.57418770029029e+004,-2.24458666121555e+001,-3.77269379627119e+000

8.69387890020841e+004,-2.24462135781687e+001,-3.82499087339037e+000

8.81524092701283e+004,-2.24465695382872e+001,-3.87800375685556e+000

8.93829710457770e+004,-2.24469347066898e+001,-3.93174192513900e+000

9.06307108236633e+004,-2.24473093017368e+001,-3.98621497290288e+000

9.18958683997622e+004,-2.24476935460099e+001,-4.04143261227286e+000

9.31786869174758e+004,-2.24480876663513e+001,-4.09740467413026e+000

9.44794129143618e+004,-2.24484918939008e+001,-4.15414110942790e+000

9.57982963695136e+004,-2.24489064641317e+001,-4.21165199052788e+000

9.71355907516031e+004,-2.24493316168855e+001,-4.26994751256398e+000

9.84915530675926e+004,-2.24497675964040e+001,-4.32903799483016e+000

9.98664439121282e+004,-2.24502146513614e+001,-4.38893388219528e+000

1.01260527517622e+005,-2.24506730348935e+001,-4.44964574654716e+000

1.02674071805032e+005,-2.24511430046259e+001,-4.51118428826607e+000

1.04107348435354e+005,-2.24516248227002e+001,-4.57356033773159e+000

1.05560632861831e+005,-2.24521187557993e+001,-4.63678485686077e+000

1.07034204382888e+005,-2.24526250751698e+001,-4.70086894068410e+000

1.08528346195813e+005,-2.24531440566446e+001,-4.76582381895648e+000

1.10043345451179e+005,-2.24536759806619e+001,-4.83166085780930e+000

1.11579493308032e+005,-2.24542211322845e+001,-4.89839156144278e+000

1.13137084989847e+005,-2.24547798012166e+001,-4.96602757386117e+000

1.14716419841265e+005,-2.24553522818194e+001,-5.03458068065437e+000

1.16317801385624e+005,-2.24559388731259e+001,-5.10406281082745e+000

1.17941537383287e+005,-2.24565398788539e+001,-5.17448603867822e+000

1.19587939890794e+005,-2.24571556074188e+001,-5.24586258572975e+000

1.21257325320831e+005,-2.24577863719445e+001,-5.31820482271539e+000

1.22950014503040e+005,-2.24584324902748e+001,-5.39152527162191e+000

1.24666332745679e+005,-2.24590942849834e+001,-5.46583660779203e+000

1.26406609898139e+005,-2.24597720833844e+001,-5.54115166208940e+000

1.28171180414339e+005,-2.24604662175421e+001,-5.61748342312733e+000

1.29960383416997e+005,-2.24611770242821e+001,-5.69484503956491e+000

1.31774562762811e+005,-2.24619048452017e+001,-5.77324982247412e+000

1.33614067108538e+005,-2.24626500266826e+001,-5.85271124777665e+000

1.35479249978003e+005,-2.24634129199042e+001,-5.93324295875815e+000

1.37370469830040e+005,-2.24641938808588e+001,-6.01485876865765e+000

1.39288090127379e+005,-2.24649932703691e+001,-6.09757266333755e+000

1.41232479406504e+005,-2.24658114541080e+001,-6.18139880403601e+000

1.43204011348474e+005,-2.24666488026220e+001,-6.26635153020295e+000

1.45203064850745e+005,-2.24675056913582e+001,-6.35244536242345e+000

1.47230024099979e+005,-2.24683825006953e+001,-6.43969500542947e+000

1.49285278645888e+005,-2.24692796159798e+001,-6.52811535120235e+000

1.51369223476094e+005,-2.24701974275673e+001,-6.61772148216867e+000

1.53482259092041e+005,-2.24711363308705e+001,-6.70852867449023e+000

1.55624791585964e+005,-2.24720967264141e+001,-6.80055240144909e+000

1.57797232718936e+005,-2.24730790198965e+001,-6.89380833693199e+000

1.59999999999999e+005,-2.24740836222609e+001,-6.98831235901148e+000

1.62233516766403e+005,-2.24751109497755e+001,-7.08408055362748e+000

1.64498212264969e+005,-2.24761614241231e+001,-7.18112921836877e+000

1.66794521734578e+005,-2.24772354725022e+001,-7.27947486635505e+000

1.69122886489819e+005,-2.24783335277405e+001,-7.37913423021943e+000

1.71483754005805e+005,-2.24794560284196e+001,-7.48012426619233e+000

1.73877578004168e+005,-2.24806034190150e+001,-7.58246215828355e+000

1.76304818540256e+005,-2.24817761500498e+001,-7.68616532256550e+000

1.78765942091554e+005,-2.24829746782649e+001,-7.79125141155267e+000

1.81261421647326e+005,-2.24841994668050e+001,-7.89773831867809e+000

1.83791736799524e+005,-2.24854509854228e+001,-8.00564418286423e+000

1.86357373834951e+005,-2.24867297107019e+001,-8.11498739318450e+000

1.88958825828723e+005,-2.24880361262995e+001,-8.22578659361506e+000

1.91596592739027e+005,-2.24893707232094e+001,-8.33806068787159e+000

1.94271181503206e+005,-2.24907340000474e+001,-8.45182884432753e+000

1.96983106135185e+005,-2.24921264633591e+001,-8.56711050101118e+000

1.99732887824256e+005,-2.24935486279518e+001,-8.68392537067465e+000

2.02521055035243e+005,-2.24950010172506e+001,-8.80229344593159e+000

2.05348143610063e+005,-2.24964841636810e+001,-8.92223500445687e+000

2.08214696870707e+005,-2.24979986090773e+001,-9.04377061424286e+000

2.11121265723661e+005,-2.24995449051195e+001,-9.16692113890561e+000

2.14068408765776e+005,-2.25011236137976e+001,-9.29170774303391e+000

2.17056692391625e+005,-2.25027353079058e+001,-9.41815189757398e+000

2.20086690902357e+005,-2.25043805715665e+001,-9.54627538524250e+000

2.23158986616063e+005,-2.25060600007845e+001,-9.67610030595862e+000

2.26274169979693e+005,-2.25077742040331e+001,-9.80764908228827e+000

2.29432839682530e+005,-2.25095238028717e+001,-9.94094446488970e+000

2.32635602771247e+005,-2.25113094325961e+001,-1.00760095379527e+001

2.35883074766574e+005,-2.25131317429210e+001,-1.02128677246215e+001

2.39175879781588e+005,-2.25149913986963e+001,-1.03515427923913e+001

2.42514650641661e+005,-2.25168890806568e+001,-1.04920588584687e+001

2.45900029006080e+005,-2.25188254862047e+001,-1.06344403950862e+001

2.49332665491357e+005,-2.25208013302274e+001,-1.07787122347580e+001

2.52813219796278e+005,-2.25228173459473e+001,-1.09248995754719e+001

2.56342360828676e+005,-2.25248742858066e+001,-1.10730279857999e+001

2.59920766833993e+005,-2.25269729223855e+001,-1.12231234099229e+001

2.63549125525621e+005,-2.25291140493526e+001,-1.13752121725548e+001

2.67228134217075e+005,-2.25312984824499e+001,-1.15293209837579e+001

2.70958499956006e+005,-2.25335270605092e+001,-1.16854769436377e+001

2.74740939660078e+005,-2.25358006465007e+001,-1.18437075469079e+001

2.78576180254757e+005,-2.25381201286130e+001,-1.20040406873142e+001

2.82464958813007e+005,-2.25404864213648e+001,-1.21665046619087e+001

2.86408022696948e+005,-2.25429004667447e+001,-1.23311281751633e+001

2.90406129701488e+005,-2.25453632353816e+001,-1.24979403429138e+001

2.94460048199957e+005,-2.25478757277428e+001,-1.26669706961265e+001

2.98570557291775e+005,-2.25504389753595e+001,-1.28382491844768e+001

3.02738446952187e+005,-2.25530540420778e+001,-1.30118061797327e+001

3.06964518184081e+005,-2.25557220253356e+001,-1.31876724789350e+001

3.11249583171928e+005,-2.25584440574631e+001,-1.33658793073679e+001

3.15594465437872e+005,-2.25612213070055e+001,-1.35464583213105e+001

3.19999999999997e+005,-2.25640549800680e+001,-1.37294416105658e+001

3.24467033532806e+005,-2.25669463216803e+001,-1.39148617007595e+001

3.28996424529938e+005,-2.25698966171801e+001,-1.41027515554024e+001

3.33589043469155e+005,-2.25729071936147e+001,-1.42931445777141e+001

3.38245772979638e+005,-2.25759794211576e+001,-1.44860746122009e+001

3.42967508011610e+005,-2.25791147145416e+001,-1.46815759459848e+001

3.47755156008335e+005,-2.25823145345041e+001,-1.48796833098805e+001

3.52609637080511e+005,-2.25855803892451e+001,-1.50804318792171e+001

3.57531884183106e+005,-2.25889138358964e+001,-1.52838572744015e+001

3.62522843294651e+005,-2.25923164819999e+001,-1.54899955612212e+001

3.67583473599047e+005,-2.25957899869944e+001,-1.56988832508850e+001

3.72714747669902e+005,-2.25993360637099e+001,-1.59105572998009e+001

3.77917651657445e+005,-2.26029564798672e+001,-1.61250551090875e+001

3.83193185478053e+005,-2.26066530595822e+001,-1.63424145238212e+001

3.88542363006410e+005,-2.26104276848743e+001,-1.65626738320153e+001

3.93966212270369e+005,-2.26142822971768e+001,-1.67858717633333e+001

3.99465775648511e+005,-2.26182188988491e+001,-1.70120474875343e+001

4.05042110070485e+005,-2.26222395546886e+001,-1.72412406126506e+001

4.10696287220124e+005,-2.26263463934427e+001,-1.74734911828976e+001

4.16429393741414e+005,-2.26305416093191e+001,-1.77088396763163e+001

4.22242531447321e+005,-2.26348274634938e+001,-1.79473270021464e+001

4.28136817531551e+005,-2.26392062856155e+001,-1.81889944979317e+001

4.34113384783250e+005,-2.26436804753063e+001,-1.84338839263571e+001

4.40173381804713e+005,-2.26482525036578e+001,-1.86820374718148e+001

4.46317973232124e+005,-2.26529249147209e+001,-1.89334977367019e+001

4.52548339959385e+005,-2.26577003269900e+001,-1.91883077374457e+001

4.58865679365059e+005,-2.26625814348802e+001,-1.94465109002574e+001

4.65271205542494e+005,-2.26675710101962e+001,-1.97081510566115e+001

4.71766149533147e+005,-2.26726719035936e+001,-1.99732724384501e+001

4.78351759563174e+005,-2.26778870460306e+001,-2.02419196731082e+001

4.85029301283321e+005,-2.26832194502104e+001,-2.05141377779598e+001

4.91800058012158e+005,-2.26886722120128e+001,-2.07899721547800e+001

4.98665330982714e+005,-2.26942485119148e+001,-2.10694685838196e+001

5.05626439592555e+005,-2.26999516163994e+001,-2.13526732175914e+001

5.12684721657352e+005,-2.27057848793514e+001,-2.16396325743594e+001

5.19841533667984e+005,-2.27117517434399e+001,-2.19303935313309e+001

5.27098251051240e+005,-2.27178557414864e+001,-2.22250033175435e+001

5.34456268434150e+005,-2.27241004978167e+001,-2.25235095064433e+001

5.41916999912011e+005,-2.27304897295978e+001,-2.28259600081485e+001

