Freq.,VOut,OutRef

1.00000000000000e+004,-2.03214050296610e+001,-2.79709807049303e-001

1.01395947979003e+004,-2.03214083463983e+001,-2.83613856827023e-001

1.02811382665607e+004,-2.03214117562313e+001,-2.87572381630818e-001

1.04246576084112e+004,-2.03214152617685e+001,-2.91586140909863e-001

1.05701804056138e+004,-2.03214188656916e+001,-2.95655904670698e-001

1.07177346253629e+004,-2.03214225707571e+001,-2.99782453626674e-001

1.08673486252606e+004,-2.03214263797983e+001,-3.03966579342979e-001

1.10190511587661e+004,-2.03214302957275e+001,-3.08209084388013e-001

1.11728713807222e+004,-2.03214343215387e+001,-3.12510782482056e-001

1.13288388529580e+004,-2.03214384603090e+001,-3.16872498655251e-001

1.14869835499703e+004,-2.03214427152015e+001,-3.21295069398340e-001

1.16473358646846e+004,-2.03214470894676e+001,-3.25779342825065e-001

1.18099266142953e+004,-2.03214515864491e+001,-3.30326178828392e-001

1.19747870461893e+004,-2.03214562095813e+001,-3.34936449243762e-001

1.21419488439505e+004,-2.03214609623948e+001,-3.39611038015173e-001

1.23114441334492e+004,-2.03214658485189e+001,-3.44350841358726e-001

1.24833054890161e+004,-2.03214708716839e+001,-3.49156767930791e-001

1.26575659397028e+004,-2.03214760357240e+001,-3.54029739002014e-001

1.28342589756290e+004,-2.03214813445799e+001,-3.58970688628527e-001

1.30134185544193e+004,-2.03214868023024e+001,-3.63980563826187e-001

1.31950791077289e+004,-2.03214924130547e+001,-3.69060324749773e-001

1.33792755478611e+004,-2.03214981811158e+001,-3.74210944872530e-001

1.35660432744767e+004,-2.03215041108838e+001,-3.79433411168796e-001

1.37554181813974e+004,-2.03215102068790e+001,-3.84728724297630e-001

1.39474366635040e+004,-2.03215164737473e+001,-3.90097898791667e-001

1.41421356237309e+004,-2.03215229162636e+001,-3.95541963245887e-001

1.43395524801583e+004,-2.03215295393358e+001,-4.01061960508033e-001

1.45397251732031e+004,-2.03215363480073e+001,-4.06658947878002e-001

1.47426921729110e+004,-2.03215433474623e+001,-4.12333997297663e-001

1.49484924863494e+004,-2.03215505430281e+001,-4.18088195559443e-001

1.51571656651040e+004,-2.03215579401800e+001,-4.23922644500806e-001

1.53687518128801e+004,-2.03215655445452e+001,-4.29838461213759e-001

1.55832915932100e+004,-2.03215733619068e+001,-4.35836778249829e-001

1.58008262372675e+004,-2.03215813982078e+001,-4.41918743832129e-001

1.60213975517924e+004,-2.03215896595560e+001,-4.48085522068813e-001

1.62450479271247e+004,-2.03215981522281e+001,-4.54338293165618e-001

1.64718203453514e+004,-2.03216068826744e+001,-4.60678253647553e-001

1.67017583885674e+004,-2.03216158575237e+001,-4.67106616578416e-001

1.69349062472505e+004,-2.03216250835878e+001,-4.73624611785364e-001

1.71713087287550e+004,-2.03216345678667e+001,-4.80233486085899e-001

1.74110112659224e+004,-2.03216443175537e+001,-4.86934503517219e-001

1.76540599258131e+004,-2.03216543400405e+001,-4.93728945569621e-001

1.79005014185594e+004,-2.03216646429227e+001,-5.00618111420571e-001

1.81503831063432e+004,-2.03216752340053e+001,-5.07603318176039e-001

1.84037530124975e+004,-2.03216861213083e+001,-5.14685901107793e-001

1.86606598307361e+004,-2.03216973130725e+001,-5.21867213902649e-001

1.89211529345119e+004,-2.03217088177653e+001,-5.29148628907662e-001

1.91852823865052e+004,-2.03217206440873e+001,-5.36531537379276e-001

1.94530989482457e+004,-2.03217328009778e+001,-5.44017349741228e-001

1.97246540898671e+004,-2.03217452976219e+001,-5.51607495837118e-001

1.99999999999999e+004,-2.03217581434565e+001,-5.59303425193745e-001

2.02791895958005e+004,-2.03217713481778e+001,-5.67106607281927e-001

2.05622765331213e+004,-2.03217849217474e+001,-5.75018531783985e-001

2.08493152168224e+004,-2.03217988743996e+001,-5.83040708864541e-001

2.11403608112276e+004,-2.03218132166492e+001,-5.91174669441254e-001

2.14354692507258e+004,-2.03218279592983e+001,-5.99421965461788e-001

2.17346972505211e+004,-2.03218431134441e+001,-6.07784170184643e-001

2.20381023175322e+004,-2.03218586904869e+001,-6.16262878460216e-001

2.23457427614443e+004,-2.03218747021382e+001,-6.24859707017159e-001

2.26576777059159e+004,-2.03218911604283e+001,-6.33576294753147e-001

2.29739670999406e+004,-2.03219080777154e+001,-6.42414303027659e-001

2.32946717293690e+004,-2.03219254666938e+001,-6.51375415956944e-001

2.36198532285905e+004,-2.03219433404032e+001,-6.60461340715025e-001

2.39495740923785e+004,-2.03219617122369e+001,-6.69673807837239e-001

2.42838976879009e+004,-2.03219805959520e+001,-6.79014571525707e-001

2.46228882668982e+004,-2.03220000056781e+001,-6.88485409962112e-001

2.49666109780322e+004,-2.03220199559278e+001,-6.98088125618704e-001

2.53151318794055e+004,-2.03220404616056e+001,-7.07824545577213e-001

2.56685179512580e+004,-2.03220615380193e+001,-7.17696521849619e-001

2.60268371088386e+004,-2.03220832008892e+001,-7.27705931703673e-001

2.63901582154578e+004,-2.03221054663596e+001,-7.37854677988414e-001

2.67585510957221e+004,-2.03221283510093e+001,-7.48144689469463e-001

2.71320865489533e+004,-2.03221518718630e+001,-7.58577921161158e-001

2.75108363627948e+004,-2.03221760464024e+001,-7.69156354667506e-001

2.78948733270080e+004,-2.03222008925780e+001,-7.79881998524496e-001

2.82842712474618e+004,-2.03222264288212e+001,-7.90756888546376e-001

2.86791049603164e+004,-2.03222526740561e+001,-8.01783088175778e-001

2.90794503464061e+004,-2.03222796477124e+001,-8.12962688836952e-001

2.94853843458219e+004,-2.03223073697375e+001,-8.24297810295372e-001

2.98969849726987e+004,-2.03223358606106e+001,-8.35790601014339e-001

3.03143313302078e+004,-2.03223651413544e+001,-8.47443238525806e-001

3.07375036257601e+004,-2.03223952335505e+001,-8.59257929793374e-001

3.11665831864199e+004,-2.03224261593515e+001,-8.71236911588874e-001

3.16016524745350e+004,-2.03224579414966e+001,-8.83382450865232e-001

3.20427951035848e+004,-2.03224906033252e+001,-8.95696845137887e-001

3.24900958542493e+004,-2.03225241687916e+001,-9.08182422869009e-001

3.29436406907028e+004,-2.03225586624808e+001,-9.20841543851264e-001

3.34035167771346e+004,-2.03225941096229e+001,-9.33676599603018e-001

3.38698124945009e+004,-2.03226305361095e+001,-9.46690013759914e-001

3.43426174575100e+004,-2.03226679685091e+001,-9.59884242474109e-001

3.48220225318448e+004,-2.03227064340837e+001,-9.73261774815708e-001

3.53081198516260e+004,-2.03227459608053e+001,-9.86825133179776e-001

3.58010028371187e+004,-2.03227865773724e+001,-1.00057687369395e+000

3.63007662126863e+004,-2.03228283132279e+001,-1.01451958663265e+000

3.68075060249948e+004,-2.03228711985759e+001,-1.02865589683260e+000

3.73213196614721e+004,-2.03229152644001e+001,-1.04298846411339e+000

3.78423058690237e+004,-2.03229605424809e+001,-1.05751998370272e+000

3.83705647730104e+004,-2.03230070654153e+001,-1.07225318666076e+000

3.89061978964912e+004,-2.03230548666345e+001,-1.08719084031337e+000

3.94493081797342e+004,-2.03231039804229e+001,-1.10233574868645e+000

3.99999999999998e+004,-2.03231544419384e+001,-1.11769075294233e+000

4.05583791916010e+004,-2.03232062872308e+001,-1.13325873182371e+000

4.11245530662425e+004,-2.03232595532626e+001,-1.14904260209547e+000

4.16986304336447e+004,-2.03233142779290e+001,-1.16504531899545e+000

4.22807216224550e+004,-2.03233705000781e+001,-1.18126987668481e+000

4.28709385014515e+004,-2.03234282595318e+001,-1.19771930870379e+000

4.34693945010421e+004,-2.03234875971072e+001,-1.21439668842919e+000

4.40762046350642e+004,-2.03235485546373e+001,-1.23130512953697e+000

4.46914855228886e+004,-2.03236111749932e+001,-1.24844778646665e+000

4.53153554118317e+004,-2.03236755021052e+001,-1.26582785488894e+000

4.59479341998812e+004,-2.03237415809854e+001,-1.28344857217816e+000

4.65893434587380e+004,-2.03238094577499e+001,-1.30131321788529e+000

4.72397064571810e+004,-2.03238791796410e+001,-1.31942511421621e+000

4.78991481847569e+004,-2.03239507950500e+001,-1.33778762651237e+000

4.85677953758016e+004,-2.03240243535401e+001,-1.35640416373362e+000

4.92457765337964e+004,-2.03240999058694e+001,-1.37527817894593e+000

4.99332219560642e+004,-2.03241775040142e+001,-1.39441316980899e+000

5.06302637588109e+004,-2.03242572011920e+001,-1.41381267907075e+000

5.13370359025159e+004,-2.03243390518851e+001,-1.43348029506072e+000

5.20536742176771e+004,-2.03244231118641e+001,-1.45341965219010e+000

5.27803164309155e+004,-2.03245094382117e+001,-1.47363443144953e+000

5.35171021914442e+004,-2.03245980893457e+001,-1.49412836091659e+000

5.42641730979066e+004,-2.03246891250430e+001,-1.51490521625916e+000

5.50216727255895e+004,-2.03247826064635e+001,-1.53596882124627e+000

5.57897466540159e+004,-2.03248785961732e+001,-1.55732304825793e+000

5.65685424949235e+004,-2.03249771581676e+001,-1.57897181880303e+000

5.73582099206328e+004,-2.03250783578957e+001,-1.60091910403257e+000

5.81589006928121e+004,-2.03251822622826e+001,-1.62316892526244e+000

5.89707686916437e+004,-2.03252889397530e+001,-1.64572535449483e+000

5.97939699453972e+004,-2.03253984602536e+001,-1.66859251494355e+000

6.06286626604156e+004,-2.03255108952763e+001,-1.69177458156175e+000

6.14750072515201e+004,-2.03256263178796e+001,-1.71527578157338e+000

6.23331663728396e+004,-2.03257448027115e+001,-1.73910039500597e+000

6.32033049490698e+004,-2.03258664260299e+001,-1.76325275522738e+000

6.40855902071694e+004,-2.03259912657249e+001,-1.78773724948431e+000

6.49801917084985e+004,-2.03261194013381e+001,-1.81255831944576e+000

6.58872813814055e+004,-2.03262509140837e+001,-1.83772046174715e+000

6.68070335542691e+004,-2.03263858868670e+001,-1.86322822853926e+000

6.77396249890018e+004,-2.03265244043038e+001,-1.88908622803938e+000

6.86852349150199e+004,-2.03266665527376e+001,-1.91529912508719e+000

6.96440450636895e+004,-2.03268124202575e+001,-1.94187164170319e+000

7.06162397032520e+004,-2.03269620967141e+001,-1.96880855765117e+000

7.16020056742374e+004,-2.03271156737348e+001,-1.99611471100404e+000

7.26015324253724e+004,-2.03272732447383e+001,-2.02379499871604e+000

7.36150120499896e+004,-2.03274349049477e+001,-2.05185437719566e+000

7.46426393229441e+004,-2.03276007514027e+001,-2.08029786288798e+000

7.56846117380472e+004,-2.03277708829704e+001,-2.10913053285757e+000

7.67411295460207e+004,-2.03279454003546e+001,-2.13835752537942e+000

7.78123957929823e+004,-2.03281244061043e+001,-2.16798404053522e+000

7.88986163594682e+004,-2.03283080046202e+001,-2.19801534081574e+000

7.99999999999995e+004,-2.03284963021595e+001,-2.22845675172857e+000

8.11167583832018e+004,-2.03286894068396e+001,-2.25931366241534e+000

8.22491061324848e+004,-2.03288874286396e+001,-2.29059152627491e+000

8.33972608672892e+004,-2.03290904794002e+001,-2.32229586159427e+000

8.45614432449099e+004,-2.03292986728215e+001,-2.35443225219047e+000

8.57418770029029e+004,-2.03295121244590e+001,-2.38700634805951e+000

8.69387890020841e+004,-2.03297309517172e+001,-2.42002386603756e+000

8.81524092701283e+004,-2.03299552738411e+001,-2.45349059047131e+000

8.93829710457770e+004,-2.03301852119059e+001,-2.48741237390139e+000

9.06307108236633e+004,-2.03304208888036e+001,-2.52179513775754e+000

9.18958683997622e+004,-2.03306624292272e+001,-2.55664487306861e+000

9.31786869174758e+004,-2.03309099596531e+001,-2.59196764118514e+000

9.44794129143618e+004,-2.03311636083202e+001,-2.62776957451921e+000

9.57982963695136e+004,-2.03314235052058e+001,-2.66405687730107e+000

9.71355907516031e+004,-2.03316897820006e+001,-2.70083582635173e+000

9.84915530675926e+004,-2.03319625720784e+001,-2.73811277187686e+000

9.98664439121282e+004,-2.03322420104645e+001,-2.77589413828039e+000

1.01260527517622e+005,-2.03325282338009e+001,-2.81418642499880e+000

1.02674071805032e+005,-2.03328213803077e+001,-2.85299620736112e+000

1.04107348435354e+005,-2.03331215897422e+001,-2.89233013747145e+000

1.05560632861831e+005,-2.03334290033544e+001,-2.93219494511835e+000

1.07034204382888e+005,-2.03337437638394e+001,-2.97259743871343e+000

1.08528346195813e+005,-2.03340660152868e+001,-3.01354450625835e+000

1.10043345451179e+005,-2.03343959031265e+001,-3.05504311634411e+000

1.11579493308032e+005,-2.03347335740715e+001,-3.09710031918394e+000

1.13137084989847e+005,-2.03350791760576e+001,-3.13972324767997e+000

1.14716419841265e+005,-2.03354328581795e+001,-3.18291911852998e+000

1.16317801385624e+005,-2.03357947706240e+001,-3.22669523337158e+000

1.17941537383287e+005,-2.03361650646005e+001,-3.27105897996780e+000

1.19587939890794e+005,-2.03365438922672e+001,-3.31601783343806e+000

1.21257325320831e+005,-2.03369314066559e+001,-3.36157935753396e+000

1.22950014503040e+005,-2.03373277615927e+001,-3.40775120596295e+000

1.24666332745679e+005,-2.03377331116165e+001,-3.45454112376413e+000

1.26406609898139e+005,-2.03381476118949e+001,-3.50195694873532e+000

1.28171180414339e+005,-2.03385714181378e+001,-3.55000661291661e+000

1.29960383416997e+005,-2.03390046865081e+001,-3.59869814413167e+000

1.31774562762811e+005,-2.03394475735309e+001,-3.64803966758856e+000

1.33614067108538e+005,-2.03399002360011e+001,-3.69803940754380e+000

1.35479249978003e+005,-2.03403628308889e+001,-3.74870568903166e+000

1.37370469830040e+005,-2.03408355152442e+001,-3.80004693966089e+000

1.39288090127379e+005,-2.03413184461003e+001,-3.85207169148126e+000

1.41232479406504e+005,-2.03418117803767e+001,-3.90478858292270e+000

1.43204011348474e+005,-2.03423156747817e+001,-3.95820636080960e+000

1.45203064850745e+005,-2.03428302857156e+001,-4.01233388245098e+000

1.47230024099979e+005,-2.03433557691736e+001,-4.06718011781109e+000

1.49285278645888e+005,-2.03438922806507e+001,-4.12275415176096e+000

1.51369223476094e+005,-2.03444399750474e+001,-4.17906518641290e+000

1.53482259092041e+005,-2.03449990065778e+001,-4.23612254354149e+000

1.55624791585964e+005,-2.03455695286800e+001,-4.29393566708982e+000

1.57797232718936e+005,-2.03461516939302e+001,-4.35251412576672e+000

1.59999999999999e+005,-2.03467456539598e+001,-4.41186761573230e+000

1.62233516766403e+005,-2.03473515593777e+001,-4.47200596337592e+000

1.64498212264969e+005,-2.03479695596964e+001,-4.53293912818693e+000

1.66794521734578e+005,-2.03485998032654e+001,-4.59467720571774e+000

1.69122886489819e+005,-2.03492424372098e+001,-4.65723043064302e+000

1.71483754005805e+005,-2.03498976073763e+001,-4.72060917991207e+000

1.73877578004168e+005,-2.03505654582873e+001,-4.78482397599568e+000

1.76304818540256e+005,-2.03512461331034e+001,-4.84988549022857e+000

1.78765942091554e+005,-2.03519397735952e+001,-4.91580454624623e+000

1.81261421647326e+005,-2.03526465201260e+001,-4.98259212351424e+000

1.83791736799524e+005,-2.03533665116442e+001,-5.05025936095011e+000

1.86357373834951e+005,-2.03540998856884e+001,-5.11881756063758e+000

1.88958825828723e+005,-2.03548467784051e+001,-5.18827819162963e+000

1.91596592739027e+005,-2.03556073245791e+001,-5.25865289383804e+000

1.94271181503206e+005,-2.03563816576787e+001,-5.32995348200934e+000

1.96983106135185e+005,-2.03571699099157e+001,-5.40219194978289e+000

1.99732887824256e+005,-2.03579722123209e+001,-5.47538047382682e+000

2.02521055035243e+005,-2.03587886948363e+001,-5.54953141805188e+000

2.05348143610063e+005,-2.03596194864245e+001,-5.62465733789536e+000

2.08214696870707e+005,-2.03604647151962e+001,-5.70077098467369e+000

2.11121265723661e+005,-2.03613245085561e+001,-5.77788530999875e+000

2.14068408765776e+005,-2.03621989933681e+001,-5.85601347025084e+000

2.17056692391625e+005,-2.03630882961404e+001,-5.93516883110713e+000

2.20086690902357e+005,-2.03639925432315e+001,-6.01536497211605e+000

2.23158986616063e+005,-2.03649118610766e+001,-6.09661569131442e+000

2.26274169979693e+005,-2.03658463764357e+001,-6.17893500988051e+000

2.29432839682530e+005,-2.03667962166638e+001,-6.26233717681593e+000

2.32635602771247e+005,-2.03677615100028e+001,-6.34683667365128e+000

2.35883074766574e+005,-2.03687423858968e+001,-6.43244821916771e+000

2.39175879781588e+005,-2.03697389753290e+001,-6.51918677412715e+000

2.42514650641661e+005,-2.03707514111831e+001,-6.60706754600572e+000

2.45900029006080e+005,-2.03717798286261e+001,-6.69610599372127e+000

2.49332665491357e+005,-2.03728243655155e+001,-6.78631783234907e+000

2.52813219796278e+005,-2.03738851628284e+001,-6.87771903781774e+000

2.56342360828676e+005,-2.03749623651148e+001,-6.97032585157792e+000

2.59920766833993e+005,-2.03760561209724e+001,-7.06415478523737e+000

2.63549125525621e+005,-2.03771665835447e+001,-7.15922262515366e+000

2.67228134217075e+005,-2.03782939110402e+001,-7.25554643697976e+000

2.70958499956006e+005,-2.03794382672748e+001,-7.35314357015301e+000

2.74740939660078e+005,-2.03805998222340e+001,-7.45203166232209e+000

2.78576180254757e+005,-2.03817787526561e+001,-7.55222864370570e+000

2.82464958813007e+005,-2.03829752426364e+001,-7.65375274137607e+000

2.86408022696948e+005,-2.03841894842487e+001,-7.75662248346212e+000

2.90406129701488e+005,-2.03854216781879e+001,-7.86085670326514e+000

2.94460048199957e+005,-2.03866720344283e+001,-7.96647454328369e+000

2.98570557291775e+005,-2.03879407728996e+001,-8.07349545914276e+000

3.02738446952187e+005,-2.03892281241797e+001,-8.18193922342024e+000

3.06964518184081e+005,-2.03905343302011e+001,-8.29182592937020e+000

3.11249583171928e+005,-2.03918596449730e+001,-8.40317599453869e+000

3.15594465437872e+005,-2.03932043353151e+001,-8.51601016426557e+000

3.19999999999997e+005,-2.03945686816050e+001,-8.63034951507689e+000

3.24467033532806e+005,-2.03959529785355e+001,-8.74621545795839e+000

3.28996424529938e+005,-2.03973575358825e+001,-8.86362974151436e+000

3.33589043469155e+005,-2.03987826792823e+001,-8.98261445500840e+000

3.38245772979638e+005,-2.04002287510161e+001,-9.10319203128545e+000

3.42967508011610e+005,-2.04016961108020e+001,-9.22538524957722e+000

3.47755156008335e+005,-2.04031851365934e+001,-9.34921723819027e+000

3.52609637080511e+005,-2.04046962253813e+001,-9.47471147707722e+000

3.57531884183106e+005,-2.04062297940018e+001,-9.60189180029516e+000

3.62522843294651e+005,-2.04077862799462e+001,-9.73078239835138e+000

3.67583473599047e+005,-2.04093661421740e+001,-9.86140782043880e+000

3.72714747669902e+005,-2.04109698619263e+001,-9.99379297656642e+000

3.77917651657445e+005,-2.04125979435415e+001,-1.01279631395848e+001

3.83193185478053e+005,-2.04142509152701e+001,-1.02639439471128e+001

3.88542363006410e+005,-2.04159293300892e+001,-1.04017614033684e+001

3.93966212270369e+005,-2.04176337665160e+001,-1.05414418809077e+001

3.99465775648511e+005,-2.04193648294200e+001,-1.06830121222770e+001

4.05042110070485e+005,-2.04211231508326e+001,-1.08264992415826e+001

4.10696287220124e+005,-2.04229093907550e+001,-1.09719307259813e+001

4.16429393741414e+005,-2.04247242379631e+001,-1.11193344371002e+001

4.22242531447321e+005,-2.04265684108102e+001,-1.12687386123856e+001

4.28136817531551e+005,-2.04284426580258e+001,-1.14201718663910e+001

4.34113384783250e+005,-2.04303477595125e+001,-1.15736631920040e+001

4.40173381804713e+005,-2.04322845271400e+001,-1.17292419616210e+001

4.46317973232124e+005,-2.04342538055352e+001,-1.18869379282724e+001

4.52548339959385e+005,-2.04362564728712e+001,-1.20467812267013e+001

4.58865679365059e+005,-2.04382934416527e+001,-1.22088023744036e+001

4.65271205542494e+005,-2.04403656595005e+001,-1.23730322726287e+001

4.71766149533147e+005,-2.04424741099336e+001,-1.25395022073500e+001

4.78351759563174e+005,-2.04446198131503e+001,-1.27082438502023e+001

4.85029301283321e+005,-2.04468038268087e+001,-1.28792892593946e+001

4.91800058012158e+005,-2.04490272468071e+001,-1.30526708805976e+001

4.98665330982714e+005,-2.04512912080647e+001,-1.32284215478092e+001

5.05626439592555e+005,-2.04535968853032e+001,-1.34065744841997e+001

5.12684721657352e+005,-2.04559454938306e+001,-1.35871633029382e+001

5.19841533667984e+005,-2.04583382903272e+001,-1.37702220080002e+001

5.27098251051240e+005,-2.04607765736343e+001,-1.39557849949587e+001

5.34456268434150e+005,-2.04632616855479e+001,-1.41438870517557e+001

5.41916999912011e+005,-2.04657950116153e+001,-1.43345633594566e+001

