Freq.,VOut,OutRef

1.00000000000000e+004,-6.18483081275071e-001,-4.21885464656754e-002

1.01395947979003e+004,-6.18483133996354e-001,-4.27774650062100e-002

1.02811382665607e+004,-6.18483188196820e-001,-4.33746040493209e-002

1.04246576084112e+004,-6.18483243917467e-001,-4.39800783305131e-002

1.05701804056138e+004,-6.18483301201186e-001,-4.45940041813268e-002

1.07177346253629e+004,-6.18483360091678e-001,-4.52164995591548e-002

1.08673486252606e+004,-6.18483420633586e-001,-4.58476840680747e-002

1.10190511587661e+004,-6.18483482873612e-001,-4.64876789761940e-002

1.11728713807222e+004,-6.18483546858755e-001,-4.71366072496361e-002

1.13288388529580e+004,-6.18483612638228e-001,-4.77945935642560e-002

1.14869835499703e+004,-6.18483680261895e-001,-4.84617643395081e-002

1.16473358646846e+004,-6.18483749781569e-001,-4.91382477553440e-002

1.18099266142953e+004,-6.18483821249972e-001,-4.98241737824377e-002

1.19747870461893e+004,-6.18483894721837e-001,-5.05196742017431e-002

1.21419488439505e+004,-6.18483970253147e-001,-5.12248826336711e-002

1.23114441334492e+004,-6.18484047901302e-001,-5.19399345640888e-002

1.24833054890161e+004,-6.18484127725563e-001,-5.26649673662351e-002

1.26575659397028e+004,-6.18484209786458e-001,-5.34001203320734e-002

1.28342589756290e+004,-6.18484294146794e-001,-5.41455346932314e-002

1.30134185544193e+004,-6.18484380870725e-001,-5.49013536529133e-002

1.31950791077289e+004,-6.18484470023913e-001,-5.56677224140795e-002

1.33792755478611e+004,-6.18484561674545e-001,-5.64447881997091e-002

1.35660432744767e+004,-6.18484655892031e-001,-5.72327002909811e-002

1.37554181813974e+004,-6.18484752748190e-001,-5.80316100472935e-002

1.39474366635040e+004,-6.18484852316542e-001,-5.88416709413804e-002

1.41421356237309e+004,-6.18484954672710e-001,-5.96630385853847e-002

1.43395524801583e+004,-6.18485059894426e-001,-6.04958707614546e-002

1.45397251732031e+004,-6.18485168061659e-001,-6.13403274517040e-002

1.47426921729110e+004,-6.18485279256325e-001,-6.21965708704776e-002

1.49484924863494e+004,-6.18485393562752e-001,-6.30647654935250e-002

1.51571656651040e+004,-6.18485511067920e-001,-6.39450780876731e-002

1.53687518128801e+004,-6.18485631860575e-001,-6.48376777488769e-002

1.55832915932100e+004,-6.18485756032324e-001,-6.57427359286840e-002

1.58008262372675e+004,-6.18485883677207e-001,-6.66604264692799e-002

1.60213975517924e+004,-6.18486014892109e-001,-6.75909256350698e-002

1.62450479271247e+004,-6.18486149775940e-001,-6.85344121517655e-002

1.64718203453514e+004,-6.18486288430955e-001,-6.94910672330929e-002

1.67017583885674e+004,-6.18486430961918e-001,-7.04610746203268e-002

1.69349062472505e+004,-6.18486577476481e-001,-7.14446206169761e-002

1.71713087287550e+004,-6.18486728085497e-001,-7.24418941208327e-002

1.74110112659224e+004,-6.18486882902487e-001,-7.34530866660149e-002

1.76540599258131e+004,-6.18487042044337e-001,-7.44783924541488e-002

1.79005014185594e+004,-6.18487205631048e-001,-7.55180083941395e-002

1.81503831063432e+004,-6.18487373785952e-001,-7.65721341395391e-002

1.84037530124975e+004,-6.18487546635740e-001,-7.76409721259786e-002

1.86606598307361e+004,-6.18487724310411e-001,-7.87247276113511e-002

1.89211529345119e+004,-6.18487906943859e-001,-7.98236087114842e-002

1.91852823865052e+004,-6.18488094673299e-001,-8.09378264447133e-002

1.94530989482457e+004,-6.18488287639954e-001,-8.20675947676127e-002

1.97246540898671e+004,-6.18488485988574e-001,-8.32131306203056e-002

1.99999999999999e+004,-6.18488689868157e-001,-8.43746539632844e-002

2.02791895958005e+004,-6.18488899431591e-001,-8.55523878224406e-002

2.05622765331213e+004,-6.18489114835855e-001,-8.67465583312015e-002

2.08493152168224e+004,-6.18489336242416e-001,-8.79573947716569e-002

2.11403608112276e+004,-6.18489563816900e-001,-8.91851296208054e-002

2.14354692507258e+004,-6.18489797729608e-001,-9.04299985930648e-002

2.17346972505211e+004,-6.18490038155375e-001,-9.16922406859483e-002

2.20381023175322e+004,-6.18490285273524e-001,-9.29720982268828e-002

2.23457427614443e+004,-6.18490539268436e-001,-9.42698169170643e-002

2.26576777059159e+004,-6.18490800329668e-001,-9.55856458774906e-002

2.29739670999406e+004,-6.18491068651520e-001,-9.69198377002744e-002

2.32946717293690e+004,-6.18491344433694e-001,-9.82726484937161e-002

2.36198532285905e+004,-6.18491627881238e-001,-9.96443379315953e-002

2.39495740923785e+004,-6.18491919204520e-001,-1.01035169303683e-001

2.42838976879009e+004,-6.18492218619947e-001,-1.02445409562882e-001

2.46228882668982e+004,-6.18492526349392e-001,-1.03875329379442e-001

2.49666109780322e+004,-6.18492842620564e-001,-1.05325203191619e-001

2.53151318794055e+004,-6.18493167667633e-001,-1.06795309254621e-001

2.56685179512580e+004,-6.18493501730651e-001,-1.08285929698379e-001

2.60268371088386e+004,-6.18493845056219e-001,-1.09797350577240e-001

2.63901582154578e+004,-6.18494197897532e-001,-1.11329861925501e-001

2.67585510957221e+004,-6.18494560514338e-001,-1.12883757813654e-001

2.71320865489533e+004,-6.18494933173279e-001,-1.14459336402834e-001

2.75108363627948e+004,-6.18495316148174e-001,-1.16056900000885e-001

2.78948733270080e+004,-6.18495709719956e-001,-1.17676755120808e-001

2.82842712474618e+004,-6.18496114176936e-001,-1.19319212538712e-001

2.86791049603164e+004,-6.18496529815011e-001,-1.20984587352414e-001

2.90794503464061e+004,-6.18496956937774e-001,-1.22673199041034e-001

2.94853843458219e+004,-6.18497395857019e-001,-1.24385371524281e-001

2.98969849726987e+004,-6.18497846892334e-001,-1.26121433226696e-001

3.03143313302078e+004,-6.18498310371665e-001,-1.27881717137906e-001

3.07375036257601e+004,-6.18498786631911e-001,-1.29666560873431e-001

3.11665831864199e+004,-6.18499276017957e-001,-1.31476306744543e-001

3.16016524745350e+004,-6.18499778884390e-001,-1.33311301814749e-001

3.20427951035848e+004,-6.18500295594289e-001,-1.35171897973975e-001

3.24900958542493e+004,-6.18500826520420e-001,-1.37058451997815e-001

3.29436406907028e+004,-6.18501372045095e-001,-1.38971325618199e-001

3.34035167771346e+004,-6.18501932560328e-001,-1.40910885591952e-001

3.38698124945009e+004,-6.18502508468067e-001,-1.42877503768677e-001

3.43426174575100e+004,-6.18503100180634e-001,-1.44871557160806e-001

3.48220225318448e+004,-6.18503708120717e-001,-1.46893428015290e-001

3.53081198516260e+004,-6.18504332721749e-001,-1.48943503885184e-001

3.58010028371187e+004,-6.18504974427906e-001,-1.51022177703382e-001

3.63007662126863e+004,-6.18505633694708e-001,-1.53129847854478e-001

3.68075060249948e+004,-6.18506310989024e-001,-1.55266918251232e-001

3.73213196614721e+004,-6.18507006789340e-001,-1.57433798410305e-001

3.78423058690237e+004,-6.18507721586011e-001,-1.59630903528963e-001

3.83705647730104e+004,-6.18508455881609e-001,-1.61858654562231e-001

3.89061978964912e+004,-6.18509210191016e-001,-1.64117478303032e-001

3.94493081797342e+004,-6.18509985041644e-001,-1.66407807462494e-001

3.99999999999998e+004,-6.18510780974192e-001,-1.68730080747531e-001

4.05583791916010e+004,-6.18511598542075e-001,-1.71084742948266e-001

4.11245530662425e+004,-6.18512438312304e-001,-1.73472245017231e-001

4.16986304336447e+004,-6.18513300865688e-001,-1.75893044154843e-001

4.22807216224550e+004,-6.18514186796697e-001,-1.78347603895864e-001

4.28709385014515e+004,-6.18515096714230e-001,-1.80836394194711e-001

4.34693945010421e+004,-6.18516031241614e-001,-1.83359891512631e-001

4.40762046350642e+004,-6.18516991016872e-001,-1.85918578908741e-001

4.46914855228886e+004,-6.18517976692986e-001,-1.88512946128270e-001

4.53153554118317e+004,-6.18518988938268e-001,-1.91143489694325e-001

4.59479341998812e+004,-6.18520028436575e-001,-1.93810713000207e-001

4.65893434587380e+004,-6.18521095887391e-001,-1.96515126403887e-001

4.72397064571810e+004,-6.18522192006571e-001,-1.99257247320715e-001

4.78991481847569e+004,-6.18523317525835e-001,-2.02037600322912e-001

4.85677953758016e+004,-6.18524473193922e-001,-2.04856717233535e-001

4.92457765337964e+004,-6.18525659776097e-001,-2.07715137227573e-001

4.99332219560642e+004,-6.18526878054930e-001,-2.10613406930075e-001

5.06302637588109e+004,-6.18528128829959e-001,-2.13552080520675e-001

5.13370359025159e+004,-6.18529412918707e-001,-2.16531719831103e-001

5.20536742176771e+004,-6.18530731156265e-001,-2.19552894453774e-001

5.27803164309155e+004,-6.18532084395745e-001,-2.22616181845247e-001

5.35171021914442e+004,-6.18533473508599e-001,-2.25722167432776e-001

5.42641730979066e+004,-6.18534899384794e-001,-2.28871444722591e-001

5.50216727255895e+004,-6.18536362932879e-001,-2.32064615410062e-001

5.57897466540159e+004,-6.18537865080273e-001,-2.35302289490081e-001

5.65685424949235e+004,-6.18539406773605e-001,-2.38585085369282e-001

5.73582099206328e+004,-6.18540988978624e-001,-2.41913629981100e-001

5.81589006928121e+004,-6.18542612680603e-001,-2.45288558899184e-001

5.89707686916437e+004,-6.18544278884361e-001,-2.48710516456194e-001

5.97939699453972e+004,-6.18545988614447e-001,-2.52180155861486e-001

6.06286626604156e+004,-6.18547742915053e-001,-2.55698139322591e-001

6.14750072515201e+004,-6.18549542850622e-001,-2.59265138162909e-001

6.23331663728396e+004,-6.18551389505475e-001,-2.62881832949192e-001

6.32033049490698e+004,-6.18553283984038e-001,-2.66548913614369e-001

6.40855902071694e+004,-6.18555227410830e-001,-2.70267079584564e-001

6.49801917084985e+004,-6.18557220930767e-001,-2.74037039906344e-001

6.58872813814055e+004,-6.18559265708688e-001,-2.77859513377922e-001

6.68070335542691e+004,-6.18561362929793e-001,-2.81735228679655e-001

6.77396249890018e+004,-6.18563513799337e-001,-2.85664924507998e-001

6.86852349150199e+004,-6.18565719542569e-001,-2.89649349710305e-001

6.96440450636895e+004,-6.18567981404748e-001,-2.93689263421799e-001

7.06162397032520e+004,-6.18570300650897e-001,-2.97785435204571e-001

7.16020056742374e+004,-6.18572678565723e-001,-3.01938645187091e-001

7.26015324253724e+004,-6.18575116453362e-001,-3.06149684208343e-001

7.36150120499896e+004,-6.18577615636979e-001,-3.10419353961557e-001

7.46426393229441e+004,-6.18580177458778e-001,-3.14748467139720e-001

7.56846117380472e+004,-6.18582803279581e-001,-3.19137847584740e-001

7.67411295460207e+004,-6.18585494478317e-001,-3.23588330437811e-001

7.78123957929823e+004,-6.18588252451641e-001,-3.28100762292195e-001

7.88986163594682e+004,-6.18591078613660e-001,-3.32676001346389e-001

7.99999999999995e+004,-6.18593974395374e-001,-3.37314917561515e-001

8.11167583832018e+004,-6.18596941243704e-001,-3.42018392821471e-001

8.22491061324848e+004,-6.18599980621476e-001,-3.46787321091382e-001

8.33972608672892e+004,-6.18603094006416e-001,-3.51622608582420e-001

8.45614432449099e+004,-6.18606282890416e-001,-3.56525173916978e-001

8.57418770029029e+004,-6.18609548778790e-001,-3.61495948296680e-001

8.69387890020841e+004,-6.18612893189292e-001,-3.66535875672848e-001

8.81524092701283e+004,-6.18616317651473e-001,-3.71645912918000e-001

8.93829710457770e+004,-6.18619823705299e-001,-3.76827030002700e-001

9.06307108236633e+004,-6.18623412900336e-001,-3.82080210171922e-001

9.18958683997622e+004,-6.18627086794491e-001,-3.87406450125992e-001

9.31786869174758e+004,-6.18630846952872e-001,-3.92806760202625e-001

9.44794129143618e+004,-6.18634694946338e-001,-3.98282164563528e-001

9.57982963695136e+004,-6.18638632350283e-001,-4.03833701381744e-001

9.71355907516031e+004,-6.18642660742896e-001,-4.09462423034139e-001

9.84915530675926e+004,-6.18646781703930e-001,-4.15169396293315e-001

9.98664439121282e+004,-6.18650996812789e-001,-4.20955702526101e-001

1.01260527517622e+005,-6.18655307646827e-001,-4.26822437893070e-001

1.02674071805032e+005,-6.18659715779796e-001,-4.32770713550485e-001

1.04107348435354e+005,-6.18664222779405e-001,-4.38801655857759e-001

1.05560632861831e+005,-6.18668830205612e-001,-4.44916406586495e-001

1.07034204382888e+005,-6.18673539608622e-001,-4.51116123131466e-001

1.08528346195813e+005,-6.18678352526247e-001,-4.57401978728491e-001

1.10043345451179e+005,-6.18683270481979e-001,-4.63775162672175e-001

1.11579493308032e+005,-6.18688294982339e-001,-4.70236880539523e-001

1.13137084989847e+005,-6.18693427514279e-001,-4.76788354416322e-001

1.14716419841265e+005,-6.18698669542851e-001,-4.83430823126365e-001

1.16317801385624e+005,-6.18704022508097e-001,-4.90165542466221e-001

1.17941537383287e+005,-6.18709487822412e-001,-4.96993785442264e-001

1.19587939890794e+005,-6.18715066867744e-001,-5.03916842511426e-001

1.21257325320831e+005,-6.18720760992003e-001,-5.10936021829198e-001

1.22950014503040e+005,-6.18726571506525e-001,-5.18052649496692e-001

1.24666332745679e+005,-6.18732499682451e-001,-5.25268069815778e-001

1.26406609898139e+005,-6.18738546747476e-001,-5.32583645546852e-001

1.28171180414339e+005,-6.18744713882396e-001,-5.40000758171757e-001

1.29960383416997e+005,-6.18751002217634e-001,-5.47520808160306e-001

1.31774562762811e+005,-6.18757412829342e-001,-5.55145215242792e-001

1.33614067108538e+005,-6.18763946736051e-001,-5.62875418685794e-001

1.35479249978003e+005,-6.18770604894663e-001,-5.70712877572772e-001

1.37370469830040e+005,-6.18777388196599e-001,-5.78659071090904e-001

1.39288090127379e+005,-6.18784297463710e-001,-5.86715498822804e-001

1.41232479406504e+005,-6.18791333444672e-001,-5.94883681040545e-001

1.43204011348474e+005,-6.18798496810387e-001,-6.03165159009037e-001

1.45203064850745e+005,-6.18805788150258e-001,-6.11561495291862e-001

1.47230024099979e+005,-6.18813207967771e-001,-6.20074274063428e-001

1.49285278645888e+005,-6.18820756676337e-001,-6.28705101427023e-001

1.51369223476094e+005,-6.18828434595232e-001,-6.37455605736890e-001

1.53482259092041e+005,-6.18836241944978e-001,-6.46327437928520e-001

1.55624791585964e+005,-6.18844178843404e-001,-6.55322271852420e-001

1.57797232718936e+005,-6.18852245301250e-001,-6.64441804615123e-001

1.59999999999999e+005,-6.18860441217823e-001,-6.73687756925912e-001

1.62233516766403e+005,-6.18868766376815e-001,-6.83061873449277e-001

1.64498212264969e+005,-6.18877220442265e-001,-6.92565923163648e-001

1.66794521734578e+005,-6.18885802954145e-001,-7.02201699727316e-001

1.69122886489819e+005,-6.18894513324479e-001,-7.11971021847925e-001

1.71483754005805e+005,-6.18903350833105e-001,-7.21875733663177e-001

1.73877578004168e+005,-6.18912314624124e-001,-7.31917705121932e-001

1.76304818540256e+005,-6.18921403701536e-001,-7.42098832378126e-001

1.78765942091554e+005,-6.18930616925985e-001,-7.52421038185852e-001

1.81261421647326e+005,-6.18939953011048e-001,-7.62886272304112e-001

1.83791736799524e+005,-6.18949410519687e-001,-7.73496511908051e-001

1.86357373834951e+005,-6.18958987861111e-001,-7.84253762005722e-001

1.88958825828723e+005,-6.18968683287690e-001,-7.95160055862503e-001

1.91596592739027e+005,-6.18978494891867e-001,-8.06217455432820e-001

1.94271181503206e+005,-6.18988420603695e-001,-8.17428051796908e-001

1.96983106135185e+005,-6.18998458188221e-001,-8.28793965606567e-001

1.99732887824256e+005,-6.19008605243194e-001,-8.40317347536090e-001

2.02521055035243e+005,-6.19018859197329e-001,-8.52000378740215e-001

2.05348143610063e+005,-6.19029217308168e-001,-8.63845271321060e-001

2.08214696870707e+005,-6.19039676661004e-001,-8.75854268798399e-001

2.11121265723661e+005,-6.19050234167412e-001,-8.88029646590157e-001

2.14068408765776e+005,-6.19060886564584e-001,-9.00373712496880e-001

2.17056692391625e+005,-6.19071630414553e-001,-9.12888807195534e-001

2.20086690902357e+005,-6.19082462104122e-001,-9.25577304737736e-001

2.23158986616063e+005,-6.19093377844872e-001,-9.38441613056579e-001

2.26274169979693e+005,-6.19104373673395e-001,-9.51484174479576e-001

2.29432839682530e+005,-6.19115445452329e-001,-9.64707466247013e-001

2.32635602771247e+005,-6.19126588871113e-001,-9.78114001039285e-001

2.35883074766574e+005,-6.19137799447780e-001,-9.91706327507882e-001

2.39175879781588e+005,-6.19149072530347e-001,-1.00548703081599e+000

2.42514650641661e+005,-6.19160403299170e-001,-1.01945873318304e+000

2.45900029006080e+005,-6.19171786769401e-001,-1.03362409443655e+000

2.49332665491357e+005,-6.19183217793613e-001,-1.04798581257115e+000

2.52813219796278e+005,-6.19194691065202e-001,-1.06254662431164e+000

2.56342360828676e+005,-6.19206201121579e-001,-1.07730930568546e+000

2.59920766833993e+005,-6.19217742348378e-001,-1.09227667259737e+000

2.63549125525621e+005,-6.19229308983089e-001,-1.10745158141437e+000

2.67228134217075e+005,-6.19240895119769e-001,-1.12283692955423e+000

2.70958499956006e+005,-6.19252494713779e-001,-1.13843565607976e+000

2.74740939660078e+005,-6.19264101586682e-001,-1.15425074230083e+000

2.78576180254757e+005,-6.19275709431391e-001,-1.17028521238154e+000

2.82464958813007e+005,-6.19287311817866e-001,-1.18654213395285e+000

2.86408022696948e+005,-6.19298902198743e-001,-1.20302461873187e+000

2.90406129701488e+005,-6.19310473915141e-001,-1.21973582314727e+000

2.94460048199957e+005,-6.19322020202970e-001,-1.23667894896972e+000

2.98570557291775e+005,-6.19333534198988e-001,-1.25385724394953e+000

3.02738446952187e+005,-6.19345008947345e-001,-1.27127400245952e+000

3.06964518184081e+005,-6.19356437405896e-001,-1.28893256614460e+000

3.11249583171928e+005,-6.19367812453032e-001,-1.30683632457639e+000

3.15594465437872e+005,-6.19379126894098e-001,-1.32498871591592e+000

3.19999999999997e+005,-6.19390373468127e-001,-1.34339322758099e+000

3.24467033532806e+005,-6.19401544854642e-001,-1.36205339692025e+000

3.28996424529938e+005,-6.19412633680088e-001,-1.38097281189525e+000

3.33589043469155e+005,-6.19423632524563e-001,-1.40015511176693e+000

3.38245772979638e+005,-6.19434533928217e-001,-1.41960398779107e+000

3.42967508011610e+005,-6.19445330397889e-001,-1.43932318391854e+000

3.47755156008335e+005,-6.19456014413034e-001,-1.45931649750510e+000

3.52609637080511e+005,-6.19466578432097e-001,-1.47958778002673e+000

3.57531884183106e+005,-6.19477014898327e-001,-1.50014093780315e+000

3.62522843294651e+005,-6.19487316245473e-001,-1.52097993272914e+000

3.67583473599047e+005,-6.19497474903225e-001,-1.54210878301356e+000

3.72714747669902e+005,-6.19507483302442e-001,-1.56353156392720e+000

3.77917651657445e+005,-6.19517333880078e-001,-1.58525240855848e+000

3.83193185478053e+005,-6.19527019083746e-001,-1.60727550857797e+000

3.88542363006410e+005,-6.19536531376004e-001,-1.62960511501214e+000

3.93966212270369e+005,-6.19545863238310e-001,-1.65224553902664e+000

3.99465775648511e+005,-6.19555007174546e-001,-1.67520115271819e+000

4.05042110070485e+005,-6.19563955714261e-001,-1.69847638991773e+000

4.10696287220124e+005,-6.19572701415420e-001,-1.72207574700232e+000

4.16429393741414e+005,-6.19581236866757e-001,-1.74600378371910e+000

4.22242531447321e+005,-6.19589554689815e-001,-1.77026512401820e+000

4.28136817531551e+005,-6.19597647540534e-001,-1.79486445689859e+000

4.34113384783250e+005,-6.19605508110146e-001,-1.81980653726445e+000

4.40173381804713e+005,-6.19613129126140e-001,-1.84509618679282e+000

4.46317973232124e+005,-6.19620503352279e-001,-1.87073829481500e+000

4.52548339959385e+005,-6.19627623588330e-001,-1.89673781920917e+000

4.58865679365059e+005,-6.19634482669636e-001,-1.92309978730541e+000

4.65271205542494e+005,-6.19641073465754e-001,-1.94982929680555e+000

4.71766149533147e+005,-6.19647388878933e-001,-1.97693151671475e+000

4.78351759563174e+005,-6.19653421842154e-001,-2.00441168828775e+000

4.85029301283321e+005,-6.19659165316708e-001,-2.03227512598874e+000

4.91800058012158e+005,-6.19664612289027e-001,-2.06052721846705e+000

4.98665330982714e+005,-6.19669755767640e-001,-2.08917342954529e+000

5.05626439592555e+005,-6.19674588779349e-001,-2.11821929922437e+000

5.12684721657352e+005,-6.19679104364822e-001,-2.14767044470384e+000

5.19841533667984e+005,-6.19683295574339e-001,-2.17753256141669e+000

5.27098251051240e+005,-6.19687155462584e-001,-2.20781142408184e+000

5.34456268434150e+005,-6.19690677083285e-001,-2.23851288777150e+000

5.41916999912011e+005,-6.19693853483597e-001,-2.26964288899632e+000

