Freq.,VOut,OutRef

1.00000000000000e+004,-1.93154322826423e+001,-2.78718249190493e-001

1.01395947979003e+004,-1.93154359299347e+001,-2.82608371138648e-001

1.02811382665607e+004,-1.93154396795916e+001,-2.86552770033309e-001

1.04246576084112e+004,-1.93154435344813e+001,-2.90552202400847e-001

1.05701804056138e+004,-1.93154474975515e+001,-2.94607435283348e-001

1.07177346253629e+004,-1.93154515718325e+001,-2.98719246377398e-001

1.08673486252606e+004,-1.93154557604391e+001,-3.02888424184282e-001

1.10190511587661e+004,-1.93154600665731e+001,-3.07115768156876e-001

1.11728713807222e+004,-1.93154644935255e+001,-3.11402088849526e-001

1.13288388529580e+004,-1.93154690446792e+001,-3.15748208073266e-001

1.14869835499703e+004,-1.93154737235111e+001,-3.20154959049042e-001

1.16473358646846e+004,-1.93154785335955e+001,-3.24623186562216e-001

1.18099266142953e+004,-1.93154834786059e+001,-3.29153747125193e-001

1.19747870461893e+004,-1.93154885623184e+001,-3.33747509135530e-001

1.21419488439505e+004,-1.93154937886139e+001,-3.38405353040569e-001

1.23114441334492e+004,-1.93154991614821e+001,-3.43128171499795e-001

1.24833054890161e+004,-1.93155046850230e+001,-3.47916869555507e-001

1.26575659397028e+004,-1.93155103634510e+001,-3.52772364800792e-001

1.28342589756290e+004,-1.93155162010980e+001,-3.57695587550529e-001

1.30134185544193e+004,-1.93155222024159e+001,-3.62687481016554e-001

1.31950791077289e+004,-1.93155283719808e+001,-3.67749001482778e-001

1.33792755478611e+004,-1.93155347144959e+001,-3.72881118485053e-001

1.35660432744767e+004,-1.93155412347951e+001,-3.78084814990208e-001

1.37554181813974e+004,-1.93155479378465e+001,-3.83361087580981e-001

1.39474366635040e+004,-1.93155548287560e+001,-3.88710946642258e-001

1.41421356237309e+004,-1.93155619127718e+001,-3.94135416544833e-001

1.43395524801583e+004,-1.93155691952873e+001,-3.99635535841121e-001

1.45397251732031e+004,-1.93155766818455e+001,-4.05212357455616e-001

1.47426921729110e+004,-1.93155843781433e+001,-4.10866948879595e-001

1.49484924863494e+004,-1.93155922900355e+001,-4.16600392368970e-001

1.51571656651040e+004,-1.93156004235391e+001,-4.22413785147170e-001

1.53687518128801e+004,-1.93156087848375e+001,-4.28308239605991e-001

1.55832915932100e+004,-1.93156173802857e+001,-4.34284883510452e-001

1.58008262372675e+004,-1.93156262164144e+001,-4.40344860209655e-001

1.60213975517924e+004,-1.93156352999348e+001,-4.46489328845146e-001

1.62450479271247e+004,-1.93156446377438e+001,-4.52719464564831e-001

1.64718203453514e+004,-1.93156542369290e+001,-4.59036458740734e-001

1.67017583885674e+004,-1.93156641047735e+001,-4.65441519185819e-001

1.69349062472505e+004,-1.93156742487617e+001,-4.71935870377186e-001

1.71713087287550e+004,-1.93156846765843e+001,-4.78520753679225e-001

1.74110112659224e+004,-1.93156953961444e+001,-4.85197427571497e-001

1.76540599258131e+004,-1.93157064155627e+001,-4.91967167879105e-001

1.79005014185594e+004,-1.93157177431836e+001,-4.98831268004390e-001

1.81503831063432e+004,-1.93157293875814e+001,-5.05791039163893e-001

1.84037530124975e+004,-1.93157413575665e+001,-5.12847810625211e-001

1.86606598307361e+004,-1.93157536621909e+001,-5.20002929951870e-001

1.89211529345119e+004,-1.93157663107561e+001,-5.27257763243449e-001

1.91852823865052e+004,-1.93157793128187e+001,-5.34613695386172e-001

1.94530989482457e+004,-1.93157926781976e+001,-5.42072130302906e-001

1.97246540898671e+004,-1.93158064169813e+001,-5.49634491204438e-001

1.99999999999999e+004,-1.93158205395344e+001,-5.57302220848571e-001

2.02791895958005e+004,-1.93158350565055e+001,-5.65076781799099e-001

2.05622765331213e+004,-1.93158499788348e+001,-5.72959656687182e-001

2.08493152168224e+004,-1.93158653177616e+001,-5.80952348477835e-001

2.11403608112276e+004,-1.93158810848321e+001,-5.89056380739610e-001

2.14354692507258e+004,-1.93158972919081e+001,-5.97273297914390e-001

2.17346972505211e+004,-1.93159139511748e+001,-6.05604665595005e-001

2.20381023175322e+004,-1.93159310751496e+001,-6.14052070801950e-001

2.23457427614443e+004,-1.93159486766907e+001,-6.22617122265867e-001

2.26576777059159e+004,-1.93159667690061e+001,-6.31301450711512e-001

2.29739670999406e+004,-1.93159853656631e+001,-6.40106709145277e-001

2.32946717293690e+004,-1.93160044805973e+001,-6.49034573148657e-001

2.36198532285905e+004,-1.93160241281223e+001,-6.58086741170464e-001

2.39495740923785e+004,-1.93160443229397e+001,-6.67264934825252e-001

2.42838976879009e+004,-1.93160650801490e+001,-6.76570899195995e-001

2.46228882668982e+004,-1.93160864152584e+001,-6.86006403135477e-001

2.49666109780322e+004,-1.93161083441947e+001,-6.95573239576657e-001

2.53151318794055e+004,-1.93161308833146e+001,-7.05273225842675e-001

2.56685179512580e+004,-1.93161540494158e+001,-7.15108203960804e-001

2.60268371088386e+004,-1.93161778597479e+001,-7.25080040981191e-001

2.63901582154578e+004,-1.93162023320244e+001,-7.35190629297974e-001

2.67585510957221e+004,-1.93162274844344e+001,-7.45441886972928e-001

2.71320865489533e+004,-1.93162533356550e+001,-7.55835758063166e-001

2.75108363627948e+004,-1.93162799048633e+001,-7.66374212954188e-001

2.78948733270080e+004,-1.93163072117489e+001,-7.77059248692850e-001

2.82842712474618e+004,-1.93163352765279e+001,-7.87892889325517e-001

2.86791049603164e+004,-1.93163641199548e+001,-7.98877186240170e-001

2.90794503464061e+004,-1.93163937633370e+001,-8.10014218511541e-001

2.94853843458219e+004,-1.93164242285482e+001,-8.21306093247147e-001

2.98969849726987e+004,-1.93164555380426e+001,-8.32754945941486e-001

3.03143313302078e+004,-1.93164877148692e+001,-8.44362940829991e-001

3.07375036257601e+004,-1.93165207826870e+001,-8.56132271245500e-001

3.11665831864199e+004,-1.93165547657792e+001,-8.68065159983296e-001

3.16016524745350e+004,-1.93165896890692e+001,-8.80163859663141e-001

3.20427951035848e+004,-1.93166255781361e+001,-8.92430653098559e-001

3.24900958542493e+004,-1.93166624592303e+001,-9.04867853669426e-001

3.29436406907028e+004,-1.93167003592902e+001,-9.17477805696152e-001

3.34035167771346e+004,-1.93167393059586e+001,-9.30262884816507e-001

3.38698124945009e+004,-1.93167793275996e+001,-9.43225498369489e-001

3.43426174575100e+004,-1.93168204533157e+001,-9.56368085778007e-001

3.48220225318448e+004,-1.93168627129655e+001,-9.69693118937918e-001

3.53081198516260e+004,-1.93169061371816e+001,-9.83203102609090e-001

3.58010028371187e+004,-1.93169507573885e+001,-9.96900574809218e-001

3.63007662126863e+004,-1.93169966058214e+001,-1.01078810721022e+000

3.68075060249948e+004,-1.93170437155447e+001,-1.02486830554096e+000

3.73213196614721e+004,-1.93170921204717e+001,-1.03914380998848e+000

3.78423058690237e+004,-1.93171418553830e+001,-1.05361729560667e+000

3.83705647730104e+004,-1.93171929559475e+001,-1.06829147272278e+000

3.89061978964912e+004,-1.93172454587415e+001,-1.08316908735367e+000

3.94493081797342e+004,-1.93172994012698e+001,-1.09825292161673e+000

3.99999999999998e+004,-1.93173548219856e+001,-1.11354579415203e+000

4.05583791916010e+004,-1.93174117603120e+001,-1.12905056054151e+000

4.11245530662425e+004,-1.93174702566634e+001,-1.14477011373112e+000

4.16986304336447e+004,-1.93175303524666e+001,-1.16070738446026e+000

4.22807216224550e+004,-1.93175920901827e+001,-1.17686534168863e+000

4.28709385014515e+004,-1.93176555133295e+001,-1.19324699302893e+000

4.34693945010421e+004,-1.93177206665038e+001,-1.20985538517978e+000

4.40762046350642e+004,-1.93177875954033e+001,-1.22669360436408e+000

4.46914855228886e+004,-1.93178563468504e+001,-1.24376477676652e+000

4.53153554118317e+004,-1.93179269688149e+001,-1.26107206897515e+000

4.59479341998812e+004,-1.93179995104370e+001,-1.27861868842565e+000

4.65893434587380e+004,-1.93180740220510e+001,-1.29640788384688e+000

4.72397064571810e+004,-1.93181505552090e+001,-1.31444294570903e+000

4.78991481847569e+004,-1.93182291627046e+001,-1.33272720667292e+000

4.85677953758016e+004,-1.93183098985967e+001,-1.35126404204383e+000

4.92457765337964e+004,-1.93183928182339e+001,-1.37005687022416e+000

4.99332219560642e+004,-1.93184779782785e+001,-1.38910915316933e+000

5.06302637588109e+004,-1.93185654367305e+001,-1.40842439684750e+000

5.13370359025159e+004,-1.93186552529525e+001,-1.42800615169652e+000

5.20536742176771e+004,-1.93187474876932e+001,-1.44785801308841e+000

5.27803164309155e+004,-1.93188422031125e+001,-1.46798362178939e+000

5.35171021914442e+004,-1.93189394628051e+001,-1.48838666442673e+000

5.42641730979066e+004,-1.93190393318252e+001,-1.50907087395356e+000

5.50216727255895e+004,-1.93191418767104e+001,-1.53004003011744e+000

5.57897466540159e+004,-1.93192471655055e+001,-1.55129795992996e+000

5.65685424949235e+004,-1.93193552677865e+001,-1.57284853813564e+000

5.73582099206328e+004,-1.93194662546840e+001,-1.59469568768585e+000

5.81589006928121e+004,-1.93195801989066e+001,-1.61684338021120e+000

5.89707686916437e+004,-1.93196971747637e+001,-1.63929563649656e+000

5.97939699453972e+004,-1.93198172581882e+001,-1.66205652695741e+000

6.06286626604156e+004,-1.93199405267588e+001,-1.68513017211644e+000

6.14750072515201e+004,-1.93200670597213e+001,-1.70852074308470e+000

6.23331663728396e+004,-1.93201969380103e+001,-1.73223246203864e+000

6.32033049490698e+004,-1.93203302442696e+001,-1.75626960270386e+000

6.40855902071694e+004,-1.93204670628720e+001,-1.78063649083831e+000

6.49801917084985e+004,-1.93206074799387e+001,-1.80533750471598e+000

6.58872813814055e+004,-1.93207515833580e+001,-1.83037707561346e+000

6.68070335542691e+004,-1.93208994628023e+001,-1.85575968829898e+000

6.77396249890018e+004,-1.93210512097455e+001,-1.88148988152068e+000

6.86852349150199e+004,-1.93212069174783e+001,-1.90757224849918e+000

6.96440450636895e+004,-1.93213666811230e+001,-1.93401143742230e+000

7.06162397032520e+004,-1.93215305976468e+001,-1.96081215193957e+000

7.16020056742374e+004,-1.93216987658742e+001,-1.98797915166264e+000

7.26015324253724e+004,-1.93218712864980e+001,-2.01551725266616e+000

7.36150120499896e+004,-1.93220482620881e+001,-2.04343132799252e+000

7.46426393229441e+004,-1.93222297971007e+001,-2.07172630815974e+000

7.56846117380472e+004,-1.93224159978834e+001,-2.10040718167337e+000

7.67411295460207e+004,-1.93226069726807e+001,-2.12947899554141e+000

7.78123957929823e+004,-1.93228028316365e+001,-2.15894685579585e+000

7.88986163594682e+004,-1.93230036867949e+001,-2.18881592801672e+000

7.99999999999995e+004,-1.93232096520997e+001,-2.21909143786211e+000

8.11167583832018e+004,-1.93234208433907e+001,-2.24977867160606e+000

8.22491061324848e+004,-1.93236373783985e+001,-2.28088297668039e+000

8.33972608672892e+004,-1.93238593767365e+001,-2.31240976222471e+000

8.45614432449099e+004,-1.93240869598912e+001,-2.34436449964543e+000

8.57418770029029e+004,-1.93243202512093e+001,-2.37675272318077e+000

8.69387890020841e+004,-1.93245593758817e+001,-2.40958003047808e+000

8.81524092701283e+004,-1.93248044609265e+001,-2.44285208317914e+000

8.93829710457770e+004,-1.93250556351666e+001,-2.47657460751763e+000

9.06307108236633e+004,-1.93253130292070e+001,-2.51075339492852e+000

9.18958683997622e+004,-1.93255767754064e+001,-2.54539430267121e+000

9.31786869174758e+004,-1.93258470078477e+001,-2.58050325446560e+000

9.44794129143618e+004,-1.93261238623040e+001,-2.61608624114591e+000

9.57982963695136e+004,-1.93264074762013e+001,-2.65214932132834e+000

9.71355907516031e+004,-1.93266979885783e+001,-2.68869862209979e+000

9.84915530675926e+004,-1.93269955400420e+001,-2.72574033972397e+000

9.98664439121282e+004,-1.93273002727197e+001,-2.76328074036962e+000

1.01260527517622e+005,-1.93276123302074e+001,-2.80132616086120e+000

1.02674071805032e+005,-1.93279318575143e+001,-2.83988300945280e+000

1.04107348435354e+005,-1.93282590010035e+001,-2.87895776662993e+000

1.05560632861831e+005,-1.93285939083280e+001,-2.91855698593733e+000

1.07034204382888e+005,-1.93289367283641e+001,-2.95868729483758e+000

1.08528346195813e+005,-1.93292876111392e+001,-2.99935539560064e+000

1.10043345451179e+005,-1.93296467077566e+001,-3.04056806622815e+000

1.11579493308032e+005,-1.93300141703155e+001,-3.08233216141206e+000

1.13137084989847e+005,-1.93303901518276e+001,-3.12465461353228e+000

1.14716419841265e+005,-1.93307748061288e+001,-3.16754243369584e+000

1.16317801385624e+005,-1.93311682877877e+001,-3.21100271281590e+000

1.17941537383287e+005,-1.93315707520089e+001,-3.25504262273967e+000

1.19587939890794e+005,-1.93319823545340e+001,-3.29966941741989e+000

1.21257325320831e+005,-1.93324032515374e+001,-3.34489043414087e+000

1.22950014503040e+005,-1.93328335995188e+001,-3.39071309479338e+000

1.24666332745679e+005,-1.93332735551919e+001,-3.43714490720907e+000

1.26406609898139e+005,-1.93337232753704e+001,-3.48419346654957e+000

1.28171180414339e+005,-1.93341829168495e+001,-3.53186645675921e+000

1.29960383416997e+005,-1.93346526362855e+001,-3.58017165208022e+000

1.31774562762811e+005,-1.93351325900715e+001,-3.62911691863558e+000

1.33614067108538e+005,-1.93356229342112e+001,-3.67871021608069e+000

1.35479249978003e+005,-1.93361238241903e+001,-3.72895959932729e+000

1.37370469830040e+005,-1.93366354148459e+001,-3.77987322034299e+000

1.39288090127379e+005,-1.93371578602337e+001,-3.83145933002820e+000

1.41232479406504e+005,-1.93376913134949e+001,-3.88372628017472e+000

1.43204011348474e+005,-1.93382359267217e+001,-3.93668252550617e+000

1.45203064850745e+005,-1.93387918508220e+001,-3.99033662580547e+000

1.47230024099979e+005,-1.93393592353855e+001,-4.04469724813069e+000

1.49285278645888e+005,-1.93399382285486e+001,-4.09977316912163e+000

1.51369223476094e+005,-1.93405289768621e+001,-4.15557327740030e+000

1.53482259092041e+005,-1.93411316251594e+001,-4.21210657606576e+000

1.55624791585964e+005,-1.93417463164278e+001,-4.26938218528803e+000

1.57797232718936e+005,-1.93423731916826e+001,-4.32740934500022e+000

1.59999999999999e+005,-1.93430123898441e+001,-4.38619741769265e+000

1.62233516766403e+005,-1.93436640476205e+001,-4.44575589130930e+000

1.64498212264969e+005,-1.93443282993940e+001,-4.50609438224793e+000

1.66794521734578e+005,-1.93450052771147e+001,-4.56722263846576e+000

1.69122886489819e+005,-1.93456951101993e+001,-4.62915054269080e+000

1.71483754005805e+005,-1.93463979254387e+001,-4.69188811573818e+000

1.73877578004168e+005,-1.93471138469131e+001,-4.75544551993486e+000

1.76304818540256e+005,-1.93478429959166e+001,-4.81983306264877e+000

1.78765942091554e+005,-1.93485854908915e+001,-4.88506119992496e+000

1.81261421647326e+005,-1.93493414473741e+001,-4.95114054022589e+000

1.83791736799524e+005,-1.93501109779513e+001,-5.01808184827581e+000

1.86357373834951e+005,-1.93508941922313e+001,-5.08589604900764e+000

1.88958825828723e+005,-1.93516911968266e+001,-5.15459423160988e+000

1.91596592739027e+005,-1.93525020953523e+001,-5.22418765367053e+000

1.94271181503206e+005,-1.93533269884396e+001,-5.29468774541803e+000

1.96983106135185e+005,-1.93541659737655e+001,-5.36610611405319e+000

1.99732887824256e+005,-1.93550191460999e+001,-5.43845454816888e+000

2.02521055035243e+005,-1.93558865973706e+001,-5.51174502225624e+000

2.05348143610063e+005,-1.93567684167473e+001,-5.58598970128810e+000

2.08214696870707e+005,-1.93576646907448e+001,-5.66120094538094e+000

2.11121265723661e+005,-1.93585755033473e+001,-5.73739131452440e+000

2.14068408765776e+005,-1.93595009361536e+001,-5.81457357337632e+000

2.17056692391625e+005,-1.93604410685436e+001,-5.89276069611653e+000

2.20086690902357e+005,-1.93613959778683e+001,-5.97196587135212e+000

2.23158986616063e+005,-1.93623657396616e+001,-6.05220250706975e+000

2.26274169979693e+005,-1.93633504278770e+001,-6.13348423562420e+000

2.29432839682530e+005,-1.93643501151467e+001,-6.21582491876049e+000

2.32635602771247e+005,-1.93653648730669e+001,-6.29923865265890e+000

2.35883074766574e+005,-1.93663947725061e+001,-6.38373977299586e+000

2.39175879781588e+005,-1.93674398839395e+001,-6.46934286001312e+000

2.42514650641661e+005,-1.93685002778076e+001,-6.55606274358698e+000

2.45900029006080e+005,-1.93695760249010e+001,-6.64391450828926e+000

2.49332665491357e+005,-1.93706671967693e+001,-6.73291349843180e+000

2.52813219796278e+005,-1.93717738661554e+001,-6.82307532308566e+000

2.56342360828676e+005,-1.93728961074550e+001,-6.91441586106731e+000

2.59920766833993e+005,-1.93740339972003e+001,-7.00695126588344e+000

2.63549125525621e+005,-1.93751876145684e+001,-7.10069797062567e+000

2.67228134217075e+005,-1.93763570419127e+001,-7.19567269280766e+000

2.70958499956006e+005,-1.93775423653183e+001,-7.29189243913663e+000

2.74740939660078e+005,-1.93787436751800e+001,-7.38937451021126e+000

2.78576180254757e+005,-1.93799610668019e+001,-7.48813650513953e+000

2.82464958813007e+005,-1.93811946410186e+001,-7.58819632606839e+000

2.86408022696948e+005,-1.93824445048366e+001,-7.68957218261922e+000

2.90406129701488e+005,-1.93837107720949e+001,-7.79228259622315e+000

2.94460048199957e+005,-1.93849935641450e+001,-7.89634640435039e+000

2.98570557291775e+005,-1.93862930105470e+001,-8.00178276462631e+000

3.02738446952187e+005,-1.93876092497836e+001,-8.10861115883323e+000

3.06964518184081e+005,-1.93889424299879e+001,-8.21685139679008e+000

3.11249583171928e+005,-1.93902927096865e+001,-8.32652362010885e+000

3.15594465437872e+005,-1.93916602585546e+001,-8.43764830582212e+000

3.19999999999997e+005,-1.93930452581833e+001,-8.55024626988315e+000

3.24467033532806e+005,-1.93944479028572e+001,-8.66433867053118e+000

3.28996424529938e+005,-1.93958684003408e+001,-8.77994701152608e+000

3.33589043469155e+005,-1.93973069726737e+001,-8.89709314524851e+000

3.38245772979638e+005,-1.93987638569714e+001,-9.01579927566598e+000

3.42967508011610e+005,-1.94002393062322e+001,-9.13608796116728e+000

3.47755156008335e+005,-1.94017335901484e+001,-9.25798211726329e+000

3.52609637080511e+005,-1.94032469959204e+001,-9.38150501915947e+000

3.57531884183106e+005,-1.94047798290725e+001,-9.50668030419932e+000

3.62522843294651e+005,-1.94063324142700e+001,-9.63353197418456e+000

3.67583473599047e+005,-1.94079050961357e+001,-9.76208439757306e+000

3.72714747669902e+005,-1.94094982400659e+001,-9.89236231155960e+000

3.77917651657445e+005,-1.94111122330434e+001,-1.00243908240442e+001

3.83193185478053e+005,-1.94127474844484e+001,-1.01581954154912e+001

3.88542363006410e+005,-1.94144044268650e+001,-1.02938019406867e+001

3.93966212270369e+005,-1.94160835168838e+001,-1.04312366303975e+001

3.99465775648511e+005,-1.94177852358998e+001,-1.05705260929375e+001

4.05042110070485e+005,-1.94195100909036e+001,-1.07116973156496e+001

4.10696287220124e+005,-1.94212586152679e+001,-1.08547776663075e+001

4.16429393741414e+005,-1.94230313695270e+001,-1.09997948944419e+001

4.22242531447321e+005,-1.94248289421498e+001,-1.11467771326030e+001

4.28136817531551e+005,-1.94266519503063e+001,-1.12957528975586e+001

4.34113384783250e+005,-1.94285010406270e+001,-1.14467510914401e+001

4.40173381804713e+005,-1.94303768899556e+001,-1.15998010028384e+001

4.46317973232124e+005,-1.94322802060948e+001,-1.17549323078589e+001

4.52548339959385e+005,-1.94342117285458e+001,-1.19121750711396e+001

4.58865679365059e+005,-1.94361722292414e+001,-1.20715597468383e+001

4.65271205542494e+005,-1.94381625132730e+001,-1.22331171795953e+001

4.71766149533147e+005,-1.94401834196121e+001,-1.23968786054766e+001

4.78351759563174e+005,-1.94422358218269e+001,-1.25628756529006e+001

4.85029301283321e+005,-1.94443206287942e+001,-1.27311403435563e+001

4.91800058012158e+005,-1.94464387854071e+001,-1.29017050933128e+001

4.98665330982714e+005,-1.94485912732803e+001,-1.30746027131277e+001

5.05626439592555e+005,-1.94507791114517e+001,-1.32498664099551e+001

5.12684721657352e+005,-1.94530033570833e+001,-1.34275297876571e+001

5.19841533667984e+005,-1.94552651061603e+001,-1.36076268479197e+001

5.27098251051240e+005,-1.94575654941905e+001,-1.37901919911767e+001

5.34456268434150e+005,-1.94599056969043e+001,-1.39752600175411e+001

5.41916999912011e+005,-1.94622869309560e+001,-1.41628661277454e+001

