Freq.,VOut,OutRef

1.00000000000000e+004,-6.50652866617243e+000,-1.01970235957819e-001

1.01395947979003e+004,-6.50652916076537e+000,-1.03393564025618e-001

1.02811382665607e+004,-6.50652966922901e+000,-1.04836755781369e-001

1.04246576084112e+004,-6.50653019195156e+000,-1.06300088288881e-001

1.05701804056138e+004,-6.50653072933162e+000,-1.07783842472929e-001

1.07177346253629e+004,-6.50653128177918e+000,-1.09288303168130e-001

1.08673486252606e+004,-6.50653184971573e+000,-1.10813759174747e-001

1.10190511587661e+004,-6.50653243357421e+000,-1.12360503315100e-001

1.11728713807222e+004,-6.50653303379973e+000,-1.13928832487719e-001

1.13288388529580e+004,-6.50653365084937e+000,-1.15519047726157e-001

1.14869835499703e+004,-6.50653428519371e+000,-1.17131454249921e-001

1.16473358646846e+004,-6.50653493731580e+000,-1.18766361529636e-001

1.18099266142953e+004,-6.50653560771219e+000,-1.20424083343057e-001

1.19747870461893e+004,-6.50653629689340e+000,-1.22104937832607e-001

1.21419488439505e+004,-6.50653700538387e+000,-1.23809247570003e-001

1.23114441334492e+004,-6.50653773372251e+000,-1.25537339615041e-001

1.24833054890161e+004,-6.50653848246371e+000,-1.27289545573988e-001

1.26575659397028e+004,-6.50653925217664e+000,-1.29066201670431e-001

1.28342589756290e+004,-6.50654004344648e+000,-1.30867648803083e-001

1.30134185544193e+004,-6.50654085687471e+000,-1.32694232611027e-001

1.31950791077289e+004,-6.50654169307897e+000,-1.34546303543409e-001

1.33792755478611e+004,-6.50654255269477e+000,-1.36424216917835e-001

1.35660432744767e+004,-6.50654343637429e+000,-1.38328332997420e-001

1.37554181813974e+004,-6.50654434478857e+000,-1.40259017048976e-001

1.39474366635040e+004,-6.50654527862680e+000,-1.42216639418922e-001

1.41421356237309e+004,-6.50654623859684e+000,-1.44201575603929e-001

1.43395524801583e+004,-6.50654722542682e+000,-1.46214206313903e-001

1.45397251732031e+004,-6.50654823986425e+000,-1.48254917554120e-001

1.47426921729110e+004,-6.50654928267781e+000,-1.50324100689041e-001

1.49484924863494e+004,-6.50655035465698e+000,-1.52422152522498e-001

1.51571656651040e+004,-6.50655145661286e+000,-1.54549475371114e-001

1.53687518128801e+004,-6.50655258937959e+000,-1.56706477134323e-001

1.55832915932100e+004,-6.50655375381345e+000,-1.58893571381205e-001

1.58008262372675e+004,-6.50655495079448e+000,-1.61111177420687e-001

1.60213975517924e+004,-6.50655618122717e+000,-1.63359720382631e-001

1.62450479271247e+004,-6.50655744604020e+000,-1.65639631300185e-001

1.64718203453514e+004,-6.50655874618860e+000,-1.67951347183987e-001

1.67017583885674e+004,-6.50656008265280e+000,-1.70295311113377e-001

1.69349062472505e+004,-6.50656145644049e+000,-1.72671972312052e-001

1.71713087287550e+004,-6.50656286858679e+000,-1.75081786235786e-001

1.74110112659224e+004,-6.50656432015497e+000,-1.77525214658210e-001

1.76540599258131e+004,-6.50656581223763e+000,-1.80002725754583e-001

1.79005014185594e+004,-6.50656734595705e+000,-1.82514794191168e-001

1.81503831063432e+004,-6.50656892246610e+000,-1.85061901214671e-001

1.84037530124975e+004,-6.50657054294914e+000,-1.87644534740352e-001

1.86606598307361e+004,-6.50657220862275e+000,-1.90263189443854e-001

1.89211529345119e+004,-6.50657392073648e+000,-1.92918366854463e-001

1.91852823865052e+004,-6.50657568057390e+000,-1.95610575447469e-001

1.94530989482457e+004,-6.50657748945354e+000,-1.98340330738534e-001

1.97246540898671e+004,-6.50657934872949e+000,-2.01108155380920e-001

1.99999999999999e+004,-6.50658125979266e+000,-2.03914579261477e-001

2.02791895958005e+004,-6.50658322407146e+000,-2.06760139599712e-001

2.05622765331213e+004,-6.50658524303311e+000,-2.09645381046875e-001

2.08493152168224e+004,-6.50658731818448e+000,-2.12570855786242e-001

2.11403608112276e+004,-6.50658945107256e+000,-2.15537123640339e-001

2.14354692507258e+004,-6.50659164328653e+000,-2.18544752166774e-001

2.17346972505211e+004,-6.50659389645817e+000,-2.21594316768371e-001

2.20381023175322e+004,-6.50659621226310e+000,-2.24686400798056e-001

2.23457427614443e+004,-6.50659859242181e+000,-2.27821595666344e-001

2.26576777059159e+004,-6.50660103870113e+000,-2.31000500949520e-001

2.29739670999406e+004,-6.50660355291477e+000,-2.34223724503076e-001

2.32946717293690e+004,-6.50660613692519e+000,-2.37491882568934e-001

2.36198532285905e+004,-6.50660879264452e+000,-2.40805599891720e-001

2.39495740923785e+004,-6.50661152203557e+000,-2.44165509832910e-001

2.42838976879009e+004,-6.50661432711374e+000,-2.47572254485308e-001

2.46228882668982e+004,-6.50661720994775e+000,-2.51026484791150e-001

2.49666109780322e+004,-6.50662017266096e+000,-2.54528860663607e-001

2.53151318794055e+004,-6.50662321743324e+000,-2.58080051102497e-001

2.56685179512580e+004,-6.50662634650186e+000,-2.61680734319590e-001

2.60268371088386e+004,-6.50662956216303e+000,-2.65331597861086e-001

2.63901582154578e+004,-6.50663286677363e+000,-2.69033338730886e-001

2.67585510957221e+004,-6.50663626275204e+000,-2.72786663521475e-001

2.71320865489533e+004,-6.50663975258029e+000,-2.76592288535762e-001

2.75108363627948e+004,-6.50664333880538e+000,-2.80450939920677e-001

2.78948733270080e+004,-6.50664702404054e+000,-2.84363353798178e-001

2.82842712474618e+004,-6.50665081096728e+000,-2.88330276395240e-001

2.86791049603164e+004,-6.50665470233671e+000,-2.92352464180501e-001

2.90794503464061e+004,-6.50665870097108e+000,-2.96430684000641e-001

2.94853843458219e+004,-6.50666280976586e+000,-3.00565713214732e-001

2.98969849726987e+004,-6.50666703169093e+000,-3.04758339836999e-001

3.03143313302078e+004,-6.50667136979299e+000,-3.09009362673345e-001

3.07375036257601e+004,-6.50667582719648e+000,-3.13319591468756e-001

3.11665831864199e+004,-6.50668040710595e+000,-3.17689847047835e-001

3.16016524745350e+004,-6.50668511280755e+000,-3.22120961462382e-001

3.20427951035848e+004,-6.50668994767143e+000,-3.26613778136102e-001

3.24900958542493e+004,-6.50669491515264e+000,-3.31169152018627e-001

3.29436406907028e+004,-6.50670001879386e+000,-3.35787949731919e-001

3.34035167771346e+004,-6.50670526222728e+000,-3.40471049723221e-001

3.38698124945009e+004,-6.50671064917582e+000,-3.45219342423497e-001

3.43426174575100e+004,-6.50671618345580e+000,-3.50033730399356e-001

3.48220225318448e+004,-6.50672186897878e+000,-3.54915128511898e-001

3.53081198516260e+004,-6.50672770975331e+000,-3.59864464078059e-001

3.58010028371187e+004,-6.50673370988716e+000,-3.64882677030251e-001

3.63007662126863e+004,-6.50673987358961e+000,-3.69970720079128e-001

3.68075060249948e+004,-6.50674620517286e+000,-3.75129558882009e-001

3.73213196614721e+004,-6.50675270905494e+000,-3.80360172204565e-001

3.78423058690237e+004,-6.50675938976108e+000,-3.85663552094671e-001

3.83705647730104e+004,-6.50676625192612e+000,-3.91040704050359e-001

3.89061978964912e+004,-6.50677330029692e+000,-3.96492647190785e-001

3.94493081797342e+004,-6.50678053973412e+000,-4.02020414433310e-001

3.99999999999998e+004,-6.50678797521431e+000,-4.07625052668476e-001

4.05583791916010e+004,-6.50679561183228e+000,-4.13307622937754e-001

4.11245530662425e+004,-6.50680345480322e+000,-4.19069200613367e-001

4.16986304336447e+004,-6.50681150946467e+000,-4.24910875580915e-001

4.22807216224550e+004,-6.50681978127895e+000,-4.30833752421381e-001

4.28709385014515e+004,-6.50682827583523e+000,-4.36838950597078e-001

4.34693945010421e+004,-6.50683699885127e+000,-4.42927604641627e-001

4.40762046350642e+004,-6.50684595617615e+000,-4.49100864345522e-001

4.46914855228886e+004,-6.50685515379180e+000,-4.55359894951015e-001

4.53153554118317e+004,-6.50686459781541e+000,-4.61705877342879e-001

4.59479341998812e+004,-6.50687429450151e+000,-4.68140008244294e-001

4.65893434587380e+004,-6.50688425024363e+000,-4.74663500415423e-001

4.72397064571810e+004,-6.50689447157672e+000,-4.81277582850171e-001

4.78991481847569e+004,-6.50690496517886e+000,-4.87983500979427e-001

4.85677953758016e+004,-6.50691573787292e+000,-4.94782516873914e-001

4.92457765337964e+004,-6.50692679662883e+000,-5.01675909448907e-001

4.99332219560642e+004,-6.50693814856506e+000,-5.08664974671110e-001

5.06302637588109e+004,-6.50694980095046e+000,-5.15751025768142e-001

5.13370359025159e+004,-6.50696176120574e+000,-5.22935393440922e-001

5.20536742176771e+004,-6.50697403690516e+000,-5.30219426074998e-001

5.27803164309155e+004,-6.50698663577783e+000,-5.37604489958157e-001

5.35171021914442e+004,-6.50699956570911e+000,-5.45091969496302e-001

5.42641730979066e+004,-6.50701283474193e+000,-5.52683267433787e-001

5.50216727255895e+004,-6.50702645107806e+000,-5.60379805073478e-001

5.57897466540159e+004,-6.50704042307836e+000,-5.68183022504825e-001

5.65685424949235e+004,-6.50705475926474e+000,-5.76094378823827e-001

5.73582099206328e+004,-6.50706946831984e+000,-5.84115352367263e-001

5.81589006928121e+004,-6.50708455908830e+000,-5.92247440938240e-001

5.89707686916437e+004,-6.50710004057667e+000,-6.00492162041713e-001

5.97939699453972e+004,-6.50711592195384e+000,-6.08851053118133e-001

6.06286626604156e+004,-6.50713221255082e+000,-6.17325671781258e-001

6.14750072515201e+004,-6.50714892186083e+000,-6.25917596055808e-001

6.23331663728396e+004,-6.50716605953850e+000,-6.34628424621656e-001

6.32033049490698e+004,-6.50718363539905e+000,-6.43459777058222e-001

6.40855902071694e+004,-6.50720165941794e+000,-6.52413294087090e-001

6.49801917084985e+004,-6.50722014172904e+000,-6.61490637825423e-001

6.58872813814055e+004,-6.50723909262318e+000,-6.70693492036387e-001

6.68070335542691e+004,-6.50725852254668e+000,-6.80023562380962e-001

6.77396249890018e+004,-6.50727844209866e+000,-6.89482576678567e-001

6.86852349150199e+004,-6.50729886202888e+000,-6.99072285163321e-001

6.96440450636895e+004,-6.50731979323459e+000,-7.08794460748425e-001

7.06162397032520e+004,-6.50734124675755e+000,-7.18650899289454e-001

7.16020056742374e+004,-6.50736323378008e+000,-7.28643419853325e-001

7.26015324253724e+004,-6.50738576562101e+000,-7.38773864989114e-001

7.36150120499896e+004,-6.50740885373101e+000,-7.49044101002957e-001

7.46426393229441e+004,-6.50743250968799e+000,-7.59456018231913e-001

7.56846117380472e+004,-6.50745674519074e+000,-7.70011531329369e-001

7.67411295460207e+004,-6.50748157205361e+000,-7.80712579544758e-001

7.78123957929823e+004,-6.50750700219949e+000,-7.91561127012580e-001

7.88986163594682e+004,-6.50753304765257e+000,-8.02559163043988e-001

7.99999999999995e+004,-6.50755972053092e+000,-8.13708702419664e-001

8.11167583832018e+004,-6.50758703303751e+000,-8.25011785690393e-001

8.22491061324848e+004,-6.50761499745153e+000,-8.36470479478637e-001

8.33972608672892e+004,-6.50764362611841e+000,-8.48086876786317e-001

8.45614432449099e+004,-6.50767293143956e+000,-8.59863097304606e-001

8.57418770029029e+004,-6.50770292586074e+000,-8.71801287732802e-001

8.69387890020841e+004,-6.50773362186060e+000,-8.83903622095707e-001

8.81524092701283e+004,-6.50776503193734e+000,-8.96172302072836e-001

8.93829710457770e+004,-6.50779716859563e+000,-9.08609557326224e-001

9.06307108236633e+004,-6.50783004433158e+000,-9.21217645840644e-001

9.18958683997622e+004,-6.50786367161790e+000,-9.33998854262492e-001

9.31786869174758e+004,-6.50789806288750e+000,-9.46955498249674e-001

9.44794129143618e+004,-6.50793323051592e+000,-9.60089922827630e-001

9.57982963695136e+004,-6.50796918680378e+000,-9.73404502747310e-001

9.71355907516031e+004,-6.50800594395699e+000,-9.86901642857462e-001

9.84915530675926e+004,-6.50804351406710e+000,-1.00058377847602e+000

9.98664439121282e+004,-6.50808190908975e+000,-1.01445337577568e+000

1.01260527517622e+005,-6.50812114082231e+000,-1.02851293217508e+000

1.02674071805032e+005,-6.50816122088075e+000,-1.04276497673578e+000

1.04107348435354e+005,-6.50820216067480e+000,-1.05721207057363e+000

1.05560632861831e+005,-6.50824397138260e+000,-1.07185680727271e+000

1.07034204382888e+005,-6.50828666392367e+000,-1.08670181331402e+000

1.08528346195813e+005,-6.50833024893066e+000,-1.10174974851346e+000

1.10043345451179e+005,-6.50837473672063e+000,-1.11700330646620e+000

1.11579493308032e+005,-6.50842013726438e+000,-1.13246521500708e+000

1.13137084989847e+005,-6.50846646015462e+000,-1.14813823668103e+000

1.14716419841265e+005,-6.50851371457350e+000,-1.16402516922235e+000

1.16317801385624e+005,-6.50856190925802e+000,-1.18012884605294e+000

1.17941537383287e+005,-6.50861105246514e+000,-1.19645213678592e+000

1.19587939890794e+005,-6.50866115193470e+000,-1.21299794775031e+000

1.21257325320831e+005,-6.50871221485203e+000,-1.22976922252369e+000

1.22950014503040e+005,-6.50876424780856e+000,-1.24676894248478e+000

1.24666332745679e+005,-6.50881725676162e+000,-1.26400012737775e+000

1.26406609898139e+005,-6.50887124699317e+000,-1.28146583589400e+000

1.28171180414339e+005,-6.50892622306664e+000,-1.29916916627206e+000

1.29960383416997e+005,-6.50898218878362e+000,-1.31711325691202e+000

1.31774562762811e+005,-6.50903914713847e+000,-1.33530128701023e+000

1.33614067108538e+005,-6.50909710027261e+000,-1.35373647721074e+000

1.35479249978003e+005,-6.50915604942714e+000,-1.37242209027793e+000

1.37370469830040e+005,-6.50921599489485e+000,-1.39136143178736e+000

1.39288090127379e+005,-6.50927693597125e+000,-1.41055785083792e+000

1.41232479406504e+005,-6.50933887090420e+000,-1.43001474078576e+000

1.43204011348474e+005,-6.50940179684357e+000,-1.44973553999832e+000

1.45203064850745e+005,-6.50946570978942e+000,-1.46972373263212e+000

1.47230024099979e+005,-6.50953060453964e+000,-1.48998284943364e+000

1.49285278645888e+005,-6.50959647463726e+000,-1.51051646856287e+000

1.51369223476094e+005,-6.50966331231684e+000,-1.53132821644204e+000

1.53482259092041e+005,-6.50973110845068e+000,-1.55242176862887e+000

1.55624791585964e+005,-6.50979985249476e+000,-1.57380085071392e+000

1.57797232718936e+005,-6.50986953243400e+000,-1.59546923924608e+000

1.59999999999999e+005,-6.50994013472811e+000,-1.61743076268137e+000

1.62233516766403e+005,-6.51001164425671e+000,-1.63968930236133e+000

1.64498212264969e+005,-6.51008404426502e+000,-1.66224879351621e+000

1.66794521734578e+005,-6.51015731630979e+000,-1.68511322629588e+000

1.69122886489819e+005,-6.51023144020523e+000,-1.70828664683036e+000

1.71483754005805e+005,-6.51030639396997e+000,-1.73177315831495e+000

1.73877578004168e+005,-6.51038215377424e+000,-1.75557692212622e+000

1.76304818540256e+005,-6.51045869388798e+000,-1.77970215896539e+000

1.78765942091554e+005,-6.51053598662996e+000,-1.80415315002907e+000

1.81261421647326e+005,-6.51061400231804e+000,-1.82893423820911e+000

1.83791736799524e+005,-6.51069270922033e+000,-1.85404982932065e+000

1.86357373834951e+005,-6.51077207350800e+000,-1.87950439335903e+000

1.88958825828723e+005,-6.51085205920970e+000,-1.90530246578172e+000

1.91596592739027e+005,-6.51093262816736e+000,-1.93144864882068e+000

1.94271181503206e+005,-6.51101373999408e+000,-1.95794761282152e+000

1.96983106135185e+005,-6.51109535203358e+000,-1.98480409760852e+000

1.99732887824256e+005,-6.51117741932253e+000,-2.01202291387556e+000

2.02521055035243e+005,-6.51125989455425e+000,-2.03960894460424e+000

2.05348143610063e+005,-6.51134272804516e+000,-2.06756714650649e+000

2.08214696870707e+005,-6.51142586770392e+000,-2.09590255149074e+000

2.11121265723661e+005,-6.51150925900278e+000,-2.12462026815247e+000

2.14068408765776e+005,-6.51159284495203e+000,-2.15372548328591e+000

2.17056692391625e+005,-6.51167656607675e+000,-2.18322346342057e+000

2.20086690902357e+005,-6.51176036039712e+000,-2.21311955637425e+000

2.23158986616063e+005,-6.51184416341100e+000,-2.24341919282906e+000

2.26274169979693e+005,-6.51192790808014e+000,-2.27412788792382e+000

2.29432839682530e+005,-6.51201152481909e+000,-2.30525124286477e+000

2.32635602771247e+005,-6.51209494148738e+000,-2.33679494655173e+000

2.35883074766574e+005,-6.51217808338473e+000,-2.36876477721938e+000

2.39175879781588e+005,-6.51226087324962e+000,-2.40116660409183e+000

2.42514650641661e+005,-6.51234323126054e+000,-2.43400638904976e+000

2.45900029006080e+005,-6.51242507504093e+000,-2.46729018830757e+000

2.49332665491357e+005,-6.51250631966660e+000,-2.50102415410070e+000

2.52813219796278e+005,-6.51258687767661e+000,-2.53521453638010e+000

2.56342360828676e+005,-6.51266665908647e+000,-2.56986768451605e+000

2.59920766833993e+005,-6.51274557140481e+000,-2.60499004900317e+000

2.63549125525621e+005,-6.51282351965214e+000,-2.64058818317398e+000

2.67228134217075e+005,-6.51290040638250e+000,-2.67666874491224e+000

2.70958499956006e+005,-6.51297613170737e+000,-2.71323849836929e+000

2.74740939660078e+005,-6.51305059332148e+000,-2.75030431568218e+000

2.78576180254757e+005,-6.51312368653140e+000,-2.78787317868751e+000

2.82464958813007e+005,-6.51319530428508e+000,-2.82595218063792e+000

2.86408022696948e+005,-6.51326533720323e+000,-2.86454852791465e+000

2.90406129701488e+005,-6.51333367361260e+000,-2.90366954173433e+000

2.94460048199957e+005,-6.51340019957934e+000,-2.94332265985631e+000

2.98570557291775e+005,-6.51346479894389e+000,-2.98351543828162e+000

3.02738446952187e+005,-6.51352735335627e+000,-3.02425555294808e+000

3.06964518184081e+005,-6.51358774231150e+000,-3.06555080142009e+000

3.11249583171928e+005,-6.51364584318488e+000,-3.10740910457238e+000

3.15594465437872e+005,-6.51370153126711e+000,-3.14983850826763e+000

3.19999999999997e+005,-6.51375467979872e+000,-3.19284718502793e+000

3.24467033532806e+005,-6.51380516000327e+000,-3.23644343570126e+000

3.28996424529938e+005,-6.51385284111953e+000,-3.28063569112111e+000

3.33589043469155e+005,-6.51389759043168e+000,-3.32543251376260e+000

3.38245772979638e+005,-6.51393927329801e+000,-3.37084259939209e+000

3.42967508011610e+005,-6.51397775317669e+000,-3.41687477871523e+000

3.47755156008335e+005,-6.51401289164967e+000,-3.46353801901931e+000

3.52609637080511e+005,-6.51404454844292e+000,-3.51084142581575e+000

3.57531884183106e+005,-6.51407258144393e+000,-3.55879424448094e+000

3.62522843294651e+005,-6.51409684671545e+000,-3.60740586189677e+000

3.67583473599047e+005,-6.51411719850553e+000,-3.65668580809334e+000

3.72714747669902e+005,-6.51413348925324e+000,-3.70664375789512e+000

3.77917651657445e+005,-6.51414556959006e+000,-3.75728953257161e+000

3.83193185478053e+005,-6.51415328833674e+000,-3.80863310149324e+000

3.88542363006410e+005,-6.51415649249512e+000,-3.86068458379778e+000

3.93966212270369e+005,-6.51415502723461e+000,-3.91345425006564e+000

3.99465775648511e+005,-6.51414873587384e+000,-3.96695252400634e+000

4.05042110070485e+005,-6.51413745985607e+000,-4.02118998416116e+000

4.10696287220124e+005,-6.51412103871922e+000,-4.07617736562109e+000

4.16429393741414e+005,-6.51409931006001e+000,-4.13192556176197e+000

4.22242531447321e+005,-6.51407210949174e+000,-4.18844562600286e+000

4.28136817531551e+005,-6.51403927059573e+000,-4.24574877358589e+000

4.34113384783250e+005,-6.51400062486693e+000,-4.30384638338053e+000

4.40173381804713e+005,-6.51395600165237e+000,-4.36274999971748e+000

4.46317973232124e+005,-6.51390522808338e+000,-4.42247133425062e+000

4.52548339959385e+005,-6.51384812900116e+000,-4.48302226785233e+000

4.58865679365059e+005,-6.51378452687540e+000,-4.54441485254207e+000

4.65271205542494e+005,-6.51371424171632e+000,-4.60666131345356e+000

4.71766149533147e+005,-6.51363709097969e+000,-4.66977405083968e+000

4.78351759563174e+005,-6.51355288946514e+000,-4.73376564211925e+000

4.85029301283321e+005,-6.51346144920747e+000,-4.79864884396774e+000

4.91800058012158e+005,-6.51336257936127e+000,-4.86443659445382e+000

4.98665330982714e+005,-6.51325608607849e+000,-4.93114201522323e+000

5.05626439592555e+005,-6.51314177237920e+000,-4.99877841373454e+000

5.12684721657352e+005,-6.51301943801553e+000,-5.06735928554591e+000

5.19841533667984e+005,-6.51288887932892e+000,-5.13689831665649e+000

5.27098251051240e+005,-6.51274988910051e+000,-5.20740938590437e+000

5.34456268434150e+005,-6.51260225639478e+000,-5.27890656742322e+000

5.41916999912011e+005,-6.51244576639666e+000,-5.35140413315869e+000

