Freq.,VOut,OutRef

1.00000000000000e+004,-8.18957699812034e+000,-5.78228322749020e-002

1.01395947979003e+004,-8.18957752647714e+000,-5.86298926516728e-002

1.02811382665607e+004,-8.18957806965592e+000,-5.94482142412377e-002

1.04246576084112e+004,-8.18957862807171e+000,-6.02779540344627e-002

1.05701804056138e+004,-8.18957920215097e+000,-6.11192712055105e-002

1.07177346253629e+004,-8.18957979233178e+000,-6.19723271431473e-002

1.08673486252606e+004,-8.18958039906483e+000,-6.28372854766663e-002

1.10190511587661e+004,-8.18958102281335e+000,-6.37143121101337e-002

1.11728713807222e+004,-8.18958166405336e+000,-6.46035752532972e-002

1.13288388529580e+004,-8.18958232327373e+000,-6.55052454556179e-002

1.14869835499703e+004,-8.18958300097749e+000,-6.64194956326741e-002

1.16473358646846e+004,-8.18958369768134e+000,-6.73465011040912e-002

1.18099266142953e+004,-8.18958441391667e+000,-6.82864396225727e-002

1.19747870461893e+004,-8.18958515022917e+000,-6.92394914121745e-002

1.21419488439505e+004,-8.18958590717979e+000,-7.02058391986786e-002

1.23114441334492e+004,-8.18958668534571e+000,-7.11856682406665e-002

1.24833054890161e+004,-8.18958748531925e+000,-7.21791663743278e-002

1.26575659397028e+004,-8.18958830770965e+000,-7.31865240395629e-002

1.28342589756290e+004,-8.18958915314293e+000,-7.42079343193050e-002

1.30134185544193e+004,-8.18959002226247e+000,-7.52435929760840e-002

1.31950791077289e+004,-8.18959091572984e+000,-7.62936984855284e-002

1.33792755478611e+004,-8.18959183422404e+000,-7.73584520816295e-002

1.35660432744767e+004,-8.18959277844393e+000,-7.84380577827338e-002

1.37554181813974e+004,-8.18959374910702e+000,-7.95327224400751e-002

1.39474366635040e+004,-8.18959474695109e+000,-8.06426557693906e-002

1.41421356237309e+004,-8.18959577273391e+000,-8.17680703961490e-002

1.43395524801583e+004,-8.18959682723467e+000,-8.29091818885134e-002

1.45397251732031e+004,-8.18959791125355e+000,-8.40662088046750e-002

1.47426921729110e+004,-8.18959902561369e+000,-8.52393727254544e-002

1.49484924863494e+004,-8.18960017116011e+000,-8.64288983042201e-002

1.51571656651040e+004,-8.18960134876128e+000,-8.76350133044056e-002

1.53687518128801e+004,-8.18960255931003e+000,-8.88579486396995e-002

1.55832915932100e+004,-8.18960380372376e+000,-9.00979384189089e-002

1.58008262372675e+004,-8.18960508294474e+000,-9.13552199930026e-002

1.60213975517924e+004,-8.18960639794135e+000,-9.26300339939311e-002

1.62450479271247e+004,-8.18960774970910e+000,-9.39226243789173e-002

1.64718203453514e+004,-8.18960913926990e+000,-9.52332384836204e-002

1.67017583885674e+004,-8.18961056767497e+000,-9.65621270541648e-002

1.69349062472505e+004,-8.18961203600339e+000,-9.79095443077282e-002

1.71713087287550e+004,-8.18961354536424e+000,-9.92757479706710e-002

1.74110112659224e+004,-8.18961509689697e+000,-1.00660999328427e-001

1.76540599258131e+004,-8.18961669177267e+000,-1.02065563270811e-001

1.79005014185594e+004,-8.18961833119397e+000,-1.03489708346584e-001

1.81503831063432e+004,-8.18962001639654e+000,-1.04933706809207e-001

1.84037530124975e+004,-8.18962174864989e+000,-1.06397834665801e-001

1.86606598307361e+004,-8.18962352925861e+000,-1.07882371727171e-001

1.89211529345119e+004,-8.18962535956219e+000,-1.09387601664676e-001

1.91852823865052e+004,-8.18962724093722e+000,-1.10913812054487e-001

1.94530989482457e+004,-8.18962917479764e+000,-1.12461294434534e-001

1.97246540898671e+004,-8.18963116259603e+000,-1.14030344355560e-001

1.99999999999999e+004,-8.18963320582433e+000,-1.15621261437218e-001

2.02791895958005e+004,-8.18963530601527e+000,-1.17234349418602e-001

2.05622765331213e+004,-8.18963746474246e+000,-1.18869916221043e-001

2.08493152168224e+004,-8.18963968362360e+000,-1.20528273989522e-001

2.11403608112276e+004,-8.18964196431909e+000,-1.22209739164536e-001

2.14354692507258e+004,-8.18964430853450e+000,-1.23914632531761e-001

2.17346972505211e+004,-8.18964671802197e+000,-1.25643279277352e-001

2.20381023175322e+004,-8.18964919458049e+000,-1.27396009052167e-001

2.23457427614443e+004,-8.18965174005809e+000,-1.29173156025889e-001

2.26576777059159e+004,-8.18965435635232e+000,-1.30975058949934e-001

2.29739670999406e+004,-8.18965704541163e+000,-1.32802061219061e-001

2.32946717293690e+004,-8.18965980923721e+000,-1.34654510927761e-001

2.36198532285905e+004,-8.18966264988402e+000,-1.36532760935253e-001

2.39495740923785e+004,-8.18966556946194e+000,-1.38437168928618e-001

2.42838976879009e+004,-8.18966857013735e+000,-1.40368097485409e-001

2.46228882668982e+004,-8.18967165413476e+000,-1.42325914136547e-001

2.49666109780322e+004,-8.18967482373792e+000,-1.44310991433259e-001

2.53151318794055e+004,-8.18967808129173e+000,-1.46323707009752e-001

2.56685179512580e+004,-8.18968142920301e+000,-1.48364443654349e-001

2.60268371088386e+004,-8.18968486994321e+000,-1.50433589369542e-001

2.63901582154578e+004,-8.18968840604913e+000,-1.52531537445069e-001

2.67585510957221e+004,-8.18969204012451e+000,-1.54658686526101e-001

2.71320865489533e+004,-8.18969577484223e+000,-1.56815440679818e-001

2.75108363627948e+004,-8.18969961294596e+000,-1.59002209465200e-001

2.78948733270080e+004,-8.18970355725112e+000,-1.61219408008614e-001

2.82842712474618e+004,-8.18970761064759e+000,-1.63467457069624e-001

2.86791049603164e+004,-8.18971177610121e+000,-1.65746783115025e-001

2.90794503464061e+004,-8.18971605665533e+000,-1.68057818393249e-001

2.94853843458219e+004,-8.18972045543273e+000,-1.70401001008196e-001

2.98969849726987e+004,-8.18972497563798e+000,-1.72776774990342e-001

3.03143313302078e+004,-8.18972962055881e+000,-1.75185590376722e-001

3.07375036257601e+004,-8.18973439356855e+000,-1.77627903282779e-001

3.11665831864199e+004,-8.18973929812808e+000,-1.80104175979909e-001

3.16016524745350e+004,-8.18974433778709e+000,-1.82614876978433e-001

3.20427951035848e+004,-8.18974951618763e+000,-1.85160481096483e-001

3.24900958542493e+004,-8.18975483706480e+000,-1.87741469547199e-001

3.29436406907028e+004,-8.18976030424987e+000,-1.90358330013988e-001

3.34035167771346e+004,-8.18976592167200e+000,-1.93011556732813e-001

3.38698124945009e+004,-8.18977169336026e+000,-1.95701650575593e-001

3.43426174575100e+004,-8.18977762344687e+000,-1.98429119125343e-001

3.48220225318448e+004,-8.18978371616823e+000,-2.01194476767597e-001

3.53081198516260e+004,-8.18978997586789e+000,-2.03998244769963e-001

3.58010028371187e+004,-8.18979640699936e+000,-2.06840951363046e-001

3.63007662126863e+004,-8.18980301412736e+000,-2.09723131833205e-001

3.68075060249948e+004,-8.18980980193105e+000,-2.12645328602979e-001

3.73213196614721e+004,-8.18981677520656e+000,-2.15608091317448e-001

3.78423058690237e+004,-8.18982393886858e+000,-2.18611976936656e-001

3.83705647730104e+004,-8.18983129795418e+000,-2.21657549815546e-001

3.89061978964912e+004,-8.18983885762396e+000,-2.24745381801789e-001

3.94493081797342e+004,-8.18984662316558e+000,-2.27876052318497e-001

3.99999999999998e+004,-8.18985459999589e+000,-2.31050148457303e-001

4.05583791916010e+004,-8.18986279366387e+000,-2.34268265067347e-001

4.11245530662425e+004,-8.18987120985235e+000,-2.37531004852209e-001

4.16986304336447e+004,-8.18987985438224e+000,-2.40838978452283e-001

4.22807216224550e+004,-8.18988873321316e+000,-2.44192804550588e-001

4.28709385014515e+004,-8.18989785244784e+000,-2.47593109954448e-001

4.34693945010421e+004,-8.18990721833374e+000,-2.51040529697961e-001

4.40762046350642e+004,-8.18991683726621e+000,-2.54535707132716e-001

4.46914855228886e+004,-8.18992671579075e+000,-2.58079294025915e-001

4.53153554118317e+004,-8.18993686060611e+000,-2.61671950654991e-001

4.59479341998812e+004,-8.18994727856654e+000,-2.65314345906124e-001

4.65893434587380e+004,-8.18995797668447e+000,-2.69007157371935e-001

4.72397064571810e+004,-8.18996896213384e+000,-2.72751071445506e-001

4.78991481847569e+004,-8.18998024225163e+000,-2.76546783426201e-001

4.85677953758016e+004,-8.18999182454098e+000,-2.80394997615299e-001

4.92457765337964e+004,-8.19000371667409e+000,-2.84296427414075e-001

4.99332219560642e+004,-8.19001592649415e+000,-2.88251795428647e-001

5.06302637588109e+004,-8.19002846201802e+000,-2.92261833569722e-001

5.13370359025159e+004,-8.19004133143890e+000,-2.96327283153171e-001

5.20536742176771e+004,-8.19005454312832e+000,-3.00448895004537e-001

5.27803164309155e+004,-8.19006810563871e+000,-3.04627429561032e-001

5.35171021914442e+004,-8.19008202770597e+000,-3.08863656972821e-001

5.42641730979066e+004,-8.19009631825084e+000,-3.13158357212501e-001

5.50216727255895e+004,-8.19011098638180e+000,-3.17512320175124e-001

5.57897466540159e+004,-8.19012604139638e+000,-3.21926345786376e-001

5.65685424949235e+004,-8.19014149278404e+000,-3.26401244104340e-001

5.73582099206328e+004,-8.19015735022688e+000,-3.30937835431143e-001

5.81589006928121e+004,-8.19017362360198e+000,-3.35536950416587e-001

5.89707686916437e+004,-8.19019032298270e+000,-3.40199430166282e-001

5.97939699453972e+004,-8.19020745864037e+000,-3.44926126348994e-001

6.06286626604156e+004,-8.19022504104515e+000,-3.49717901306694e-001

6.14750072515201e+004,-8.19024308086730e+000,-3.54575628162888e-001

6.23331663728396e+004,-8.19026158897833e+000,-3.59500190931485e-001

6.32033049490698e+004,-8.19028057645122e+000,-3.64492484628765e-001

6.40855902071694e+004,-8.19030005456143e+000,-3.69553415382621e-001

6.49801917084985e+004,-8.19032003478688e+000,-3.74683900545665e-001

6.58872813814055e+004,-8.19034052880802e+000,-3.79884868806440e-001

6.68070335542691e+004,-8.19036154850800e+000,-3.85157260301361e-001

6.77396249890018e+004,-8.19038310597155e+000,-3.90502026731666e-001

6.86852349150199e+004,-8.19040521348481e+000,-3.95920131474119e-001

6.96440450636895e+004,-8.19042788353436e+000,-4.01412549695945e-001

7.06162397032520e+004,-8.19045112880548e+000,-4.06980268472900e-001

7.16020056742374e+004,-8.19047496218023e+000,-4.12624286907572e-001

7.26015324253724e+004,-8.19049939673644e+000,-4.18345616240014e-001

7.36150120499896e+004,-8.19052444574415e+000,-4.24145279973631e-001

7.46426393229441e+004,-8.19055012266355e+000,-4.30024313990910e-001

7.56846117380472e+004,-8.19057644114123e+000,-4.35983766676033e-001

7.67411295460207e+004,-8.19060341500697e+000,-4.42024699033829e-001

7.78123957929823e+004,-8.19063105826929e+000,-4.48148184816553e-001

7.88986163594682e+004,-8.19065938511117e+000,-4.54355310644219e-001

7.99999999999995e+004,-8.19068840988435e+000,-4.60647176135427e-001

8.11167583832018e+004,-8.19071814710441e+000,-4.67024894029688e-001

8.22491061324848e+004,-8.19074861144407e+000,-4.73489590319622e-001

8.33972608672892e+004,-8.19077981772663e+000,-4.80042404381042e-001

8.45614432449099e+004,-8.19081178091834e+000,-4.86684489106886e-001

8.57418770029029e+004,-8.19084451612102e+000,-4.93417011038309e-001

8.69387890020841e+004,-8.19087803856263e+000,-5.00241150507199e-001

8.81524092701283e+004,-8.19091236358862e+000,-5.07158101770226e-001

8.93829710457770e+004,-8.19094750665147e+000,-5.14169073155511e-001

9.06307108236633e+004,-8.19098348330013e+000,-5.21275287204868e-001

9.18958683997622e+004,-8.19102030916865e+000,-5.28477980821294e-001

9.31786869174758e+004,-8.19105799996356e+000,-5.35778405422501e-001

9.44794129143618e+004,-8.19109657145103e+000,-5.43177827093588e-001

9.57982963695136e+004,-8.19113603944332e+000,-5.50677526743005e-001

9.71355907516031e+004,-8.19117641978338e+000,-5.58278800269282e-001

9.84915530675926e+004,-8.19121772832959e+000,-5.65982958724406e-001

9.98664439121282e+004,-8.19125998093933e+000,-5.73791328484819e-001

1.01260527517622e+005,-8.19130319345151e+000,-5.81705251426534e-001

1.02674071805032e+005,-8.19134738166823e+000,-5.89726085106846e-001

1.04107348435354e+005,-8.19139256133540e+000,-5.97855202949932e-001

1.05560632861831e+005,-8.19143874812272e+000,-6.06093994438093e-001

1.07034204382888e+005,-8.19148595760209e+000,-6.14443865311698e-001

1.08528346195813e+005,-8.19153420522587e+000,-6.22906237770474e-001

1.10043345451179e+005,-8.19158350630303e+000,-6.31482550688651e-001

1.11579493308032e+005,-8.19163387597536e+000,-6.40174259831739e-001

1.13137084989847e+005,-8.19168532919210e+000,-6.48982838082464e-001

1.14716419841265e+005,-8.19173788068328e+000,-6.57909775678885e-001

1.16317801385624e+005,-8.19179154493274e+000,-6.66956580454359e-001

1.17941537383287e+005,-8.19184633614961e+000,-6.76124778092327e-001

1.19587939890794e+005,-8.19190226823890e+000,-6.85415912387444e-001

1.21257325320831e+005,-8.19195935477087e+000,-6.94831545519750e-001

1.22950014503040e+005,-8.19201760894973e+000,-7.04373258336628e-001

1.24666332745679e+005,-8.19207704358123e+000,-7.14042650646884e-001

1.26406609898139e+005,-8.19213767103908e+000,-7.23841341527173e-001

1.28171180414339e+005,-8.19219950323069e+000,-7.33770969640035e-001

1.29960383416997e+005,-8.19226255156149e+000,-7.43833193566199e-001

1.31774562762811e+005,-8.19232682689934e+000,-7.54029692145558e-001

1.33614067108538e+005,-8.19239233953675e+000,-7.64362164839270e-001

1.35479249978003e+005,-8.19245909915347e+000,-7.74832332099435e-001

1.37370469830040e+005,-8.19252711477763e+000,-7.85441935757719e-001

1.39288090127379e+005,-8.19259639474620e+000,-7.96192739429532e-001

1.41232479406504e+005,-8.19266694666537e+000,-8.07086528929964e-001

1.43204011348474e+005,-8.19273877736936e+000,-8.18125112713187e-001

1.45203064850745e+005,-8.19281189287981e+000,-8.29310322322059e-001

1.47230024099979e+005,-8.19288629836362e+000,-8.40644012861223e-001

1.49285278645888e+005,-8.19296199809129e+000,-8.52128063484162e-001

1.51369223476094e+005,-8.19303899539479e+000,-8.63764377899787e-001

1.53482259092041e+005,-8.19311729262469e+000,-8.75554884900231e-001

1.55624791585964e+005,-8.19319689110790e+000,-8.87501538905785e-001

1.57797232718936e+005,-8.19327779110515e+000,-8.99606320529629e-001

1.59999999999999e+005,-8.19335999176839e+000,-9.11871237165330e-001

1.62233516766403e+005,-8.19344349109893e+000,-9.24298323591570e-001

1.64498212264969e+005,-8.19352828590545e+000,-9.36889642599661e-001

1.66794521734578e+005,-8.19361437176270e+000,-9.49647285642851e-001

1.69122886489819e+005,-8.19370174297097e+000,-9.62573373504203e-001

1.71483754005805e+005,-8.19379039251593e+000,-9.75670056989412e-001

1.73877578004168e+005,-8.19388031202980e+000,-9.88939517638173e-001

1.76304818540256e+005,-8.19397149175338e+000,-1.00238396845782e+000

1.78765942091554e+005,-8.19406392049894e+000,-1.01600565468105e+000

1.81261421647326e+005,-8.19415758561493e+000,-1.02980685454181e+000

1.83791736799524e+005,-8.19425247295202e+000,-1.04378988007313e+000

1.86357373834951e+005,-8.19434856683060e+000,-1.05795707792768e+000

1.88958825828723e+005,-8.19444585000991e+000,-1.07231083021958e+000

1.91596592739027e+005,-8.19454430365976e+000,-1.08685355538276e+000

1.94271181503206e+005,-8.19464390733356e+000,-1.10158770905375e+000

1.96983106135185e+005,-8.19474463894388e+000,-1.11651578497232e+000

1.99732887824256e+005,-8.19484647474040e+000,-1.13164031590108e+000

2.02521055035243e+005,-8.19494938929035e+000,-1.14696387456293e+000

2.05348143610063e+005,-8.19505335546146e+000,-1.16248907459710e+000

2.08214696870707e+005,-8.19515834440761e+000,-1.17821857153241e+000

2.11121265723661e+005,-8.19526432555748e+000,-1.19415506377552e+000

2.14068408765776e+005,-8.19537126660619e+000,-1.21030129361426e+000

2.17056692391625e+005,-8.19547913350998e+000,-1.22666004823528e+000

2.20086690902357e+005,-8.19558789048387e+000,-1.24323416075600e+000

2.23158986616063e+005,-8.19569750000287e+000,-1.26002651126624e+000

2.26274169979693e+005,-8.19580792280650e+000,-1.27704002788123e+000

2.29432839682530e+005,-8.19591911790623e+000,-1.29427768780644e+000

2.32635602771247e+005,-8.19603104259706e+000,-1.31174251840778e+000

2.35883074766574e+005,-8.19614365247204e+000,-1.32943759828874e+000

2.39175879781588e+005,-8.19625690144034e+000,-1.34736605837624e+000

2.42514650641661e+005,-8.19637074174909e+000,-1.36553108300699e+000

2.45900029006080e+005,-8.19648512400842e+000,-1.38393591101893e+000

2.49332665491357e+005,-8.19659999721989e+000,-1.40258383684376e+000

2.52813219796278e+005,-8.19671530880849e+000,-1.42147821159962e+000

2.56342360828676e+005,-8.19683100465801e+000,-1.44062244418079e+000

2.59920766833993e+005,-8.19694702914941e+000,-1.46002000234814e+000

2.63549125525621e+005,-8.19706332520255e+000,-1.47967441381126e+000

2.67228134217075e+005,-8.19717983432094e+000,-1.49958926730879e+000

2.70958499956006e+005,-8.19729649663918e+000,-1.51976821368074e+000

2.74740939660078e+005,-8.19741325097351e+000,-1.54021496693231e+000

2.78576180254757e+005,-8.19753003487485e+000,-1.56093330528854e+000

2.82464958813007e+005,-8.19764678468393e+000,-1.58192707224163e+000

2.86408022696948e+005,-8.19776343558936e+000,-1.60320017758165e+000

2.90406129701488e+005,-8.19787992168676e+000,-1.62475659842169e+000

2.94460048199957e+005,-8.19799617604086e+000,-1.64660038020359e+000

2.98570557291775e+005,-8.19811213074812e+000,-1.66873563769477e+000

3.02738446952187e+005,-8.19822771700129e+000,-1.69116655596812e+000

3.06964518184081e+005,-8.19834286515499e+000,-1.71389739136733e+000

3.11249583171928e+005,-8.19845750479209e+000,-1.73693247245620e+000

3.15594465437872e+005,-8.19857156479056e+000,-1.76027620095425e+000

3.19999999999997e+005,-8.19868497339065e+000,-1.78393305265411e+000

3.24467033532806e+005,-8.19879765826224e+000,-1.80790757832397e+000

3.28996424529938e+005,-8.19890954657198e+000,-1.83220440459324e+000

3.33589043469155e+005,-8.19902056504953e+000,-1.85682823482347e+000

3.38245772979638e+005,-8.19913064005350e+000,-1.88178384996295e+000

3.42967508011610e+005,-8.19923969763581e+000,-1.90707610938697e+000

3.47755156008335e+005,-8.19934766360520e+000,-1.93270995172212e+000

3.52609637080511e+005,-8.19945446358868e+000,-1.95869039565852e+000

3.57531884183106e+005,-8.19956002309148e+000,-1.98502254074744e+000

3.62522843294651e+005,-8.19966426755452e+000,-2.01171156818804e+000

3.67583473599047e+005,-8.19976712240975e+000,-2.03876274160231e+000

3.72714747669902e+005,-8.19986851313286e+000,-2.06618140779918e+000

3.77917651657445e+005,-8.19996836529288e+000,-2.09397299753261e+000

3.83193185478053e+005,-8.20006660459909e+000,-2.12214302624831e+000

3.88542363006410e+005,-8.20016315694450e+000,-2.15069709482826e+000

3.93966212270369e+005,-8.20025794844586e+000,-2.17964089032778e+000

3.99465775648511e+005,-8.20035090548016e+000,-2.20898018671062e+000

4.05042110070485e+005,-8.20044195471717e+000,-2.23872084558433e+000

4.10696287220124e+005,-8.20053102314853e+000,-2.26886881693135e+000

4.16429393741414e+005,-8.20061803811207e+000,-2.29943013984817e+000

4.22242531447321e+005,-8.20070292731286e+000,-2.33041094328181e+000

4.28136817531551e+005,-8.20078561883918e+000,-2.36181744677769e+000

4.34113384783250e+005,-8.20086604117479e+000,-2.39365596123025e+000

4.40173381804713e+005,-8.20094412320650e+000,-2.42593288964512e+000

4.46317973232124e+005,-8.20101979422756e+000,-2.45865472791079e+000

4.52548339959385e+005,-8.20109298393646e+000,-2.49182806558314e+000

4.58865679365059e+005,-8.20116362243101e+000,-2.52545958668642e+000

4.65271205542494e+005,-8.20123164019850e+000,-2.55955607052735e+000

4.71766149533147e+005,-8.20129696810119e+000,-2.59412439252758e+000

4.78351759563174e+005,-8.20135953735697e+000,-2.62917152507853e+000

4.85029301283321e+005,-8.20141927951630e+000,-2.66470453841421e+000

4.91800058012158e+005,-8.20147612643424e+000,-2.70073060150921e+000

4.98665330982714e+005,-8.20153001023874e+000,-2.73725698299840e+000

5.05626439592555e+005,-8.20158086329424e+000,-2.77429105212557e+000

5.12684721657352e+005,-8.20162861816139e+000,-2.81184027971756e+000

5.19841533667984e+005,-8.20167320755276e+000,-2.84991223918763e+000

5.27098251051240e+005,-8.20171456428449e+000,-2.88851460756842e+000

5.34456268434150e+005,-8.20175262122432e+000,-2.92765516657634e+000

5.41916999912011e+005,-8.20178731123543e+000,-2.96734180371009e+000

