Freq.,VOut,OutRef

1.00000000000000e+004,-2.65292766291875e+001,-2.69109152738625e-001

1.01395947979003e+004,-2.65292805276028e+001,-2.72865121228925e-001

1.02811382665607e+004,-2.65292845354389e+001,-2.76673493296937e-001

1.04246576084112e+004,-2.65292886557621e+001,-2.80534999291233e-001

1.05701804056138e+004,-2.65292928917241e+001,-2.84450379706435e-001

1.07177346253629e+004,-2.65292972465646e+001,-2.88420385322698e-001

1.08673486252606e+004,-2.65293017236136e+001,-2.92445777346317e-001

1.10190511587661e+004,-2.65293063262944e+001,-2.96527327552714e-001

1.11728713807222e+004,-2.65293110581254e+001,-3.00665818432903e-001

1.13288388529580e+004,-2.65293159227235e+001,-3.04862043339792e-001

1.14869835499703e+004,-2.65293209238061e+001,-3.09116806637205e-001

1.16473358646846e+004,-2.65293260651948e+001,-3.13430923850162e-001

1.18099266142953e+004,-2.65293313508173e+001,-3.17805221819587e-001

1.19747870461893e+004,-2.65293367847108e+001,-3.22240538856241e-001

1.21419488439505e+004,-2.65293423710253e+001,-3.26737724898391e-001

1.23114441334492e+004,-2.65293481140260e+001,-3.31297641669594e-001

1.24833054890161e+004,-2.65293540180973e+001,-3.35921162841652e-001

1.26575659397028e+004,-2.65293600877455e+001,-3.40609174196908e-001

1.28342589756290e+004,-2.65293663276022e+001,-3.45362573794548e-001

1.30134185544193e+004,-2.65293727424279e+001,-3.50182272137511e-001

1.31950791077289e+004,-2.65293793371159e+001,-3.55069192341722e-001

1.33792755478611e+004,-2.65293861166953e+001,-3.60024270309348e-001

1.35660432744767e+004,-2.65293930863350e+001,-3.65048454903378e-001

1.37554181813974e+004,-2.65294002513476e+001,-3.70142708123200e-001

1.39474366635040e+004,-2.65294076171934e+001,-3.75308005282296e-001

1.41421356237309e+004,-2.65294151894845e+001,-3.80545335191542e-001

1.43395524801583e+004,-2.65294229739883e+001,-3.85855700343416e-001

1.45397251732031e+004,-2.65294309766330e+001,-3.91240117092589e-001

1.47426921729110e+004,-2.65294392035108e+001,-3.96699615850153e-001

1.49484924863494e+004,-2.65294476608828e+001,-4.02235241272314e-001

1.51571656651040e+004,-2.65294563551843e+001,-4.07848052449925e-001

1.53687518128801e+004,-2.65294652930283e+001,-4.13539123109455e-001

1.55832915932100e+004,-2.65294744812115e+001,-4.19309541806756e-001

1.58008262372675e+004,-2.65294839267184e+001,-4.25160412129367e-001

1.60213975517924e+004,-2.65294936367272e+001,-4.31092852899552e-001

1.62450479271247e+004,-2.65295036186146e+001,-4.37107998377671e-001

1.64718203453514e+004,-2.65295138799611e+001,-4.43206998474207e-001

1.67017583885674e+004,-2.65295244285569e+001,-4.49391018957166e-001

1.69349062472505e+004,-2.65295352724078e+001,-4.55661241665188e-001

1.71713087287550e+004,-2.65295464197401e+001,-4.62018864725685e-001

1.74110112659224e+004,-2.65295578790076e+001,-4.68465102772561e-001

1.76540599258131e+004,-2.65295696588972e+001,-4.75001187166561e-001

1.79005014185594e+004,-2.65295817683350e+001,-4.81628366221437e-001

1.81503831063432e+004,-2.65295942164939e+001,-4.88347905426739e-001

1.84037530124975e+004,-2.65296070127986e+001,-4.95161087682063e-001

1.86606598307361e+004,-2.65296201669337e+001,-5.02069213526481e-001

1.89211529345119e+004,-2.65296336888501e+001,-5.09073601374218e-001

1.91852823865052e+004,-2.65296475887724e+001,-5.16175587751620e-001

1.94530989482457e+004,-2.65296618772059e+001,-5.23376527540775e-001

1.97246540898671e+004,-2.65296765649447e+001,-5.30677794219819e-001

1.99999999999999e+004,-2.65296916630788e+001,-5.38080780111189e-001

2.02791895958005e+004,-2.65297071830024e+001,-5.45586896630496e-001

2.05622765331213e+004,-2.65297231364220e+001,-5.53197574539365e-001

2.08493152168224e+004,-2.65297395353645e+001,-5.60914264200058e-001

2.11403608112276e+004,-2.65297563921860e+001,-5.68738435834282e-001

2.14354692507258e+004,-2.65297737195804e+001,-5.76671579784464e-001

2.17346972505211e+004,-2.65297915305884e+001,-5.84715206776883e-001

2.20381023175322e+004,-2.65298098386065e+001,-5.92870848190416e-001

2.23457427614443e+004,-2.65298286573967e+001,-6.01140056326329e-001

2.26576777059159e+004,-2.65298480010960e+001,-6.09524404679828e-001

2.29739670999406e+004,-2.65298678842264e+001,-6.18025488219755e-001

2.32946717293690e+004,-2.65298883217047e+001,-6.26644923665266e-001

2.36198532285905e+004,-2.65299093288532e+001,-6.35384349768935e-001

2.39495740923785e+004,-2.65299309214101e+001,-6.44245427604305e-001

2.42838976879009e+004,-2.65299531155406e+001,-6.53229840851581e-001

2.46228882668982e+004,-2.65299759278476e+001,-6.62339296091544e-001

2.49666109780322e+004,-2.65299993753836e+001,-6.71575523100073e-001

2.53151318794055e+004,-2.65300234756622e+001,-6.80940275145613e-001

2.56685179512580e+004,-2.65300482466696e+001,-6.90435329291985e-001

2.60268371088386e+004,-2.65300737068777e+001,-7.00062486700378e-001

2.63901582154578e+004,-2.65300998752555e+001,-7.09823572939430e-001

2.67585510957221e+004,-2.65301267712830e+001,-7.19720438294138e-001

2.71320865489533e+004,-2.65301544149633e+001,-7.29754958080410e-001

2.75108363627948e+004,-2.65301828268368e+001,-7.39929032962397e-001

2.78948733270080e+004,-2.65302120279941e+001,-7.50244589272348e-001

2.82842712474618e+004,-2.65302420400909e+001,-7.60703579332148e-001

2.86791049603164e+004,-2.65302728853612e+001,-7.71307981784501e-001

2.90794503464061e+004,-2.65303045866330e+001,-7.82059801916480e-001

2.94853843458219e+004,-2.65303371673425e+001,-7.92961071996943e-001

2.98969849726987e+004,-2.65303706515496e+001,-8.04013851610611e-001

3.03143313302078e+004,-2.65304050639534e+001,-8.15220227996521e-001

3.07375036257601e+004,-2.65304404299086e+001,-8.26582316391201e-001

3.11665831864199e+004,-2.65304767754409e+001,-8.38102260373081e-001

3.16016524745350e+004,-2.65305141272642e+001,-8.49782232210815e-001

3.20427951035848e+004,-2.65305525127974e+001,-8.61624433215226e-001

3.24900958542493e+004,-2.65305919601818e+001,-8.73631094092684e-001

3.29436406907028e+004,-2.65306324982983e+001,-8.85804475303105e-001

3.34035167771346e+004,-2.65306741567861e+001,-8.98146867418665e-001

3.38698124945009e+004,-2.65307169660603e+001,-9.10660591489802e-001

3.43426174575100e+004,-2.65307609573311e+001,-9.23347999409222e-001

3.48220225318448e+004,-2.65308061626224e+001,-9.36211474281890e-001

3.53081198516260e+004,-2.65308526147917e+001,-9.49253430796801e-001

3.58010028371187e+004,-2.65309003475499e+001,-9.62476315600244e-001

3.63007662126863e+004,-2.65309493954806e+001,-9.75882607676242e-001

3.68075060249948e+004,-2.65309997940616e+001,-9.89474818725338e-001

3.73213196614721e+004,-2.65310515796850e+001,-1.00325549354642e+000

3.78423058690237e+004,-2.65311047896791e+001,-1.01722721042431e+000

3.83705647730104e+004,-2.65311594623292e+001,-1.03139258151753e+000

3.89061978964912e+004,-2.65312156369002e+001,-1.04575425324794e+000

3.94493081797342e+004,-2.65312733536585e+001,-1.06031490669546e+000

3.99999999999998e+004,-2.65313326538946e+001,-1.07507725799425e+000

4.05583791916010e+004,-2.65313935799463e+001,-1.09004405872867e+000

4.11245530662425e+004,-2.65314561752218e+001,-1.10521809633638e+000

4.16986304336447e+004,-2.65315204842234e+001,-1.12060219451020e+000

4.22807216224550e+004,-2.65315865525717e+001,-1.13619921360256e+000

4.28709385014515e+004,-2.65316544270295e+001,-1.15201205103324e+000

4.34693945010421e+004,-2.65317241555265e+001,-1.16804364170025e+000

4.40762046350642e+004,-2.65317957871848e+001,-1.18429695838773e+000

4.46914855228886e+004,-2.65318693723429e+001,-1.20077501218320e+000

4.53153554118317e+004,-2.65319449625825e+001,-1.21748085288946e+000

4.59479341998812e+004,-2.65320226107534e+001,-1.23441756944409e+000

4.65893434587380e+004,-2.65321023709997e+001,-1.25158829033657e+000

4.72397064571810e+004,-2.65321842987861e+001,-1.26899618403043e+000

4.78991481847569e+004,-2.65322684509246e+001,-1.28664445938327e+000

4.85677953758016e+004,-2.65323548856007e+001,-1.30453636607199e+000

4.92457765337964e+004,-2.65324436624007e+001,-1.32267519501732e+000

4.99332219560642e+004,-2.65325348423384e+001,-1.34106427880991e+000

5.06302637588109e+004,-2.65326284878825e+001,-1.35970699213870e+000

5.13370359025159e+004,-2.65327246629838e+001,-1.37860675221921e+000

5.20536742176771e+004,-2.65328234331026e+001,-1.39776701922433e+000

5.27803164309155e+004,-2.65329248652361e+001,-1.41719129671486e+000

5.35171021914442e+004,-2.65330290279460e+001,-1.43688313207282e+000

5.42641730979066e+004,-2.65331359913858e+001,-1.45684611693349e+000

5.50216727255895e+004,-2.65332458273285e+001,-1.47708388762041e+000

5.57897466540159e+004,-2.65333586091937e+001,-1.49760012558002e+000

5.65685424949235e+004,-2.65334744120753e+001,-1.51839855781737e+000

5.73582099206328e+004,-2.65335933127680e+001,-1.53948295733376e+000

5.81589006928121e+004,-2.65337153897951e+001,-1.56085714356203e+000

5.89707686916437e+004,-2.65338407234345e+001,-1.58252498280620e+000

5.97939699453972e+004,-2.65339693957454e+001,-1.60449038868081e+000

6.06286626604156e+004,-2.65341014905945e+001,-1.62675732254746e+000

6.14750072515201e+004,-2.65342370936818e+001,-1.64932979395846e+000

6.23331663728396e+004,-2.65343762925656e+001,-1.67221186109470e+000

6.32033049490698e+004,-2.65345191766875e+001,-1.69540763120831e+000

6.40855902071694e+004,-2.65346658373968e+001,-1.71892126106500e+000

6.49801917084985e+004,-2.65348163679738e+001,-1.74275695738697e+000

6.58872813814055e+004,-2.65349708636529e+001,-1.76691897729612e+000

6.68070335542691e+004,-2.65351294216451e+001,-1.79141162875941e+000

6.77396249890018e+004,-2.65352921411588e+001,-1.81623927103506e+000

6.86852349150199e+004,-2.65354591234208e+001,-1.84140631511840e+000

6.96440450636895e+004,-2.65356304716955e+001,-1.86691722419223e+000

7.06162397032520e+004,-2.65358062913034e+001,-1.89277651407485e+000

7.16020056742374e+004,-2.65359866896387e+001,-1.91898875367176e+000

7.26015324253724e+004,-2.65361717761849e+001,-1.94555856543112e+000

7.36150120499896e+004,-2.65363616625298e+001,-1.97249062579809e+000

7.46426393229441e+004,-2.65365564623792e+001,-1.99978966567219e+000

7.56846117380472e+004,-2.65367562915684e+001,-2.02746047087057e+000

7.67411295460207e+004,-2.65369612680723e+001,-2.05550788259100e+000

7.78123957929823e+004,-2.65371715120147e+001,-2.08393679787995e+000

7.88986163594682e+004,-2.65373871456746e+001,-2.11275217010409e+000

7.99999999999995e+004,-2.65376082934911e+001,-2.14195900942730e+000

8.11167583832018e+004,-2.65378350820666e+001,-2.17156238329200e+000

8.22491061324848e+004,-2.65380676401674e+001,-2.20156741690604e+000

8.33972608672892e+004,-2.65383060987227e+001,-2.23197929373578e+000

8.45614432449099e+004,-2.65385505908203e+001,-2.26280325600694e+000

8.57418770029029e+004,-2.65388012517011e+001,-2.29404460521179e+000

8.69387890020841e+004,-2.65390582187501e+001,-2.32570870262623e+000

8.81524092701283e+004,-2.65393216314853e+001,-2.35780096983450e+000

8.93829710457770e+004,-2.65395916315438e+001,-2.39032688926620e+000

9.06307108236633e+004,-2.65398683626644e+001,-2.42329200474270e+000

9.18958683997622e+004,-2.65401519706684e+001,-2.45670192203676e+000

9.31786869174758e+004,-2.65404426034367e+001,-2.49056230944470e+000

9.44794129143618e+004,-2.65407404108830e+001,-2.52487889837498e+000

9.57982963695136e+004,-2.65410455449256e+001,-2.55965748395030e+000

9.71355907516031e+004,-2.65413581594538e+001,-2.59490392562833e+000

9.84915530675926e+004,-2.65416784102926e+001,-2.63062414784071e+000

9.98664439121282e+004,-2.65420064551627e+001,-2.66682414065192e+000

1.01260527517622e+005,-2.65423424536371e+001,-2.70350996044009e+000

1.02674071805032e+005,-2.65426865670949e+001,-2.74068773060156e+000

1.04107348435354e+005,-2.65430389586700e+001,-2.77836364227931e+000

1.05560632861831e+005,-2.65433997931974e+001,-2.81654395511935e+000

1.07034204382888e+005,-2.65437692371546e+001,-2.85523499805527e+000

1.08528346195813e+005,-2.65441474585997e+001,-2.89444317012434e+000

1.10043345451179e+005,-2.65445346271055e+001,-2.93417494131600e+000

1.11579493308032e+005,-2.65449309136897e+001,-2.97443685345516e+000

1.13137084989847e+005,-2.65453364907413e+001,-3.01523552112313e+000

1.14716419841265e+005,-2.65457515319432e+001,-3.05657763261795e+000

1.16317801385624e+005,-2.65461762121906e+001,-3.09846995095673e+000

1.17941537383287e+005,-2.65466107075064e+001,-3.14091931492223e+000

1.19587939890794e+005,-2.65470551949521e+001,-3.18393264015735e+000

1.21257325320831e+005,-2.65475098525356e+001,-3.22751692030665e+000

1.22950014503040e+005,-2.65479748591160e+001,-3.27167922821326e+000

1.24666332745679e+005,-2.65484503943034e+001,-3.31642671716897e+000

1.26406609898139e+005,-2.65489366383582e+001,-3.36176662222014e+000

1.28171180414339e+005,-2.65494337720848e+001,-3.40770626153827e+000

1.29960383416997e+005,-2.65499419767241e+001,-3.45425303784967e+000

1.31774562762811e+005,-2.65504614338435e+001,-3.50141443993333e+000

1.33614067108538e+005,-2.65509923252241e+001,-3.54919804418703e+000

1.35479249978003e+005,-2.65515348327459e+001,-3.59761151626489e+000

1.37370469830040e+005,-2.65520891382726e+001,-3.64666261278988e+000

1.39288090127379e+005,-2.65526554235335e+001,-3.69635918314273e+000

1.41232479406504e+005,-2.65532338700065e+001,-3.74670917133188e+000

1.43204011348474e+005,-2.65538246587988e+001,-3.79772061794612e+000

1.45203064850745e+005,-2.65544279705291e+001,-3.84940166219111e+000

1.47230024099979e+005,-2.65550439852100e+001,-3.90176054401550e+000

1.49285278645888e+005,-2.65556728821315e+001,-3.95480560632650e+000

1.51369223476094e+005,-2.65563148397461e+001,-4.00854529729827e+000

1.53482259092041e+005,-2.65569700355565e+001,-4.06298817277523e+000

1.55624791585964e+005,-2.65576386460060e+001,-4.11814289877209e+000

1.57797232718936e+005,-2.65583208463729e+001,-4.17401825407272e+000

1.59999999999999e+005,-2.65590168106685e+001,-4.23062313292929e+000

1.62233516766403e+005,-2.65597267115414e+001,-4.28796654786322e+000

1.64498212264969e+005,-2.65604507201866e+001,-4.34605763256937e+000

1.66794521734578e+005,-2.65611890062613e+001,-4.40490564492431e+000

1.69122886489819e+005,-2.65619417378090e+001,-4.46451997009900e+000

1.71483754005805e+005,-2.65627090811912e+001,-4.52491012377622e+000

1.73877578004168e+005,-2.65634912010283e+001,-4.58608575547459e+000

1.76304818540256e+005,-2.65642882601512e+001,-4.64805665197609e+000

1.78765942091554e+005,-2.65651004195630e+001,-4.71083274085892e+000

1.81261421647326e+005,-2.65659278384136e+001,-4.77442409413287e+000

1.83791736799524e+005,-2.65667706739864e+001,-4.83884093197873e+000

1.86357373834951e+005,-2.65676290816994e+001,-4.90409362658559e+000

1.88958825828723e+005,-2.65685032151201e+001,-4.97019270608884e+000

1.91596592739027e+005,-2.65693932259976e+001,-5.03714885860261e+000

1.94271181503206e+005,-2.65702992643098e+001,-5.10497293634597e+000

1.96983106135185e+005,-2.65712214783294e+001,-5.17367595985827e+000

1.99732887824256e+005,-2.65721600147075e+001,-5.24326912230081e+000

2.02521055035243e+005,-2.65731150185768e+001,-5.31376379383956e+000

2.05348143610063e+005,-2.65740866336758e+001,-5.38517152610536e+000

2.08214696870707e+005,-2.65750750024928e+001,-5.45750405672688e+000

2.11121265723661e+005,-2.65760802664326e+001,-5.53077331392828e+000

2.14068408765776e+005,-2.65771025660062e+001,-5.60499142118903e+000

2.17056692391625e+005,-2.65781420410427e+001,-5.68017070195862e+000

2.20086690902357e+005,-2.65791988309265e+001,-5.75632368441752e+000

2.23158986616063e+005,-2.65802730748585e+001,-5.83346310628018e+000

2.26274169979693e+005,-2.65813649121423e+001,-5.91160191963188e+000

2.29432839682530e+005,-2.65824744824969e+001,-5.99075329579095e+000

2.32635602771247e+005,-2.65836019263949e+001,-6.07093063018918e+000

2.35883074766574e+005,-2.65847473854270e+001,-6.15214754726337e+000

2.39175879781588e+005,-2.65859110026941e+001,-6.23441790534652e+000

2.42514650641661e+005,-2.65870929232258e+001,-6.31775580155478e+000

2.45900029006080e+005,-2.65882932944255e+001,-6.40217557665764e+000

2.49332665491357e+005,-2.65895122665433e+001,-6.48769181992381e+000

2.52813219796278e+005,-2.65907499931758e+001,-6.57431937393514e+000

2.56342360828676e+005,-2.65920066317922e+001,-6.66207333935912e+000

2.59920766833993e+005,-2.65932823442879e+001,-6.75096907966997e+000

2.63549125525621e+005,-2.65945772975634e+001,-6.84102222581162e+000

2.67228134217075e+005,-2.65958916641297e+001,-6.93224868079459e+000

2.70958499956006e+005,-2.65972256227391e+001,-7.02466462421427e+000

2.74740939660078e+005,-2.65985793590404e+001,-7.11828651668841e+000

2.78576180254757e+005,-2.65999530662588e+001,-7.21313110420192e+000

2.82464958813007e+005,-2.66013469458980e+001,-7.30921542235259e+000

2.86408022696948e+005,-2.66027612084668e+001,-7.40655680049116e+000

2.90406129701488e+005,-2.66041960742252e+001,-7.50517286574928e+000

2.94460048199957e+005,-2.66056517739530e+001,-7.60508154694748e+000

2.98570557291775e+005,-2.66071285497369e+001,-7.70630107837920e+000

3.02738446952187e+005,-2.66086266557769e+001,-7.80885000346499e+000

3.06964518184081e+005,-2.66101463592100e+001,-7.91274717827201e+000

3.11249583171928e+005,-2.66116879409504e+001,-8.01801177489478e+000

3.15594465437872e+005,-2.66132516965443e+001,-8.12466328469387e+000

3.19999999999997e+005,-2.66148379370400e+001,-8.23272152138917e+000

3.24467033532806e+005,-2.66164469898691e+001,-8.34220662400620e+000

3.28996424529938e+005,-2.66180791997406e+001,-8.45313905967283e+000

3.33589043469155e+005,-2.66197349295446e+001,-8.56553962626582e+000

3.38245772979638e+005,-2.66214145612651e+001,-8.67942945490679e+000

3.42967508011610e+005,-2.66231184969009e+001,-8.79483001230818e+000

3.47755156008335e+005,-2.66248471593930e+001,-8.91176310296813e+000

3.52609637080511e+005,-2.66266009935577e+001,-9.03025087121843e+000

3.57531884183106e+005,-2.66283804670237e+001,-9.15031580312540e+000

3.62522843294651e+005,-2.66301860711731e+001,-9.27198072824663e+000

3.67583473599047e+005,-2.66320183220842e+001,-9.39526882124683e+000

3.72714747669902e+005,-2.66338777614761e+001,-9.52020360337637e+000

3.77917651657445e+005,-2.66357649576536e+001,-9.64680894381569e+000

3.83193185478053e+005,-2.66376805064512e+001,-9.77510906089054e+000

3.88542363006410e+005,-2.66396250321773e+001,-9.90512852316218e+000

3.93966212270369e+005,-2.66415991885555e+001,-1.00368922503981e+001

3.99465775648511e+005,-2.66436036596639e+001,-1.01704255144275e+001

4.05042110070485e+005,-2.66456391608717e+001,-1.03057539398879e+001

4.10696287220124e+005,-2.66477064397725e+001,-1.04429035048680e+001

4.16429393741414e+005,-2.66498062771142e+001,-1.05819005414520e+001

4.22242531447321e+005,-2.66519394877244e+001,-1.07227717361724e+001

4.28136817531551e+005,-2.66541069214333e+001,-1.08655441303754e+001

4.34113384783250e+005,-2.66563094639908e+001,-1.10102451205051e+001

4.40173381804713e+005,-2.66585480379816e+001,-1.11569024583138e+001

4.46317973232124e+005,-2.66608236037348e+001,-1.13055442510010e+001

4.52548339959385e+005,-2.66631371602308e+001,-1.14561989612876e+001

4.58865679365059e+005,-2.66654897460055e+001,-1.16088954074309e+001

4.65271205542494e+005,-2.66678824400497e+001,-1.17636627631849e+001

4.71766149533147e+005,-2.66703163627083e+001,-1.19205305577089e+001

4.78351759563174e+005,-2.66727926765759e+001,-1.20795286754297e+001

4.85029301283321e+005,-2.66753125873918e+001,-1.22406873558618e+001

4.91800058012158e+005,-2.66778773449340e+001,-1.24040371933857e+001

4.98665330982714e+005,-2.66804882439136e+001,-1.25696091369908e+001

5.05626439592555e+005,-2.66831466248691e+001,-1.27374344899823e+001

5.12684721657352e+005,-2.66858538750633e+001,-1.29075449096550e+001

5.19841533667984e+005,-2.66886114293815e+001,-1.30799724069348e+001

5.27098251051240e+005,-2.66914207712340e+001,-1.32547493459886e+001

5.34456268434150e+005,-2.66942834334613e+001,-1.34319084438031e+001

5.41916999912011e+005,-2.66972009992457e+001,-1.36114827697308e+001

