Freq.,VOut,OutRef

1.00000000000000e+004,-1.66661359620635e+001,-1.61677833064814e-001

1.01395947979003e+004,-1.66661373034648e+001,-1.63934520950900e-001

1.02811382665607e+004,-1.66661386825094e+001,-1.66222700400024e-001

1.04246576084112e+004,-1.66661401002514e+001,-1.68542810568893e-001

1.05701804056138e+004,-1.66661415577749e+001,-1.70895296723518e-001

1.07177346253629e+004,-1.66661430561937e+001,-1.73280610327532e-001

1.08673486252606e+004,-1.66661445966530e+001,-1.75699209125349e-001

1.10190511587661e+004,-1.66661461803296e+001,-1.78151557229829e-001

1.11728713807222e+004,-1.66661478084338e+001,-1.80638125208740e-001

1.13288388529580e+004,-1.66661494822091e+001,-1.83159390176776e-001

1.14869835499703e+004,-1.66661512029334e+001,-1.85715835885164e-001

1.16473358646846e+004,-1.66661529719206e+001,-1.88307952812089e-001

1.18099266142953e+004,-1.66661547905214e+001,-1.90936238254381e-001

1.19747870461893e+004,-1.66661566601236e+001,-1.93601196425529e-001

1.21419488439505e+004,-1.66661585821538e+001,-1.96303338547931e-001

1.23114441334492e+004,-1.66661605580786e+001,-1.99043182949226e-001

1.24833054890161e+004,-1.66661625894048e+001,-2.01821255164549e-001

1.26575659397028e+004,-1.66661646776818e+001,-2.04638088029205e-001

1.28342589756290e+004,-1.66661668245015e+001,-2.07494221784314e-001

1.30134185544193e+004,-1.66661690315005e+001,-2.10390204176595e-001

1.31950791077289e+004,-1.66661713003603e+001,-2.13326590564139e-001

1.33792755478611e+004,-1.66661736328098e+001,-2.16303944015921e-001

1.35660432744767e+004,-1.66661760306255e+001,-2.19322835422445e-001

1.37554181813974e+004,-1.66661784956332e+001,-2.22383843603130e-001

1.39474366635040e+004,-1.66661810297094e+001,-2.25487555413165e-001

1.41421356237309e+004,-1.66661836347826e+001,-2.28634565854278e-001

1.43395524801583e+004,-1.66661863128351e+001,-2.31825478185678e-001

1.45397251732031e+004,-1.66661890659036e+001,-2.35060904042290e-001

1.47426921729110e+004,-1.66661918960817e+001,-2.38341463542266e-001

1.49484924863494e+004,-1.66661948055208e+001,-2.41667785408995e-001

1.51571656651040e+004,-1.66661977964317e+001,-2.45040507085929e-001

1.53687518128801e+004,-1.66662008710866e+001,-2.48460274857743e-001

1.55832915932100e+004,-1.66662040318203e+001,-2.51927743970920e-001

1.58008262372675e+004,-1.66662072810323e+001,-2.55443578754469e-001

1.60213975517924e+004,-1.66662106211885e+001,-2.59008452747004e-001

1.62450479271247e+004,-1.66662140548226e+001,-2.62623048820116e-001

1.64718203453514e+004,-1.66662175845387e+001,-2.66288059307469e-001

1.67017583885674e+004,-1.66662212130119e+001,-2.70004186134726e-001

1.69349062472505e+004,-1.66662249429921e+001,-2.73772140944886e-001

1.71713087287550e+004,-1.66662287773042e+001,-2.77592645239538e-001

1.74110112659224e+004,-1.66662327188511e+001,-2.81466430505377e-001

1.76540599258131e+004,-1.66662367706159e+001,-2.85394238353679e-001

1.79005014185594e+004,-1.66662409356634e+001,-2.89376820658120e-001

1.81503831063432e+004,-1.66662452171429e+001,-2.93414939691832e-001

1.84037530124975e+004,-1.66662496182898e+001,-2.97509368273353e-001

1.86606598307361e+004,-1.66662541424290e+001,-3.01660889903230e-001

1.89211529345119e+004,-1.66662587929761e+001,-3.05870298914308e-001

1.91852823865052e+004,-1.66662635734404e+001,-3.10138400616871e-001

1.94530989482457e+004,-1.66662684874276e+001,-3.14466011446049e-001

1.97246540898671e+004,-1.66662735386419e+001,-3.18853959113763e-001

1.99999999999999e+004,-1.66662787308889e+001,-3.23303082759938e-001

2.02791895958005e+004,-1.66662840680783e+001,-3.27814233106995e-001

2.05622765331213e+004,-1.66662895542266e+001,-3.32388272618099e-001

2.08493152168224e+004,-1.66662951934596e+001,-3.37026075653150e-001

2.11403608112276e+004,-1.66663009900161e+001,-3.41728528629296e-001

2.14354692507258e+004,-1.66663069482501e+001,-3.46496530183486e-001

2.17346972505211e+004,-1.66663130726340e+001,-3.51330991337867e-001

2.20381023175322e+004,-1.66663193677620e+001,-3.56232835663976e-001

2.23457427614443e+004,-1.66663258383533e+001,-3.61202999450950e-001

2.26576777059159e+004,-1.66663324892549e+001,-3.66242431879240e-001

2.29739670999406e+004,-1.66663393254452e+001,-3.71352095188980e-001

2.32946717293690e+004,-1.66663463520378e+001,-3.76532964857349e-001

2.36198532285905e+004,-1.66663535742843e+001,-3.81786029773016e-001

2.39495740923785e+004,-1.66663609975785e+001,-3.87112292417594e-001

2.42838976879009e+004,-1.66663686274595e+001,-3.92512769045487e-001

2.46228882668982e+004,-1.66663764696162e+001,-3.97988489864780e-001

2.49666109780322e+004,-1.66663845298904e+001,-4.03540499227139e-001

2.53151318794055e+004,-1.66663928142812e+001,-4.09169855811715e-001

2.56685179512580e+004,-1.66664013289488e+001,-4.14877632816206e-001

2.60268371088386e+004,-1.66664100802188e+001,-4.20664918149030e-001

2.63901582154578e+004,-1.66664190745861e+001,-4.26532814624311e-001

2.67585510957221e+004,-1.66664283187197e+001,-4.32482440156623e-001

2.71320865489533e+004,-1.66664378194666e+001,-4.38514927961379e-001

2.75108363627948e+004,-1.66664475838564e+001,-4.44631426756131e-001

2.78948733270080e+004,-1.66664576191062e+001,-4.50833100963116e-001

2.82842712474618e+004,-1.66664679326249e+001,-4.57121130915835e-001

2.86791049603164e+004,-1.66664785320182e+001,-4.63496713067216e-001

2.90794503464061e+004,-1.66664894250936e+001,-4.69961060199103e-001

2.94853843458219e+004,-1.66665006198650e+001,-4.76515401637201e-001

2.98969849726987e+004,-1.66665121245583e+001,-4.83160983465413e-001

3.03143313302078e+004,-1.66665239476160e+001,-4.89899068742686e-001

3.07375036257601e+004,-1.66665360977032e+001,-4.96730937724563e-001

3.11665831864199e+004,-1.66665485837125e+001,-5.03657888085552e-001

3.16016524745350e+004,-1.66665614147698e+001,-5.10681235143428e-001

3.20427951035848e+004,-1.66665746002396e+001,-5.17802312087713e-001

3.24900958542493e+004,-1.66665881497311e+001,-5.25022470208275e-001

3.29436406907028e+004,-1.66666020731039e+001,-5.32343079129438e-001

3.34035167771346e+004,-1.66666163804740e+001,-5.39765527043163e-001

3.38698124945009e+004,-1.66666310822197e+001,-5.47291220948787e-001

3.43426174575100e+004,-1.66666461889879e+001,-5.54921586889856e-001

3.48220225318448e+004,-1.66666617117004e+001,-5.62658070198906e-001

3.53081198516260e+004,-1.66666776615603e+001,-5.70502135741260e-001

3.58010028371187e+004,-1.66666940500583e+001,-5.78455268163455e-001

3.63007662126863e+004,-1.66667108889796e+001,-5.86518972140880e-001

3.68075060249948e+004,-1.66667281904104e+001,-5.94694772633112e-001

3.73213196614721e+004,-1.66667459667448e+001,-6.02984215138034e-001

3.78423058690237e+004,-1.66667642306916e+001,-6.11388865947326e-001

3.83705647730104e+004,-1.66667829952816e+001,-6.19910312409533e-001

3.89061978964912e+004,-1.66668022738742e+001,-6.28550163191110e-001

3.94493081797342e+004,-1.66668220801654e+001,-6.37310048541694e-001

3.99999999999998e+004,-1.66668424281945e+001,-6.46191620561163e-001

4.05583791916010e+004,-1.66668633323514e+001,-6.55196553472141e-001

4.11245530662425e+004,-1.66668848073848e+001,-6.64326543890087e-001

4.16986304336447e+004,-1.66669068684091e+001,-6.73583311101233e-001

4.22807216224550e+004,-1.66669295309126e+001,-6.82968597337552e-001

4.28709385014515e+004,-1.66669528107648e+001,-6.92484168059687e-001

4.34693945010421e+004,-1.66669767242244e+001,-7.02131812239184e-001

4.40762046350642e+004,-1.66670012879473e+001,-7.11913342644404e-001

4.46914855228886e+004,-1.66670265189945e+001,-7.21830596127013e-001

4.53153554118317e+004,-1.66670524348401e+001,-7.31885433914940e-001

4.59479341998812e+004,-1.66670790533793e+001,-7.42079741904213e-001

4.65893434587380e+004,-1.66671063929368e+001,-7.52415430954287e-001

4.72397064571810e+004,-1.66671344722745e+001,-7.62894437187588e-001

4.78991481847569e+004,-1.66671633106002e+001,-7.73518722289447e-001

4.85677953758016e+004,-1.66671929275753e+001,-7.84290273812907e-001

4.92457765337964e+004,-1.66672233433235e+001,-7.95211105481744e-001

4.99332219560642e+004,-1.66672545784387e+001,-8.06283257501534e-001

5.06302637588109e+004,-1.66672866539935e+001,-8.17508796869760e-001

5.13370359025159e+004,-1.66673195915470e+001,-8.28889817689531e-001

5.20536742176771e+004,-1.66673534131535e+001,-8.40428441485035e-001

5.27803164309155e+004,-1.66673881413701e+001,-8.52126817520977e-001

5.35171021914442e+004,-1.66674237992651e+001,-8.63987123123672e-001

5.42641730979066e+004,-1.66674604104262e+001,-8.76011564003308e-001

5.50216727255895e+004,-1.66674979989679e+001,-8.88202374582693e-001

5.57897466540159e+004,-1.66675365895396e+001,-9.00561818324879e-001

5.65685424949235e+004,-1.66675762073335e+001,-9.13092188064591e-001

5.73582099206328e+004,-1.66676168780917e+001,-9.25795806342773e-001

5.81589006928121e+004,-1.66676586281142e+001,-9.38675025742806e-001

5.89707686916437e+004,-1.66677014842655e+001,-9.51732229230668e-001

5.97939699453972e+004,-1.66677454739824e+001,-9.64969830496452e-001

6.06286626604156e+004,-1.66677906252801e+001,-9.78390274299748e-001

6.14750072515201e+004,-1.66678369667592e+001,-9.91996036816638e-001

6.23331663728396e+004,-1.66678845276119e+001,-1.00578962599147e+000

6.32033049490698e+004,-1.66679333376283e+001,-1.01977358188796e+000

6.40855902071694e+004,-1.66679834272019e+001,-1.03395047704706e+000

6.49801917084985e+004,-1.66680348273349e+001,-1.04832291684522e+000

6.58872813814055e+004,-1.66680875696434e+001,-1.06289353985713e+000

6.68070335542691e+004,-1.66681416863623e+001,-1.07766501822040e+000

6.77396249890018e+004,-1.66681972103488e+001,-1.09264005800479e+000

6.86852349150199e+004,-1.66682541750867e+001,-1.10782139958225e+000

6.96440450636895e+004,-1.66683126146895e+001,-1.12321181800447e+000

7.06162397032520e+004,-1.66683725639032e+001,-1.13881412337906e+000

7.16020056742374e+004,-1.66684340581082e+001,-1.15463116125258e+000

7.26015324253724e+004,-1.66684971333211e+001,-1.17066581299743e+000

7.36150120499896e+004,-1.66685618261957e+001,-1.18692099619976e+000

7.46426393229441e+004,-1.66686281740229e+001,-1.20339966505449e+000

7.56846117380472e+004,-1.66686962147303e+001,-1.22010481076350e+000

7.67411295460207e+004,-1.66687659868815e+001,-1.23703946193727e+000

7.78123957929823e+004,-1.66688375296733e+001,-1.25420668500182e+000

7.88986163594682e+004,-1.66689108829334e+001,-1.27160958461205e+000

7.99999999999995e+004,-1.66689860871163e+001,-1.28925130406675e+000

8.11167583832018e+004,-1.66690631832990e+001,-1.30713502573190e+000

8.22491061324848e+004,-1.66691422131748e+001,-1.32526397146841e+000

8.33972608672892e+004,-1.66692232190473e+001,-1.34364140306553e+000

8.45614432449099e+004,-1.66693062438219e+001,-1.36227062268191e+000

8.57418770029029e+004,-1.66693913309977e+001,-1.38115497328927e+000

8.69387890020841e+004,-1.66694785246568e+001,-1.40029783912987e+000

8.81524092701283e+004,-1.66695678694537e+001,-1.41970264617337e+000

8.93829710457770e+004,-1.66696594106023e+001,-1.43937286258749e+000

9.06307108236633e+004,-1.66697531938625e+001,-1.45931199921444e+000

9.18958683997622e+004,-1.66698492655249e+001,-1.47952361005452e+000

9.31786869174758e+004,-1.66699476723942e+001,-1.50001129276201e+000

9.44794129143618e+004,-1.66700484617716e+001,-1.52077868914882e+000

9.57982963695136e+004,-1.66701516814349e+001,-1.54182948569814e+000

9.71355907516031e+004,-1.66702573796178e+001,-1.56316741408950e+000

9.84915530675926e+004,-1.66703656049875e+001,-1.58479625173482e+000

9.98664439121282e+004,-1.66704764066202e+001,-1.60671982232802e+000

1.01260527517622e+005,-1.66705898339760e+001,-1.62894199640350e+000

1.02674071805032e+005,-1.66707059368705e+001,-1.65146669191334e+000

1.04107348435354e+005,-1.66708247654467e+001,-1.67429787481465e+000

1.05560632861831e+005,-1.66709463701432e+001,-1.69743955967240e+000

1.07034204382888e+005,-1.66710708016624e+001,-1.72089581028090e+000

1.08528346195813e+005,-1.66711981109354e+001,-1.74467074029757e+000

1.10043345451179e+005,-1.66713283490864e+001,-1.76876851389810e+000

1.11579493308032e+005,-1.66714615673942e+001,-1.79319334644785e+000

1.13137084989847e+005,-1.66715978172528e+001,-1.81794950519276e+000

1.14716419841265e+005,-1.66717371501295e+001,-1.84304130997139e+000

1.16317801385624e+005,-1.66718796175216e+001,-1.86847313394775e+000

1.17941537383287e+005,-1.66720252709113e+001,-1.89424940436699e+000

1.19587939890794e+005,-1.66721741617185e+001,-1.92037460333413e+000

1.21257325320831e+005,-1.66723263412525e+001,-1.94685326861685e+000

1.22950014503040e+005,-1.66724818606610e+001,-1.97368999447587e+000

1.24666332745679e+005,-1.66726407708785e+001,-2.00088943252015e+000

1.26406609898139e+005,-1.66728031225725e+001,-2.02845629258993e+000

1.28171180414339e+005,-1.66729689660883e+001,-2.05639534367196e+000

1.29960383416997e+005,-1.66731383513922e+001,-2.08471141484067e+000

1.31774562762811e+005,-1.66733113280136e+001,-2.11340939623477e+000

1.33614067108538e+005,-1.66734879449854e+001,-2.14249424006399e+000

1.35479249978003e+005,-1.66736682507838e+001,-2.17197096165129e+000

1.37370469830040e+005,-1.66738522932665e+001,-2.20184464050983e+000

1.39288090127379e+005,-1.66740401196101e+001,-2.23212042145614e+000

1.41232479406504e+005,-1.66742317762468e+001,-2.26280351576139e+000

1.43204011348474e+005,-1.66744273088007e+001,-2.29389920234023e+000

1.45203064850745e+005,-1.66746267620230e+001,-2.32541282898094e+000

1.47230024099979e+005,-1.66748301797273e+001,-2.35734981361658e+000

1.49285278645888e+005,-1.66750376047251e+001,-2.38971564563690e+000

1.51369223476094e+005,-1.66752490787607e+001,-2.42251588724411e+000

1.53482259092041e+005,-1.66754646424472e+001,-2.45575617485382e+000

1.55624791585964e+005,-1.66756843352022e+001,-2.48944222053989e+000

1.57797232718936e+005,-1.66759081951852e+001,-2.52357981352533e+000

1.59999999999999e+005,-1.66761362592356e+001,-2.55817482172010e+000

1.62233516766403e+005,-1.66763685628119e+001,-2.59323319330762e+000

1.64498212264969e+005,-1.66766051399327e+001,-2.62876095837703e+000

1.66794521734578e+005,-1.66768460231201e+001,-2.66476423060617e+000

1.69122886489819e+005,-1.66770912433441e+001,-2.70124920899350e+000

1.71483754005805e+005,-1.66773408299710e+001,-2.73822217963814e+000

1.73877578004168e+005,-1.66775948107131e+001,-2.77568951757147e+000

1.76304818540256e+005,-1.66778532115833e+001,-2.81365768863702e+000

1.78765942091554e+005,-1.66781160568515e+001,-2.85213325142186e+000

1.81261421647326e+005,-1.66783833690064e+001,-2.89112285923480e+000

1.83791736799524e+005,-1.66786551687197e+001,-2.93063326213812e+000

1.86357373834951e+005,-1.66789314748172e+001,-2.97067130902420e+000

1.88958825828723e+005,-1.66792123042524e+001,-3.01124394974291e+000

1.91596592739027e+005,-1.66794976720869e+001,-3.05235823727619e+000

1.94271181503206e+005,-1.66797875914758e+001,-3.09402132995891e+000

1.96983106135185e+005,-1.66800820736594e+001,-3.13624049374492e+000

1.99732887824256e+005,-1.66803811279603e+001,-3.17902310451959e+000

2.02521055035243e+005,-1.66806847617883e+001,-3.22237665045294e+000

2.05348143610063e+005,-1.66809929806510e+001,-3.26630873439637e+000

2.08214696870707e+005,-1.66813057881728e+001,-3.31082707631740e+000

2.11121265723661e+005,-1.66816231861202e+001,-3.35593951577474e+000

2.14068408765776e+005,-1.66819451744360e+001,-3.40165401442695e+000

2.17056692391625e+005,-1.66822717512807e+001,-3.44797865857730e+000

2.20086690902357e+005,-1.66826029130823e+001,-3.49492166174830e+000

2.23158986616063e+005,-1.66829386545952e+001,-3.54249136728718e+000

2.26274169979693e+005,-1.66832789689673e+001,-3.59069625099669e+000

2.29432839682530e+005,-1.66836238478155e+001,-3.63954492379222e+000

2.32635602771247e+005,-1.66839732813114e+001,-3.68904613437604e+000

2.35883074766574e+005,-1.66843272582749e+001,-3.73920877193671e+000

2.39175879781588e+005,-1.66846857662777e+001,-3.79004186885704e+000

2.42514650641661e+005,-1.66850487917558e+001,-3.84155460344048e+000

2.45900029006080e+005,-1.66854163201312e+001,-3.89375630264446e+000

2.49332665491357e+005,-1.66857883359433e+001,-3.94665644482038e+000

2.52813219796278e+005,-1.66861648229884e+001,-4.00026466245983e+000

2.56342360828676e+005,-1.66865457644699e+001,-4.05459074493847e+000

2.59920766833993e+005,-1.66869311431559e+001,-4.10964464125976e+000

2.63549125525621e+005,-1.66873209415469e+001,-4.16543646279293e+000

2.67228134217075e+005,-1.66877151420512e+001,-4.22197648600326e+000

2.70958499956006e+005,-1.66881137271696e+001,-4.27927515517085e+000

2.74740939660078e+005,-1.66885166796876e+001,-4.33734308509640e+000

2.78576180254757e+005,-1.66889239828755e+001,-4.39619106379161e+000

2.82464958813007e+005,-1.66893356206971e+001,-4.45583005514974e+000

2.86408022696948e+005,-1.66897515780241e+001,-4.51627120159607e+000

2.90406129701488e+005,-1.66901718408586e+001,-4.57752582671706e+000

2.94460048199957e+005,-1.66905963965612e+001,-4.63960543786115e+000

2.98570557291775e+005,-1.66910252340863e+001,-4.70252172871711e+000

3.02738446952187e+005,-1.66914583442214e+001,-4.76628658186196e+000

3.06964518184081e+005,-1.66918957198329e+001,-4.83091207128073e+000

3.11249583171928e+005,-1.66923373561162e+001,-4.89641046485544e+000

3.15594465437872e+005,-1.66927832508494e+001,-4.96279422682306e+000

3.19999999999997e+005,-1.66932334046516e+001,-5.03007602020323e+000

3.24467033532806e+005,-1.66936878212437e+001,-5.09826870919196e+000

3.28996424529938e+005,-1.66941465077121e+001,-5.16738536152576e+000

3.33589043469155e+005,-1.66946094747746e+001,-5.23743925081191e+000

3.38245772979638e+005,-1.66950767370480e+001,-5.30844385883032e+000

3.42967508011610e+005,-1.66955483133166e+001,-5.38041287780282e+000

3.47755156008335e+005,-1.66960242268016e+001,-5.45336021263429e+000

3.52609637080511e+005,-1.66965045054306e+001,-5.52729998312652e+000

3.57531884183106e+005,-1.66969891821072e+001,-5.60224652616310e+000

3.62522843294651e+005,-1.66974782949788e+001,-5.67821439787323e+000

3.67583473599047e+005,-1.66979718877048e+001,-5.75521837577026e+000

3.72714747669902e+005,-1.66984700097219e+001,-5.83327346087035e+000

3.77917651657445e+005,-1.66989727165082e+001,-5.91239487979417e+000

3.83193185478053e+005,-1.66994800698453e+001,-5.99259808685154e+000

3.88542363006410e+005,-1.66999921380767e+001,-6.07389876611461e+000

3.93966212270369e+005,-1.67005089963648e+001,-6.15631283348048e+000

3.99465775648511e+005,-1.67010307269438e+001,-6.23985643872796e+000

4.05042110070485e+005,-1.67015574193694e+001,-6.32454596756942e+000

4.10696287220124e+005,-1.67020891707657e+001,-6.41039804370355e+000

4.16429393741414e+005,-1.67026260860676e+001,-6.49742953087012e+000

4.22242531447321e+005,-1.67031682782600e+001,-6.58565753491202e+000

4.28136817531551e+005,-1.67037158686134e+001,-6.67509940584621e+000

4.34113384783250e+005,-1.67042689869149e+001,-6.76577273994816e+000

4.40173381804713e+005,-1.67048277716962e+001,-6.85769538185345e+000

4.46317973232124e+005,-1.67053923704575e+001,-6.95088542667799e+000

4.52548339959385e+005,-1.67059629398878e+001,-7.04536122216376e+000

4.58865679365059e+005,-1.67065396460816e+001,-7.14114137084957e+000

4.65271205542494e+005,-1.67071226647524e+001,-7.23824473227219e+000

4.71766149533147e+005,-1.67077121814425e+001,-7.33669042520149e+000

4.78351759563174e+005,-1.67083083917307e+001,-7.43649782991092e+000

4.85029301283321e+005,-1.67089115014361e+001,-7.53768659048750e+000

4.91800058012158e+005,-1.67095217268208e+001,-7.64027661718364e+000

4.98665330982714e+005,-1.67101392947893e+001,-7.74428808881436e+000

5.05626439592555e+005,-1.67107644430866e+001,-7.84974145520071e+000

5.12684721657352e+005,-1.67113974204949e+001,-7.95665743966391e+000

5.19841533667984e+005,-1.67120384870293e+001,-8.06505704157020e+000

5.27098251051240e+005,-1.67126879141319e+001,-8.17496153893096e+000

5.34456268434150e+005,-1.67133459848672e+001,-8.28639249105706e+000

5.41916999912011e+005,-1.67140129941163e+001,-8.39937174127234e+000

