Freq.,VOut,OutRef

1.00000000000000e+004,-1.78915967516150e+001,-1.65172386839039e-001

1.01395947979003e+004,-1.78916006317203e+001,-1.67477321141292e-001

1.02811382665607e+004,-1.78916046206935e+001,-1.69814397782911e-001

1.04246576084112e+004,-1.78916087215829e+001,-1.72184064041501e-001

1.05701804056138e+004,-1.78916129375217e+001,-1.74586773379264e-001

1.07177346253629e+004,-1.78916172717308e+001,-1.77022985525939e-001

1.08673486252606e+004,-1.78916217275205e+001,-1.79493166563207e-001

1.10190511587661e+004,-1.78916263082937e+001,-1.81997789010979e-001

1.11728713807222e+004,-1.78916310175476e+001,-1.84537331918071e-001

1.13288388529580e+004,-1.78916358588775e+001,-1.87112280942063e-001

1.14869835499703e+004,-1.78916408359780e+001,-1.89723128448360e-001

1.16473358646846e+004,-1.78916459526471e+001,-1.92370373592521e-001

1.18099266142953e+004,-1.78916512127882e+001,-1.95054522416315e-001

1.19747870461893e+004,-1.78916566204136e+001,-1.97776087938076e-001

1.21419488439505e+004,-1.78916621796466e+001,-2.00535590249372e-001

1.23114441334492e+004,-1.78916678947260e+001,-2.03333556604482e-001

1.24833054890161e+004,-1.78916737700076e+001,-2.06170521523172e-001

1.26575659397028e+004,-1.78916798099685e+001,-2.09047026882740e-001

1.28342589756290e+004,-1.78916860192104e+001,-2.11963622018264e-001

1.30134185544193e+004,-1.78916924024623e+001,-2.14920863824419e-001

1.31950791077289e+004,-1.78916989645849e+001,-2.17919316851216e-001

1.33792755478611e+004,-1.78917057105734e+001,-2.20959553411708e-001

1.35660432744767e+004,-1.78917126455619e+001,-2.24042153679479e-001

1.37554181813974e+004,-1.78917197748264e+001,-2.27167705800685e-001

1.39474366635040e+004,-1.78917271037894e+001,-2.30336805991650e-001

1.41421356237309e+004,-1.78917346380237e+001,-2.33550058650724e-001

1.43395524801583e+004,-1.78917423832562e+001,-2.36808076465750e-001

1.45397251732031e+004,-1.78917503453722e+001,-2.40111480523139e-001

1.47426921729110e+004,-1.78917585304203e+001,-2.43460900417182e-001

1.49484924863494e+004,-1.78917669446157e+001,-2.46856974366953e-001

1.51571656651040e+004,-1.78917755943460e+001,-2.50300349323119e-001

1.53687518128801e+004,-1.78917844861749e+001,-2.53791681087671e-001

1.55832915932100e+004,-1.78917936268476e+001,-2.57331634425571e-001

1.58008262372675e+004,-1.78918030232950e+001,-2.60920883188367e-001

1.60213975517924e+004,-1.78918126826397e+001,-2.64560110425436e-001

1.62450479271247e+004,-1.78918226122004e+001,-2.68250008507894e-001

1.64718203453514e+004,-1.78918328194977e+001,-2.71991279249300e-001

1.67017583885674e+004,-1.78918433122589e+001,-2.75784634027636e-001

1.69349062472505e+004,-1.78918540984242e+001,-2.79630793910317e-001

1.71713087287550e+004,-1.78918651861523e+001,-2.83530489776522e-001

1.74110112659224e+004,-1.78918765838258e+001,-2.87484462448144e-001

1.76540599258131e+004,-1.78918883000584e+001,-2.91493462810895e-001

1.79005014185594e+004,-1.78919003436989e+001,-2.95558251953117e-001

1.81503831063432e+004,-1.78919127238404e+001,-2.99679601284476e-001

1.84037530124975e+004,-1.78919254498240e+001,-3.03858292679159e-001

1.86606598307361e+004,-1.78919385312475e+001,-3.08095118601398e-001

1.89211529345119e+004,-1.78919519779710e+001,-3.12390882242608e-001

1.91852823865052e+004,-1.78919658001246e+001,-3.16746397656309e-001

1.94530989482457e+004,-1.78919800081152e+001,-3.21162489897127e-001

1.97246540898671e+004,-1.78919946126337e+001,-3.25639995158031e-001

1.99999999999999e+004,-1.78920096246630e+001,-3.30179760909089e-001

2.02791895958005e+004,-1.78920250554852e+001,-3.34782646040668e-001

2.05622765331213e+004,-1.78920409166900e+001,-3.39449521003496e-001

2.08493152168224e+004,-1.78920572201826e+001,-3.44181267953597e-001

2.11403608112276e+004,-1.78920739781912e+001,-3.48978780898972e-001

2.14354692507258e+004,-1.78920912032770e+001,-3.53842965842600e-001

2.17346972505211e+004,-1.78921089083417e+001,-3.58774740931079e-001

2.20381023175322e+004,-1.78921271066367e+001,-3.63775036604186e-001

2.23457427614443e+004,-1.78921458117724e+001,-3.68844795745954e-001

2.26576777059159e+004,-1.78921650377275e+001,-3.73984973831115e-001

2.29739670999406e+004,-1.78921847988580e+001,-3.79196539083672e-001

2.32946717293690e+004,-1.78922051099080e+001,-3.84480472625741e-001

2.36198532285905e+004,-1.78922259860186e+001,-3.89837768635451e-001

2.39495740923785e+004,-1.78922474427390e+001,-3.95269434499870e-001

2.42838976879009e+004,-1.78922694960362e+001,-4.00776490975735e-001

2.46228882668982e+004,-1.78922921623062e+001,-4.06359972344864e-001

2.49666109780322e+004,-1.78923154583849e+001,-4.12020926573465e-001

2.53151318794055e+004,-1.78923394015593e+001,-4.17760415473502e-001

2.56685179512580e+004,-1.78923640095785e+001,-4.23579514863742e-001

2.60268371088386e+004,-1.78923893006657e+001,-4.29479314732097e-001

2.63901582154578e+004,-1.78924152935306e+001,-4.35460919397852e-001

2.67585510957221e+004,-1.78924420073807e+001,-4.41525447676265e-001

2.71320865489533e+004,-1.78924694619345e+001,-4.47674033044313e-001

2.75108363627948e+004,-1.78924976774337e+001,-4.53907823806365e-001

2.78948733270080e+004,-1.78925266746565e+001,-4.60227983260177e-001

2.82842712474618e+004,-1.78925564749309e+001,-4.66635689864133e-001

2.86791049603164e+004,-1.78925871001482e+001,-4.73132137406007e-001

2.90794503464061e+004,-1.78926185727765e+001,-4.79718535170964e-001

2.94853843458219e+004,-1.78926509158752e+001,-4.86396108112759e-001

2.98969849726987e+004,-1.78926841531095e+001,-4.93166097020054e-001

3.03143313302078e+004,-1.78927183087643e+001,-5.00029758690518e-001

3.07375036257601e+004,-1.78927534077601e+001,-5.06988366099588e-001

3.11665831864199e+004,-1.78927894756673e+001,-5.14043208572052e-001

3.16016524745350e+004,-1.78928265387225e+001,-5.21195591953243e-001

3.20427951035848e+004,-1.78928646238441e+001,-5.28446838780528e-001

3.24900958542493e+004,-1.78929037586478e+001,-5.35798288456671e-001

3.29436406907028e+004,-1.78929439714638e+001,-5.43251297419573e-001

3.34035167771346e+004,-1.78929852913529e+001,-5.50807239315862e-001

3.38698124945009e+004,-1.78930277481237e+001,-5.58467505171988e-001

3.43426174575100e+004,-1.78930713723496e+001,-5.66233503565454e-001

3.48220225318448e+004,-1.78931161953867e+001,-5.74106660797382e-001

3.53081198516260e+004,-1.78931622493908e+001,-5.82088421063438e-001

3.58010028371187e+004,-1.78932095673367e+001,-5.90180246622264e-001

3.63007662126863e+004,-1.78932581830350e+001,-5.98383617969635e-001

3.68075060249948e+004,-1.78933081311520e+001,-6.06700034004177e-001

3.73213196614721e+004,-1.78933594472277e+001,-6.15131012198430e-001

3.78423058690237e+004,-1.78934121676953e+001,-6.23678088765790e-001

3.83705647730104e+004,-1.78934663299007e+001,-6.32342818826641e-001

3.89061978964912e+004,-1.78935219721215e+001,-6.41126776576430e-001

3.94493081797342e+004,-1.78935791335872e+001,-6.50031555449375e-001

3.99999999999998e+004,-1.78936378544992e+001,-6.59058768280658e-001

4.05583791916010e+004,-1.78936981760512e+001,-6.68210047468522e-001

4.11245530662425e+004,-1.78937601404494e+001,-6.77487045137556e-001

4.16986304336447e+004,-1.78938237909330e+001,-6.86891433294335e-001

4.22807216224550e+004,-1.78938891717956e+001,-6.96424903983933e-001

4.28709385014515e+004,-1.78939563284053e+001,-7.06089169448073e-001

4.34693945010421e+004,-1.78940253072267e+001,-7.15885962274315e-001

4.40762046350642e+004,-1.78940961558416e+001,-7.25817035548391e-001

4.46914855228886e+004,-1.78941689229701e+001,-7.35884163002768e-001

4.53153554118317e+004,-1.78942436584927e+001,-7.46089139161342e-001

4.59479341998812e+004,-1.78943204134712e+001,-7.56433779481543e-001

4.65893434587380e+004,-1.78943992401703e+001,-7.66919920496669e-001

4.72397064571810e+004,-1.78944801920793e+001,-7.77549419951285e-001

4.78991481847569e+004,-1.78945633239335e+001,-7.88324156934169e-001

4.85677953758016e+004,-1.78946486917354e+001,-7.99246032012751e-001

4.92457765337964e+004,-1.78947363527766e+001,-8.10316967355236e-001

4.99332219560642e+004,-1.78948263656581e+001,-8.21538906858277e-001

5.06302637588109e+004,-1.78949187903125e+001,-8.32913816264190e-001

5.13370359025159e+004,-1.78950136880241e+001,-8.44443683277901e-001

5.20536742176771e+004,-1.78951111214499e+001,-8.56130517678702e-001

5.27803164309155e+004,-1.78952111546399e+001,-8.67976351426819e-001

5.35171021914442e+004,-1.78953138530571e+001,-8.79983238767576e-001

5.42641730979066e+004,-1.78954192835973e+001,-8.92153256329569e-001

5.50216727255895e+004,-1.78955275146084e+001,-9.04488503217575e-001

5.57897466540159e+004,-1.78956386159091e+001,-9.16991101103900e-001

5.65685424949235e+004,-1.78957526588072e+001,-9.29663194309975e-001

5.73582099206328e+004,-1.78958697161172e+001,-9.42506949888127e-001

5.81589006928121e+004,-1.78959898621776e+001,-9.55524557691930e-001

5.89707686916437e+004,-1.78961131728669e+001,-9.68718230448999e-001

5.97939699453972e+004,-1.78962397256193e+001,-9.82090203819565e-001

6.06286626604156e+004,-1.78963695994390e+001,-9.95642736459378e-001

6.14750072515201e+004,-1.78965028749145e+001,-1.00937811006604e+000

6.23331663728396e+004,-1.78966396342306e+001,-1.02329862943085e+000

6.32033049490698e+004,-1.78967799611805e+001,-1.03740662247570e+000

6.40855902071694e+004,-1.78969239411761e+001,-1.05170444029008e+000

6.49801917084985e+004,-1.78970716612567e+001,-1.06619445716090e+000

6.58872813814055e+004,-1.78972232100972e+001,-1.08087907059315e+000

6.68070335542691e+004,-1.78973786780139e+001,-1.09576070133256e+000

6.77396249890018e+004,-1.78975381569699e+001,-1.11084179337270e+000

6.86852349150199e+004,-1.78977017405770e+001,-1.12612481396577e+000

6.96440450636895e+004,-1.78978695240978e+001,-1.14161225362127e+000

7.06162397032520e+004,-1.78980416044443e+001,-1.15730662610424e+000

7.16020056742374e+004,-1.78982180801758e+001,-1.17321046842309e+000

7.26015324253724e+004,-1.78983990514935e+001,-1.18932634081676e+000

7.36150120499896e+004,-1.78985846202333e+001,-1.20565682673669e+000

7.46426393229441e+004,-1.78987748898565e+001,-1.22220453282113e+000

7.56846117380472e+004,-1.78989699654374e+001,-1.23897208886845e+000

7.67411295460207e+004,-1.78991699536489e+001,-1.25596214780585e+000

7.78123957929823e+004,-1.78993749627439e+001,-1.27317738565482e+000

7.88986163594682e+004,-1.78995851025362e+001,-1.29062050149063e+000

7.99999999999995e+004,-1.78998004843755e+001,-1.30829421740475e+000

8.11167583832018e+004,-1.79000212211213e+001,-1.32620127846074e+000

8.22491061324848e+004,-1.79002474271119e+001,-1.34434445265242e+000

8.33972608672892e+004,-1.79004792181313e+001,-1.36272653085667e+000

8.45614432449099e+004,-1.79007167113710e+001,-1.38135032679184e+000

8.57418770029029e+004,-1.79009600253887e+001,-1.40021867697434e+000

8.69387890020841e+004,-1.79012092800632e+001,-1.41933444067478e+000

8.81524092701283e+004,-1.79014645965439e+001,-1.43870049988302e+000

8.93829710457770e+004,-1.79017260971981e+001,-1.45831975926939e+000

9.06307108236633e+004,-1.79019939055514e+001,-1.47819514615766e+000

9.18958683997622e+004,-1.79022681462249e+001,-1.49832961050040e+000

9.31786869174758e+004,-1.79025489448678e+001,-1.51872612486103e+000

9.44794129143618e+004,-1.79028364280838e+001,-1.53938768440795e+000

9.57982963695136e+004,-1.79031307233540e+001,-1.56031730691511e+000

9.71355907516031e+004,-1.79034319589526e+001,-1.58151803277730e+000

9.84915530675926e+004,-1.79037402638593e+001,-1.60299292503785e+000

9.98664439121282e+004,-1.79040557676651e+001,-1.62474506942840e+000

1.01260527517622e+005,-1.79043786004719e+001,-1.64677757443208e+000

1.02674071805032e+005,-1.79047088927876e+001,-1.66909357135868e+000

1.04107348435354e+005,-1.79050467754148e+001,-1.69169621444575e+000

1.05560632861831e+005,-1.79053923793331e+001,-1.71458868097914e+000

1.07034204382888e+005,-1.79057458355759e+001,-1.73777417144168e+000

1.08528346195813e+005,-1.79061072751011e+001,-1.76125590968688e+000

1.10043345451179e+005,-1.79064768286550e+001,-1.78503714314522e+000

1.11579493308032e+005,-1.79068546266305e+001,-1.80912114306069e+000

1.13137084989847e+005,-1.79072407989193e+001,-1.83351120476402e+000

1.14716419841265e+005,-1.79076354747566e+001,-1.85821064798282e+000

1.16317801385624e+005,-1.79080387825609e+001,-1.88322281719365e+000

1.17941537383287e+005,-1.79084508497667e+001,-1.90855108201679e+000

1.19587939890794e+005,-1.79088718026515e+001,-1.93419883765736e+000

1.21257325320831e+005,-1.79093017661559e+001,-1.96016950539797e+000

1.22950014503040e+005,-1.79097408636987e+001,-1.98646653314117e+000

1.24666332745679e+005,-1.79101892169854e+001,-2.01309339601202e+000

1.26406609898139e+005,-1.79106469458108e+001,-2.04005359701576e+000

1.28171180414339e+005,-1.79111141678567e+001,-2.06735066776124e+000

1.29960383416997e+005,-1.79115909984836e+001,-2.09498816924827e+000

1.31774562762811e+005,-1.79120775505176e+001,-2.12296969272639e+000

1.33614067108538e+005,-1.79125739340324e+001,-2.15129886062455e+000

1.35479249978003e+005,-1.79130802561268e+001,-2.17997932755717e+000

1.37370469830040e+005,-1.79135966206977e+001,-2.20901478141069e+000

1.39288090127379e+005,-1.79141231282098e+001,-2.23840894451255e+000

1.41232479406504e+005,-1.79146598754619e+001,-2.26816557488532e+000

1.43204011348474e+005,-1.79152069553494e+001,-2.29828846759207e+000

1.45203064850745e+005,-1.79157644566258e+001,-2.32878145617247e+000

1.47230024099979e+005,-1.79163324636616e+001,-2.35964841417502e+000

1.49285278645888e+005,-1.79169110562011e+001,-2.39089325678985e+000

1.51369223476094e+005,-1.79175003091205e+001,-2.42251994257849e+000

1.53482259092041e+005,-1.79181002921843e+001,-2.45453247531209e+000

1.55624791585964e+005,-1.79187110698030e+001,-2.48693490591387e+000

1.57797232718936e+005,-1.79193327007926e+001,-2.51973133450996e+000

1.59999999999999e+005,-1.79199652381355e+001,-2.55292591259222e+000

1.62233516766403e+005,-1.79206087287456e+001,-2.58652284529261e+000

1.64498212264969e+005,-1.79212632132360e+001,-2.62052639377161e+000

1.66794521734578e+005,-1.79219287256923e+001,-2.65494087772313e+000

1.69122886489819e+005,-1.79226052934516e+001,-2.68977067799278e+000

1.71483754005805e+005,-1.79232929368879e+001,-2.72502023931606e+000

1.73877578004168e+005,-1.79239916692048e+001,-2.76069407316960e+000

1.76304818540256e+005,-1.79247014962375e+001,-2.79679676074308e+000

1.78765942091554e+005,-1.79254224162639e+001,-2.83333295602277e+000

1.81261421647326e+005,-1.79261544198265e+001,-2.87030738899375e+000

1.83791736799524e+005,-1.79268974895658e+001,-2.90772486895259e+000

1.86357373834951e+005,-1.79276516000664e+001,-2.94559028793380e+000

1.88958825828723e+005,-1.79284167177175e+001,-2.98390862424218e+000

1.91596592739027e+005,-1.79291928005868e+001,-3.02268494609548e+000

1.94271181503206e+005,-1.79299797983118e+001,-3.06192441536550e+000

1.96983106135185e+005,-1.79307776520068e+001,-3.10163229142040e+000

1.99732887824256e+005,-1.79315862941878e+001,-3.14181393506198e+000

2.02521055035243e+005,-1.79324056487169e+001,-3.18247481254898e+000

2.05348143610063e+005,-1.79332356307656e+001,-3.22362049970940e+000

2.08214696870707e+005,-1.79340761467993e+001,-3.26525668612637e+000

2.11121265723661e+005,-1.79349270945824e+001,-3.30738917939918e+000

2.14068408765776e+005,-1.79357883632070e+001,-3.35002390946722e+000

2.17056692391625e+005,-1.79366598331433e+001,-3.39316693299332e+000

2.20086690902357e+005,-1.79375413763140e+001,-3.43682443779550e+000

2.23158986616063e+005,-1.79384328561935e+001,-3.48100274732109e+000

2.26274169979693e+005,-1.79393341279309e+001,-3.52570832515584e+000

2.29432839682530e+005,-1.79402450384995e+001,-3.57094777955477e+000

2.32635602771247e+005,-1.79411654268704e+001,-3.61672786799106e+000

2.35883074766574e+005,-1.79420951242128e+001,-3.66305550170897e+000

2.39175879781588e+005,-1.79430339541208e+001,-3.70993775027452e+000

2.42514650641661e+005,-1.79439817328650e+001,-3.75738184611195e+000

2.45900029006080e+005,-1.79449382696707e+001,-3.80539518901782e+000

2.49332665491357e+005,-1.79459033670226e+001,-3.85398535064069e+000

2.52813219796278e+005,-1.79468768209945e+001,-3.90316007891761e+000

2.56342360828676e+005,-1.79478584216042e+001,-3.95292730245841e+000

2.59920766833993e+005,-1.79488479531935e+001,-4.00329513486553e+000

2.63549125525621e+005,-1.79498451948326e+001,-4.05427187898093e+000

2.67228134217075e+005,-1.79508499207475e+001,-4.10586603105228e+000

2.70958499956006e+005,-1.79518619007711e+001,-4.15808628480445e+000

2.74740939660078e+005,-1.79528809008148e+001,-4.21094153541272e+000

2.78576180254757e+005,-1.79539066833625e+001,-4.26444088336609e+000

2.82464958813007e+005,-1.79549390079827e+001,-4.31859363821300e+000

2.86408022696948e+005,-1.79559776318612e+001,-4.37340932218152e+000

2.90406129701488e+005,-1.79570223103489e+001,-4.42889767366914e+000

2.94460048199957e+005,-1.79580727975269e+001,-4.48506865059267e+000

2.98570557291775e+005,-1.79591288467860e+001,-4.54193243359344e+000

3.02738446952187e+005,-1.79601902114187e+001,-4.59949942909515e+000

3.06964518184081e+005,-1.79612566452228e+001,-4.65778027220467e+000

3.11249583171928e+005,-1.79623279031149e+001,-4.71678582945852e+000

3.15594465437872e+005,-1.79634037417521e+001,-4.77652720140502e+000

3.19999999999997e+005,-1.79644839201599e+001,-4.83701572502722e+000

3.24467033532806e+005,-1.79655682003654e+001,-4.89826297599939e+000

3.28996424529938e+005,-1.79666563480325e+001,-4.96028077078002e+000

3.33589043469155e+005,-1.79677481330998e+001,-5.02308116854061e+000

3.38245772979638e+005,-1.79688433304171e+001,-5.08667647293077e+000

3.42967508011610e+005,-1.79699417203803e+001,-5.15107923368254e+000

3.47755156008335e+005,-1.79710430895620e+001,-5.21630224805699e+000

3.52609637080511e+005,-1.79721472313375e+001,-5.28235856213506e+000

3.57531884183106e+005,-1.79732539465031e+001,-5.34926147195890e+000

3.62522843294651e+005,-1.79743630438867e+001,-5.41702452452761e+000

3.67583473599047e+005,-1.79754743409472e+001,-5.48566151865305e+000

3.72714747669902e+005,-1.79765876643641e+001,-5.55518650568365e+000

3.77917651657445e+005,-1.79777028506131e+001,-5.62561379010062e+000

3.83193185478053e+005,-1.79788197465284e+001,-5.69695792999806e+000

3.88542363006410e+005,-1.79799382098504e+001,-5.76923373744998e+000

3.93966212270369e+005,-1.79810581097562e+001,-5.84245627877879e+000

3.99465775648511e+005,-1.79821793273738e+001,-5.91664087472948e+000

4.05042110070485e+005,-1.79833017562792e+001,-5.99180310056067e+000

4.10696287220124e+005,-1.79844253029731e+001,-6.06795878606395e+000

4.16429393741414e+005,-1.79855498873400e+001,-6.14512401551816e+000

4.22242531447321e+005,-1.79866754430873e+001,-6.22331512759153e+000

4.28136817531551e+005,-1.79878019181639e+001,-6.30254871520065e+000

4.34113384783250e+005,-1.79889292751588e+001,-6.38284162533704e+000

4.40173381804713e+005,-1.79900574916795e+001,-6.46421095887104e+000

4.46317973232124e+005,-1.79911865607092e+001,-6.54667407034533e+000

4.52548339959385e+005,-1.79923164909444e+001,-6.63024856776495e+000

4.58865679365059e+005,-1.79934473071112e+001,-6.71495231239740e+000

4.65271205542494e+005,-1.79945790502628e+001,-6.80080341859002e+000

4.71766149533147e+005,-1.79957117780563e+001,-6.88782025361621e+000

4.78351759563174e+005,-1.79968455650110e+001,-6.97602143755808e+000

4.85029301283321e+005,-1.79979805027475e+001,-7.06542584323613e+000

4.91800058012158e+005,-1.79991167002095e+001,-7.15605259619400e+000

4.98665330982714e+005,-1.80002542838677e+001,-7.24792107474512e+000

5.05626439592555e+005,-1.80013933979075e+001,-7.34105091009213e+000

5.12684721657352e+005,-1.80025342044012e+001,-7.43546198652314e+000

5.19841533667984e+005,-1.80036768834650e+001,-7.53117444169450e+000

5.27098251051240e+005,-1.80048216334031e+001,-7.62820866700371e+000

5.34456268434150e+005,-1.80059686708377e+001,-7.72658530806118e+000

5.41916999912011e+005,-1.80071182308289e+001,-7.82632526526410e+000

