Freq.,VOut,OutRef

1.00000000000000e+004,-2.13116686854102e+001,-2.42181699068883e-001

1.01395947979003e+004,-2.13116724707237e+001,-2.45561741444679e-001

1.02811382665607e+004,-2.13116763622683e+001,-2.48988938270329e-001

1.04246576084112e+004,-2.13116803630198e+001,-2.52463946562449e-001

1.05701804056138e+004,-2.13116844760372e+001,-2.55987432453912e-001

1.07177346253629e+004,-2.13116887044647e+001,-2.59560071324911e-001

1.08673486252606e+004,-2.13116930515344e+001,-2.63182547923645e-001

1.10190511587661e+004,-2.13116975205680e+001,-2.66855556502314e-001

1.11728713807222e+004,-2.13117021149805e+001,-2.70579800938412e-001

1.13288388529580e+004,-2.13117068382819e+001,-2.74355994872816e-001

1.14869835499703e+004,-2.13117116940797e+001,-2.78184861842018e-001

1.16473358646846e+004,-2.13117166860825e+001,-2.82067135411390e-001

1.18099266142953e+004,-2.13117218181015e+001,-2.86003559315369e-001

1.19747870461893e+004,-2.13117270940548e+001,-2.89994887592956e-001

1.21419488439505e+004,-2.13117325179690e+001,-2.94041884731451e-001

1.23114441334492e+004,-2.13117380939831e+001,-2.98145325806914e-001

1.24833054890161e+004,-2.13117438263512e+001,-3.02305996629989e-001

1.26575659397028e+004,-2.13117497194457e+001,-3.06524693891139e-001

1.28342589756290e+004,-2.13117557777607e+001,-3.10802225308229e-001

1.30134185544193e+004,-2.13117620059149e+001,-3.15139409779200e-001

1.31950791077289e+004,-2.13117684086562e+001,-3.19537077528847e-001

1.33792755478611e+004,-2.13117749908634e+001,-3.23996070269721e-001

1.35660432744767e+004,-2.13117817575515e+001,-3.28517241352380e-001

1.37554181813974e+004,-2.13117887138746e+001,-3.33101455925848e-001

1.39474366635040e+004,-2.13117958651296e+001,-3.37749591096764e-001

1.41421356237309e+004,-2.13118032167607e+001,-3.42462536091134e-001

1.43395524801583e+004,-2.13118107743632e+001,-3.47241192417663e-001

1.45397251732031e+004,-2.13118185436869e+001,-3.52086474037833e-001

1.47426921729110e+004,-2.13118265306416e+001,-3.56999307527953e-001

1.49484924863494e+004,-2.13118347413006e+001,-3.61980632253526e-001

1.51571656651040e+004,-2.13118431819053e+001,-3.67031400539977e-001

1.53687518128801e+004,-2.13118518588699e+001,-3.72152577848703e-001

1.55832915932100e+004,-2.13118607787862e+001,-3.77345142951410e-001

1.58008262372675e+004,-2.13118699484282e+001,-3.82610088111237e-001

1.60213975517924e+004,-2.13118793747571e+001,-3.87948419262557e-001

1.62450479271247e+004,-2.13118890649265e+001,-3.93361156194516e-001

1.64718203453514e+004,-2.13118990262876e+001,-3.98849332737798e-001

1.67017583885674e+004,-2.13119092663944e+001,-4.04413996950556e-001

1.69349062472505e+004,-2.13119197930092e+001,-4.10056211309672e-001

1.71713087287550e+004,-2.13119306141087e+001,-4.15777052903305e-001

1.74110112659224e+004,-2.13119417378891e+001,-4.21577613623905e-001

1.76540599258131e+004,-2.13119531727724e+001,-4.27459000368979e-001

1.79005014185594e+004,-2.13119649274123e+001,-4.33422335236937e-001

1.81503831063432e+004,-2.13119770107010e+001,-4.39468755730082e-001

1.84037530124975e+004,-2.13119894317745e+001,-4.45599414959905e-001

1.86606598307361e+004,-2.13120022000205e+001,-4.51815481851272e-001

1.89211529345119e+004,-2.13120153250839e+001,-4.58118141355305e-001

1.91852823865052e+004,-2.13120288168745e+001,-4.64508594656303e-001

1.94530989482457e+004,-2.13120426855739e+001,-4.70988059389137e-001

1.97246540898671e+004,-2.13120569416424e+001,-4.77557769854258e-001

1.99999999999999e+004,-2.13120715958269e+001,-4.84218977236702e-001

2.02791895958005e+004,-2.13120866591682e+001,-4.90972949827801e-001

2.05622765331213e+004,-2.13121021430091e+001,-4.97820973248204e-001

2.08493152168224e+004,-2.13121180590021e+001,-5.04764350675672e-001

2.11403608112276e+004,-2.13121344191176e+001,-5.11804403072961e-001

2.14354692507258e+004,-2.13121512356529e+001,-5.18942469418874e-001

2.17346972505211e+004,-2.13121685212398e+001,-5.26179906944392e-001

2.20381023175322e+004,-2.13121862888544e+001,-5.33518091366144e-001

2.23457427614443e+004,-2.13122045518254e+001,-5.40958417128707e-001

2.26576777059159e+004,-2.13122233238439e+001,-5.48502297644187e-001

2.29739670999406e+004,-2.13122426189725e+001,-5.56151165537272e-001

2.32946717293690e+004,-2.13122624516551e+001,-5.63906472893128e-001

2.36198532285905e+004,-2.13122828367271e+001,-5.71769691503752e-001

2.39495740923785e+004,-2.13123037894252e+001,-5.79742313123524e-001

2.42838976879009e+004,-2.13123253253979e+001,-5.87825849722981e-001

2.46228882668982e+004,-2.13123474607163e+001,-5.96021833744771e-001

2.49666109780322e+004,-2.13123702118849e+001,-6.04331818364673e-001

2.53151318794055e+004,-2.13123935958529e+001,-6.12757377753657e-001

2.56685179512580e+004,-2.13124176300254e+001,-6.21300107343086e-001

2.60268371088386e+004,-2.13124423322752e+001,-6.29961624092544e-001

2.63901582154578e+004,-2.13124677209547e+001,-6.38743566759907e-001

2.67585510957221e+004,-2.13124938149081e+001,-6.47647596173285e-001

2.71320865489533e+004,-2.13125206334840e+001,-6.56675395508831e-001

2.75108363627948e+004,-2.13125481965480e+001,-6.65828670565558e-001

2.78948733270080e+004,-2.13125765244958e+001,-6.75109150048569e-001

2.82842712474618e+004,-2.13126056382667e+001,-6.84518585849474e-001

2.86791049603164e+004,-2.13126355593568e+001,-6.94058753335053e-001

2.90794503464061e+004,-2.13126663098335e+001,-7.03731451631335e-001

2.94853843458219e+004,-2.13126979123490e+001,-7.13538503918633e-001

2.98969849726987e+004,-2.13127303901554e+001,-7.23481757720605e-001

3.03143313302078e+004,-2.13127637671192e+001,-7.33563085202294e-001

3.07375036257601e+004,-2.13127980677366e+001,-7.43784383464779e-001

3.11665831864199e+004,-2.13128333171485e+001,-7.54147574850871e-001

3.16016524745350e+004,-2.13128695411568e+001,-7.64654607240999e-001

3.20427951035848e+004,-2.13129067662399e+001,-7.75307454364199e-001

3.24900958542493e+004,-2.13129450195695e+001,-7.86108116100246e-001

3.29436406907028e+004,-2.13129843290270e+001,-7.97058618792458e-001

3.34035167771346e+004,-2.13130247232204e+001,-8.08161015557959e-001

3.38698124945009e+004,-2.13130662315018e+001,-8.19417386602413e-001

3.43426174575100e+004,-2.13131088839849e+001,-8.30829839534134e-001

3.48220225318448e+004,-2.13131527115631e+001,-8.42400509684118e-001

3.53081198516260e+004,-2.13131977459273e+001,-8.54131560425916e-001

3.58010028371187e+004,-2.13132440195851e+001,-8.66025183495700e-001

3.63007662126863e+004,-2.13132915658791e+001,-8.78083599318975e-001

3.68075060249948e+004,-2.13133404190063e+001,-8.90309057335607e-001

3.73213196614721e+004,-2.13133906140379e+001,-9.02703836325669e-001

3.78423058690237e+004,-2.13134421869386e+001,-9.15270244741894e-001

3.83705647730104e+004,-2.13134951745871e+001,-9.28010621038882e-001

3.89061978964912e+004,-2.13135496147962e+001,-9.40927334007076e-001

3.94493081797342e+004,-2.13136055463339e+001,-9.54022783105610e-001

3.99999999999998e+004,-2.13136630089440e+001,-9.67299398800207e-001

4.05583791916010e+004,-2.13137220433676e+001,-9.80759642899181e-001

4.11245530662425e+004,-2.13137826913647e+001,-9.94406008892192e-001

4.16986304336447e+004,-2.13138449957359e+001,-1.00824102229076e+000

4.22807216224550e+004,-2.13139090003446e+001,-1.02226724096910e+000

4.28709385014515e+004,-2.13139747501392e+001,-1.03648725550597e+000

4.34693945010421e+004,-2.13140422911756e+001,-1.05090368952962e+000

4.40762046350642e+004,-2.13141116706405e+001,-1.06551920005856e+000

4.46914855228886e+004,-2.13141829368737e+001,-1.08033647785049e+000

4.53153554118317e+004,-2.13142561393917e+001,-1.09535824774569e+000

4.59479341998812e+004,-2.13143313289114e+001,-1.11058726901428e+000

4.65893434587380e+004,-2.13144085573726e+001,-1.12602633570356e+000

4.72397064571810e+004,-2.13144878779630e+001,-1.14167827698477e+000

4.78991481847569e+004,-2.13145693451409e+001,-1.15754595750207e+000

4.85677953758016e+004,-2.13146530146597e+001,-1.17363227771968e+000

4.92457765337964e+004,-2.13147389435920e+001,-1.18994017427086e+000

4.99332219560642e+004,-2.13148271903531e+001,-1.20647262030713e+000

5.06302637588109e+004,-2.13149178147254e+001,-1.22323262584583e+000

5.13370359025159e+004,-2.13150108778824e+001,-1.24022323811892e+000

5.20536742176771e+004,-2.13151064424130e+001,-1.25744754192173e+000

5.27803164309155e+004,-2.13152045723447e+001,-1.27490865996079e+000

5.35171021914442e+004,-2.13153053331683e+001,-1.29260975320106e+000

5.42641730979066e+004,-2.13154087918611e+001,-1.31055402121485e+000

5.50216727255895e+004,-2.13155150169106e+001,-1.32874470252642e+000

5.57897466540159e+004,-2.13156240783376e+001,-1.34718507496037e+000

5.65685424949235e+004,-2.13157360477196e+001,-1.36587845598572e+000

5.73582099206328e+004,-2.13158509982132e+001,-1.38482820306211e+000

5.81589006928121e+004,-2.13159690045765e+001,-1.40403771398322e+000

5.89707686916437e+004,-2.13160901431911e+001,-1.42351042721961e+000

5.97939699453972e+004,-2.13162144920836e+001,-1.44324982226289e+000

6.06286626604156e+004,-2.13163421309464e+001,-1.46325941996590e+000

6.14750072515201e+004,-2.13164731411583e+001,-1.48354278288433e+000

6.23331663728396e+004,-2.13166076058039e+001,-1.50410351561593e+000

6.32033049490698e+004,-2.13167456096927e+001,-1.52494526514031e+000

6.40855902071694e+004,-2.13168872393773e+001,-1.54607172115601e+000

6.49801917084985e+004,-2.13170325831707e+001,-1.56748661641895e+000

6.58872813814055e+004,-2.13171817311628e+001,-1.58919372707846e+000

6.68070335542691e+004,-2.13173347752356e+001,-1.61119687301259e+000

6.77396249890018e+004,-2.13174918090777e+001,-1.63349991816388e+000

6.86852349150199e+004,-2.13176529281970e+001,-1.65610677087452e+000

6.96440450636895e+004,-2.13178182299329e+001,-1.67902138422002e+000

7.06162397032520e+004,-2.13179878134670e+001,-1.70224775634341e+000

7.16020056742374e+004,-2.13181617798314e+001,-1.72578993078961e+000

7.26015324253724e+004,-2.13183402319168e+001,-1.74965199684058e+000

7.36150120499896e+004,-2.13185232744777e+001,-1.77383808985007e+000

7.46426393229441e+004,-2.13187110141373e+001,-1.79835239157767e+000

7.56846117380472e+004,-2.13189035593890e+001,-1.82319913052866e+000

7.67411295460207e+004,-2.13191010205969e+001,-1.84838258229033e+000

7.78123957929823e+004,-2.13193035099941e+001,-1.87390706987214e+000

7.88986163594682e+004,-2.13195111416779e+001,-1.89977696405040e+000

7.99999999999995e+004,-2.13197240316047e+001,-1.92599668371144e+000

8.11167583832018e+004,-2.13199422975801e+001,-1.95257069620098e+000

8.22491061324848e+004,-2.13201660592482e+001,-1.97950351767833e+000

8.33972608672892e+004,-2.13203954380774e+001,-2.00679971347201e+000

8.45614432449099e+004,-2.13206305573433e+001,-2.03446389844352e+000

8.57418770029029e+004,-2.13208715421097e+001,-2.06250073735616e+000

8.69387890020841e+004,-2.13211185192051e+001,-2.09091494525050e+000

8.81524092701283e+004,-2.13213716171972e+001,-2.11971128782797e+000

8.93829710457770e+004,-2.13216309663639e+001,-2.14889458184355e+000

9.06307108236633e+004,-2.13218966986598e+001,-2.17846969550731e+000

9.18958683997622e+004,-2.13221689476812e+001,-2.20844154889806e+000

9.31786869174758e+004,-2.13224478486254e+001,-2.23881511438831e+000

9.44794129143618e+004,-2.13227335382475e+001,-2.26959541708170e+000

9.57982963695136e+004,-2.13230261548131e+001,-2.30078753526685e+000

9.71355907516031e+004,-2.13233258380463e+001,-2.33239660088680e+000

9.84915530675926e+004,-2.13236327290747e+001,-2.36442780002455e+000

9.98664439121282e+004,-2.13239469703695e+001,-2.39688637340814e+000

1.01260527517622e+005,-2.13242687056812e+001,-2.42977761693896e+000

1.02674071805032e+005,-2.13245980799714e+001,-2.46310688223891e+000

1.04107348435354e+005,-2.13249352393400e+001,-2.49687957722403e+000

1.05560632861831e+005,-2.13252803309473e+001,-2.53110116670430e+000

1.07034204382888e+005,-2.13256335029328e+001,-2.56577717301044e+000

1.08528346195813e+005,-2.13259949043277e+001,-2.60091317665231e+000

1.10043345451179e+005,-2.13263646849640e+001,-2.63651481700977e+000

1.11579493308032e+005,-2.13267429953788e+001,-2.67258779305722e+000

1.13137084989847e+005,-2.13271299867129e+001,-2.70913786412643e+000

1.14716419841265e+005,-2.13275258106058e+001,-2.74617085070945e+000

1.16317801385624e+005,-2.13279306190858e+001,-2.78369263530054e+000

1.17941537383287e+005,-2.13283445644548e+001,-2.82170916328760e+000

1.19587939890794e+005,-2.13287677991696e+001,-2.86022644388625e+000

1.21257325320831e+005,-2.13292004757177e+001,-2.89925055112781e+000

1.22950014503040e+005,-2.13296427464896e+001,-2.93878762489740e+000

1.24666332745679e+005,-2.13300947636463e+001,-2.97884387202933e+000

1.26406609898139e+005,-2.13305566789826e+001,-3.01942556746131e+000

1.28171180414339e+005,-2.13310286437877e+001,-3.06053905544820e+000

1.29960383416997e+005,-2.13315108087002e+001,-3.10219075084276e+000

1.31774562762811e+005,-2.13320033235614e+001,-3.14438714044380e+000

1.33614067108538e+005,-2.13325063372645e+001,-3.18713478441192e+000

1.35479249978003e+005,-2.13330199976008e+001,-3.23044031776316e+000

1.37370469830040e+005,-2.13335444511045e+001,-3.27431045193519e+000

1.39288090127379e+005,-2.13340798428938e+001,-3.31875197643645e+000

1.41232479406504e+005,-2.13346263165113e+001,-3.36377176057519e+000

1.43204011348474e+005,-2.13351840137626e+001,-3.40937675527500e+000

1.45203064850745e+005,-2.13357530745543e+001,-3.45557399497826e+000

1.47230024099979e+005,-2.13363336367314e+001,-3.50237059964078e+000

1.49285278645888e+005,-2.13369258359151e+001,-3.54977377681966e+000

1.51369223476094e+005,-2.13375298053409e+001,-3.59779082385567e+000

1.53482259092041e+005,-2.13381456756988e+001,-3.64642913015784e+000

1.55624791585964e+005,-2.13387735749748e+001,-3.69569617958366e+000

1.57797232718936e+005,-2.13394136282958e+001,-3.74559955292460e+000

1.59999999999999e+005,-2.13400659577769e+001,-3.79614693049678e+000

1.62233516766403e+005,-2.13407306823740e+001,-3.84734609483432e+000

1.64498212264969e+005,-2.13414079177408e+001,-3.89920493349260e+000

1.66794521734578e+005,-2.13420977760911e+001,-3.95173144195902e+000

1.69122886489819e+005,-2.13428003660687e+001,-4.00493372667259e+000

1.71483754005805e+005,-2.13435157926242e+001,-4.05882000815284e+000

1.73877578004168e+005,-2.13442441568997e+001,-4.11339862423970e+000

1.76304818540256e+005,-2.13449855561236e+001,-4.16867803344140e+000

1.78765942091554e+005,-2.13457400835153e+001,-4.22466681839262e+000

1.81261421647326e+005,-2.13465078282006e+001,-4.28137368942047e+000

1.83791736799524e+005,-2.13472888751396e+001,-4.33880748821678e+000

1.86357373834951e+005,-2.13480833050676e+001,-4.39697719161620e+000

1.88958825828723e+005,-2.13488911944500e+001,-4.45589191547761e+000

1.91596592739027e+005,-2.13497126154516e+001,-4.51556091866521e+000

1.94271181503206e+005,-2.13505476359228e+001,-4.57599360712752e+000

1.96983106135185e+005,-2.13513963194017e+001,-4.63719953807135e+000

1.99732887824256e+005,-2.13522587251345e+001,-4.69918842422468e+000

2.02521055035243e+005,-2.13531349081144e+001,-4.76197013818644e+000

2.05348143610063e+005,-2.13540249191398e+001,-4.82555471685794e+000

2.08214696870707e+005,-2.13549288048934e+001,-4.88995236594955e+000

2.11121265723661e+005,-2.13558466080420e+001,-4.95517346455828e+000

2.14068408765776e+005,-2.13567783673584e+001,-5.02122856981019e+000

2.17056692391625e+005,-2.13577241178661e+001,-5.08812842156046e+000

2.20086690902357e+005,-2.13586838910070e+001,-5.15588394714522e+000

2.23158986616063e+005,-2.13596577148332e+001,-5.22450626617739e+000

2.26274169979693e+005,-2.13606456142230e+001,-5.29400669537939e+000

2.29432839682530e+005,-2.13616476111225e+001,-5.36439675344398e+000

2.32635602771247e+005,-2.13626637248114e+001,-5.43568816591731e+000

2.35883074766574e+005,-2.13636939721951e+001,-5.50789287009342e+000

2.39175879781588e+005,-2.13647383681227e+001,-5.58102301991280e+000

2.42514650641661e+005,-2.13657969257304e+001,-5.65509099085723e+000

2.45900029006080e+005,-2.13668696568114e+001,-5.73010938482973e+000

2.49332665491357e+005,-2.13679565722116e+001,-5.80609103501303e+000

2.52813219796278e+005,-2.13690576822512e+001,-5.88304901069723e+000

2.56342360828676e+005,-2.13701729971720e+001,-5.96099662206528e+000

2.59920766833993e+005,-2.13713025276098e+001,-6.03994742493172e+000

2.63549125525621e+005,-2.13724462850917e+001,-6.11991522542180e+000

2.67228134217075e+005,-2.13736042825583e+001,-6.20091408458598e+000

2.70958499956006e+005,-2.13747765349092e+001,-6.28295832293786e+000

2.74740939660078e+005,-2.13759630595716e+001,-6.36606252491060e+000

2.78576180254757e+005,-2.13771638770917e+001,-6.45024154322237e+000

2.82464958813007e+005,-2.13783790117474e+001,-6.53551050314445e+000

2.86408022696948e+005,-2.13796084921811e+001,-6.62188480666244e+000

2.90406129701488e+005,-2.13808523520530e+001,-6.70938013652864e+000

2.94460048199957e+005,-2.13821106307119e+001,-6.79801246019489e+000

2.98570557291775e+005,-2.13833833738841e+001,-6.88779803362299e+000

3.02738446952187e+005,-2.13846706343781e+001,-6.97875340496752e+000

3.06964518184081e+005,-2.13859724728042e+001,-7.07089541812467e+000

3.11249583171928e+005,-2.13872889583078e+001,-7.16424121614708e+000

3.15594465437872e+005,-2.13886201693149e+001,-7.25880824451789e+000

3.19999999999997e+005,-2.13899661942887e+001,-7.35461425428387e+000

3.24467033532806e+005,-2.13913271324956e+001,-7.45167730504453e+000

3.28996424529938e+005,-2.13927030947795e+001,-7.55001576779746e+000

3.33589043469155e+005,-2.13940942043431e+001,-7.64964832763811e+000

3.38245772979638e+005,-2.13955005975342e+001,-7.75059398631653e+000

3.42967508011610e+005,-2.13969224246365e+001,-7.85287206464816e+000

3.47755156008335e+005,-2.13983598506631e+001,-7.95650220478493e+000

3.52609637080511e+005,-2.13998130561516e+001,-8.06150437234602e+000

3.57531884183106e+005,-2.14012822379591e+001,-8.16789885841231e+000

3.62522843294651e+005,-2.14027676100566e+001,-8.27570628138742e+000

3.67583473599047e+005,-2.14042694043212e+001,-8.38494758872967e+000

3.72714747669902e+005,-2.14057878713252e+001,-8.49564405856091e+000

3.77917651657445e+005,-2.14073232811209e+001,-8.60781730115527e+000

3.83193185478053e+005,-2.14088759240202e+001,-8.72148926031484e+000

3.88542363006410e+005,-2.14104461113687e+001,-8.83668221463809e+000

3.93966212270369e+005,-2.14120341763127e+001,-8.95341877868668e+000

3.99465775648511e+005,-2.14136404745587e+001,-9.07172190405879e+000

4.05042110070485e+005,-2.14152653851253e+001,-9.19161488037485e+000

4.10696287220124e+005,-2.14169093110864e+001,-9.31312133618259e+000

4.16429393741414e+005,-2.14185726803059e+001,-9.43626523979023e+000

4.22242531447321e+005,-2.14202559461624e+001,-9.56107090003366e+000

4.28136817531551e+005,-2.14219595882658e+001,-9.68756296698644e+000

4.34113384783250e+005,-2.14236841131633e+001,-9.81576643261867e+000

4.40173381804713e+005,-2.14254300550368e+001,-9.94570663141382e+000

4.46317973232124e+005,-2.14271979763909e+001,-1.00774092409493e+001

4.52548339959385e+005,-2.14289884687311e+001,-1.02109002824497e+001

4.58865679365059e+005,-2.14308021532341e+001,-1.03462061213177e+001

4.65271205542494e+005,-2.14326396814091e+001,-1.04833534676508e+001

4.71766149533147e+005,-2.14345017357511e+001,-1.06223693767499e+001

4.78351759563174e+005,-2.14363890303869e+001,-1.07632812496260e+001

4.85029301283321e+005,-2.14383023117144e+001,-1.09061168335104e+001

4.91800058012158e+005,-2.14402423590355e+001,-1.10509042223742e+001

4.98665330982714e+005,-2.14422099851834e+001,-1.11976718574611e+001

5.05626439592555e+005,-2.14442060371459e+001,-1.13464485278399e+001

5.12684721657352e+005,-2.14462313966846e+001,-1.14972633709780e+001

5.19841533667984e+005,-2.14482869809509e+001,-1.16501458733420e+001

5.27098251051240e+005,-2.14503737431012e+001,-1.18051258710263e+001

5.34456268434150e+005,-2.14524926729101e+001,-1.19622335504129e+001

5.41916999912011e+005,-2.14546447973843e+001,-1.21214994488651e+001

