Freq.,VOut,OutRef

1.00000000000000e+004,-1.49266502919133e+000,-1.01791013376180e-001

1.01395947979003e+004,-1.49266504190683e+000,-1.03211952064614e-001

1.02811382665607e+004,-1.49266505497678e+000,-1.04652725855118e-001

1.04246576084112e+004,-1.49266506841086e+000,-1.06113611616554e-001

1.05701804056138e+004,-1.49266508221935e+000,-1.07594890079894e-001

1.07177346253629e+004,-1.49266509641247e+000,-1.09096845896036e-001

1.08673486252606e+004,-1.49266511100068e+000,-1.10619767688704e-001

1.10190511587661e+004,-1.49266512599493e+000,-1.12163948108545e-001

1.11728713807222e+004,-1.49266514140647e+000,-1.13729683890524e-001

1.13288388529580e+004,-1.49266515724684e+000,-1.15317275910878e-001

1.14869835499703e+004,-1.49266517352783e+000,-1.16927029245037e-001

1.16473358646846e+004,-1.49266519026141e+000,-1.18559253227214e-001

1.18099266142953e+004,-1.49266520746014e+000,-1.20214261506555e-001

1.19747870461893e+004,-1.49266522513672e+000,-1.21892372110893e-001

1.21419488439505e+004,-1.49266524330440e+000,-1.23593907505081e-001

1.23114441334492e+004,-1.49266526197643e+000,-1.25319194656029e-001

1.24833054890161e+004,-1.49266528116688e+000,-1.27068565090704e-001

1.26575659397028e+004,-1.49266530088979e+000,-1.28842354965235e-001

1.28342589756290e+004,-1.49266532115973e+000,-1.30640905126128e-001

1.30134185544193e+004,-1.49266534199165e+000,-1.32464561175849e-001

1.31950791077289e+004,-1.49266536340104e+000,-1.34313673539238e-001

1.33792755478611e+004,-1.49266538540353e+000,-1.36188597532755e-001

1.35660432744767e+004,-1.49266540801523e+000,-1.38089693430598e-001

1.37554181813974e+004,-1.49266543125285e+000,-1.40017326533597e-001

1.39474366635040e+004,-1.49266545513346e+000,-1.41971867240496e-001

1.41421356237309e+004,-1.49266547967456e+000,-1.43953691118486e-001

1.43395524801583e+004,-1.49266550489417e+000,-1.45963178975411e-001

1.45397251732031e+004,-1.49266553081036e+000,-1.48000716935198e-001

1.47426921729110e+004,-1.49266555744228e+000,-1.50066696506070e-001

1.49484924863494e+004,-1.49266558480936e+000,-1.52161514660663e-001

1.51571656651040e+004,-1.49266561293136e+000,-1.54285573911135e-001

1.53687518128801e+004,-1.49266564182876e+000,-1.56439282385461e-001

1.55832915932100e+004,-1.49266567152244e+000,-1.58623053906604e-001

1.58008262372675e+004,-1.49266570203403e+000,-1.60837308070495e-001

1.60213975517924e+004,-1.49266573338544e+000,-1.63082470329093e-001

1.62450479271247e+004,-1.49266576559909e+000,-1.65358972070698e-001

1.64718203453514e+004,-1.49266579869840e+000,-1.67667250700167e-001

1.67017583885674e+004,-1.49266583270702e+000,-1.70007749727089e-001

1.69349062472505e+004,-1.49266586764926e+000,-1.72380918848579e-001

1.71713087287550e+004,-1.49266590355030e+000,-1.74787214034117e-001

1.74110112659224e+004,-1.49266594043552e+000,-1.77227097617519e-001

1.76540599258131e+004,-1.49266597833129e+000,-1.79701038380419e-001

1.79005014185594e+004,-1.49266601726439e+000,-1.82209511646026e-001

1.81503831063432e+004,-1.49266605726252e+000,-1.84752999367103e-001

1.84037530124975e+004,-1.49266609835391e+000,-1.87331990221113e-001

1.86606598307361e+004,-1.49266614056772e+000,-1.89946979701112e-001

1.89211529345119e+004,-1.49266618393320e+000,-1.92598470216154e-001

1.91852823865052e+004,-1.49266622848110e+000,-1.95286971179168e-001

1.94530989482457e+004,-1.49266627424244e+000,-1.98012999112148e-001

1.97246540898671e+004,-1.49266632124917e+000,-2.00777077741041e-001

1.99999999999999e+004,-1.49266636953392e+000,-2.03579738097776e-001

2.02791895958005e+004,-1.49266641913014e+000,-2.06421518621616e-001

2.05622765331213e+004,-1.49266647007224e+000,-2.09302965260760e-001

2.08493152168224e+004,-1.49266652239513e+000,-2.12224631580725e-001

2.11403608112276e+004,-1.49266657613482e+000,-2.15187078866325e-001

2.14354692507258e+004,-1.49266663132805e+000,-2.18190876231497e-001

2.17346972505211e+004,-1.49266668801247e+000,-2.21236600727653e-001

2.20381023175322e+004,-1.49266674622658e+000,-2.24324837454074e-001

2.23457427614443e+004,-1.49266680600958e+000,-2.27456179671696e-001

2.26576777059159e+004,-1.49266686740205e+000,-2.30631228912161e-001

2.29739670999406e+004,-1.49266693044502e+000,-2.33850595098814e-001

2.32946717293690e+004,-1.49266699518068e+000,-2.37114896659109e-001

2.36198532285905e+004,-1.49266706165201e+000,-2.40424760645668e-001

2.39495740923785e+004,-1.49266712990318e+000,-2.43780822853787e-001

2.42838976879009e+004,-1.49266719997911e+000,-2.47183727945717e-001

2.46228882668982e+004,-1.49266727192590e+000,-2.50634129571716e-001

2.49666109780322e+004,-1.49266734579034e+000,-2.54132690498180e-001

2.53151318794055e+004,-1.49266742162060e+000,-2.57680082729953e-001

2.56685179512580e+004,-1.49266749946559e+000,-2.61276987643257e-001

2.60268371088386e+004,-1.49266757937544e+000,-2.64924096113114e-001

2.63901582154578e+004,-1.49266766140097e+000,-2.68622108648441e-001

2.67585510957221e+004,-1.49266774559465e+000,-2.72371735520833e-001

2.71320865489533e+004,-1.49266783200928e+000,-2.76173696907520e-001

2.75108363627948e+004,-1.49266792069927e+000,-2.80028723022020e-001

2.78948733270080e+004,-1.49266801172003e+000,-2.83937554257923e-001

2.82842712474618e+004,-1.49266810512761e+000,-2.87900941331091e-001

2.86791049603164e+004,-1.49266820097954e+000,-2.91919645419370e-001

2.90794503464061e+004,-1.49266829933440e+000,-2.95994438310253e-001

2.94853843458219e+004,-1.49266840025172e+000,-3.00126102548734e-001

2.98969849726987e+004,-1.49266850379210e+000,-3.04315431586771e-001

3.03143313302078e+004,-1.49266861001722e+000,-3.08563229933076e-001

3.07375036257601e+004,-1.49266871898978e+000,-3.12870313309501e-001

3.11665831864199e+004,-1.49266883077379e+000,-3.17237508802857e-001

3.16016524745350e+004,-1.49266894543391e+000,-3.21665655028287e-001

3.20427951035848e+004,-1.49266906303619e+000,-3.26155602283402e-001

3.24900958542493e+004,-1.49266918364734e+000,-3.30708212715867e-001

3.29436406907028e+004,-1.49266930733558e+000,-3.35324360482735e-001

3.34035167771346e+004,-1.49266943416949e+000,-3.40004931922916e-001

3.38698124945009e+004,-1.49266956421911e+000,-3.44750825721067e-001

3.43426174575100e+004,-1.49266969755518e+000,-3.49562953082022e-001

3.48220225318448e+004,-1.49266983424927e+000,-3.54442237904400e-001

3.53081198516260e+004,-1.49266997437404e+000,-3.59389616954254e-001

3.58010028371187e+004,-1.49267011800293e+000,-3.64406040046370e-001

3.63007662126863e+004,-1.49267026520998e+000,-3.69492470224928e-001

3.68075060249948e+004,-1.49267041607003e+000,-3.74649883946264e-001

3.73213196614721e+004,-1.49267057065883e+000,-3.79879271263281e-001

3.78423058690237e+004,-1.49267072905243e+000,-3.85181636017962e-001

3.83705647730104e+004,-1.49267089132765e+000,-3.90557996028997e-001

3.89061978964912e+004,-1.49267105756177e+000,-3.96009383286969e-001

3.94493081797342e+004,-1.49267122783251e+000,-4.01536844150430e-001

3.99999999999998e+004,-1.49267140221775e+000,-4.07141439546449e-001

4.05583791916010e+004,-1.49267158079576e+000,-4.12824245170344e-001

4.11245530662425e+004,-1.49267176364501e+000,-4.18586351690451e-001

4.16986304336447e+004,-1.49267195084383e+000,-4.24428864958043e-001

4.22807216224550e+004,-1.49267214247054e+000,-4.30352906214645e-001

4.28709385014515e+004,-1.49267233860342e+000,-4.36359612306218e-001

4.34693945010421e+004,-1.49267253932018e+000,-4.42450135899834e-001

4.40762046350642e+004,-1.49267274469809e+000,-4.48625645702401e-001

4.46914855228886e+004,-1.49267295481385e+000,-4.54887326682204e-001

4.53153554118317e+004,-1.49267316974338e+000,-4.61236380293539e-001

4.59479341998812e+004,-1.49267338956149e+000,-4.67674024706472e-001

4.65893434587380e+004,-1.49267361434183e+000,-4.74201495037055e-001

4.72397064571810e+004,-1.49267384415679e+000,-4.80820043580691e-001

4.78991481847569e+004,-1.49267407907696e+000,-4.87530940052079e-001

4.85677953758016e+004,-1.49267431917124e+000,-4.94335471823566e-001

4.92457765337964e+004,-1.49267456450637e+000,-5.01234944171293e-001

4.99332219560642e+004,-1.49267481514660e+000,-5.08230680521950e-001

5.06302637588109e+004,-1.49267507115372e+000,-5.15324022702699e-001

5.13370359025159e+004,-1.49267533258641e+000,-5.22516331196655e-001

5.20536742176771e+004,-1.49267559950001e+000,-5.29808985400816e-001

5.27803164309155e+004,-1.49267587194637e+000,-5.37203383885788e-001

5.35171021914442e+004,-1.49267614997310e+000,-5.44700944662055e-001

5.42641730979066e+004,-1.49267643362363e+000,-5.52303105447570e-001

5.50216727255895e+004,-1.49267672293630e+000,-5.60011323940889e-001

5.57897466540159e+004,-1.49267701794436e+000,-5.67827078095556e-001

5.65685424949235e+004,-1.49267731867509e+000,-5.75751866401263e-001

5.73582099206328e+004,-1.49267762514974e+000,-5.83787208165446e-001

5.81589006928121e+004,-1.49267793738250e+000,-5.91934643802665e-001

5.89707686916437e+004,-1.49267825538040e+000,-6.00195735123644e-001

5.97939699453972e+004,-1.49267857914235e+000,-6.08572065632589e-001

6.06286626604156e+004,-1.49267890865861e+000,-6.17065240824930e-001

6.14750072515201e+004,-1.49267924391033e+000,-6.25676888490858e-001

6.23331663728396e+004,-1.49267958486858e+000,-6.34408659022764e-001

6.32033049490698e+004,-1.49267993149365e+000,-6.43262225727856e-001

6.40855902071694e+004,-1.49268028373424e+000,-6.52239285143041e-001

6.49801917084985e+004,-1.49268064152680e+000,-6.61341557355366e-001

6.58872813814055e+004,-1.49268100479435e+000,-6.70570786327346e-001

6.68070335542691e+004,-1.49268137344577e+000,-6.79928740225029e-001

6.77396249890018e+004,-1.49268174737487e+000,-6.89417211751926e-001

6.86852349150199e+004,-1.49268212645893e+000,-6.99038018488582e-001

6.96440450636895e+004,-1.49268251055818e+000,-7.08793003233108e-001

7.06162397032520e+004,-1.49268289951425e+000,-7.18684034350296e-001

7.16020056742374e+004,-1.49268329314904e+000,-7.28713006123825e-001

7.26015324253724e+004,-1.49268369126339e+000,-7.38881839113890e-001

7.36150120499896e+004,-1.49268409363597e+000,-7.49192480517525e-001

7.46426393229441e+004,-1.49268450002165e+000,-7.59646904537587e-001

7.56846117380472e+004,-1.49268491014995e+000,-7.70247112754756e-001

7.67411295460207e+004,-1.49268532372374e+000,-7.80995134504205e-001

7.78123957929823e+004,-1.49268574041738e+000,-7.91893027258256e-001

7.88986163594682e+004,-1.49268615987511e+000,-8.02942877015206e-001

7.99999999999995e+004,-1.49268658170918e+000,-8.14146798692069e-001

8.11167583832018e+004,-1.49268700549789e+000,-8.25506936523736e-001

8.22491061324848e+004,-1.49268743078382e+000,-8.37025464466609e-001

8.33972608672892e+004,-1.49268785707167e+000,-8.48704586609039e-001

8.45614432449099e+004,-1.49268828382585e+000,-8.60546537588122e-001

8.57418770029029e+004,-1.49268871046852e+000,-8.72553583010031e-001

8.69387890020841e+004,-1.49268913637712e+000,-8.84728019877597e-001

8.81524092701283e+004,-1.49268956088179e+000,-8.97072177024989e-001

8.93829710457770e+004,-1.49268998326279e+000,-9.09588415556850e-001

9.06307108236633e+004,-1.49269040274780e+000,-9.22279129294475e-001

9.18958683997622e+004,-1.49269081850921e+000,-9.35146745226911e-001

9.31786869174758e+004,-1.49269122966100e+000,-9.48193723971554e-001

9.44794129143618e+004,-1.49269163525561e+000,-9.61422560238768e-001

9.57982963695136e+004,-1.49269203428092e+000,-9.74835783303173e-001

9.71355907516031e+004,-1.49269242565671e+000,-9.88435957483570e-001

9.84915530675926e+004,-1.49269280823141e+000,-1.00222568262680e+000

9.98664439121282e+004,-1.49269318077811e+000,-1.01620759460258e+000

1.01260527517622e+005,-1.49269354199113e+000,-1.03038436580185e+000

1.02674071805032e+005,-1.49269389048184e+000,-1.04475870564429e+000

1.04107348435354e+005,-1.49269422477494e+000,-1.05933336109179e+000

1.05560632861831e+005,-1.49269454330368e+000,-1.07411111717227e+000

1.07034204382888e+005,-1.49269484440604e+000,-1.08909479750731e+000

1.08528346195813e+005,-1.49269512631978e+000,-1.10428726485097e+000

1.10043345451179e+005,-1.49269538717787e+000,-1.11969142163427e+000

1.11579493308032e+005,-1.49269562500376e+000,-1.13531021051837e+000

1.13137084989847e+005,-1.49269583770592e+000,-1.15114661495733e+000

1.14716419841265e+005,-1.49269602307306e+000,-1.16720365976645e+000

1.16317801385624e+005,-1.49269617876852e+000,-1.18348441170159e+000

1.17941537383287e+005,-1.49269630232461e+000,-1.19999198004658e+000

1.19587939890794e+005,-1.49269639113697e+000,-1.21672951720848e+000

1.21257325320831e+005,-1.49269644245867e+000,-1.23370021932261e+000

1.22950014503040e+005,-1.49269645339398e+000,-1.25090732686684e+000

1.24666332745679e+005,-1.49269642089212e+000,-1.26835412528485e+000

1.26406609898139e+005,-1.49269634174077e+000,-1.28604394561876e+000

1.28171180414339e+005,-1.49269621255940e+000,-1.30398016515197e+000

1.29960383416997e+005,-1.49269602979245e+000,-1.32216620806095e+000

1.31774562762811e+005,-1.49269578970215e+000,-1.34060554607860e+000

1.33614067108538e+005,-1.49269548836150e+000,-1.35930169916493e+000

1.35479249978003e+005,-1.49269512164673e+000,-1.37825823619170e+000

1.37370469830040e+005,-1.49269468522983e+000,-1.39747877563425e+000

1.39288090127379e+005,-1.49269417457062e+000,-1.41696698627704e+000

1.41232479406504e+005,-1.49269358490895e+000,-1.43672658792724e+000

1.43204011348474e+005,-1.49269291125658e+000,-1.45676135214171e+000

1.45203064850745e+005,-1.49269214838887e+000,-1.47707510296358e+000

1.47230024099979e+005,-1.49269129083639e+000,-1.49767171767130e+000

1.49285278645888e+005,-1.49269033287625e+000,-1.51855512753963e+000

1.51369223476094e+005,-1.49268926852344e+000,-1.53972931861043e+000

1.53482259092041e+005,-1.49268809152179e+000,-1.56119833247837e+000

1.55624791585964e+005,-1.49268679533500e+000,-1.58296626708662e+000

1.57797232718936e+005,-1.49268537313759e+000,-1.60503727753532e+000

1.59999999999999e+005,-1.49268381780528e+000,-1.62741557690388e+000

1.62233516766403e+005,-1.49268212190584e+000,-1.65010543708448e+000

1.64498212264969e+005,-1.49268027768931e+000,-1.67311118962942e+000

1.66794521734578e+005,-1.49267827707843e+000,-1.69643722661119e+000

1.69122886489819e+005,-1.49267611165898e+000,-1.72008800149575e+000

1.71483754005805e+005,-1.49267377266971e+000,-1.74406803003033e+000

1.73877578004168e+005,-1.49267125099250e+000,-1.76838189114297e+000

1.76304818540256e+005,-1.49266853714239e+000,-1.79303422785767e+000

1.78765942091554e+005,-1.49266562125742e+000,-1.81802974822282e+000

1.81261421647326e+005,-1.49266249308849e+000,-1.84337322625353e+000

1.83791736799524e+005,-1.49265914198917e+000,-1.86906950288872e+000

1.86357373834951e+005,-1.49265555690558e+000,-1.89512348696258e+000

1.88958825828723e+005,-1.49265172636594e+000,-1.92154015619023e+000

1.91596592739027e+005,-1.49264763847053e+000,-1.94832455816884e+000

1.94271181503206e+005,-1.49264328088114e+000,-1.97548181139348e+000

1.96983106135185e+005,-1.49263864081094e+000,-2.00301710628742e+000

1.99732887824256e+005,-1.49263370501420e+000,-2.03093570624869e+000

2.02521055035243e+005,-1.49262845977586e+000,-2.05924294871089e+000

2.05348143610063e+005,-1.49262289090151e+000,-2.08794424622008e+000

2.08214696870707e+005,-1.49261698370684e+000,-2.11704508752769e+000

2.11121265723661e+005,-1.49261072300765e+000,-2.14655103869786e+000

2.14068408765776e+005,-1.49260409310956e+000,-2.17646774423230e+000

2.17056692391625e+005,-1.49259707779792e+000,-2.20680092820885e+000

2.20086690902357e+005,-1.49258966032765e+000,-2.23755639543853e+000

2.23158986616063e+005,-1.49258182341313e+000,-2.26874003263746e+000

2.26274169979693e+005,-1.49257354921828e+000,-2.30035780961476e+000

2.29432839682530e+005,-1.49256481934636e+000,-2.33241578047797e+000

2.32635602771247e+005,-1.49255561483010e+000,-2.36492008485394e+000

2.35883074766574e+005,-1.49254591612172e+000,-2.39787694912679e+000

2.39175879781588e+005,-1.49253570308306e+000,-2.43129268769238e+000

2.42514650641661e+005,-1.49252495497548e+000,-2.46517370423013e+000

2.45900029006080e+005,-1.49251365045001e+000,-2.49952649299117e+000

2.49332665491357e+005,-1.49250176753748e+000,-2.53435764010336e+000

2.52813219796278e+005,-1.49248928363846e+000,-2.56967382489421e+000

2.56342360828676e+005,-1.49247617551320e+000,-2.60548182123080e+000

2.59920766833993e+005,-1.49246241927166e+000,-2.64178849887684e+000

2.63549125525621e+005,-1.49244799036324e+000,-2.67860082486775e+000

2.67228134217075e+005,-1.49243286356666e+000,-2.71592586490249e+000

2.70958499956006e+005,-1.49241701297942e+000,-2.75377078475469e+000

2.74740939660078e+005,-1.49240041200736e+000,-2.79214285170049e+000

2.78576180254757e+005,-1.49238303335402e+000,-2.83104943596506e+000

2.82464958813007e+005,-1.49236484900963e+000,-2.87049801218738e+000

2.86408022696948e+005,-1.49234583023983e+000,-2.91049616090461e+000

2.90406129701488e+005,-1.49232594757463e+000,-2.95105157005255e+000

2.94460048199957e+005,-1.49230517079640e+000,-2.99217203648793e+000

2.98570557291775e+005,-1.49228346892783e+000,-3.03386546752882e+000

3.02738446952187e+005,-1.49226081021979e+000,-3.07613988251334e+000

3.06964518184081e+005,-1.49223716213814e+000,-3.11900341438035e+000

3.11249583171928e+005,-1.49221249135071e+000,-3.16246431126863e+000

3.15594465437872e+005,-1.49218676371345e+000,-3.20653093813595e+000

3.19999999999997e+005,-1.49215994425626e+000,-3.25121177840014e+000

3.24467033532806e+005,-1.49213199716792e+000,-3.29651543560077e+000

3.28996424529938e+005,-1.49210288578083e+000,-3.34245063508127e+000

3.33589043469155e+005,-1.49207257255487e+000,-3.38902622569332e+000

3.38245772979638e+005,-1.49204101906048e+000,-3.43625118152340e+000

3.42967508011610e+005,-1.49200818596130e+000,-3.48413460364194e+000

3.47755156008335e+005,-1.49197403299551e+000,-3.53268572187522e+000

3.52609637080511e+005,-1.49193851895714e+000,-3.58191389659939e+000

3.57531884183106e+005,-1.49190160167566e+000,-3.63182862056129e+000

3.62522843294651e+005,-1.49186323799532e+000,-3.68243952071973e+000

3.67583473599047e+005,-1.49182338375294e+000,-3.73375636011585e+000

3.72714747669902e+005,-1.49178199375543e+000,-3.78578903976427e+000

3.77917651657445e+005,-1.49173902175555e+000,-3.83854760057402e+000

3.83193185478053e+005,-1.49169442042714e+000,-3.89204222529301e+000

3.88542363006410e+005,-1.49164814133872e+000,-3.94628324048212e+000

3.93966212270369e+005,-1.49160013492660e+000,-4.00128111851384e+000

3.99465775648511e+005,-1.49155035046606e+000,-4.05704647960192e+000

4.05042110070485e+005,-1.49149873604187e+000,-4.11359009385788e+000

4.10696287220124e+005,-1.49144523851731e+000,-4.17092288337748e+000

4.16429393741414e+005,-1.49138980350174e+000,-4.22905592435837e+000

4.22242531447321e+005,-1.49133237531707e+000,-4.28800044924647e+000

4.28136817531551e+005,-1.49127289696287e+000,-4.34776784891494e+000

4.34113384783250e+005,-1.49121131007981e+000,-4.40836967487537e+000

4.40173381804713e+005,-1.49114755491187e+000,-4.46981764152107e+000

4.46317973232124e+005,-1.49108157026721e+000,-4.53212362840395e+000

4.52548339959385e+005,-1.49101329347705e+000,-4.59529968254635e+000

4.58865679365059e+005,-1.49094266035354e+000,-4.65935802078663e+000

4.65271205542494e+005,-1.49086960514587e+000,-4.72431103216122e+000

4.71766149533147e+005,-1.49079406049473e+000,-4.79017128032236e+000

4.78351759563174e+005,-1.49071595738522e+000,-4.85695150599402e+000

4.85029301283321e+005,-1.49063522509813e+000,-4.92466462946439e+000

4.91800058012158e+005,-1.49055179115954e+000,-4.99332375311818e+000

4.98665330982714e+005,-1.49046558128881e+000,-5.06294216400758e+000

5.05626439592555e+005,-1.49037651934453e+000,-5.13353333646416e+000

5.12684721657352e+005,-1.49028452726933e+000,-5.20511093475049e+000

5.19841533667984e+005,-1.49018952503218e+000,-5.27768881575544e+000

5.27098251051240e+005,-1.49009143056954e+000,-5.35128103173063e+000

5.34456268434150e+005,-1.48999015972436e+000,-5.42590183307060e+000

5.41916999912011e+005,-1.48988562618319e+000,-5.50156567113811e+000

