Freq.,VOut,OutRef

1.00000000000000e+004,-1.92862031082315e+001,-2.17940811986808e-001

1.01395947979003e+004,-1.92862050310910e+001,-2.20982832290761e-001

1.02811382665607e+004,-1.92862070079222e+001,-2.24067304042617e-001

1.04246576084112e+004,-1.92862090402375e+001,-2.27194819268072e-001

1.05701804056138e+004,-1.92862111295915e+001,-2.30365978231983e-001

1.07177346253629e+004,-1.92862132775824e+001,-2.33581389553054e-001

1.08673486252606e+004,-1.92862154858525e+001,-2.36841670321110e-001

1.10190511587661e+004,-1.92862177560908e+001,-2.40147446209617e-001

1.11728713807222e+004,-1.92862200900324e+001,-2.43499351601344e-001

1.13288388529580e+004,-1.92862224894617e+001,-2.46898029702044e-001

1.14869835499703e+004,-1.92862249562122e+001,-2.50344132666399e-001

1.16473358646846e+004,-1.92862274921691e+001,-2.53838321719690e-001

1.18099266142953e+004,-1.92862300992697e+001,-2.57381267283713e-001

1.19747870461893e+004,-1.92862327795055e+001,-2.60973649104456e-001

1.21419488439505e+004,-1.92862355349237e+001,-2.64616156378588e-001

1.23114441334492e+004,-1.92862383676281e+001,-2.68309487887491e-001

1.24833054890161e+004,-1.92862412797814e+001,-2.72054352125367e-001

1.26575659397028e+004,-1.92862442736066e+001,-2.75851467435257e-001

1.28342589756290e+004,-1.92862473513881e+001,-2.79701562146335e-001

1.30134185544193e+004,-1.92862505154745e+001,-2.83605374706781e-001

1.31950791077289e+004,-1.92862537682793e+001,-2.87563653828766e-001

1.33792755478611e+004,-1.92862571122833e+001,-2.91577158625965e-001

1.35660432744767e+004,-1.92862605500363e+001,-2.95646658757150e-001

1.37554181813974e+004,-1.92862640841589e+001,-2.99772934573054e-001

1.39474366635040e+004,-1.92862677173447e+001,-3.03956777260862e-001

1.41421356237309e+004,-1.92862714523619e+001,-3.08198988995604e-001

1.43395524801583e+004,-1.92862752920557e+001,-3.12500383089893e-001

1.45397251732031e+004,-1.92862792393501e+001,-3.16861784147446e-001

1.47426921729110e+004,-1.92862832972506e+001,-3.21284028215318e-001

1.49484924863494e+004,-1.92862874688459e+001,-3.25767962945994e-001

1.51571656651040e+004,-1.92862917573102e+001,-3.30314447752475e-001

1.53687518128801e+004,-1.92862961659058e+001,-3.34924353970909e-001

1.55832915932100e+004,-1.92863006979854e+001,-3.39598565023395e-001

1.58008262372675e+004,-1.92863053569947e+001,-3.44337976584847e-001

1.60213975517924e+004,-1.92863101464746e+001,-3.49143496747709e-001

1.62450479271247e+004,-1.92863150700639e+001,-3.54016046196843e-001

1.64718203453514e+004,-1.92863201315024e+001,-3.58956558375218e-001

1.67017583885674e+004,-1.92863253346330e+001,-3.63965979664135e-001

1.69349062472505e+004,-1.92863306834049e+001,-3.69045269556722e-001

1.71713087287550e+004,-1.92863361818764e+001,-3.74195400836269e-001

1.74110112659224e+004,-1.92863418342178e+001,-3.79417359760472e-001

1.76540599258131e+004,-1.92863476447146e+001,-3.84712146241543e-001

1.79005014185594e+004,-1.92863536177701e+001,-3.90080774035497e-001

1.81503831063432e+004,-1.92863597579096e+001,-3.95524270927929e-001

1.84037530124975e+004,-1.92863660697824e+001,-4.01043678926431e-001

1.86606598307361e+004,-1.92863725581665e+001,-4.06640054451972e-001

1.89211529345119e+004,-1.92863792279706e+001,-4.12314468539155e-001

1.91852823865052e+004,-1.92863860842391e+001,-4.18068007028006e-001

1.94530989482457e+004,-1.92863931321545e+001,-4.23901770769835e-001

1.97246540898671e+004,-1.92864003770421e+001,-4.29816875828346e-001

1.99999999999999e+004,-1.92864078243728e+001,-4.35814453687109e-001

2.02791895958005e+004,-1.92864154797682e+001,-4.41895651456059e-001

2.05622765331213e+004,-1.92864233490034e+001,-4.48061632084200e-001

2.08493152168224e+004,-1.92864314380121e+001,-4.54313574573188e-001

2.11403608112276e+004,-1.92864397528901e+001,-4.60652674194459e-001

2.14354692507258e+004,-1.92864482999000e+001,-4.67080142707312e-001

2.17346972505211e+004,-1.92864570854757e+001,-4.73597208581025e-001

2.20381023175322e+004,-1.92864661162266e+001,-4.80205117221229e-001

2.23457427614443e+004,-1.92864753989423e+001,-4.86905131196659e-001

2.26576777059159e+004,-1.92864849405977e+001,-4.93698530468019e-001

2.29739670999406e+004,-1.92864947483576e+001,-5.00586612623549e-001

2.32946717293690e+004,-1.92865048295816e+001,-5.07570693114483e-001

2.36198532285905e+004,-1.92865151918295e+001,-5.14652105493544e-001

2.39495740923785e+004,-1.92865258428665e+001,-5.21832201656793e-001

2.42838976879009e+004,-1.92865367906682e+001,-5.29112352089781e-001

2.46228882668982e+004,-1.92865480434266e+001,-5.36493946114761e-001

2.49666109780322e+004,-1.92865596095554e+001,-5.43978392140264e-001

2.53151318794055e+004,-1.92865714976960e+001,-5.51567117917114e-001

2.56685179512580e+004,-1.92865837167228e+001,-5.59261570794980e-001

2.60268371088386e+004,-1.92865962757505e+001,-5.67063217980102e-001

2.63901582154578e+004,-1.92866091841385e+001,-5.74973546802710e-001

2.67585510957221e+004,-1.92866224514988e+001,-5.82994064978997e-001

2.71320865489533e+004,-1.92866360877020e+001,-5.91126300881618e-001

2.75108363627948e+004,-1.92866501028831e+001,-5.99371803815147e-001

2.78948733270080e+004,-1.92866645074493e+001,-6.07732144287643e-001

2.82842712474618e+004,-1.92866793120867e+001,-6.16208914292093e-001

2.86791049603164e+004,-1.92866945277668e+001,-6.24803727587499e-001

2.90794503464061e+004,-1.92867101657544e+001,-6.33518219985385e-001

2.94853843458219e+004,-1.92867262376145e+001,-6.42354049637396e-001

2.98969849726987e+004,-1.92867427552201e+001,-6.51312897326939e-001

3.03143313302078e+004,-1.92867597307600e+001,-6.60396466765794e-001

3.07375036257601e+004,-1.92867771767462e+001,-6.69606484892129e-001

3.11665831864199e+004,-1.92867951060226e+001,-6.78944702171471e-001

3.16016524745350e+004,-1.92868135317726e+001,-6.88412892903679e-001

3.20427951035848e+004,-1.92868324675279e+001,-6.98012855529261e-001

3.24900958542493e+004,-1.92868519271766e+001,-7.07746412944458e-001

3.29436406907028e+004,-1.92868719249726e+001,-7.17615412814637e-001

3.34035167771346e+004,-1.92868924755438e+001,-7.27621727892631e-001

3.38698124945009e+004,-1.92869135939016e+001,-7.37767256343024e-001

3.43426174575100e+004,-1.92869352954498e+001,-7.48053922067099e-001

3.48220225318448e+004,-1.92869575959945e+001,-7.58483675031189e-001

3.53081198516260e+004,-1.92869805117534e+001,-7.69058491600473e-001

3.58010028371187e+004,-1.92870040593654e+001,-7.79780374874793e-001

3.63007662126863e+004,-1.92870282559011e+001,-7.90651355028468e-001

3.68075060249948e+004,-1.92870531188725e+001,-8.01673489652751e-001

3.73213196614721e+004,-1.92870786662431e+001,-8.12848864105297e-001

3.78423058690237e+004,-1.92871049164395e+001,-8.24179591855459e-001

3.83705647730104e+004,-1.92871318883606e+001,-8.35667814843106e-001

3.89061978964912e+004,-1.92871596013896e+001,-8.47315703833319e-001

3.94493081797342e+004,-1.92871880754045e+001,-8.59125458777491e-001

3.99999999999998e+004,-1.92872173307894e+001,-8.71099309178475e-001

4.05583791916010e+004,-1.92872473884460e+001,-8.83239514457968e-001

4.11245530662425e+004,-1.92872782698050e+001,-8.95548364328723e-001

4.16986304336447e+004,-1.92873099968377e+001,-9.08028179169745e-001

4.22807216224550e+004,-1.92873425920683e+001,-9.20681310403979e-001

4.28709385014515e+004,-1.92873760785858e+001,-9.33510140880806e-001

4.34693945010421e+004,-1.92874104800557e+001,-9.46517085264117e-001

4.40762046350642e+004,-1.92874458207331e+001,-9.59704590418626e-001

4.46914855228886e+004,-1.92874821254748e+001,-9.73075135805676e-001

4.53153554118317e+004,-1.92875194197521e+001,-9.86631233877476e-001

4.59479341998812e+004,-1.92875577296631e+001,-1.00037543048037e+000

4.65893434587380e+004,-1.92875970819466e+001,-1.01431030525459e+000

4.72397064571810e+004,-1.92876375039941e+001,-1.02843847204658e+000

4.78991481847569e+004,-1.92876790238636e+001,-1.04276257931574e+000

4.85677953758016e+004,-1.92877216702927e+001,-1.05728531055193e+000

4.92457765337964e+004,-1.92877654727116e+001,-1.07200938469287e+000

4.99332219560642e+004,-1.92878104612575e+001,-1.08693755654483e+000

5.06302637588109e+004,-1.92878566667867e+001,-1.10207261721084e+000

5.13370359025159e+004,-1.92879041208895e+001,-1.11741739451735e+000

5.20536742176771e+004,-1.92879528559031e+001,-1.13297475344834e+000

5.27803164309155e+004,-1.92880029049255e+001,-1.14874759658090e+000

5.35171021914442e+004,-1.92880543018292e+001,-1.16473886452618e+000

5.42641730979066e+004,-1.92881070812747e+001,-1.18095153637346e+000

5.50216727255895e+004,-1.92881612787245e+001,-1.19738863013522e+000

5.57897466540159e+004,-1.92882169304567e+001,-1.21405320320165e+000

5.65685424949235e+004,-1.92882740735784e+001,-1.23094835279340e+000

5.73582099206328e+004,-1.92883327460397e+001,-1.24807721642017e+000

5.81589006928121e+004,-1.92883929866465e+001,-1.26544297234427e+000

5.89707686916437e+004,-1.92884548350746e+001,-1.28304884004665e+000

5.97939699453972e+004,-1.92885183318826e+001,-1.30089808069548e+000

6.06286626604156e+004,-1.92885835185251e+001,-1.31899399762266e+000

6.14750072515201e+004,-1.92886504373653e+001,-1.33733993679945e+000

6.23331663728396e+004,-1.92887191316883e+001,-1.35593928731985e+000

6.32033049490698e+004,-1.92887896457131e+001,-1.37479548188632e+000

6.40855902071694e+004,-1.92888620246051e+001,-1.39391199729945e+000

6.49801917084985e+004,-1.92889363144877e+001,-1.41329235495377e+000

6.58872813814055e+004,-1.92890125624543e+001,-1.43294012133386e+000

6.68070335542691e+004,-1.92890908165794e+001,-1.45285890852040e+000

6.77396249890018e+004,-1.92891711259294e+001,-1.47305237469584e+000

6.86852349150199e+004,-1.92892535405729e+001,-1.49352422465751e+000

6.96440450636895e+004,-1.92893381115910e+001,-1.51427821033411e+000

7.06162397032520e+004,-1.92894248910865e+001,-1.53531813130854e+000

7.16020056742374e+004,-1.92895139321930e+001,-1.55664783534342e+000

7.26015324253724e+004,-1.92896052890828e+001,-1.57827121891453e+000

7.36150120499896e+004,-1.92896990169753e+001,-1.60019222774858e+000

7.46426393229441e+004,-1.92897951721433e+001,-1.62241485736541e+000

7.56846117380472e+004,-1.92898938119199e+001,-1.64494315362732e+000

7.67411295460207e+004,-1.92899949947035e+001,-1.66778121329545e+000

7.78123957929823e+004,-1.92900987799630e+001,-1.69093318459019e+000

7.88986163594682e+004,-1.92902052282412e+001,-1.71440326775957e+000

7.99999999999995e+004,-1.92903144011584e+001,-1.73819571565404e+000

8.11167583832018e+004,-1.92904263614135e+001,-1.76231483431043e+000

8.22491061324848e+004,-1.92905411727858e+001,-1.78676498353954e+000

8.33972608672892e+004,-1.92906589001344e+001,-1.81155057752560e+000

8.45614432449099e+004,-1.92907796093972e+001,-1.83667608543293e+000

8.57418770029029e+004,-1.92909033675886e+001,-1.86214603201987e+000

8.69387890020841e+004,-1.92910302427954e+001,-1.88796499826415e+000

8.81524092701283e+004,-1.92911603041729e+001,-1.91413762199622e+000

8.93829710457770e+004,-1.92912936219374e+001,-1.94066859854545e+000

9.06307108236633e+004,-1.92914302673600e+001,-1.96756268139310e+000

9.18958683997622e+004,-1.92915703127563e+001,-1.99482468284142e+000

9.31786869174758e+004,-1.92917138314770e+001,-2.02245947469091e+000

9.44794129143618e+004,-1.92918608978951e+001,-2.05047198893301e+000

9.57982963695136e+004,-1.92920115873927e+001,-2.07886721845382e+000

9.71355907516031e+004,-1.92921659763454e+001,-2.10765021775563e+000

9.84915530675926e+004,-1.92923241421063e+001,-2.13682610368766e+000

9.98664439121282e+004,-1.92924861629862e+001,-2.16640005619953e+000

1.01260527517622e+005,-1.92926521182341e+001,-2.19637731910507e+000

1.02674071805032e+005,-1.92928220880148e+001,-2.22676320086833e+000

1.04107348435354e+005,-1.92929961533853e+001,-2.25756307540447e+000

1.05560632861831e+005,-1.92931743962684e+001,-2.28878238290272e+000

1.07034204382888e+005,-1.92933568994257e+001,-2.32042663066905e+000

1.08528346195813e+005,-1.92935437464280e+001,-2.35250139398925e+000

1.10043345451179e+005,-1.92937350216239e+001,-2.38501231701605e+000

1.11579493308032e+005,-1.92939308101066e+001,-2.41796511367928e+000

1.13137084989847e+005,-1.92941311976787e+001,-2.45136556862232e+000

1.14716419841265e+005,-1.92943362708153e+001,-2.48521953816248e+000

1.16317801385624e+005,-1.92945461166257e+001,-2.51953295128023e+000

1.17941537383287e+005,-1.92947608228119e+001,-2.55431181063822e+000

1.19587939890794e+005,-1.92949804776269e+001,-2.58956219362845e+000

1.21257325320831e+005,-1.92952051698302e+001,-2.62529025345211e+000

1.22950014503040e+005,-1.92954349886426e+001,-2.66150222023212e+000

1.24666332745679e+005,-1.92956700236979e+001,-2.69820440216010e+000

1.26406609898139e+005,-1.92959103649949e+001,-2.73540318667901e+000

1.28171180414339e+005,-1.92961561028467e+001,-2.77310504170294e+000

1.29960383416997e+005,-1.92964073278291e+001,-2.81131651687590e+000

1.31774562762811e+005,-1.92966641307277e+001,-2.85004424487098e+000

1.33614067108538e+005,-1.92969266024844e+001,-2.88929494273154e+000

1.35479249978003e+005,-1.92971948341422e+001,-2.92907541325439e+000

1.37370469830040e+005,-1.92974689167899e+001,-2.96939254641933e+000

1.39288090127379e+005,-1.92977489415061e+001,-3.01025332086453e+000

1.41232479406504e+005,-1.92980349993027e+001,-3.05166480540890e+000

1.43204011348474e+005,-1.92983271810682e+001,-3.09363416062528e+000

1.45203064850745e+005,-1.92986255775115e+001,-3.13616864046251e+000

1.47230024099979e+005,-1.92989302791056e+001,-3.17927559392100e+000

1.49285278645888e+005,-1.92992413760318e+001,-3.22296246678091e+000

1.51369223476094e+005,-1.92995589581256e+001,-3.26723680338573e+000

1.53482259092041e+005,-1.92998831148226e+001,-3.31210624848050e+000

1.55624791585964e+005,-1.93002139351069e+001,-3.35757854910867e+000

1.57797232718936e+005,-1.93005515074607e+001,-3.40366155656587e+000

1.59999999999999e+005,-1.93008959198163e+001,-3.45036322841368e+000

1.62233516766403e+005,-1.93012472595109e+001,-3.49769163055230e+000

1.64498212264969e+005,-1.93016056132434e+001,-3.54565493935536e+000

1.66794521734578e+005,-1.93019710670360e+001,-3.59426144386446e+000

1.69122886489819e+005,-1.93023437061979e+001,-3.64351954804786e+000

1.71483754005805e+005,-1.93027236152945e+001,-3.69343777311812e+000

1.73877578004168e+005,-1.93031108781201e+001,-3.74402475991625e+000

1.76304818540256e+005,-1.93035055776762e+001,-3.79528927135509e+000

1.78765942091554e+005,-1.93039077961555e+001,-3.84724019492670e+000

1.81261421647326e+005,-1.93043176149310e+001,-3.89988654527192e+000

1.83791736799524e+005,-1.93047351145522e+001,-3.95323746681133e+000

1.86357373834951e+005,-1.93051603747476e+001,-4.00730223643748e+000

1.88958825828723e+005,-1.93055934744354e+001,-4.06209026626751e+000

1.91596592739027e+005,-1.93060344917407e+001,-4.11761110645435e+000

1.94271181503206e+005,-1.93064835040223e+001,-4.17387444805769e+000

1.96983106135185e+005,-1.93069405879070e+001,-4.23089012596895e+000

1.99732887824256e+005,-1.93074058193342e+001,-4.28866812189388e+000

2.02521055035243e+005,-1.93078792736090e+001,-4.34721856738668e+000

2.05348143610063e+005,-1.93083610254665e+001,-4.40655174693552e+000

2.08214696870707e+005,-1.93088511491456e+001,-4.46667810109700e+000

2.11121265723661e+005,-1.93093497184745e+001,-4.52760822967722e+000

2.14068408765776e+005,-1.93098568069665e+001,-4.58935289495655e+000

2.17056692391625e+005,-1.93103724879286e+001,-4.65192302495413e+000

2.20086690902357e+005,-1.93108968345808e+001,-4.71532971673321e+000

2.23158986616063e+005,-1.93114299201889e+001,-4.77958423973740e+000

2.26274169979693e+005,-1.93119718182093e+001,-4.84469803916125e+000

2.29432839682530e+005,-1.93125226024459e+001,-4.91068273934779e+000

2.32635602771247e+005,-1.93130823472217e+001,-4.97755014720976e+000

2.35883074766574e+005,-1.93136511275620e+001,-5.04531225567234e+000

2.39175879781588e+005,-1.93142290193919e+001,-5.11398124713200e+000

2.42514650641661e+005,-1.93148160997470e+001,-5.18356949692877e+000

2.45900029006080e+005,-1.93154124469973e+001,-5.25408957682618e+000

2.49332665491357e+005,-1.93160181410855e+001,-5.32555425849774e+000

2.52813219796278e+005,-1.93166332637782e+001,-5.39797651701266e+000

2.56342360828676e+005,-1.93172578989303e+001,-5.47136953431918e+000

2.59920766833993e+005,-1.93178921327637e+001,-5.54574670272029e+000

2.63549125525621e+005,-1.93185360541589e+001,-5.62112162833884e+000

2.67228134217075e+005,-1.93191897549588e+001,-5.69750813456662e+000

2.70958499956006e+005,-1.93198533302869e+001,-5.77492026549556e+000

2.74740939660078e+005,-1.93205268788767e+001,-5.85337228932560e+000

2.78576180254757e+005,-1.93212105034138e+001,-5.93287870174703e+000

2.82464958813007e+005,-1.93219043108907e+001,-6.01345422929288e+000

2.86408022696948e+005,-1.93226084129714e+001,-6.09511383265953e+000

2.90406129701488e+005,-1.93233229263692e+001,-6.17787270999013e+000

2.94460048199957e+005,-1.93240479732331e+001,-6.26174630012188e+000

2.98570557291775e+005,-1.93247836815461e+001,-6.34675028579018e+000

3.02738446952187e+005,-1.93255301855323e+001,-6.43290059679135e+000

3.06964518184081e+005,-1.93262876260730e+001,-6.52021341309904e+000

3.11249583171928e+005,-1.93270561511324e+001,-6.60870516793448e+000

3.15594465437872e+005,-1.93278359161901e+001,-6.69839255078839e+000

3.19999999999997e+005,-1.93286270846823e+001,-6.78929251039296e+000

3.24467033532806e+005,-1.93294298284490e+001,-6.88142225764493e+000

3.28996424529938e+005,-1.93302443281880e+001,-6.97479926847654e+000

3.33589043469155e+005,-1.93310707739148e+001,-7.06944128667651e+000

3.38245772979638e+005,-1.93319093654271e+001,-7.16536632666041e+000

3.42967508011610e+005,-1.93327603127749e+001,-7.26259267619043e+000

3.47755156008335e+005,-1.93336238367335e+001,-7.36113889904626e+000

3.52609637080511e+005,-1.93345001692812e+001,-7.46102383764646e+000

3.57531884183106e+005,-1.93353895540791e+001,-7.56226661562399e+000

3.62522843294651e+005,-1.93362922469543e+001,-7.66488664035585e+000

3.67583473599047e+005,-1.93372085163840e+001,-7.76890360544871e+000

3.72714747669902e+005,-1.93381386439832e+001,-7.87433749318307e+000

3.77917651657445e+005,-1.93390829249912e+001,-7.98120857691947e+000

3.83193185478053e+005,-1.93400416687611e+001,-8.08953742346606e+000

3.88542363006410e+005,-1.93410151992489e+001,-8.19934489541431e+000

3.93966212270369e+005,-1.93420038555027e+001,-8.31065215344179e+000

3.99465775648511e+005,-1.93430079921530e+001,-8.42348065858821e+000

4.05042110070485e+005,-1.93440279799015e+001,-8.53785217450652e+000

4.10696287220124e+005,-1.93450642060109e+001,-8.65378876969148e+000

4.16429393741414e+005,-1.93461170747932e+001,-8.77131281969021e+000

4.22242531447321e+005,-1.93471870080989e+001,-8.89044700929816e+000

4.28136817531551e+005,-1.93482744458044e+001,-9.01121433474201e+000

4.34113384783250e+005,-1.93493798462997e+001,-9.13363810585588e+000

4.40173381804713e+005,-1.93505036869763e+001,-9.25774194825028e+000

4.46317973232124e+005,-1.93516464647138e+001,-9.38354980548006e+000

4.52548339959385e+005,-1.93528086963675e+001,-9.51108594121379e+000

4.58865679365059e+005,-1.93539909192559e+001,-9.64037494140599e+000

4.65271205542494e+005,-1.93551936916484e+001,-9.77144171647681e+000

4.71766149533147e+005,-1.93564175932548e+001,-9.90431150350181e+000

4.78351759563174e+005,-1.93576632257150e+001,-1.00390098684126e+001

4.85029301283321e+005,-1.93589312130904e+001,-1.01755627082129e+001

4.91800058012158e+005,-1.93602222023582e+001,-1.03139962532105e+001

4.98665330982714e+005,-1.93615368639070e+001,-1.04543370692677e+001

5.05626439592555e+005,-1.93628758920364e+001,-1.05966120600719e+001

5.12684721657352e+005,-1.93642400054586e+001,-1.07408484694274e+001

5.19841533667984e+005,-1.93656299478061e+001,-1.08870738835698e+001

5.27098251051240e+005,-1.93670464881413e+001,-1.10353162335040e+001

5.34456268434150e+005,-1.93684904214740e+001,-1.11856037973648e+001

5.41916999912011e+005,-1.93699625692822e+001,-1.13379652028037e+001

