Freq.,VOut,OutRef

1.00000000000000e+004,-2.32353627118326e+001,-3.80723302466731e-001

1.01395947979003e+004,-2.32353669032292e+001,-3.86037439582568e-001

1.02811382665607e+004,-2.32353712123135e+001,-3.91425735448818e-001

1.04246576084112e+004,-2.32353756423857e+001,-3.96889224272604e-001

1.05701804056138e+004,-2.32353801968383e+001,-4.02428954655573e-001

1.07177346253629e+004,-2.32353848791588e+001,-4.08045989792400e-001

1.08673486252606e+004,-2.32353896929319e+001,-4.13741407674424e-001

1.10190511587661e+004,-2.32353946418428e+001,-4.19516301291075e-001

1.11728713807222e+004,-2.32353997296796e+001,-4.25371778839623e-001

1.13288388529580e+004,-2.32354049603361e+001,-4.31308963935329e-001

1.14869835499703e+004,-2.32354103378153e+001,-4.37328995822533e-001

1.16473358646846e+004,-2.32354158662315e+001,-4.43433029593415e-001

1.18099266142953e+004,-2.32354215498146e+001,-4.49622236402952e-001

1.19747870461893e+004,-2.32354273929120e+001,-4.55897803694439e-001

1.21419488439505e+004,-2.32354333999927e+001,-4.62260935422969e-001

1.23114441334492e+004,-2.32354395756505e+001,-4.68712852282028e-001

1.24833054890161e+004,-2.32354459246075e+001,-4.75254791935275e-001

1.26575659397028e+004,-2.32354524517174e+001,-4.81888009250610e-001

1.28342589756290e+004,-2.32354591619694e+001,-4.88613776537407e-001

1.30134185544193e+004,-2.32354660604918e+001,-4.95433383785737e-001

1.31950791077289e+004,-2.32354731525561e+001,-5.02348138911443e-001

1.33792755478611e+004,-2.32354804435806e+001,-5.09359368001235e-001

1.35660432744767e+004,-2.32354879391346e+001,-5.16468415564088e-001

1.37554181813974e+004,-2.32354956449428e+001,-5.23676644782866e-001

1.39474366635040e+004,-2.32355035668890e+001,-5.30985437775035e-001

1.41421356237309e+004,-2.32355117110214e+001,-5.38396195846289e-001

1.43395524801583e+004,-2.32355200835564e+001,-5.45910339761084e-001

1.45397251732031e+004,-2.32355286908832e+001,-5.53529310005012e-001

1.47426921729110e+004,-2.32355375395692e+001,-5.61254567058253e-001

1.49484924863494e+004,-2.32355466363644e+001,-5.69087591667624e-001

1.51571656651040e+004,-2.32355559882064e+001,-5.77029885126587e-001

1.53687518128801e+004,-2.32355656022258e+001,-5.85082969555516e-001

1.55832915932100e+004,-2.32355754857517e+001,-5.93248388186876e-001

1.58008262372675e+004,-2.32355856463164e+001,-6.01527705655560e-001

1.60213975517924e+004,-2.32355960916617e+001,-6.09922508291056e-001

1.62450479271247e+004,-2.32356068297444e+001,-6.18434404412592e-001

1.64718203453514e+004,-2.32356178687421e+001,-6.27065024632800e-001

1.67017583885674e+004,-2.32356292170594e+001,-6.35816022159254e-001

1.69349062472505e+004,-2.32356408833341e+001,-6.44689073105469e-001

1.71713087287550e+004,-2.32356528764434e+001,-6.53685876800796e-001

1.74110112659224e+004,-2.32356652055106e+001,-6.62808156109823e-001

1.76540599258131e+004,-2.32356778799120e+001,-6.72057657750400e-001

1.79005014185594e+004,-2.32356909092833e+001,-6.81436152620778e-001

1.81503831063432e+004,-2.32357043035272e+001,-6.90945436125928e-001

1.84037530124975e+004,-2.32357180728204e+001,-7.00587328514187e-001

1.86606598307361e+004,-2.32357322276209e+001,-7.10363675212647e-001

1.89211529345119e+004,-2.32357467786762e+001,-7.20276347168061e-001

1.91852823865052e+004,-2.32357617370306e+001,-7.30327241196411e-001

1.94530989482457e+004,-2.32357771140334e+001,-7.40518280331013e-001

1.97246540898671e+004,-2.32357929213475e+001,-7.50851414177339e-001

1.99999999999999e+004,-2.32358091709575e+001,-7.61328619275315e-001

2.02791895958005e+004,-2.32358258751786e+001,-7.71951899460356e-001

2.05622765331213e+004,-2.32358430466652e+001,-7.82723286235939e-001

2.08493152168224e+004,-2.32358606984208e+001,-7.93644839143186e-001

2.11403608112276e+004,-2.32358788438065e+001,-8.04718646141685e-001

2.14354692507258e+004,-2.32358974965513e+001,-8.15946823991433e-001

2.17346972505211e+004,-2.32359166707619e+001,-8.27331518640601e-001

2.20381023175322e+004,-2.32359363809325e+001,-8.38874905618309e-001

2.23457427614443e+004,-2.32359566419554e+001,-8.50579190432476e-001

2.26576777059159e+004,-2.32359774691319e+001,-8.62446608971444e-001

2.29739670999406e+004,-2.32359988781828e+001,-8.74479427910511e-001

2.32946717293690e+004,-2.32360208852599e+001,-8.86679945127119e-001

2.36198532285905e+004,-2.32360435069577e+001,-8.99050490114744e-001

2.39495740923785e+004,-2.32360667603245e+001,-9.11593424408589e-001

2.42838976879009e+004,-2.32360906628751e+001,-9.24311142010288e-001

2.46228882668982e+004,-2.32361152326030e+001,-9.37206069822912e-001

2.49666109780322e+004,-2.32361404879931e+001,-9.50280668088250e-001

2.53151318794055e+004,-2.32361664480347e+001,-9.63537430829092e-001

2.56685179512580e+004,-2.32361931322346e+001,-9.76978886299784e-001

2.60268371088386e+004,-2.32362205606312e+001,-9.90607597438446e-001

2.63901582154578e+004,-2.32362487538081e+001,-1.00442616232771e+000

2.67585510957221e+004,-2.32362777329088e+001,-1.01843721465815e+000

2.71320865489533e+004,-2.32363075196508e+001,-1.03264342419965e+000

2.75108363627948e+004,-2.32363381363413e+001,-1.04704749727596e+000

2.78948733270080e+004,-2.32363696058920e+001,-1.06165217724791e+000

2.82842712474618e+004,-2.32364019518356e+001,-1.07646024499722e+000

2.86791049603164e+004,-2.32364351983409e+001,-1.09147451942249e+000

2.90794503464061e+004,-2.32364693702303e+001,-1.10669785793448e+000

2.94853843458219e+004,-2.32365044929961e+001,-1.12213315696165e+000

2.98969849726987e+004,-2.32365405928181e+001,-1.13778335245898e+000

3.03143313302078e+004,-2.32365776965811e+001,-1.15365142042310e+000

3.07375036257601e+004,-2.32366158318934e+001,-1.16974037741327e+000

3.11665831864199e+004,-2.32366550271045e+001,-1.18605328107993e+000

3.16016524745350e+004,-2.32366953113251e+001,-1.20259323069418e+000

3.20427951035848e+004,-2.32367367144458e+001,-1.21936336768956e+000

3.24900958542493e+004,-2.32367792671571e+001,-1.23636687620458e+000

3.29436406907028e+004,-2.32368230009697e+001,-1.25360698363423e+000

3.34035167771346e+004,-2.32368679482351e+001,-1.27108696118513e+000

3.38698124945009e+004,-2.32369141421669e+001,-1.28881012443854e+000

3.43426174575100e+004,-2.32369616168624e+001,-1.30677983391920e+000

3.48220225318448e+004,-2.32370104073246e+001,-1.32499949566828e+000

3.53081198516260e+004,-2.32370605494850e+001,-1.34347256182501e+000

3.58010028371187e+004,-2.32371120802263e+001,-1.36220253121235e+000

3.63007662126863e+004,-2.32371650374061e+001,-1.38119294992986e+000

3.68075060249948e+004,-2.32372194598812e+001,-1.40044741195102e+000

3.73213196614721e+004,-2.32372753875317e+001,-1.41996955973025e+000

3.78423058690237e+004,-2.32373328612863e+001,-1.43976308481058e+000

3.83705647730104e+004,-2.32373919231475e+001,-1.45983172844383e+000

3.89061978964912e+004,-2.32374526162183e+001,-1.48017928221007e+000

3.94493081797342e+004,-2.32375149847279e+001,-1.50080958864994e+000

3.99999999999998e+004,-2.32375790740594e+001,-1.52172654189746e+000

4.05583791916010e+004,-2.32376449307771e+001,-1.54293408832295e+000

4.11245530662425e+004,-2.32377126026546e+001,-1.56443622718020e+000

4.16986304336447e+004,-2.32377821387036e+001,-1.58623701125904e+000

4.22807216224550e+004,-2.32378535892029e+001,-1.60834054754721e+000

4.28709385014515e+004,-2.32379270057281e+001,-1.63075099789431e+000

4.34693945010421e+004,-2.32380024411819e+001,-1.65347257968630e+000

4.40762046350642e+004,-2.32380799498247e+001,-1.67650956652095e+000

4.46914855228886e+004,-2.32381595873059e+001,-1.69986628889464e+000

4.53153554118317e+004,-2.32382414106956e+001,-1.72354713489245e+000

4.59479341998812e+004,-2.32383254785173e+001,-1.74755655088385e+000

4.65893434587380e+004,-2.32384118507799e+001,-1.77189904222687e+000

4.72397064571810e+004,-2.32385005890120e+001,-1.79657917397726e+000

4.78991481847569e+004,-2.32385917562949e+001,-1.82160157160223e+000

4.85677953758016e+004,-2.32386854172975e+001,-1.84697092170283e+000

4.92457765337964e+004,-2.32387816383109e+001,-1.87269197274204e+000

4.99332219560642e+004,-2.32388804872837e+001,-1.89876953577664e+000

5.06302637588109e+004,-2.32389820338578e+001,-1.92520848519872e+000

5.13370359025159e+004,-2.32390863494049e+001,-1.95201375948014e+000

5.20536742176771e+004,-2.32391935070629e+001,-1.97919036192512e+000

5.27803164309155e+004,-2.32393035817730e+001,-2.00674336142899e+000

5.35171021914442e+004,-2.32394166503180e+001,-2.03467789324072e+000

5.42641730979066e+004,-2.32395327913596e+001,-2.06299915973493e+000

5.50216727255895e+004,-2.32396520854769e+001,-2.09171243118782e+000

5.57897466540159e+004,-2.32397746152054e+001,-2.12082304656019e+000

5.65685424949235e+004,-2.32399004650763e+001,-2.15033641428603e+000

5.73582099206328e+004,-2.32400297216556e+001,-2.18025801306755e+000

5.81589006928121e+004,-2.32401624735842e+001,-2.21059339267726e+000

5.89707686916437e+004,-2.32402988116179e+001,-2.24134817476534e+000

5.97939699453972e+004,-2.32404388286677e+001,-2.27252805367403e+000

6.06286626604156e+004,-2.32405826198409e+001,-2.30413879725707e+000

6.14750072515201e+004,-2.32407302824811e+001,-2.33618624770830e+000

6.23331663728396e+004,-2.32408819162101e+001,-2.36867632239353e+000

6.32033049490698e+004,-2.32410376229682e+001,-2.40161501469184e+000

6.40855902071694e+004,-2.32411975070563e+001,-2.43500839484148e+000

6.49801917084985e+004,-2.32413616751768e+001,-2.46886261079414e+000

6.58872813814055e+004,-2.32415302364747e+001,-2.50318388907543e+000

6.68070335542691e+004,-2.32417033025796e+001,-2.53797853565206e+000

6.77396249890018e+004,-2.32418809876470e+001,-2.57325293680667e+000

6.86852349150199e+004,-2.32420634083989e+001,-2.60901356002098e+000

6.96440450636895e+004,-2.32422506841653e+001,-2.64526695486462e+000

7.06162397032520e+004,-2.32424429369256e+001,-2.68201975389321e+000

7.16020056742374e+004,-2.32426402913484e+001,-2.71927867355363e+000

7.26015324253724e+004,-2.32428428748325e+001,-2.75705051509854e+000

7.36150120499896e+004,-2.32430508175468e+001,-2.79534216550843e+000

7.46426393229441e+004,-2.32432642524702e+001,-2.83416059842230e+000

7.56846117380472e+004,-2.32434833154302e+001,-2.87351287507927e+000

7.67411295460207e+004,-2.32437081451425e+001,-2.91340614526793e+000

7.78123957929823e+004,-2.32439388832483e+001,-2.95384764828583e+000

7.88986163594682e+004,-2.32441756743526e+001,-2.99484471391131e+000

7.99999999999995e+004,-2.32444186660603e+001,-3.03640476338221e+000

8.11167583832018e+004,-2.32446680090128e+001,-3.07853531039071e+000

8.22491061324848e+004,-2.32449238569233e+001,-3.12124396208530e+000

8.33972608672892e+004,-2.32451863666107e+001,-3.16453842008971e+000

8.45614432449099e+004,-2.32454556980335e+001,-3.20842648153054e+000

8.57418770029029e+004,-2.32457320143223e+001,-3.25291604008150e+000

8.69387890020841e+004,-2.32460154818108e+001,-3.29801508702196e+000

8.81524092701283e+004,-2.32463062700664e+001,-3.34373171230835e+000

8.93829710457770e+004,-2.32466045519190e+001,-3.39007410566423e+000

9.06307108236633e+004,-2.32469105034892e+001,-3.43705055768600e+000

9.18958683997622e+004,-2.32472243042146e+001,-3.48466946096519e+000

9.31786869174758e+004,-2.32475461368746e+001,-3.53293931123291e+000

9.44794129143618e+004,-2.32478761876152e+001,-3.58186870851971e+000

9.57982963695136e+004,-2.32482146459699e+001,-3.63146635833945e+000

9.71355907516031e+004,-2.32485617048817e+001,-3.68174107289406e+000

9.84915530675926e+004,-2.32489175607218e+001,-3.73270177230167e+000

9.98664439121282e+004,-2.32492824133071e+001,-3.78435748584874e+000

1.01260527517622e+005,-2.32496564659168e+001,-3.83671735326823e+000

1.02674071805032e+005,-2.32500399253063e+001,-3.88979062604584e+000

1.04107348435354e+005,-2.32504330017204e+001,-3.94358666875404e+000

1.05560632861831e+005,-2.32508359089044e+001,-3.99811496041560e+000

1.07034204382888e+005,-2.32512488641133e+001,-4.05338509590120e+000

1.08528346195813e+005,-2.32516720881202e+001,-4.10940678735782e+000

1.10043345451179e+005,-2.32521058052222e+001,-4.16618986567472e+000

1.11579493308032e+005,-2.32525502432453e+001,-4.22374428198465e+000

1.13137084989847e+005,-2.32530056335476e+001,-4.28208010920513e+000

1.14716419841265e+005,-2.32534722110210e+001,-4.34120754361948e+000

1.16317801385624e+005,-2.32539502140919e+001,-4.40113690650112e+000

1.17941537383287e+005,-2.32544398847197e+001,-4.46187864578309e+000

1.19587939890794e+005,-2.32549414683956e+001,-4.52344333777336e+000

1.21257325320831e+005,-2.32554552141385e+001,-4.58584168891981e+000

1.22950014503040e+005,-2.32559813744923e+001,-4.64908453762552e+000

1.24666332745679e+005,-2.32565202055199e+001,-4.71318285611933e+000

1.26406609898139e+005,-2.32570719667990e+001,-4.77814775237908e+000

1.28171180414339e+005,-2.32576369214162e+001,-4.84399047211456e+000

1.29960383416997e+005,-2.32582153359612e+001,-4.91072240081077e+000

1.31774562762811e+005,-2.32588074805218e+001,-4.97835506583208e+000

1.33614067108538e+005,-2.32594136286787e+001,-5.04690013859154e+000

1.35479249978003e+005,-2.32600340575014e+001,-5.11636943678829e+000

1.37370469830040e+005,-2.32606690475452e+001,-5.18677492671219e+000

1.39288090127379e+005,-2.32613188828496e+001,-5.25812872562099e+000

1.41232479406504e+005,-2.32619838509387e+001,-5.33044310419094e+000

1.43204011348474e+005,-2.32626642428238e+001,-5.40373048904291e+000

1.45203064850745e+005,-2.32633603530085e+001,-5.47800346534575e+000

1.47230024099979e+005,-2.32640724794980e+001,-5.55327477950018e+000

1.49285278645888e+005,-2.32648009238107e+001,-5.62955734190397e+000

1.51369223476094e+005,-2.32655459909957e+001,-5.70686422979973e+000

1.53482259092041e+005,-2.32663079896535e+001,-5.78520869020926e+000

1.55624791585964e+005,-2.32670872319638e+001,-5.86460414295209e+000

1.57797232718936e+005,-2.32678840337181e+001,-5.94506418375446e+000

1.59999999999999e+005,-2.32686987143598e+001,-6.02660258744501e+000

1.62233516766403e+005,-2.32695315970316e+001,-6.10923331124186e+000

1.64498212264969e+005,-2.32703830086310e+001,-6.19297049812969e+000

1.66794521734578e+005,-2.32712532798747e+001,-6.27782848032874e+000

1.69122886489819e+005,-2.32721427453728e+001,-6.36382178285445e+000

1.71483754005805e+005,-2.32730517437130e+001,-6.45096512716983e+000

1.73877578004168e+005,-2.32739806175573e+001,-6.53927343492816e+000

1.76304818540256e+005,-2.32749297137488e+001,-6.62876183180755e+000

1.78765942091554e+005,-2.32758993834338e+001,-6.71944565143432e+000

1.81261421647326e+005,-2.32768899821955e+001,-6.81134043939697e+000

1.83791736799524e+005,-2.32779018702039e+001,-6.90446195734566e+000

1.86357373834951e+005,-2.32789354123806e+001,-6.99882618717914e+000

1.88958825828723e+005,-2.32799909785800e+001,-7.09444933531334e+000

1.91596592739027e+005,-2.32810689437879e+001,-7.19134783703224e+000

1.94271181503206e+005,-2.32821696883385e+001,-7.28953836091635e+000

1.96983106135185e+005,-2.32832935981498e+001,-7.38903781334502e+000

1.99732887824256e+005,-2.32844410649798e+001,-7.48986334307138e+000

2.02521055035243e+005,-2.32856124867025e+001,-7.59203234586264e+000

2.05348143610063e+005,-2.32868082676059e+001,-7.69556246920423e+000

2.08214696870707e+005,-2.32880288187128e+001,-7.80047161706063e+000

2.11121265723661e+005,-2.32892745581236e+001,-7.90677795468955e+000

2.14068408765776e+005,-2.32905459113842e+001,-8.01449991350239e+000

2.17056692391625e+005,-2.32918433118776e+001,-8.12365619596672e+000

2.20086690902357e+005,-2.32931672012410e+001,-8.23426578054285e+000

2.23158986616063e+005,-2.32945180298089e+001,-8.34634792664805e+000

2.26274169979693e+005,-2.32958962570824e+001,-8.45992217964389e+000

2.29432839682530e+005,-2.32973023522253e+001,-8.57500837583626e+000

2.32635602771247e+005,-2.32987367945880e+001,-8.69162664748256e+000

2.35883074766574e+005,-2.33002000742588e+001,-8.80979742779731e+000

2.39175879781588e+005,-2.33016926926433e+001,-8.92954145595030e+000

2.42514650641661e+005,-2.33032151630724e+001,-9.05087978204577e+000

2.45900029006080e+005,-2.33047680114387e+001,-9.17383377207804e+000

2.49332665491357e+005,-2.33063517768616e+001,-9.29842511285186e+000

2.52813219796278e+005,-2.33079670123809e+001,-9.42467581686171e+000

2.56342360828676e+005,-2.33096142856798e+001,-9.55260822711975e+000

2.59920766833993e+005,-2.33112941798357e+001,-9.68224502192546e+000

2.63549125525621e+005,-2.33130072940999e+001,-9.81360921956587e+000

2.67228134217075e+005,-2.33147542447056e+001,-9.94672418294064e+000

2.70958499956006e+005,-2.33165356657032e+001,-1.00816136241024e+001

2.74740939660078e+005,-2.33183522098239e+001,-1.02183016087045e+001

2.78576180254757e+005,-2.33202045493698e+001,-1.03568125603459e+001

2.82464958813007e+005,-2.33220933771306e+001,-1.04971712648105e+001

2.86408022696948e+005,-2.33240194073263e+001,-1.06394028741862e+001

2.90406129701488e+005,-2.33259833765751e+001,-1.07835329108634e+001

2.94460048199957e+005,-2.33279860448858e+001,-1.09295872714006e+001

2.98570557291775e+005,-2.33300281966745e+001,-1.10775922302524e+001

3.02738446952187e+005,-2.33321106418030e+001,-1.12275744433545e+001

3.06964518184081e+005,-2.33342342166409e+001,-1.13795609515574e+001

3.11249583171928e+005,-2.33363997851479e+001,-1.15335791839056e+001

3.15594465437872e+005,-2.33386082399766e+001,-1.16896569607543e+001

3.19999999999997e+005,-2.33408605035945e+001,-1.18478224967213e+001

3.24467033532806e+005,-2.33431575294248e+001,-1.20081044034696e+001

3.28996424529938e+005,-2.33455003030044e+001,-1.21705316923138e+001

3.33589043469155e+005,-2.33478898431578e+001,-1.23351337766506e+001

3.38245772979638e+005,-2.33503272031865e+001,-1.25019404742082e+001

3.42967508011610e+005,-2.33528134720738e+001,-1.26709820091121e+001

3.47755156008335e+005,-2.33553497757012e+001,-1.28422890137656e+001

3.52609637080511e+005,-2.33579372780785e+001,-1.30158925305428e+001

3.57531884183106e+005,-2.33605771825849e+001,-1.31918240132927e+001

3.62522843294651e+005,-2.33632707332204e+001,-1.33701153286532e+001

3.67583473599047e+005,-2.33660192158673e+001,-1.35507987571738e+001

3.72714747669902e+005,-2.33688239595598e+001,-1.37339069942476e+001

3.77917651657445e+005,-2.33716863377618e+001,-1.39194731508515e+001

3.83193185478053e+005,-2.33746077696522e+001,-1.41075307540942e+001

3.88542363006410e+005,-2.33775897214157e+001,-1.42981137475729e+001

3.93966212270369e+005,-2.33806337075401e+001,-1.44912564915396e+001

3.99465775648511e+005,-2.33837412921178e+001,-1.46869937628750e+001

4.05042110070485e+005,-2.33869140901528e+001,-1.48853607548741e+001

4.10696287220124e+005,-2.33901537688705e+001,-1.50863930768399e+001

4.16429393741414e+005,-2.33934620490315e+001,-1.52901267534901e+001

4.22242531447321e+005,-2.33968407062483e+001,-1.54965982241731e+001

4.28136817531551e+005,-2.34002915723041e+001,-1.57058443418973e+001

4.34113384783250e+005,-2.34038165364746e+001,-1.59179023721709e+001

4.40173381804713e+005,-2.34074175468507e+001,-1.61328099916544e+001

4.46317973232124e+005,-2.34110966116637e+001,-1.63506052866248e+001

4.52548339959385e+005,-2.34148558006113e+001,-1.65713267512510e+001

4.58865679365059e+005,-2.34186972461851e+001,-1.67950132856795e+001

4.65271205542494e+005,-2.34226231449989e+001,-1.70217041939308e+001

4.71766149533147e+005,-2.34266357591182e+001,-1.72514391816028e+001

4.78351759563174e+005,-2.34307374173900e+001,-1.74842583533815e+001

4.85029301283321e+005,-2.34349305167739e+001,-1.77202022103562e+001

4.91800058012158e+005,-2.34392175236730e+001,-1.79593116471361e+001

4.98665330982714e+005,-2.34436009752657e+001,-1.82016279487651e+001

5.05626439592555e+005,-2.34480834808379e+001,-1.84471927874339e+001

5.12684721657352e+005,-2.34526677231148e+001,-1.86960482189814e+001

5.19841533667984e+005,-2.34573564595936e+001,-1.89482366791840e+001

5.27098251051240e+005,-2.34621525238754e+001,-1.92038009798272e+001

5.34456268434150e+005,-2.34670588269966e+001,-1.94627843045537e+001

5.41916999912011e+005,-2.34720783587608e+001,-1.97252302044824e+001

