Freq.,VOut,OutRef

1.00000000000000e+004,-1.97914382928300e+000,-1.02843024645062e-001

1.01395947979003e+004,-1.97914383293432e+000,-1.04278648060472e-001

1.02811382665607e+004,-1.97914383668512e+000,-1.05734311534366e-001

1.04246576084112e+004,-1.97914384053791e+000,-1.07210294795520e-001

1.05701804056138e+004,-1.97914384449518e+000,-1.08706881476543e-001

1.07177346253629e+004,-1.97914384855985e+000,-1.10224359166202e-001

1.08673486252606e+004,-1.97914385273478e+000,-1.11763019468326e-001

1.10190511587661e+004,-1.97914385702257e+000,-1.13323158057759e-001

1.11728713807222e+004,-1.97914386142644e+000,-1.14905074732691e-001

1.13288388529580e+004,-1.97914386594918e+000,-1.16509073478081e-001

1.14869835499703e+004,-1.97914387059401e+000,-1.18135462518876e-001

1.16473358646846e+004,-1.97914387536380e+000,-1.19784554384499e-001

1.18099266142953e+004,-1.97914388026217e+000,-1.21456665961632e-001

1.19747870461893e+004,-1.97914388529193e+000,-1.23152118564426e-001

1.21419488439505e+004,-1.97914389045690e+000,-1.24871237985317e-001

1.23114441334492e+004,-1.97914389576015e+000,-1.26614354568697e-001

1.24833054890161e+004,-1.97914390120535e+000,-1.28381803265195e-001

1.26575659397028e+004,-1.97914390679616e+000,-1.30173923700219e-001

1.28342589756290e+004,-1.97914391253602e+000,-1.31991060241166e-001

1.30134185544193e+004,-1.97914391842873e+000,-1.33833562058277e-001

1.31950791077289e+004,-1.97914392447831e+000,-1.35701783194117e-001

1.33792755478611e+004,-1.97914393068839e+000,-1.37596082633968e-001

1.35660432744767e+004,-1.97914393706321e+000,-1.39516824370118e-001

1.37554181813974e+004,-1.97914394360656e+000,-1.41464377476446e-001

1.39474366635040e+004,-1.97914395032264e+000,-1.43439116175276e-001

1.41421356237309e+004,-1.97914395721589e+000,-1.45441419909817e-001

1.43395524801583e+004,-1.97914396429041e+000,-1.47471673420331e-001

1.45397251732031e+004,-1.97914397155069e+000,-1.49530266813947e-001

1.47426921729110e+004,-1.97914397900102e+000,-1.51617595642300e-001

1.49484924863494e+004,-1.97914398664621e+000,-1.53734060974467e-001

1.51571656651040e+004,-1.97914399449074e+000,-1.55880069477091e-001

1.53687518128801e+004,-1.97914400253932e+000,-1.58056033490932e-001

1.55832915932100e+004,-1.97914401079692e+000,-1.60262371108462e-001

1.58008262372675e+004,-1.97914401926818e+000,-1.62499506258006e-001

1.60213975517924e+004,-1.97914402795832e+000,-1.64767868779988e-001

1.62450479271247e+004,-1.97914403687228e+000,-1.67067894513979e-001

1.64718203453514e+004,-1.97914404601512e+000,-1.69400025380154e-001

1.67017583885674e+004,-1.97914405539205e+000,-1.71764709463716e-001

1.69349062472505e+004,-1.97914406500834e+000,-1.74162401101271e-001

1.71713087287550e+004,-1.97914407486964e+000,-1.76593560966477e-001

1.74110112659224e+004,-1.97914408498102e+000,-1.79058656163180e-001

1.76540599258131e+004,-1.97914409534810e+000,-1.81558160309554e-001

1.79005014185594e+004,-1.97914410597649e+000,-1.84092553631046e-001

1.81503831063432e+004,-1.97914411687172e+000,-1.86662323053013e-001

1.84037530124975e+004,-1.97914412803961e+000,-1.89267962292771e-001

1.86606598307361e+004,-1.97914413948588e+000,-1.91909971955177e-001

1.89211529345119e+004,-1.97914415121628e+000,-1.94588859628601e-001

1.91852823865052e+004,-1.97914416323672e+000,-1.97305139981319e-001

1.94530989482457e+004,-1.97914417555293e+000,-2.00059334861921e-001

1.97246540898671e+004,-1.97914418817119e+000,-2.02851973395234e-001

1.99999999999999e+004,-1.97914420109715e+000,-2.05683592090122e-001

2.02791895958005e+004,-1.97914421433703e+000,-2.08554734935847e-001

2.05622765331213e+004,-1.97914422789660e+000,-2.11465953511660e-001

2.08493152168224e+004,-1.97914424178211e+000,-2.14417807087300e-001

2.11403608112276e+004,-1.97914425599948e+000,-2.17410862734350e-001

2.14354692507258e+004,-1.97914427055477e+000,-2.20445695432825e-001

2.17346972505211e+004,-1.97914428545394e+000,-2.23522888181678e-001

2.20381023175322e+004,-1.97914430070296e+000,-2.26643032110784e-001

2.23457427614443e+004,-1.97914431630784e+000,-2.29806726592795e-001

2.26576777059159e+004,-1.97914433227422e+000,-2.33014579360639e-001

2.29739670999406e+004,-1.97914434860825e+000,-2.36267206619108e-001

2.32946717293690e+004,-1.97914436531536e+000,-2.39565233169426e-001

2.36198532285905e+004,-1.97914438240143e+000,-2.42909292521332e-001

2.39495740923785e+004,-1.97914439987178e+000,-2.46300027021597e-001

2.42838976879009e+004,-1.97914441773182e+000,-2.49738087971540e-001

2.46228882668982e+004,-1.97914443598679e+000,-2.53224135753742e-001

2.49666109780322e+004,-1.97914445464182e+000,-2.56758839958080e-001

2.53151318794055e+004,-1.97914447370168e+000,-2.60342879510665e-001

2.56685179512580e+004,-1.97914449317098e+000,-2.63976942802299e-001

2.60268371088386e+004,-1.97914451305416e+000,-2.67661727820644e-001

2.63901582154578e+004,-1.97914453335524e+000,-2.71397942284687e-001

2.67585510957221e+004,-1.97914455407811e+000,-2.75186303777744e-001

2.71320865489533e+004,-1.97914457522619e+000,-2.79027539886597e-001

2.75108363627948e+004,-1.97914459680249e+000,-2.82922388340800e-001

2.78948733270080e+004,-1.97914461880969e+000,-2.86871597151961e-001

2.82842712474618e+004,-1.97914464125008e+000,-2.90875924757048e-001

2.86791049603164e+004,-1.97914466412532e+000,-2.94936140164598e-001

2.90794503464061e+004,-1.97914468743671e+000,-2.99053023100169e-001

2.94853843458219e+004,-1.97914471118470e+000,-3.03227364156648e-001

2.98969849726987e+004,-1.97914473536934e+000,-3.07459964943599e-001

3.03143313302078e+004,-1.97914475998976e+000,-3.11751638242291e-001

3.07375036257601e+004,-1.97914478504477e+000,-3.16103208157210e-001

3.11665831864199e+004,-1.97914481053187e+000,-3.20515510278466e-001

3.16016524745350e+004,-1.97914483644807e+000,-3.24989391837142e-001

3.20427951035848e+004,-1.97914486278909e+000,-3.29525711869387e-001

3.24900958542493e+004,-1.97914488954991e+000,-3.34125341378405e-001

3.29436406907028e+004,-1.97914491672450e+000,-3.38789163500920e-001

3.34035167771346e+004,-1.97914494430522e+000,-3.43518073678453e-001

3.38698124945009e+004,-1.97914497228353e+000,-3.48312979823409e-001

3.43426174575100e+004,-1.97914500064952e+000,-3.53174802495098e-001

3.48220225318448e+004,-1.97914502939175e+000,-3.58104475074554e-001

3.53081198516260e+004,-1.97914505849703e+000,-3.63102943943785e-001

3.58010028371187e+004,-1.97914508795077e+000,-3.68171168662442e-001

3.63007662126863e+004,-1.97914511773653e+000,-3.73310122153851e-001

3.68075060249948e+004,-1.97914514783581e+000,-3.78520790889667e-001

3.73213196614721e+004,-1.97914517822837e+000,-3.83804175075631e-001

3.78423058690237e+004,-1.97914520889122e+000,-3.89161288846332e-001

3.83705647730104e+004,-1.97914523979970e+000,-3.94593160452427e-001

3.89061978964912e+004,-1.97914527092615e+000,-4.00100832461488e-001

3.94493081797342e+004,-1.97914530224047e+000,-4.05685361953110e-001

3.99999999999998e+004,-1.97914533370960e+000,-4.11347820721633e-001

4.05583791916010e+004,-1.97914536529767e+000,-4.17089295477610e-001

4.11245530662425e+004,-1.97914539696521e+000,-4.22910888059114e-001

4.16986304336447e+004,-1.97914542866961e+000,-4.28813715635431e-001

4.22807216224550e+004,-1.97914546036450e+000,-4.34798910922691e-001

4.28709385014515e+004,-1.97914549199948e+000,-4.40867622399701e-001

4.34693945010421e+004,-1.97914552352033e+000,-4.47021014521956e-001

4.40762046350642e+004,-1.97914555486801e+000,-4.53260267948085e-001

4.46914855228886e+004,-1.97914558597921e+000,-4.59586579759456e-001

4.53153554118317e+004,-1.97914561678512e+000,-4.66001163691170e-001

4.59479341998812e+004,-1.97914564721216e+000,-4.72505250358006e-001

4.65893434587380e+004,-1.97914567718080e+000,-4.79100087492098e-001

4.72397064571810e+004,-1.97914570660571e+000,-4.85786940176971e-001

4.78991481847569e+004,-1.97914573539495e+000,-4.92567091088546e-001

4.85677953758016e+004,-1.97914576345030e+000,-4.99441840736182e-001

4.92457765337964e+004,-1.97914579066599e+000,-5.06412507713138e-001

4.99332219560642e+004,-1.97914581692895e+000,-5.13480428941871e-001

5.06302637588109e+004,-1.97914584211807e+000,-5.20646959929882e-001

5.13370359025159e+004,-1.97914586610363e+000,-5.27913475026159e-001

5.20536742176771e+004,-1.97914588874704e+000,-5.35281367680167e-001

5.27803164309155e+004,-1.97914590990007e+000,-5.42752050707071e-001

5.35171021914442e+004,-1.97914592940455e+000,-5.50326956553397e-001

5.42641730979066e+004,-1.97914594709158e+000,-5.58007537569153e-001

5.50216727255895e+004,-1.97914596278097e+000,-5.65795266281893e-001

5.57897466540159e+004,-1.97914597628054e+000,-5.73691635675471e-001

5.65685424949235e+004,-1.97914598738548e+000,-5.81698159472394e-001

5.73582099206328e+004,-1.97914599587781e+000,-5.89816372417784e-001

5.81589006928121e+004,-1.97914600152515e+000,-5.98047830573046e-001

5.89707686916437e+004,-1.97914600408033e+000,-6.06394111606472e-001

5.97939699453972e+004,-1.97914600328054e+000,-6.14856815092083e-001

6.06286626604156e+004,-1.97914599884604e+000,-6.23437562812777e-001

6.14750072515201e+004,-1.97914599047969e+000,-6.32137999064751e-001

6.23331663728396e+004,-1.97914597786586e+000,-6.40959790967990e-001

6.32033049490698e+004,-1.97914596066906e+000,-6.49904628782165e-001

6.40855902071694e+004,-1.97914593853330e+000,-6.58974226224319e-001

6.49801917084985e+004,-1.97914591108081e+000,-6.68170320791283e-001

6.58872813814055e+004,-1.97914587791063e+000,-6.77494674089581e-001

6.68070335542691e+004,-1.97914583859772e+000,-6.86949072164514e-001

6.77396249890018e+004,-1.97914579269124e+000,-6.96535325840139e-001

6.86852349150199e+004,-1.97914573971364e+000,-7.06255271057209e-001

6.96440450636895e+004,-1.97914567915875e+000,-7.16110769221730e-001

7.06162397032520e+004,-1.97914561049060e+000,-7.26103707553837e-001

7.16020056742374e+004,-1.97914553314148e+000,-7.36235999445278e-001

7.26015324253724e+004,-1.97914544651077e+000,-7.46509584817479e-001

7.36150120499896e+004,-1.97914534996276e+000,-7.56926430488541e-001

7.46426393229441e+004,-1.97914524282483e+000,-7.67488530544041e-001

7.56846117380472e+004,-1.97914512438593e+000,-7.78197906710824e-001

7.67411295460207e+004,-1.97914499389406e+000,-7.89056608739644e-001

7.78123957929823e+004,-1.97914485055453e+000,-8.00066714790072e-001

7.88986163594682e+004,-1.97914469352769e+000,-8.11230331822164e-001

7.99999999999995e+004,-1.97914452192652e+000,-8.22549595993757e-001

8.11167583832018e+004,-1.97914433481432e+000,-8.34026673062405e-001

8.22491061324848e+004,-1.97914413120199e+000,-8.45663758794390e-001

8.33972608672892e+004,-1.97914391004597e+000,-8.57463079376369e-001

8.45614432449099e+004,-1.97914367024478e+000,-8.69426891837422e-001

8.57418770029029e+004,-1.97914341063659e+000,-8.81557484473159e-001

8.69387890020841e+004,-1.97914312999627e+000,-8.93857177276882e-001

8.81524092701283e+004,-1.97914282703195e+000,-9.06328322378439e-001

8.93829710457770e+004,-1.97914250038209e+000,-9.18973304487039e-001

9.06307108236633e+004,-1.97914214861205e+000,-9.31794541340765e-001

9.18958683997622e+004,-1.97914177021042e+000,-9.44794484164181e-001

9.31786869174758e+004,-1.97914136358548e+000,-9.57975618130850e-001

9.44794129143618e+004,-1.97914092706118e+000,-9.71340462833908e-001

9.57982963695136e+004,-1.97914045887355e+000,-9.84891572759464e-001

9.71355907516031e+004,-1.97913995716626e+000,-9.98631537773047e-001

9.84915530675926e+004,-1.97913941998641e+000,-1.01256298360809e+000

9.98664439121282e+004,-1.97913884528005e+000,-1.02668857236364e+000

1.01260527517622e+005,-1.97913823088749e+000,-1.04101100300931e+000

1.02674071805032e+005,-1.97913757453873e+000,-1.05553301189563e+000

1.04107348435354e+005,-1.97913687384820e+000,-1.07025737327483e+000

1.05560632861831e+005,-1.97913612630964e+000,-1.08518689982758e+000

1.07034204382888e+005,-1.97913532929095e+000,-1.10032444319682e+000

1.08528346195813e+005,-1.97913448002835e+000,-1.11567289453104e+000

1.10043345451179e+005,-1.97913357562073e+000,-1.13123518503545e+000

1.11579493308032e+005,-1.97913261302384e+000,-1.14701428652927e+000

1.13137084989847e+005,-1.97913158904388e+000,-1.16301321201447e+000

1.14716419841265e+005,-1.97913050033149e+000,-1.17923501624994e+000

1.16317801385624e+005,-1.97912934337465e+000,-1.19568279633763e+000

1.17941537383287e+005,-1.97912811449260e+000,-1.21235969231335e+000

1.19587939890794e+005,-1.97912680982815e+000,-1.22926888775121e+000

1.21257325320831e+005,-1.97912542534100e+000,-1.24641361037255e+000

1.22950014503040e+005,-1.97912395680001e+000,-1.26379713266802e+000

1.24666332745679e+005,-1.97912239977560e+000,-1.28142277252747e+000

1.26406609898139e+005,-1.97912074963201e+000,-1.29929389387833e+000

1.28171180414339e+005,-1.97911900151904e+000,-1.31741390733606e+000

1.29960383416997e+005,-1.97911715036378e+000,-1.33578627086364e+000

1.31774562762811e+005,-1.97911519086221e+000,-1.35441449044021e+000

1.33614067108538e+005,-1.97911311747012e+000,-1.37330212074231e+000

1.35479249978003e+005,-1.97911092439447e+000,-1.39245276583288e+000

1.37370469830040e+005,-1.97910860558399e+000,-1.41187007986407e+000

1.39288090127379e+005,-1.97910615471971e+000,-1.43155776778820e+000

1.41232479406504e+005,-1.97910356520547e+000,-1.45151958608134e+000

1.43204011348474e+005,-1.97910083015780e+000,-1.47175934347865e+000

1.45203064850745e+005,-1.97909794239622e+000,-1.49228090171885e+000

1.47230024099979e+005,-1.97909489443259e+000,-1.51308817630328e+000

1.49285278645888e+005,-1.97909167846076e+000,-1.53418513726519e+000

1.51369223476094e+005,-1.97908828634590e+000,-1.55557580995133e+000

1.53482259092041e+005,-1.97908470961360e+000,-1.57726427581573e+000

1.55624791585964e+005,-1.97908093943867e+000,-1.59925467322651e+000

1.57797232718936e+005,-1.97907696663411e+000,-1.62155119828421e+000

1.59999999999999e+005,-1.97907278163931e+000,-1.64415810565552e+000

1.62233516766403e+005,-1.97906837450875e+000,-1.66707970941583e+000

1.64498212264969e+005,-1.97906373490009e+000,-1.69032038390871e+000

1.66794521734578e+005,-1.97905885206215e+000,-1.71388456461782e+000

1.69122886489819e+005,-1.97905371482291e+000,-1.73777674905112e+000

1.71483754005805e+005,-1.97904831157721e+000,-1.76200149764045e+000

1.73877578004168e+005,-1.97904263027437e+000,-1.78656343465440e+000

1.76304818540256e+005,-1.97903665840576e+000,-1.81146724912488e+000

1.78765942091554e+005,-1.97903038299215e+000,-1.83671769578871e+000

1.81261421647326e+005,-1.97902379057083e+000,-1.86231959604403e+000

1.83791736799524e+005,-1.97901686718295e+000,-1.88827783891967e+000

1.86357373834951e+005,-1.97900959836063e+000,-1.91459738206065e+000

1.88958825828723e+005,-1.97900196911369e+000,-1.94128325272887e+000

1.91596592739027e+005,-1.97899396391677e+000,-1.96834054881835e+000

1.94271181503206e+005,-1.97898556669626e+000,-1.99577443988429e+000

1.96983106135185e+005,-1.97897676081672e+000,-2.02359016819135e+000

1.99732887824256e+005,-1.97896752906799e+000,-2.05179304977303e+000

2.02521055035243e+005,-1.97895785365168e+000,-2.08038847550946e+000

2.05348143610063e+005,-1.97894771616767e+000,-2.10938191222110e+000

2.08214696870707e+005,-1.97893709760095e+000,-2.13877890377654e+000

2.11121265723661e+005,-1.97892597830806e+000,-2.16858507221698e+000

2.14068408765776e+005,-1.97891433800356e+000,-2.19880611889858e+000

2.17056692391625e+005,-1.97890215574655e+000,-2.22944782564889e+000

2.20086690902357e+005,-1.97888940992723e+000,-2.26051605594012e+000

2.23158986616063e+005,-1.97887607825298e+000,-2.29201675608061e+000

2.26274169979693e+005,-1.97886213773525e+000,-2.32395595641985e+000

2.29432839682530e+005,-1.97884756467539e+000,-2.35633977257360e+000

2.32635602771247e+005,-1.97883233465119e+000,-2.38917440666292e+000

2.35883074766574e+005,-1.97881642250311e+000,-2.42246614857226e+000

2.39175879781588e+005,-1.97879980232039e+000,-2.45622137722286e+000

2.42514650641661e+005,-1.97878244742720e+000,-2.49044656186451e+000

2.45900029006080e+005,-1.97876433036849e+000,-2.52514826338406e+000

2.49332665491357e+005,-1.97874542289605e+000,-2.56033313563170e+000

2.52813219796278e+005,-1.97872569595422e+000,-2.59600792676342e+000

2.56342360828676e+005,-1.97870511966546e+000,-2.63217948060304e+000

2.59920766833993e+005,-1.97868366331593e+000,-2.66885473802014e+000

2.63549125525621e+005,-1.97866129534063e+000,-2.70604073832691e+000

2.67228134217075e+005,-1.97863798330851e+000,-2.74374462069304e+000

2.70958499956006e+005,-1.97861369390744e+000,-2.78197362557737e+000

2.74740939660078e+005,-1.97858839292841e+000,-2.82073509618051e+000

2.78576180254757e+005,-1.97856204525019e+000,-2.86003647991247e+000

2.82464958813007e+005,-1.97853461482293e+000,-2.89988532988211e+000

2.86408022696948e+005,-1.97850606465184e+000,-2.94028930640414e+000

2.90406129701488e+005,-1.97847635678032e+000,-2.98125617852406e+000

2.94460048199957e+005,-1.97844545227252e+000,-3.02279382556511e+000

2.98570557291775e+005,-1.97841331119574e+000,-3.06491023869203e+000

3.02738446952187e+005,-1.97837989260181e+000,-3.10761352249652e+000

3.06964518184081e+005,-1.97834515450837e+000,-3.15091189660205e+000

3.11249583171928e+005,-1.97830905387927e+000,-3.19481369728856e+000

3.15594465437872e+005,-1.97827154660437e+000,-3.23932737913915e+000

3.19999999999997e+005,-1.97823258747846e+000,-3.28446151670671e+000

3.24467033532806e+005,-1.97819213017986e+000,-3.33022480620216e+000

3.28996424529938e+005,-1.97815012724759e+000,-3.37662606720474e+000

3.33589043469155e+005,-1.97810653005819e+000,-3.42367424439463e+000

3.38245772979638e+005,-1.97806128880136e+000,-3.47137840930716e+000

3.42967508011610e+005,-1.97801435245464e+000,-3.51974776211114e+000

3.47755156008335e+005,-1.97796566875727e+000,-3.56879163341011e+000

3.52609637080511e+005,-1.97791518418277e+000,-3.61851948606728e+000

3.57531884183106e+005,-1.97786284391033e+000,-3.66894091705582e+000

3.62522843294651e+005,-1.97780859179543e+000,-3.72006565933292e+000

3.67583473599047e+005,-1.97775237033872e+000,-3.77190358374017e+000

3.72714747669902e+005,-1.97769412065411e+000,-3.82446470092957e+000

3.77917651657445e+005,-1.97763378243506e+000,-3.87775916331645e+000

3.83193185478053e+005,-1.97757129392004e+000,-3.93179726705897e+000

3.88542363006410e+005,-1.97750659185583e+000,-3.98658945406694e+000

3.93966212270369e+005,-1.97743961146039e+000,-4.04214631403660e+000

3.99465775648511e+005,-1.97737028638299e+000,-4.09847858651741e+000

4.05042110070485e+005,-1.97729854866385e+000,-4.15559716300563e+000

4.10696287220124e+005,-1.97722432869143e+000,-4.21351308907138e+000

4.16429393741414e+005,-1.97714755515860e+000,-4.27223756651377e+000

4.22242531447321e+005,-1.97706815501660e+000,-4.33178195555074e+000

4.28136817531551e+005,-1.97698605342774e+000,-4.39215777703901e+000

4.34113384783250e+005,-1.97690117371588e+000,-4.45337671472937e+000

4.40173381804713e+005,-1.97681343731551e+000,-4.51545061755431e+000

4.46317973232124e+005,-1.97672276371862e+000,-4.57839150195151e+000

4.52548339959385e+005,-1.97662907041983e+000,-4.64221155422323e+000

4.58865679365059e+005,-1.97653227285953e+000,-4.70692313293014e+000

4.65271205542494e+005,-1.97643228436501e+000,-4.77253877132549e+000

4.71766149533147e+005,-1.97632901608967e+000,-4.83907117982406e+000

4.78351759563174e+005,-1.97622237695005e+000,-4.90653324851206e+000

4.85029301283321e+005,-1.97611227356077e+000,-4.97493804969591e+000

4.91800058012158e+005,-1.97599861016756e+000,-5.04429884049102e+000

4.98665330982714e+005,-1.97588128857762e+000,-5.11462906545349e+000

5.05626439592555e+005,-1.97576020808839e+000,-5.18594235925231e+000

5.12684721657352e+005,-1.97563526541363e+000,-5.25825254938501e+000

5.19841533667984e+005,-1.97550635460738e+000,-5.33157365893851e+000

5.27098251051240e+005,-1.97537336698553e+000,-5.40591990939347e+000

5.34456268434150e+005,-1.97523619104518e+000,-5.48130572347462e+000

5.41916999912011e+005,-1.97509471238144e+000,-5.55774572804854e+000

