Freq.,VOut,OutRef

1.00000000000000e+004,-2.35348077659688e+001,-1.60239275745717e-001

1.01395947979003e+004,-2.35348107636305e+001,-1.62475552019673e-001

1.02811382665607e+004,-2.35348138454084e+001,-1.64743020922035e-001

1.04246576084112e+004,-2.35348170136579e+001,-1.67042116844470e-001

1.05701804056138e+004,-2.35348202708006e+001,-1.69373280195837e-001

1.07177346253629e+004,-2.35348236193256e+001,-1.71736957486169e-001

1.08673486252606e+004,-2.35348270617913e+001,-1.74133601412423e-001

1.10190511587661e+004,-2.35348306008269e+001,-1.76563670942045e-001

1.11728713807222e+004,-2.35348342391360e+001,-1.79027631393572e-001

1.13288388529580e+004,-2.35348379794965e+001,-1.81525954529879e-001

1.14869835499703e+004,-2.35348418247642e+001,-1.84059118642989e-001

1.16473358646846e+004,-2.35348457778742e+001,-1.86627608640701e-001

1.18099266142953e+004,-2.35348498418436e+001,-1.89231916139579e-001

1.19747870461893e+004,-2.35348540197730e+001,-1.91872539556089e-001

1.21419488439505e+004,-2.35348583148497e+001,-1.94549984195770e-001

1.23114441334492e+004,-2.35348627303497e+001,-1.97264762348269e-001

1.24833054890161e+004,-2.35348672696396e+001,-2.00017393385337e-001

1.26575659397028e+004,-2.35348719361800e+001,-2.02808403849308e-001

1.28342589756290e+004,-2.35348767335274e+001,-2.05638327557931e-001

1.30134185544193e+004,-2.35348816653376e+001,-2.08507705694417e-001

1.31950791077289e+004,-2.35348867353673e+001,-2.11417086915825e-001

1.33792755478611e+004,-2.35348919474780e+001,-2.14367027445176e-001

1.35660432744767e+004,-2.35348973056380e+001,-2.17358091181779e-001

1.37554181813974e+004,-2.35349028139258e+001,-2.20390849795964e-001

1.39474366635040e+004,-2.35349084765333e+001,-2.23465882839554e-001

1.41421356237309e+004,-2.35349142977680e+001,-2.26583777850342e-001

1.43395524801583e+004,-2.35349202820574e+001,-2.29745130456748e-001

1.45397251732031e+004,-2.35349264339514e+001,-2.32950544488538e-001

1.47426921729110e+004,-2.35349327581254e+001,-2.36200632087977e-001

1.49484924863494e+004,-2.35349392593849e+001,-2.39496013816571e-001

1.51571656651040e+004,-2.35349459426679e+001,-2.42837318771119e-001

1.53687518128801e+004,-2.35349528130492e+001,-2.46225184694384e-001

1.55832915932100e+004,-2.35349598757436e+001,-2.49660258094008e-001

1.58008262372675e+004,-2.35349671361102e+001,-2.53143194355338e-001

1.60213975517924e+004,-2.35349745996557e+001,-2.56674657862305e-001

1.62450479271247e+004,-2.35349822720392e+001,-2.60255322113452e-001

1.64718203453514e+004,-2.35349901590756e+001,-2.63885869845462e-001

1.67017583885674e+004,-2.35349982667400e+001,-2.67566993154709e-001

1.69349062472505e+004,-2.35350066011725e+001,-2.71299393617830e-001

1.71713087287550e+004,-2.35350151686818e+001,-2.75083782421287e-001

1.74110112659224e+004,-2.35350239757506e+001,-2.78920880484849e-001

1.76540599258131e+004,-2.35350330290396e+001,-2.82811418588658e-001

1.79005014185594e+004,-2.35350423353926e+001,-2.86756137505572e-001

1.81503831063432e+004,-2.35350519018416e+001,-2.90755788128528e-001

1.84037530124975e+004,-2.35350617356115e+001,-2.94811131603566e-001

1.86606598307361e+004,-2.35350718441251e+001,-2.98922939467181e-001

1.89211529345119e+004,-2.35350822350090e+001,-3.03091993775205e-001

1.91852823865052e+004,-2.35350929160986e+001,-3.07319087243814e-001

1.94530989482457e+004,-2.35351038954435e+001,-3.11605023387141e-001

1.97246540898671e+004,-2.35351151813141e+001,-3.15950616653298e-001

1.99999999999999e+004,-2.35351267822059e+001,-3.20356692572064e-001

2.02791895958005e+004,-2.35351387068471e+001,-3.24824087890449e-001

2.05622765331213e+004,-2.35351509642036e+001,-3.29353650721061e-001

2.08493152168224e+004,-2.35351635634862e+001,-3.33946240685448e-001

2.11403608112276e+004,-2.35351765141557e+001,-3.38602729065165e-001

2.14354692507258e+004,-2.35351898259311e+001,-3.43323998943721e-001

2.17346972505211e+004,-2.35352035087953e+001,-3.48110945361725e-001

2.20381023175322e+004,-2.35352175730025e+001,-3.52964475466904e-001

2.23457427614443e+004,-2.35352320290847e+001,-3.57885508667989e-001

2.26576777059159e+004,-2.35352468878597e+001,-3.62874976787595e-001

2.29739670999406e+004,-2.35352621604381e+001,-3.67933824218638e-001

2.32946717293690e+004,-2.35352778582309e+001,-3.73063008084232e-001

2.36198532285905e+004,-2.35352939929577e+001,-3.78263498391696e-001

2.39495740923785e+004,-2.35353105766539e+001,-3.83536278199500e-001

2.42838976879009e+004,-2.35353276216795e+001,-3.88882343774349e-001

2.46228882668982e+004,-2.35353451407273e+001,-3.94302704755249e-001

2.49666109780322e+004,-2.35353631468312e+001,-3.99798384319752e-001

2.53151318794055e+004,-2.35353816533752e+001,-4.05370419350191e-001

2.56685179512580e+004,-2.35354006741022e+001,-4.11019860599346e-001

2.60268371088386e+004,-2.35354202231231e+001,-4.16747772861765e-001

2.63901582154578e+004,-2.35354403149260e+001,-4.22555235144140e-001

2.67585510957221e+004,-2.35354609643862e+001,-4.28443340834413e-001

2.71320865489533e+004,-2.35354821867753e+001,-4.34413197877873e-001

2.75108363627948e+004,-2.35355039977717e+001,-4.40465928951051e-001

2.78948733270080e+004,-2.35355264134703e+001,-4.46602671636700e-001

2.82842712474618e+004,-2.35355494503934e+001,-4.52824578601095e-001

2.86791049603164e+004,-2.35355731255008e+001,-4.59132817772951e-001

2.90794503464061e+004,-2.35355974562009e+001,-4.65528572522810e-001

2.94853843458219e+004,-2.35356224603617e+001,-4.72013041843979e-001

2.98969849726987e+004,-2.35356481563219e+001,-4.78587440534190e-001

3.03143313302078e+004,-2.35356745629026e+001,-4.85252999379148e-001

3.07375036257601e+004,-2.35357016994191e+001,-4.92010965336541e-001

3.11665831864199e+004,-2.35357295856925e+001,-4.98862601721071e-001

3.16016524745350e+004,-2.35357582420623e+001,-5.05809188391223e-001

3.20427951035848e+004,-2.35357876893984e+001,-5.12852021937287e-001

3.24900958542493e+004,-2.35358179491141e+001,-5.19992415868498e-001

3.29436406907028e+004,-2.35358490431787e+001,-5.27231700803058e-001

3.34035167771346e+004,-2.35358809941308e+001,-5.34571224658067e-001

3.38698124945009e+004,-2.35359138250917e+001,-5.42012352840047e-001

3.43426174575100e+004,-2.35359475597786e+001,-5.49556468438045e-001

3.48220225318448e+004,-2.35359822225190e+001,-5.57204972414030e-001

3.53081198516260e+004,-2.35360178382642e+001,-5.64959283797515e-001

3.58010028371187e+004,-2.35360544326038e+001,-5.72820839880022e-001

3.63007662126863e+004,-2.35360920317802e+001,-5.80791096406230e-001

3.68075060249948e+004,-2.35361306627034e+001,-5.88871527771911e-001

3.73213196614721e+004,-2.35361703529656e+001,-5.97063627218066e-001

3.78423058690237e+004,-2.35362111308567e+001,-6.05368907025746e-001

3.83705647730104e+004,-2.35362530253795e+001,-6.13788898713001e-001

3.89061978964912e+004,-2.35362960662654e+001,-6.22325153229458e-001

3.94493081797342e+004,-2.35363402839901e+001,-6.30979241154738e-001

3.99999999999998e+004,-2.35363857097893e+001,-6.39752752892477e-001

4.05583791916010e+004,-2.35364323756756e+001,-6.48647298867728e-001

4.11245530662425e+004,-2.35364803144537e+001,-6.57664509723846e-001

4.16986304336447e+004,-2.35365295597384e+001,-6.66806036515136e-001

4.22807216224550e+004,-2.35365801459695e+001,-6.76073550907669e-001

4.28709385014515e+004,-2.35366321084305e+001,-6.85468745370671e-001

4.34693945010421e+004,-2.35366854832638e+001,-6.94993333373181e-001

4.40762046350642e+004,-2.35367403074894e+001,-7.04649049577438e-001

4.46914855228886e+004,-2.35367966190208e+001,-7.14437650034473e-001

4.53153554118317e+004,-2.35368544566831e+001,-7.24360912375426e-001

4.59479341998812e+004,-2.35369138602302e+001,-7.34420636004314e-001

4.65893434587380e+004,-2.35369748703624e+001,-7.44618642290097e-001

4.72397064571810e+004,-2.35370375287433e+001,-7.54956774757606e-001

4.78991481847569e+004,-2.35371018780185e+001,-7.65436899273857e-001

4.85677953758016e+004,-2.35371679618318e+001,-7.76060904240493e-001

4.92457765337964e+004,-2.35372358248442e+001,-7.86830700776829e-001

4.99332219560642e+004,-2.35373055127500e+001,-7.97748222908286e-001

5.06302637588109e+004,-2.35373770722955e+001,-8.08815427747415e-001

5.13370359025159e+004,-2.35374505512955e+001,-8.20034295680372e-001

5.20536742176771e+004,-2.35375259986511e+001,-8.31406830542691e-001

5.27803164309155e+004,-2.35376034643665e+001,-8.42935059802100e-001

5.35171021914442e+004,-2.35376829995660e+001,-8.54621034733987e-001

5.42641730979066e+004,-2.35377646565111e+001,-8.66466830596496e-001

5.50216727255895e+004,-2.35378484886163e+001,-8.78474546804391e-001

5.57897466540159e+004,-2.35379345504658e+001,-8.90646307099670e-001

5.65685424949235e+004,-2.35380228978292e+001,-9.02984259719458e-001

5.73582099206328e+004,-2.35381135876771e+001,-9.15490577563386e-001

5.81589006928121e+004,-2.35382066781961e+001,-9.28167458358339e-001

5.89707686916437e+004,-2.35383022288032e+001,-9.41017124818086e-001

5.97939699453972e+004,-2.35384003001604e+001,-9.54041824805540e-001

6.06286626604156e+004,-2.35385009541878e+001,-9.67243831486268e-001

6.14750072515201e+004,-2.35386042540768e+001,-9.80625443485251e-001

6.23331663728396e+004,-2.35387102643023e+001,-9.94188985036941e-001

6.32033049490698e+004,-2.35388190506340e+001,-1.00793680613500e+000

6.40855902071694e+004,-2.35389306801476e+001,-1.02187128267836e+000

6.49801917084985e+004,-2.35390452212340e+001,-1.03599481661646e+000

6.58872813814055e+004,-2.35391627436090e+001,-1.05030983608801e+000

6.68070335542691e+004,-2.35392833183205e+001,-1.06481879556179e+000

6.77396249890018e+004,-2.35394070177560e+001,-1.07952417597257e+000

6.86852349150199e+004,-2.35395339156479e+001,-1.09442848485384e+000

6.96440450636895e+004,-2.35396640870780e+001,-1.10953425647194e+000

7.06162397032520e+004,-2.35397976084811e+001,-1.12484405195201e+000

7.16020056742374e+004,-2.35399345576462e+001,-1.14036045940887e+000

7.26015324253724e+004,-2.35400750137173e+001,-1.15608609407005e+000

7.36150120499896e+004,-2.35402190571918e+001,-1.17202359840174e+000

7.46426393229441e+004,-2.35403667699177e+001,-1.18817564222912e+000

7.56846117380472e+004,-2.35405182350891e+001,-1.20454492285873e+000

7.67411295460207e+004,-2.35406735372395e+001,-1.22113416519844e+000

7.78123957929823e+004,-2.35408327622331e+001,-1.23794612187815e+000

7.88986163594682e+004,-2.35409959972548e+001,-1.25498357336728e+000

7.99999999999995e+004,-2.35411633307968e+001,-1.27224932809632e+000

8.11167583832018e+004,-2.35413348526445e+001,-1.28974622257596e+000

8.22491061324848e+004,-2.35415106538583e+001,-1.30747712151821e+000

8.33972608672892e+004,-2.35416908267544e+001,-1.32544491796031e+000

8.45614432449099e+004,-2.35418754648820e+001,-1.34365253338890e+000

8.57418770029029e+004,-2.35420646629986e+001,-1.36210291786779e+000

8.69387890020841e+004,-2.35422585170416e+001,-1.38079905016926e+000

8.81524092701283e+004,-2.35424571240979e+001,-1.39974393791052e+000

8.93829710457770e+004,-2.35426605823695e+001,-1.41894061769323e+000

9.06307108236633e+004,-2.35428689911372e+001,-1.43839215524858e+000

9.18958683997622e+004,-2.35430824507195e+001,-1.45810164559291e+000

9.31786869174758e+004,-2.35433010624295e+001,-1.47807221318669e+000

9.44794129143618e+004,-2.35435249285275e+001,-1.49830701210314e+000

9.57982963695136e+004,-2.35437541521705e+001,-1.51880922620917e+000

9.71355907516031e+004,-2.35439888373574e+001,-1.53958206935472e+000

9.84915530675926e+004,-2.35442290888713e+001,-1.56062878557446e+000

9.98664439121282e+004,-2.35444750122170e+001,-1.58195264930433e+000

1.01260527517622e+005,-2.35447267135554e+001,-1.60355696561222e+000

1.02674071805032e+005,-2.35449842996331e+001,-1.62544507044540e+000

1.04107348435354e+005,-2.35452478777083e+001,-1.64762033089453e+000

1.05560632861831e+005,-2.35455175554728e+001,-1.67008614547860e+000

1.07034204382888e+005,-2.35457934409685e+001,-1.69284594445172e+000

1.08528346195813e+005,-2.35460756425017e+001,-1.71590319012882e+000

1.10043345451179e+005,-2.35463642685506e+001,-1.73926137724269e+000

1.11579493308032e+005,-2.35466594276705e+001,-1.76292403332143e+000

1.13137084989847e+005,-2.35469612283936e+001,-1.78689471909644e+000

1.14716419841265e+005,-2.35472697791244e+001,-1.81117702894461e+000

1.16317801385624e+005,-2.35475851880310e+001,-1.83577459135737e+000

1.17941537383287e+005,-2.35479075629320e+001,-1.86069106945018e+000

1.19587939890794e+005,-2.35482370111792e+001,-1.88593016150433e+000

1.21257325320831e+005,-2.35485736395356e+001,-1.91149560155262e+000

1.22950014503040e+005,-2.35489175540495e+001,-1.93739116000440e+000

1.24666332745679e+005,-2.35492688599249e+001,-1.96362064431474e+000

1.26406609898139e+005,-2.35496276613873e+001,-1.99018789970193e+000

1.28171180414339e+005,-2.35499940615461e+001,-2.01709680991275e+000

1.29960383416997e+005,-2.35503681622530e+001,-2.04435129804036e+000

1.31774562762811e+005,-2.35507500639574e+001,-2.07195532739509e+000

1.33614067108538e+005,-2.35511398655585e+001,-2.09991290243380e+000

1.35479249978003e+005,-2.35515376642535e+001,-2.12822806974722e+000

1.37370469830040e+005,-2.35519435553846e+001,-2.15690491910964e+000

1.39288090127379e+005,-2.35523576322821e+001,-2.18594758459272e+000

1.41232479406504e+005,-2.35527799861063e+001,-2.21536024574597e+000

1.43204011348474e+005,-2.35532107056874e+001,-2.24514712884725e+000

1.45203064850745e+005,-2.35536498773635e+001,-2.27531250822393e+000

1.47230024099979e+005,-2.35540975848187e+001,-2.30586070764861e+000

1.49285278645888e+005,-2.35545539089192e+001,-2.33679610181135e+000

1.51369223476094e+005,-2.35550189275512e+001,-2.36812311786797e+000

1.53482259092041e+005,-2.35554927154570e+001,-2.39984623707217e+000

1.55624791585964e+005,-2.35559753440740e+001,-2.43196999648692e+000

1.57797232718936e+005,-2.35564668813745e+001,-2.46449899078058e+000

1.59999999999999e+005,-2.35569673917069e+001,-2.49743787410851e+000

1.62233516766403e+005,-2.35574769356411e+001,-2.53079136208142e+000

1.64498212264969e+005,-2.35579955698159e+001,-2.56456423382185e+000

1.66794521734578e+005,-2.35585233467909e+001,-2.59876133410824e+000

1.69122886489819e+005,-2.35590603149039e+001,-2.63338757561000e+000

1.71483754005805e+005,-2.35596065181321e+001,-2.66844794121235e+000

1.73877578004168e+005,-2.35601619959612e+001,-2.70394748642998e+000

1.76304818540256e+005,-2.35607267832599e+001,-2.73989134191211e+000

1.78765942091554e+005,-2.35613009101634e+001,-2.77628471603749e+000

1.81261421647326e+005,-2.35618844019642e+001,-2.81313289759566e+000

1.83791736799524e+005,-2.35624772790129e+001,-2.85044125855993e+000

1.86357373834951e+005,-2.35630795566288e+001,-2.88821525694361e+000

1.88958825828723e+005,-2.35636912450208e+001,-2.92646043974244e+000

1.91596592739027e+005,-2.35643123492209e+001,-2.96518244595986e+000

1.94271181503206e+005,-2.35649428690291e+001,-3.00438700971123e+000

1.96983106135185e+005,-2.35655827989721e+001,-3.04407996340628e+000

1.99732887824256e+005,-2.35662321282752e+001,-3.08426724100586e+000

2.02521055035243e+005,-2.35668908408499e+001,-3.12495488134880e+000

2.05348143610063e+005,-2.35675589152955e+001,-3.16614903154527e+000

2.08214696870707e+005,-2.35682363249179e+001,-3.20785595043348e+000

2.11121265723661e+005,-2.35689230377642e+001,-3.25008201209200e+000

2.14068408765776e+005,-2.35696190166755e+001,-3.29283370940703e+000

2.17056692391625e+005,-2.35703242193565e+001,-3.33611765768644e+000

2.20086690902357e+005,-2.35710385984644e+001,-3.37994059831317e+000

2.23158986616063e+005,-2.35717621017160e+001,-3.42430940243806e+000

2.26274169979693e+005,-2.35724946720147e+001,-3.46923107469913e+000

2.29432839682530e+005,-2.35732362475964e+001,-3.51471275696536e+000

2.32635602771247e+005,-2.35739867621961e+001,-3.56076173209595e+000

2.35883074766574e+005,-2.35747461452344e+001,-3.60738542770908e+000

2.39175879781588e+005,-2.35755143220236e+001,-3.65459141995305e+000

2.42514650641661e+005,-2.35762912139954e+001,-3.70238743727267e+000

2.45900029006080e+005,-2.35770767389484e+001,-3.75078136416174e+000

2.49332665491357e+005,-2.35778708113160e+001,-3.79978124489734e+000

2.52813219796278e+005,-2.35786733424539e+001,-3.84939528724746e+000

2.56342360828676e+005,-2.35794842409494e+001,-3.89963186614137e+000

2.59920766833993e+005,-2.35803034129479e+001,-3.95049952730076e+000

2.63549125525621e+005,-2.35811307625007e+001,-4.00200699082109e+000

2.67228134217075e+005,-2.35819661919307e+001,-4.05416315469535e+000

2.70958499956006e+005,-2.35828096022164e+001,-4.10697709827759e+000

2.74740939660078e+005,-2.35836608933938e+001,-4.16045808567304e+000

2.78576180254757e+005,-2.35845199649750e+001,-4.21461556905600e+000

2.82464958813007e+005,-2.35853867163831e+001,-4.26945919190245e+000

2.86408022696948e+005,-2.35862610474025e+001,-4.32499879213720e+000

2.90406129701488e+005,-2.35871428586436e+001,-4.38124440518625e+000

2.94460048199957e+005,-2.35880320520208e+001,-4.43820626693232e+000

2.98570557291775e+005,-2.35889285312431e+001,-4.49589481656714e+000

3.02738446952187e+005,-2.35898322023164e+001,-4.55432069933855e+000

3.06964518184081e+005,-2.35907429740552e+001,-4.61349476918697e+000

3.11249583171928e+005,-2.35916607586047e+001,-4.67342809127006e+000

3.15594465437872e+005,-2.35925854719698e+001,-4.73413194437195e+000

3.19999999999997e+005,-2.35935170345513e+001,-4.79561782319722e+000

3.24467033532806e+005,-2.35944553716877e+001,-4.85789744054601e+000

3.28996424529938e+005,-2.35954004142014e+001,-4.92098272937266e+000

3.33589043469155e+005,-2.35963520989475e+001,-4.98488584472494e+000

3.38245772979638e+005,-2.35973103693656e+001,-5.04961916556737e+000

3.42967508011610e+005,-2.35982751760307e+001,-5.11519529648813e+000

3.47755156008335e+005,-2.35992464772055e+001,-5.18162706929231e+000

3.52609637080511e+005,-2.36002242393893e+001,-5.24892754448341e+000

3.57531884183106e+005,-2.36012084378656e+001,-5.31711001263734e+000

3.62522843294651e+005,-2.36021990572449e+001,-5.38618799567076e+000

3.67583473599047e+005,-2.36031960920029e+001,-5.45617524800924e+000

3.72714747669902e+005,-2.36041995470134e+001,-5.52708575765951e+000

3.77917651657445e+005,-2.36052094380740e+001,-5.59893374719003e+000

3.83193185478053e+005,-2.36062257924239e+001,-5.67173367462730e+000

3.88542363006410e+005,-2.36072486492543e+001,-5.74550023427089e+000

3.93966212270369e+005,-2.36082780602088e+001,-5.82024835743649e+000

3.99465775648511e+005,-2.36093140898747e+001,-5.89599321313096e+000

4.05042110070485e+005,-2.36103568162640e+001,-5.97275020866728e+000

4.10696287220124e+005,-2.36114063312835e+001,-6.05053499022664e+000

4.16429393741414e+005,-2.36124627411936e+001,-6.12936344337400e+000

4.22242531447321e+005,-2.36135261670566e+001,-6.20925169353513e+000

4.28136817531551e+005,-2.36145967451726e+001,-6.29021610644124e+000

4.34113384783250e+005,-2.36156746275037e+001,-6.37227328855081e+000

4.40173381804713e+005,-2.36167599820873e+001,-6.45544008745332e+000

4.46317973232124e+005,-2.36178529934363e+001,-6.53973359226490e+000

4.52548339959385e+005,-2.36189538629291e+001,-6.62517113402025e+000

4.58865679365059e+005,-2.36200628091873e+001,-6.71177028607085e+000

4.65271205542494e+005,-2.36211800684426e+001,-6.79954886449424e+000

4.71766149533147e+005,-2.36223058948931e+001,-6.88852492852289e+000

4.78351759563174e+005,-2.36234405610487e+001,-6.97871678099666e+000

4.85029301283321e+005,-2.36245843580677e+001,-7.07014296884856e+000

4.91800058012158e+005,-2.36257375960831e+001,-7.16282228362662e+000

4.98665330982714e+005,-2.36269006045205e+001,-7.25677376205925e+000

5.05626439592555e+005,-2.36280737324087e+001,-7.35201668666990e+000

5.12684721657352e+005,-2.36292573486820e+001,-7.44857058644292e+000

5.19841533667984e+005,-2.36304518424770e+001,-7.54645523755023e+000

5.27098251051240e+005,-2.36316576234230e+001,-7.64569066413726e+000

5.34456268434150e+005,-2.36328751219279e+001,-7.74629713917746e+000

5.41916999912011e+005,-2.36341047894599e+001,-7.84829518539472e+000

