Freq.,VOut,OutRef

1.00000000000000e+004,-2.45252398690965e+001,-4.76810142598600e-001

1.01395947979003e+004,-2.45252458403269e+001,-4.83465417279255e-001

1.02811382665607e+004,-2.45252519792384e+001,-4.90213564457125e-001

1.04246576084112e+004,-2.45252582905340e+001,-4.97055879241826e-001

1.05701804056138e+004,-2.45252647790487e+001,-5.03993674764669e-001

1.07177346253629e+004,-2.45252714497524e+001,-5.11028282429373e-001

1.08673486252606e+004,-2.45252783077542e+001,-5.18161052162985e-001

1.10190511587661e+004,-2.45252853583060e+001,-5.25393352673443e-001

1.11728713807222e+004,-2.45252926068067e+001,-5.32726571706371e-001

1.13288388529580e+004,-2.45253000588060e+001,-5.40162116311823e-001

1.14869835499703e+004,-2.45253077200089e+001,-5.47701413107384e-001

1.16473358646846e+004,-2.45253155962798e+001,-5.55345908550734e-001

1.18099266142953e+004,-2.45253236936471e+001,-5.63097069210584e-001

1.19747870461893e+004,-2.45253320183073e+001,-5.70956382048464e-001

1.21419488439505e+004,-2.45253405766305e+001,-5.78925354694811e-001

1.23114441334492e+004,-2.45253493751644e+001,-5.87005515737798e-001

1.24833054890161e+004,-2.45253584206398e+001,-5.95198415009395e-001

1.26575659397028e+004,-2.45253677199753e+001,-6.03505623881241e-001

1.28342589756290e+004,-2.45253772802827e+001,-6.11928735557521e-001

1.30134185544193e+004,-2.45253871088721e+001,-6.20469365378270e-001

1.31950791077289e+004,-2.45253972132581e+001,-6.29129151122398e-001

1.33792755478611e+004,-2.45254076011644e+001,-6.37909753317152e-001

1.35660432744767e+004,-2.45254182805306e+001,-6.46812855550282e-001

1.37554181813974e+004,-2.45254292595175e+001,-6.55840164787142e-001

1.39474366635040e+004,-2.45254405465136e+001,-6.64993411691886e-001

1.41421356237309e+004,-2.45254521501409e+001,-6.74274350952909e-001

1.43395524801583e+004,-2.45254640792621e+001,-6.83684761612651e-001

1.45397251732031e+004,-2.45254763429867e+001,-6.93226447401303e-001

1.47426921729110e+004,-2.45254889506778e+001,-7.02901237074990e-001

1.49484924863494e+004,-2.45255019119594e+001,-7.12710984759679e-001

1.51571656651040e+004,-2.45255152367234e+001,-7.22657570298021e-001

1.53687518128801e+004,-2.45255289351371e+001,-7.32742899601559e-001

1.55832915932100e+004,-2.45255430176506e+001,-7.42968905006858e-001

1.58008262372675e+004,-2.45255574950048e+001,-7.53337545638174e-001

1.60213975517924e+004,-2.45255723782393e+001,-7.63850807771173e-001

1.62450479271247e+004,-2.45255876787004e+001,-7.74510705207682e-001

1.64718203453514e+004,-2.45256034080501e+001,-7.85319279646877e-001

1.67017583885674e+004,-2.45256195782740e+001,-7.96278601068600e-001

1.69349062472505e+004,-2.45256362016909e+001,-8.07390768118406e-001

1.71713087287550e+004,-2.45256532909616e+001,-8.18657908498539e-001

1.74110112659224e+004,-2.45256708590980e+001,-8.30082179362189e-001

1.76540599258131e+004,-2.45256889194735e+001,-8.41665767714798e-001

1.79005014185594e+004,-2.45257074858319e+001,-8.53410890821463e-001

1.81503831063432e+004,-2.45257265722983e+001,-8.65319796614771e-001

1.84037530124975e+004,-2.45257461933893e+001,-8.77394764114732e-001

1.86606598307361e+004,-2.45257663640234e+001,-8.89638103847600e-001

1.89211529345119e+004,-2.45257870995325e+001,-9.02052158274742e-001

1.91852823865052e+004,-2.45258084156725e+001,-9.14639302224156e-001

1.94530989482457e+004,-2.45258303286357e+001,-9.27401943328236e-001

1.97246540898671e+004,-2.45258528550615e+001,-9.40342522469873e-001

1.99999999999999e+004,-2.45258760120499e+001,-9.53463514227679e-001

2.02791895958005e+004,-2.45258998171730e+001,-9.66767427333151e-001

2.05622765331213e+004,-2.45259242884880e+001,-9.80256805131092e-001

2.08493152168224e+004,-2.45259494445509e+001,-9.93934226045726e-001

2.11403608112276e+004,-2.45259753044292e+001,-1.00780230405158e+000

2.14354692507258e+004,-2.45260018877164e+001,-1.02186368915358e+000

2.17346972505211e+004,-2.45260292145457e+001,-1.03612106786955e+000

2.20381023175322e+004,-2.45260573056048e+001,-1.05057716372037e+000

2.23457427614443e+004,-2.45260861821511e+001,-1.06523473772558e+000

2.26576777059159e+004,-2.45261158660264e+001,-1.08009658890626e+000

2.29739670999406e+004,-2.45261463796732e+001,-1.09516555479282e+000

2.32946717293690e+004,-2.45261777461505e+001,-1.11044451193828e+000

2.36198532285905e+004,-2.45262099891505e+001,-1.12593637644048e+000

2.39495740923785e+004,-2.45262431330153e+001,-1.14164410446760e+000

2.42838976879009e+004,-2.45262772027546e+001,-1.15757069279322e+000

2.46228882668982e+004,-2.45263122240633e+001,-1.17371917933342e+000

2.49666109780322e+004,-2.45263482233399e+001,-1.19009264369453e+000

2.53151318794055e+004,-2.45263852277052e+001,-1.20669420772507e+000

2.56685179512580e+004,-2.45264232650213e+001,-1.22352703607564e+000

2.60268371088386e+004,-2.45264623639116e+001,-1.24059433676364e+000

2.63901582154578e+004,-2.45265025537807e+001,-1.25789936174568e+000

2.67585510957221e+004,-2.45265438648353e+001,-1.27544540749686e+000

2.71320865489533e+004,-2.45265863281051e+001,-1.29323581559639e+000

2.75108363627948e+004,-2.45266299754645e+001,-1.31127397332072e+000

2.78948733270080e+004,-2.45266748396552e+001,-1.32956331424135e+000

2.82842712474618e+004,-2.45267209543085e+001,-1.34810731883169e+000

2.86791049603164e+004,-2.45267683539690e+001,-1.36690951508042e+000

2.90794503464061e+004,-2.45268170741180e+001,-1.38597347911112e+000

2.94853843458219e+004,-2.45268671511985e+001,-1.40530283580892e+000

2.98969849726987e+004,-2.45269186226398e+001,-1.42490125945417e+000

3.03143313302078e+004,-2.45269715268834e+001,-1.44477247436456e+000

3.07375036257601e+004,-2.45270259034090e+001,-1.46492025554112e+000

3.11665831864199e+004,-2.45270817927615e+001,-1.48534842932505e+000

3.16016524745350e+004,-2.45271392365783e+001,-1.50606087405934e+000

3.20427951035848e+004,-2.45271982776178e+001,-1.52706152075717e+000

3.24900958542493e+004,-2.45272589597879e+001,-1.54835435377893e+000

3.29436406907028e+004,-2.45273213281752e+001,-1.56994341151738e+000

3.34035167771346e+004,-2.45273854290752e+001,-1.59183278708652e+000

3.38698124945009e+004,-2.45274513100239e+001,-1.61402662901937e+000

3.43426174575100e+004,-2.45275190198277e+001,-1.63652914197615e+000

3.48220225318448e+004,-2.45275886085969e+001,-1.65934458745426e+000

3.53081198516260e+004,-2.45276601277781e+001,-1.68247728450900e+000

3.58010028371187e+004,-2.45277336301877e+001,-1.70593161048156e+000

3.63007662126863e+004,-2.45278091700464e+001,-1.72971200173254e+000

3.68075060249948e+004,-2.45278868030142e+001,-1.75382295438425e+000

3.73213196614721e+004,-2.45279665862262e+001,-1.77826902507071e+000

3.78423058690237e+004,-2.45280485783296e+001,-1.80305483169191e+000

3.83705647730104e+004,-2.45281328395201e+001,-1.82818505418053e+000

3.89061978964912e+004,-2.45282194315812e+001,-1.85366443527078e+000

3.94493081797342e+004,-2.45283084179225e+001,-1.87949778127824e+000

3.99999999999998e+004,-2.45283998636192e+001,-1.90568996288481e+000

4.05583791916010e+004,-2.45284938354532e+001,-1.93224591593314e+000

4.11245530662425e+004,-2.45285904019542e+001,-1.95917064222494e+000

4.16986304336447e+004,-2.45286896334416e+001,-1.98646921033146e+000

4.22807216224550e+004,-2.45287916020678e+001,-2.01414675640555e+000

4.28709385014515e+004,-2.45288963818619e+001,-2.04220848500622e+000

4.34693945010421e+004,-2.45290040487743e+001,-2.07065966992688e+000

4.40762046350642e+004,-2.45291146807219e+001,-2.09950565503342e+000

4.46914855228886e+004,-2.45292283576350e+001,-2.12875185510569e+000

4.53153554118317e+004,-2.45293451615039e+001,-2.15840375669159e+000

4.59479341998812e+004,-2.45294651764269e+001,-2.18846691896330e+000

4.65893434587380e+004,-2.45295884886595e+001,-2.21894697458376e+000

4.72397064571810e+004,-2.45297151866637e+001,-2.24984963057833e+000

4.78991481847569e+004,-2.45298453611585e+001,-2.28118066921580e+000

4.85677953758016e+004,-2.45299791051715e+001,-2.31294594889346e+000

4.92457765337964e+004,-2.45301165140905e+001,-2.34515140503256e+000

4.99332219560642e+004,-2.45302576857172e+001,-2.37780305097766e+000

5.06302637588109e+004,-2.45304027203205e+001,-2.41090697890513e+000

5.13370359025159e+004,-2.45305517206912e+001,-2.44446936073797e+000

5.20536742176771e+004,-2.45307047921976e+001,-2.47849644906664e+000

5.27803164309155e+004,-2.45308620428413e+001,-2.51299457807923e+000

5.35171021914442e+004,-2.45310235833149e+001,-2.54797016449501e+000

5.42641730979066e+004,-2.45311895270588e+001,-2.58342970850879e+000

5.50216727255895e+004,-2.45313599903205e+001,-2.61937979473830e+000

5.57897466540159e+004,-2.45315350922137e+001,-2.65582709318190e+000

5.65685424949235e+004,-2.45317149547777e+001,-2.69277836018110e+000

5.73582099206328e+004,-2.45318997030387e+001,-2.73024043938994e+000

5.81589006928121e+004,-2.45320894650711e+001,-2.76822026275218e+000

5.89707686916437e+004,-2.45322843720588e+001,-2.80672485148563e+000

5.97939699453972e+004,-2.45324845583586e+001,-2.84576131707106e+000

6.06286626604156e+004,-2.45326901615629e+001,-2.88533686225158e+000

6.14750072515201e+004,-2.45329013225638e+001,-2.92545878203622e+000

6.23331663728396e+004,-2.45331181856169e+001,-2.96613446471142e+000

6.32033049490698e+004,-2.45333408984067e+001,-3.00737139286047e+000

6.40855902071694e+004,-2.45335696121113e+001,-3.04917714438845e+000

6.49801917084985e+004,-2.45338044814682e+001,-3.09155939355697e+000

6.58872813814055e+004,-2.45340456648408e+001,-3.13452591202308e+000

6.68070335542691e+004,-2.45342933242841e+001,-3.17808456988857e+000

6.77396249890018e+004,-2.45345476256116e+001,-3.22224333675581e+000

6.86852349150199e+004,-2.45348087384627e+001,-3.26701028279066e+000

6.96440450636895e+004,-2.45350768363689e+001,-3.31239357979515e+000

7.06162397032520e+004,-2.45353520968218e+001,-3.35840150228765e+000

7.16020056742374e+004,-2.45356347013401e+001,-3.40504242859010e+000

7.26015324253724e+004,-2.45359248355369e+001,-3.45232484192698e+000

7.36150120499896e+004,-2.45362226891873e+001,-3.50025733153054e+000

7.46426393229441e+004,-2.45365284562952e+001,-3.54884859375729e+000

7.56846117380472e+004,-2.45368423351609e+001,-3.59810743321380e+000

7.67411295460207e+004,-2.45371645284474e+001,-3.64804276389106e+000

7.78123957929823e+004,-2.45374952432476e+001,-3.69866361031263e+000

7.88986163594682e+004,-2.45378346911498e+001,-3.74997910869107e+000

7.99999999999995e+004,-2.45381830883041e+001,-3.80199850809751e+000

8.11167583832018e+004,-2.45385406554876e+001,-3.85473117164256e+000

8.22491061324848e+004,-2.45389076181691e+001,-3.90818657767041e+000

8.33972608672892e+004,-2.45392842065729e+001,-3.96237432096670e+000

8.45614432449099e+004,-2.45396706557432e+001,-4.01730411397990e+000

8.57418770029029e+004,-2.45400672056056e+001,-4.07298578805802e+000

8.69387890020841e+004,-2.45404741010302e+001,-4.12942929470110e+000

8.81524092701283e+004,-2.45408915918915e+001,-4.18664470683025e+000

8.93829710457770e+004,-2.45413199331291e+001,-4.24464222007424e+000

9.06307108236633e+004,-2.45417593848065e+001,-4.30343215407535e+000

9.18958683997622e+004,-2.45422102121691e+001,-4.36302495381341e+000

9.31786869174758e+004,-2.45426726857008e+001,-4.42343119095255e+000

9.44794129143618e+004,-2.45431470811797e+001,-4.48466156520919e+000

9.57982963695136e+004,-2.45436336797328e+001,-4.54672690574239e+000

9.71355907516031e+004,-2.45441327678883e+001,-4.60963817257130e+000

9.84915530675926e+004,-2.45446446376285e+001,-4.67340645801564e+000

9.98664439121282e+004,-2.45451695864392e+001,-4.73804298816761e+000

1.01260527517622e+005,-2.45457079173595e+001,-4.80355912438954e+000

1.02674071805032e+005,-2.45462599390293e+001,-4.86996636484433e+000

1.04107348435354e+005,-2.45468259657355e+001,-4.93727634605917e+000

1.05560632861831e+005,-2.45474063174575e+001,-5.00550084452139e+000

1.07034204382888e+005,-2.45480013199104e+001,-5.07465177831356e+000

1.08528346195813e+005,-2.45486113045878e+001,-5.14474120878532e+000

1.10043345451179e+005,-2.45492366088026e+001,-5.21578134226592e+000

1.11579493308032e+005,-2.45498775757273e+001,-5.28778453181984e+000

1.13137084989847e+005,-2.45505345544326e+001,-5.36076327904692e+000

1.14716419841265e+005,-2.45512078999258e+001,-5.43473023592971e+000

1.16317801385624e+005,-2.45518979731872e+001,-5.50969820673007e+000

1.17941537383287e+005,-2.45526051412069e+001,-5.58568014993858e+000

1.19587939890794e+005,-2.45533297770205e+001,-5.66268918027687e+000

1.21257325320831e+005,-2.45540722597443e+001,-5.74073857075768e+000

1.22950014503040e+005,-2.45548329746108e+001,-5.81984175480453e+000

1.24666332745679e+005,-2.45556123130036e+001,-5.90001232843318e+000

1.26406609898139e+005,-2.45564106724939e+001,-5.98126405249699e+000

1.28171180414339e+005,-2.45572284568758e+001,-6.06361085500122e+000

1.29960383416997e+005,-2.45580660762043e+001,-6.14706683348614e+000

1.31774562762811e+005,-2.45589239468339e+001,-6.23164625748285e+000

1.33614067108538e+005,-2.45598024914586e+001,-6.31736357104495e+000

1.35479249978003e+005,-2.45607021391548e+001,-6.40423339535756e+000

1.37370469830040e+005,-2.45616233254263e+001,-6.49227053142764e+000

1.39288090127379e+005,-2.45625664922524e+001,-6.58148996285683e+000

1.41232479406504e+005,-2.45635320881401e+001,-6.67190685869979e+000

1.43204011348474e+005,-2.45645205681798e+001,-6.76353657641071e+000

1.45203064850745e+005,-2.45655323941065e+001,-6.85639466488031e+000

1.47230024099979e+005,-2.45665680343663e+001,-6.95049686756518e+000

1.49285278645888e+005,-2.45676279641884e+001,-7.04585912571050e+000

1.51369223476094e+005,-2.45687126656652e+001,-7.14249758167121e+000

1.53482259092041e+005,-2.45698226278386e+001,-7.24042858232941e+000

1.55624791585964e+005,-2.45709583467962e+001,-7.33966868261177e+000

1.57797232718936e+005,-2.45721203257755e+001,-7.44023464910834e+000

1.59999999999999e+005,-2.45733090752791e+001,-7.54214346379264e+000

1.62233516766403e+005,-2.45745251132006e+001,-7.64541232784464e+000

1.64498212264969e+005,-2.45757689649625e+001,-7.75005866557620e+000

1.66794521734578e+005,-2.45770411636670e+001,-7.85610012846145e+000

1.69122886489819e+005,-2.45783422502612e+001,-7.96355459926824e+000

1.71483754005805e+005,-2.45796727737171e+001,-8.07244019629359e+000

1.73877578004168e+005,-2.45810332912270e+001,-8.18277527770093e+000

1.76304818540256e+005,-2.45824243684175e+001,-8.29457844595661e+000

1.78765942091554e+005,-2.45838465795800e+001,-8.40786855236701e+000

1.81261421647326e+005,-2.45853005079226e+001,-8.52266470171038e+000

1.83791736799524e+005,-2.45867867458402e+001,-8.63898625696437e+000

1.86357373834951e+005,-2.45883058952086e+001,-8.75685284412385e+000

1.88958825828723e+005,-2.45898585676993e+001,-8.87628435710627e+000

1.91596592739027e+005,-2.45914453851197e+001,-8.99730096274046e+000

1.94271181503206e+005,-2.45930669797776e+001,-9.11992310583535e+000

1.96983106135185e+005,-2.45947239948724e+001,-9.24417151432079e+000

1.99732887824256e+005,-2.45964170849126e+001,-9.37006720445890e+000

2.02521055035243e+005,-2.45981469161630e+001,-9.49763148611607e+000

2.05348143610063e+005,-2.45999141671205e+001,-9.62688596809201e+000

2.08214696870707e+005,-2.46017195290201e+001,-9.75785256349609e+000

2.11121265723661e+005,-2.46035637063734e+001,-9.89055349516605e+000

2.14068408765776e+005,-2.46054474175383e+001,-1.00250113011186e+001

2.17056692391625e+005,-2.46073713953223e+001,-1.01612488400249e+001

2.20086690902357e+005,-2.46093363876207e+001,-1.02992892967012e+001

2.23158986616063e+005,-2.46113431580882e+001,-1.04391561876046e+001

2.26274169979693e+005,-2.46133924868472e+001,-1.05808733663249e+001

2.29432839682530e+005,-2.46154851712319e+001,-1.07244650290625e+001

2.32635602771247e+005,-2.46176220265687e+001,-1.08699557200792e+001

2.35883074766574e+005,-2.46198038869947e+001,-1.10173703371137e+001

2.39175879781588e+005,-2.46220316063126e+001,-1.11667341367493e+001

2.42514650641661e+005,-2.46243060588844e+001,-1.13180727397206e+001

2.45900029006080e+005,-2.46266281405628e+001,-1.14714121361504e+001

2.49332665491357e+005,-2.46289987696605e+001,-1.16267786907015e+001

2.52813219796278e+005,-2.46314188879580e+001,-1.17841991476330e+001

2.56342360828676e+005,-2.46338894617488e+001,-1.19437006357488e+001

2.59920766833993e+005,-2.46364114829234e+001,-1.21053106732249e+001

2.63549125525621e+005,-2.46389859700896e+001,-1.22690571723034e+001

2.67228134217075e+005,-2.46416139697308e+001,-1.24349684438412e+001

2.70958499956006e+005,-2.46442965574002e+001,-1.26030732017016e+001

2.74740939660078e+005,-2.46470348389513e+001,-1.27734005669742e+001

2.78576180254757e+005,-2.46498299518034e+001,-1.29459800720147e+001

2.82464958813007e+005,-2.46526830662413e+001,-1.31208416642900e+001

2.86408022696948e+005,-2.46555953867489e+001,-1.32980157100185e+001

2.90406129701488e+005,-2.46585681533746e+001,-1.34775329975938e+001

2.94460048199957e+005,-2.46616026431286e+001,-1.36594247407820e+001

2.98570557291775e+005,-2.46647001714100e+001,-1.38437225816806e+001

3.02738446952187e+005,-2.46678620934625e+001,-1.40304585934312e+001

3.06964518184081e+005,-2.46710898058590e+001,-1.42196652826741e+001

3.11249583171928e+005,-2.46743847480105e+001,-1.44113755917370e+001

3.15594465437872e+005,-2.46777484037011e+001,-1.46056229005509e+001

3.19999999999997e+005,-2.46811823026459e+001,-1.48024410282810e+001

3.24467033532806e+005,-2.46846880220702e+001,-1.50018642346691e+001

3.28996424529938e+005,-2.46882671883098e+001,-1.52039272210794e+001

3.33589043469155e+005,-2.46919214784283e+001,-1.54086651312395e+001

3.38245772979638e+005,-2.46956526218530e+001,-1.56161135516741e+001

3.42967508011610e+005,-2.46994624020251e+001,-1.58263085118223e+001

3.47755156008335e+005,-2.47033526580632e+001,-1.60392864838372e+001

3.52609637080511e+005,-2.47073252864399e+001,-1.62550843820613e+001

3.57531884183106e+005,-2.47113822426677e+001,-1.64737395621741e+001

3.62522843294651e+005,-2.47155255429938e+001,-1.66952898200095e+001

3.67583473599047e+005,-2.47197572661027e+001,-1.69197733900397e+001

3.72714747669902e+005,-2.47240795548226e+001,-1.71472289435223e+001

3.77917651657445e+005,-2.47284946178378e+001,-1.73776955863093e+001

3.83193185478053e+005,-2.47330047314014e+001,-1.76112128563163e+001

3.88542363006410e+005,-2.47376122410502e+001,-1.78478207206498e+001

3.93966212270369e+005,-2.47423195633184e+001,-1.80875595723908e+001

3.99465775648511e+005,-2.47471291874485e+001,-1.83304702270355e+001

4.05042110070485e+005,-2.47520436771002e+001,-1.85765939185904e+001

4.10696287220124e+005,-2.47570656720524e+001,-1.88259722953210e+001

4.16429393741414e+005,-2.47621978899004e+001,-1.90786474151547e+001

4.22242531447321e+005,-2.47674431277447e+001,-1.93346617407362e+001

4.28136817531551e+005,-2.47728042638708e+001,-1.95940581341342e+001

4.34113384783250e+005,-2.47782842594192e+001,-1.98568798511999e+001

4.40173381804713e+005,-2.47838861600435e+001,-2.01231705355752e+001

4.46317973232124e+005,-2.47896130975555e+001,-2.03929742123508e+001

4.52548339959385e+005,-2.47954682915577e+001,-2.06663352813708e+001

4.58865679365059e+005,-2.48014550510584e+001,-2.09432985101859e+001

4.65271205542494e+005,-2.48075767760725e+001,-2.12239090266498e+001

4.71766149533147e+005,-2.48138369592033e+001,-2.15082123111599e+001

4.78351759563174e+005,-2.48202391872061e+001,-2.17962541885385e+001

4.85029301283321e+005,-2.48267871425311e+001,-2.20880808195534e+001

4.91800058012158e+005,-2.48334846048452e+001,-2.23837386920735e+001

4.98665330982714e+005,-2.48403354525307e+001,-2.26832746118593e+001

5.05626439592555e+005,-2.48473436641600e+001,-2.29867356929817e+001

5.12684721657352e+005,-2.48545133199442e+001,-2.32941693478689e+001

5.19841533667984e+005,-2.48618486031550e+001,-2.36056232769760e+001

5.27098251051240e+005,-2.48693538015175e+001,-2.39211454580730e+001

5.34456268434150e+005,-2.48770333085722e+001,-2.42407841351494e+001

5.41916999912011e+005,-2.48848916250051e+001,-2.45645878069287e+001

