Freq.,VOut,OutRef

1.00000000000000e+004,-1.30464838913375e+001,-1.10019798132505e-001

1.01395947979003e+004,-1.30464860305098e+001,-1.11555167234929e-001

1.02811382665607e+004,-1.30464882296986e+001,-1.13111950204882e-001

1.04246576084112e+004,-1.30464904905836e+001,-1.14690445163186e-001

1.05701804056138e+004,-1.30464928148920e+001,-1.16290954354380e-001

1.07177346253629e+004,-1.30464952043993e+001,-1.17913784205339e-001

1.08673486252606e+004,-1.30464976609302e+001,-1.19559245385316e-001

1.10190511587661e+004,-1.30465001863598e+001,-1.21227652863894e-001

1.11728713807222e+004,-1.30465027826159e+001,-1.22919325963665e-001

1.13288388529580e+004,-1.30465054516799e+001,-1.24634588424305e-001

1.14869835499703e+004,-1.30465081955884e+001,-1.26373768460103e-001

1.16473358646846e+004,-1.30465110164346e+001,-1.28137198820859e-001

1.18099266142953e+004,-1.30465139163695e+001,-1.29925216857436e-001

1.19747870461893e+004,-1.30465168976048e+001,-1.31738164575561e-001

1.21419488439505e+004,-1.30465199624129e+001,-1.33576388706523e-001

1.23114441334492e+004,-1.30465231131299e+001,-1.35440240765785e-001

1.24833054890161e+004,-1.30465263521563e+001,-1.37330077122175e-001

1.26575659397028e+004,-1.30465296819593e+001,-1.39246259060989e-001

1.28342589756290e+004,-1.30465331050754e+001,-1.41189152843982e-001

1.30134185544193e+004,-1.30465366241103e+001,-1.43159129791749e-001

1.31950791077289e+004,-1.30465402417430e+001,-1.45156566333894e-001

1.33792755478611e+004,-1.30465439607261e+001,-1.47181844089985e-001

1.35660432744767e+004,-1.30465477838887e+001,-1.49235349934725e-001

1.37554181813974e+004,-1.30465517141386e+001,-1.51317476066821e-001

1.39474366635040e+004,-1.30465557544636e+001,-1.53428620083576e-001

1.41421356237309e+004,-1.30465599079347e+001,-1.55569185050500e-001

1.43395524801583e+004,-1.30465641777078e+001,-1.57739579574332e-001

1.45397251732031e+004,-1.30465685670258e+001,-1.59940217878299e-001

1.47426921729110e+004,-1.30465730792213e+001,-1.62171519877998e-001

1.49484924863494e+004,-1.30465777177196e+001,-1.64433911249572e-001

1.51571656651040e+004,-1.30465824860396e+001,-1.66727823518747e-001

1.53687518128801e+004,-1.30465873877984e+001,-1.69053694124170e-001

1.55832915932100e+004,-1.30465924267122e+001,-1.71411966507059e-001

1.58008262372675e+004,-1.30465976065998e+001,-1.73803090185527e-001

1.60213975517924e+004,-1.30466029313854e+001,-1.76227520833905e-001

1.62450479271247e+004,-1.30466084051014e+001,-1.78685720364101e-001

1.64718203453514e+004,-1.30466140318910e+001,-1.81178157010713e-001

1.67017583885674e+004,-1.30466198160115e+001,-1.83705305410265e-001

1.69349062472505e+004,-1.30466257618374e+001,-1.86267646686417e-001

1.71713087287550e+004,-1.30466318738630e+001,-1.88865668536766e-001

1.74110112659224e+004,-1.30466381567064e+001,-1.91499865314217e-001

1.76540599258131e+004,-1.30466446151125e+001,-1.94170738116137e-001

1.79005014185594e+004,-1.30466512539560e+001,-1.96878794873902e-001

1.81503831063432e+004,-1.30466580782457e+001,-1.99624550435668e-001

1.84037530124975e+004,-1.30466650931269e+001,-2.02408526664291e-001

1.86606598307361e+004,-1.30466723038862e+001,-2.05231252520332e-001

1.89211529345119e+004,-1.30466797159549e+001,-2.08093264155531e-001

1.91852823865052e+004,-1.30466873349121e+001,-2.10995105009846e-001

1.94530989482457e+004,-1.30466951664898e+001,-2.13937325897167e-001

1.97246540898671e+004,-1.30467032165760e+001,-2.16920485104802e-001

1.99999999999999e+004,-1.30467114912195e+001,-2.19945148488522e-001

2.02791895958005e+004,-1.30467199966334e+001,-2.23011889567240e-001

2.05622765331213e+004,-1.30467287392001e+001,-2.26121289621089e-001

2.08493152168224e+004,-1.30467377254756e+001,-2.29273937787121e-001

2.11403608112276e+004,-1.30467469621937e+001,-2.32470431164837e-001

2.14354692507258e+004,-1.30467564562709e+001,-2.35711374908390e-001

2.17346972505211e+004,-1.30467662148109e+001,-2.38997382335055e-001

2.20381023175322e+004,-1.30467762451104e+001,-2.42329075019975e-001

2.23457427614443e+004,-1.30467865546628e+001,-2.45707082904389e-001

2.26576777059159e+004,-1.30467971511639e+001,-2.49132044399076e-001

2.29739670999406e+004,-1.30468080425175e+001,-2.52604606486376e-001

2.32946717293690e+004,-1.30468192368400e+001,-2.56125424828853e-001

2.36198532285905e+004,-1.30468307424666e+001,-2.59695163873231e-001

2.39495740923785e+004,-1.30468425679563e+001,-2.63314496960825e-001

2.42838976879009e+004,-1.30468547220979e+001,-2.66984106434216e-001

2.46228882668982e+004,-1.30468672139160e+001,-2.70704683746327e-001

2.49666109780322e+004,-1.30468800526766e+001,-2.74476929572609e-001

2.53151318794055e+004,-1.30468932478933e+001,-2.78301553921496e-001

2.56685179512580e+004,-1.30469068093342e+001,-2.82179276242260e-001

2.60268371088386e+004,-1.30469207470272e+001,-2.86110825546068e-001

2.63901582154578e+004,-1.30469350712675e+001,-2.90096940511434e-001

2.67585510957221e+004,-1.30469497926234e+001,-2.94138369604786e-001

2.71320865489533e+004,-1.30469649219442e+001,-2.98235871189348e-001

2.75108363627948e+004,-1.30469804703660e+001,-3.02390213648038e-001

2.78948733270080e+004,-1.30469964493193e+001,-3.06602175496357e-001

2.82842712474618e+004,-1.30470128705366e+001,-3.10872545498678e-001

2.86791049603164e+004,-1.30470297460591e+001,-3.15202122790476e-001

2.90794503464061e+004,-1.30470470882447e+001,-3.19591716992654e-001

2.94853843458219e+004,-1.30470649097754e+001,-3.24042148335761e-001

2.98969849726987e+004,-1.30470832236657e+001,-3.28554247773752e-001

3.03143313302078e+004,-1.30471020432695e+001,-3.33128857112974e-001

3.07375036257601e+004,-1.30471213822896e+001,-3.37766829124364e-001

3.11665831864199e+004,-1.30471412547845e+001,-3.42469027673800e-001

3.16016524745350e+004,-1.30471616751783e+001,-3.47236327838424e-001

3.20427951035848e+004,-1.30471826582683e+001,-3.52069616031244e-001

3.24900958542493e+004,-1.30472042192339e+001,-3.56969790125781e-001

3.29436406907028e+004,-1.30472263736459e+001,-3.61937759577472e-001

3.34035167771346e+004,-1.30472491374749e+001,-3.66974445549272e-001

3.38698124945009e+004,-1.30472725271013e+001,-3.72080781034523e-001

3.43426174575100e+004,-1.30472965593236e+001,-3.77257710983583e-001

3.48220225318448e+004,-1.30473212513690e+001,-3.82506192425815e-001

3.53081198516260e+004,-1.30473466209020e+001,-3.87827194597086e-001

3.58010028371187e+004,-1.30473726860349e+001,-3.93221699063458e-001

3.63007662126863e+004,-1.30473994653375e+001,-3.98690699845351e-001

3.68075060249948e+004,-1.30474269778468e+001,-4.04235203545505e-001

3.73213196614721e+004,-1.30474552430775e+001,-4.09856229472612e-001

3.78423058690237e+004,-1.30474842810324e+001,-4.15554809765686e-001

3.83705647730104e+004,-1.30475141122123e+001,-4.21331989520100e-001

3.89061978964912e+004,-1.30475447576273e+001,-4.27188826911540e-001

3.94493081797342e+004,-1.30475762388067e+001,-4.33126393320399e-001

3.99999999999998e+004,-1.30476085778103e+001,-4.39145773457072e-001

4.05583791916010e+004,-1.30476417972389e+001,-4.45248065483943e-001

4.11245530662425e+004,-1.30476759202454e+001,-4.51434381140186e-001

4.16986304336447e+004,-1.30477109705458e+001,-4.57705845864591e-001

4.22807216224550e+004,-1.30477469724306e+001,-4.64063598914918e-001

4.28709385014515e+004,-1.30477839507753e+001,-4.70508793492626e-001

4.34693945010421e+004,-1.30478219310524e+001,-4.77042596862131e-001

4.40762046350642e+004,-1.30478609393421e+001,-4.83666190471201e-001

4.46914855228886e+004,-1.30479010023441e+001,-4.90380770067713e-001

4.53153554118317e+004,-1.30479421473883e+001,-4.97187545822263e-001

4.59479341998812e+004,-1.30479844024469e+001,-5.04087742439641e-001

4.65893434587380e+004,-1.30480277961451e+001,-5.11082599278724e-001

4.72397064571810e+004,-1.30480723577729e+001,-5.18173370465218e-001

4.78991481847569e+004,-1.30481181172960e+001,-5.25361325005227e-001

4.85677953758016e+004,-1.30481651053671e+001,-5.32647746897401e-001

4.92457765337964e+004,-1.30482133533372e+001,-5.40033935243012e-001

4.99332219560642e+004,-1.30482628932666e+001,-5.47521204354393e-001

5.06302637588109e+004,-1.30483137579358e+001,-5.55110883862769e-001

5.13370359025159e+004,-1.30483659808559e+001,-5.62804318825686e-001

5.20536742176771e+004,-1.30484195962802e+001,-5.70602869824611e-001

5.27803164309155e+004,-1.30484746392132e+001,-5.78507913075551e-001

5.35171021914442e+004,-1.30485311454222e+001,-5.86520840521169e-001

5.42641730979066e+004,-1.30485891514465e+001,-5.94643059933355e-001

5.50216727255895e+004,-1.30486486946072e+001,-6.02875995005742e-001

5.57897466540159e+004,-1.30487098130165e+001,-6.11221085451802e-001

5.65685424949235e+004,-1.30487725455870e+001,-6.19679787090851e-001

5.73582099206328e+004,-1.30488369320401e+001,-6.28253571940198e-001

5.81589006928121e+004,-1.30489030129141e+001,-6.36943928302789e-001

5.89707686916437e+004,-1.30489708295726e+001,-6.45752360848215e-001

5.97939699453972e+004,-1.30490404242108e+001,-6.54680390697250e-001

6.06286626604156e+004,-1.30491118398632e+001,-6.63729555499599e-001

6.14750072515201e+004,-1.30491851204091e+001,-6.72901409512126e-001

6.23331663728396e+004,-1.30492603105783e+001,-6.82197523671248e-001

6.32033049490698e+004,-1.30493374559561e+001,-6.91619485665843e-001

6.40855902071694e+004,-1.30494166029870e+001,-7.01168900005351e-001

6.49801917084985e+004,-1.30494977989786e+001,-7.10847388087025e-001

6.58872813814055e+004,-1.30495810921033e+001,-7.20656588258389e-001

6.68070335542691e+004,-1.30496665314005e+001,-7.30598155881057e-001

6.77396249890018e+004,-1.30497541667768e+001,-7.40673763386111e-001

6.86852349150199e+004,-1.30498440490060e+001,-7.50885100331722e-001

6.96440450636895e+004,-1.30499362297269e+001,-7.61233873458237e-001

7.06162397032520e+004,-1.30500307614414e+001,-7.71721806737172e-001

7.16020056742374e+004,-1.30501276975100e+001,-7.82350641422390e-001

7.26015324253724e+004,-1.30502270921469e+001,-7.93122136096020e-001

7.36150120499896e+004,-1.30503290004131e+001,-8.04038066715593e-001

7.46426393229441e+004,-1.30504334782091e+001,-8.15100226653068e-001

7.56846117380472e+004,-1.30505405822644e+001,-8.26310426742765e-001

7.67411295460207e+004,-1.30506503701269e+001,-8.37670495315993e-001

7.78123957929823e+004,-1.30507629001501e+001,-8.49182278243838e-001

7.88986163594682e+004,-1.30508782314782e+001,-8.60847638973806e-001

7.99999999999995e+004,-1.30509964240297e+001,-8.72668458568430e-001

8.11167583832018e+004,-1.30511175384790e+001,-8.84646635742320e-001

8.22491061324848e+004,-1.30512416362362e+001,-8.96784086899798e-001

8.33972608672892e+004,-1.30513687794239e+001,-9.09082746173549e-001

8.45614432449099e+004,-1.30514990308531e+001,-9.21544565462202e-001

8.57418770029029e+004,-1.30516324539954e+001,-9.34171514473640e-001

8.69387890020841e+004,-1.30517691129542e+001,-9.46965580763624e-001

8.81524092701283e+004,-1.30519090724319e+001,-9.59928769784464e-001

8.93829710457770e+004,-1.30520523976962e+001,-9.73063104929802e-001

9.06307108236633e+004,-1.30521991545421e+001,-9.86370627589322e-001

9.18958683997622e+004,-1.30523494092520e+001,-9.99853397203086e-001

9.31786869174758e+004,-1.30525032285532e+001,-1.01351349132258e+000

9.44794129143618e+004,-1.30526606795714e+001,-1.02735300568076e+000

9.57982963695136e+004,-1.30528218297824e+001,-1.04137405426246e+000

9.71355907516031e+004,-1.30529867469596e+001,-1.05557876939000e+000

9.84915530675926e+004,-1.30531554991192e+001,-1.06996930181129e+000

9.98664439121282e+004,-1.30533281544608e+001,-1.08454782080160e+000

1.01260527517622e+005,-1.30535047813068e+001,-1.09931651427335e+000

1.02674071805032e+005,-1.30536854480359e+001,-1.11427758890029e+000

1.04107348435354e+005,-1.30538702230145e+001,-1.12943327025362e+000

1.05560632861831e+005,-1.30540591745248e+001,-1.14478580295055e+000

1.07034204382888e+005,-1.30542523706880e+001,-1.16033745082258e+000

1.08528346195813e+005,-1.30544498793851e+001,-1.17609049709641e+000

1.10043345451179e+005,-1.30546517681729e+001,-1.19204724459735e+000

1.11579493308032e+005,-1.30548581041975e+001,-1.20821001596837e+000

1.13137084989847e+005,-1.30550689541025e+001,-1.22458115391402e+000

1.14716419841265e+005,-1.30552843839350e+001,-1.24116302146529e+000

1.16317801385624e+005,-1.30555044590464e+001,-1.25795800227038e+000

1.17941537383287e+005,-1.30557292439905e+001,-1.27496850090989e+000

1.19587939890794e+005,-1.30559588024170e+001,-1.29219694324391e+000

1.21257325320831e+005,-1.30561931969619e+001,-1.30964577678349e+000

1.22950014503040e+005,-1.30564324891342e+001,-1.32731747109777e+000

1.24666332745679e+005,-1.30566767391983e+001,-1.34521451825398e+000

1.26406609898139e+005,-1.30569260060537e+001,-1.36333943329222e+000

1.28171180414339e+005,-1.30571803471109e+001,-1.38169475473746e+000

1.29960383416997e+005,-1.30574398181638e+001,-1.40028304515093e+000

1.31774562762811e+005,-1.30577044732591e+001,-1.41910689172399e+000

1.33614067108538e+005,-1.30579743645634e+001,-1.43816890691255e+000

1.35479249978003e+005,-1.30582495422255e+001,-1.45747172912054e+000

1.37370469830040e+005,-1.30585300542381e+001,-1.47701802342718e+000

1.39288090127379e+005,-1.30588159462963e+001,-1.49681048236435e+000

1.41232479406504e+005,-1.30591072616532e+001,-1.51685182674628e+000

1.43204011348474e+005,-1.30594040409743e+001,-1.53714480655131e+000

1.45203064850745e+005,-1.30597063221905e+001,-1.55769220185734e+000

1.47230024099979e+005,-1.30600141403484e+001,-1.57849682383641e+000

1.49285278645888e+005,-1.30603275274615e+001,-1.59956151580462e+000

1.51369223476094e+005,-1.30606465123586e+001,-1.62088915433582e+000

1.53482259092041e+005,-1.30609711205333e+001,-1.64248265043331e+000

1.55624791585964e+005,-1.30613013739930e+001,-1.66434495076612e+000

1.57797232718936e+005,-1.30616372911089e+001,-1.68647903896986e+000

1.59999999999999e+005,-1.30619788864658e+001,-1.70888793701325e+000

1.62233516766403e+005,-1.30623261707146e+001,-1.73157470663003e+000

1.64498212264969e+005,-1.30626791504256e+001,-1.75454245082047e+000

1.66794521734578e+005,-1.30630378279447e+001,-1.77779431541937e+000

1.69122886489819e+005,-1.30634022012525e+001,-1.80133349073340e+000

1.71483754005805e+005,-1.30637722638265e+001,-1.82516321324899e+000

1.73877578004168e+005,-1.30641480045071e+001,-1.84928676740784e+000

1.76304818540256e+005,-1.30645294073686e+001,-1.87370748745250e+000

1.78765942091554e+005,-1.30649164515949e+001,-1.89842875934238e+000

1.81261421647326e+005,-1.30653091113611e+001,-1.92345402273437e+000

1.83791736799524e+005,-1.30657073557208e+001,-1.94878677303663e+000

1.86357373834951e+005,-1.30661111485010e+001,-1.97443056352477e+000

1.88958825828723e+005,-1.30665204482034e+001,-2.00038900752513e+000

1.91596592739027e+005,-1.30669352079149e+001,-2.02666578066126e+000

1.94271181503206e+005,-1.30673553752252e+001,-2.05326462316340e+000

1.96983106135185e+005,-1.30677808921551e+001,-2.08018934223581e+000

1.99732887824256e+005,-1.30682116950930e+001,-2.10744381448453e+000

2.02521055035243e+005,-1.30686477147428e+001,-2.13503198839496e+000

2.05348143610063e+005,-1.30690888760819e+001,-2.16295788686634e+000

2.08214696870707e+005,-1.30695350983305e+001,-2.19122560978929e+000

2.11121265723661e+005,-1.30699862949329e+001,-2.21983933667345e+000

2.14068408765776e+005,-1.30704423735508e+001,-2.24880332931036e+000

2.17056692391625e+005,-1.30709032360692e+001,-2.27812193447762e+000

2.20086690902357e+005,-1.30713687786151e+001,-2.30779958667310e+000

2.23158986616063e+005,-1.30718388915899e+001,-2.33784081087718e+000

2.26274169979693e+005,-1.30723134597151e+001,-2.36825022533782e+000

2.29432839682530e+005,-1.30727923620914e+001,-2.39903254437623e+000

2.32635602771247e+005,-1.30732754722728e+001,-2.43019258120031e+000

2.35883074766574e+005,-1.30737626583543e+001,-2.46173525073071e+000

2.39175879781588e+005,-1.30742537830733e+001,-2.49366557242661e+000

2.42514650641661e+005,-1.30747487039263e+001,-2.52598867310676e+000

2.45900029006080e+005,-1.30752472732991e+001,-2.55870978976536e+000

2.49332665491357e+005,-1.30757493386116e+001,-2.59183427236898e+000

2.52813219796278e+005,-1.30762547424760e+001,-2.62536758663549e+000

2.56342360828676e+005,-1.30767633228692e+001,-2.65931531678706e+000

2.59920766833993e+005,-1.30772749133188e+001,-2.69368316826979e+000

2.63549125525621e+005,-1.30777893431013e+001,-2.72847697043770e+000

2.67228134217075e+005,-1.30783064374543e+001,-2.76370267919358e+000

2.70958499956006e+005,-1.30788260178003e+001,-2.79936637958214e+000

2.74740939660078e+005,-1.30793479019812e+001,-2.83547428833059e+000

2.78576180254757e+005,-1.30798719045062e+001,-2.87203275633023e+000

2.82464958813007e+005,-1.30803978368077e+001,-2.90904827105790e+000

2.86408022696948e+005,-1.30809255075086e+001,-2.94652745892957e+000

2.90406129701488e+005,-1.30814547226977e+001,-2.98447708758216e+000

2.94460048199957e+005,-1.30819852862137e+001,-3.02290406808520e+000

2.98570557291775e+005,-1.30825169999361e+001,-3.06181545707040e+000

3.02738446952187e+005,-1.30830496640832e+001,-3.10121845878323e+000

3.06964518184081e+005,-1.30835830775145e+001,-3.14112042705310e+000

3.11249583171928e+005,-1.30841170380389e+001,-3.18152886717548e+000

3.15594465437872e+005,-1.30846513427255e+001,-3.22245143771014e+000

3.19999999999997e+005,-1.30851857882175e+001,-3.26389595219107e+000

3.24467033532806e+005,-1.30857201710471e+001,-3.30587038074846e+000

3.28996424529938e+005,-1.30862542879514e+001,-3.34838285164296e+000

3.33589043469155e+005,-1.30867879361879e+001,-3.39144165270991e+000

3.38245772979638e+005,-1.30873209138476e+001,-3.43505523271966e+000

3.42967508011610e+005,-1.30878530201669e+001,-3.47923220264917e+000

3.47755156008335e+005,-1.30883840558344e+001,-3.52398133687138e+000

3.52609637080511e+005,-1.30889138232946e+001,-3.56931157426108e+000

3.57531884183106e+005,-1.30894421270451e+001,-3.61523201922362e+000

3.62522843294651e+005,-1.30899687739281e+001,-3.66175194264501e+000

3.67583473599047e+005,-1.30904935734139e+001,-3.70888078277171e+000

3.72714747669902e+005,-1.30910163378771e+001,-3.75662814602041e+000

3.77917651657445e+005,-1.30915368828629e+001,-3.80500380772332e+000

3.83193185478053e+005,-1.30920550273447e+001,-3.85401771281435e+000

3.88542363006410e+005,-1.30925705939706e+001,-3.90367997645981e+000

3.93966212270369e+005,-1.30930834092990e+001,-3.95400088463983e+000

3.99465775648511e+005,-1.30935933040225e+001,-4.00499089468470e+000

4.05042110070485e+005,-1.30941001131799e+001,-4.05666063577425e+000

4.10696287220124e+005,-1.30946036763557e+001,-4.10902090940328e+000

4.16429393741414e+005,-1.30951038378653e+001,-4.16208268982037e+000

4.22242531447321e+005,-1.30956004469287e+001,-4.21585712444710e+000

4.28136817531551e+005,-1.30960933578291e+001,-4.27035553428229e+000

4.34113384783250e+005,-1.30965824300579e+001,-4.32558941429828e+000

4.40173381804713e+005,-1.30970675284460e+001,-4.38157043383666e+000

4.46317973232124e+005,-1.30975485232810e+001,-4.43831043700707e+000

4.52548339959385e+005,-1.30980252904093e+001,-4.49582144309803e+000

4.58865679365059e+005,-1.30984977113257e+001,-4.55411564700461e+000

4.65271205542494e+005,-1.30989656732471e+001,-4.61320541967941e+000

4.71766149533147e+005,-1.30994290691737e+001,-4.67310330861244e+000

4.78351759563174e+005,-1.30998877979359e+001,-4.73382203834645e+000

4.85029301283321e+005,-1.31003417642281e+001,-4.79537451103223e+000

4.91800058012158e+005,-1.31007908786286e+001,-4.85777380703146e+000

4.98665330982714e+005,-1.31012350576075e+001,-4.92103318556857e+000

5.05626439592555e+005,-1.31016742235217e+001,-4.98516608544107e+000

5.12684721657352e+005,-1.31021083045982e+001,-5.05018612579029e+000

5.19841533667984e+005,-1.31025372349055e+001,-5.11610710693714e+000

5.27098251051240e+005,-1.31029609543139e+001,-5.18294301128871e+000

5.34456268434150e+005,-1.31033794084456e+001,-5.25070800431808e+000

5.41916999912011e+005,-1.31037925486145e+001,-5.31941643562228e+000

