Freq.,VOut,OutRef

1.00000000000000e+004,-7.21675029811283e+000,-4.15533552570166e-002

1.01395947979003e+004,-7.21675408111834e+000,-4.21326198782386e-002

1.02811382665607e+004,-7.21675797025722e+000,-4.27199368716279e-002

1.04246576084112e+004,-7.21676196850186e+000,-4.33154172017524e-002

1.05701804056138e+004,-7.21676607890623e+000,-4.39191733304352e-002

1.07177346253629e+004,-7.21677030460890e+000,-4.45313192284767e-002

1.08673486252606e+004,-7.21677464883753e+000,-4.51519703821364e-002

1.10190511587661e+004,-7.21677911490793e+000,-4.57812438313676e-002

1.11728713807222e+004,-7.21678370622876e+000,-4.64192581758327e-002

1.13288388529580e+004,-7.21678842630506e+000,-4.70661335856903e-002

1.14869835499703e+004,-7.21679327873654e+000,-4.77219918504953e-002

1.16473358646846e+004,-7.21679826722552e+000,-4.83869563623387e-002

1.18099266142953e+004,-7.21680339557634e+000,-4.90611521572216e-002

1.19747870461893e+004,-7.21680866769927e+000,-4.97447059285059e-002

1.21419488439505e+004,-7.21681408761322e+000,-5.04377460462567e-002

1.23114441334492e+004,-7.21681965944874e+000,-5.11404025771312e-002

1.24833054890161e+004,-7.21682538745133e+000,-5.18528073025071e-002

1.26575659397028e+004,-7.21683127598348e+000,-5.25750937457794e-002

1.28342589756290e+004,-7.21683732953072e+000,-5.33073971732115e-002

1.30134185544193e+004,-7.21684355270095e+000,-5.40498546404344e-002

1.31950791077289e+004,-7.21684995023046e+000,-5.48026049951375e-002

1.33792755478611e+004,-7.21685652698854e+000,-5.55657888901045e-002

1.35660432744767e+004,-7.21686328797645e+000,-5.63395488335650e-002

1.37554181813974e+004,-7.21687023833727e+000,-5.71240291687353e-002

1.39474366635040e+004,-7.21687738335354e+000,-5.79193761353111e-002

1.41421356237309e+004,-7.21688472845621e+000,-5.87257378556803e-002

1.43395524801583e+004,-7.21689227922557e+000,-5.95432643759771e-002

1.45397251732031e+004,-7.21690004139625e+000,-6.03721076800400e-002

1.47426921729110e+004,-7.21690802086169e+000,-6.12124217089216e-002

1.49484924863494e+004,-7.21691622367793e+000,-6.20643623834378e-002

1.51571656651040e+004,-7.21692465606827e+000,-6.29280876250092e-002

1.53687518128801e+004,-7.21693332442833e+000,-6.38037573707624e-002

1.55832915932100e+004,-7.21694223532935e+000,-6.46915336038295e-002

1.58008262372675e+004,-7.21695139552437e+000,-6.55915803647687e-002

1.60213975517924e+004,-7.21696081195262e+000,-6.65040637742861e-002

1.62450479271247e+004,-7.21697049174377e+000,-6.74291520600012e-002

1.64718203453514e+004,-7.21698044222435e+000,-6.83670155671506e-002

1.67017583885674e+004,-7.21699067092278e+000,-6.93178267807337e-002

1.69349062472505e+004,-7.21700118557339e+000,-7.02817603553922e-002

1.71713087287550e+004,-7.21701199412437e+000,-7.12589931187486e-002

1.74110112659224e+004,-7.21702310474097e+000,-7.22497041081504e-002

1.76540599258131e+004,-7.21703452581319e+000,-7.32540745776142e-002

1.79005014185594e+004,-7.21704626596130e+000,-7.42722880210979e-002

1.81503831063432e+004,-7.21705833404060e+000,-7.53045302003192e-002

1.84037530124975e+004,-7.21707073915040e+000,-7.63509891458814e-002

1.86606598307361e+004,-7.21708349063806e+000,-7.74118551923196e-002

1.89211529345119e+004,-7.21709659810694e+000,-7.84873209878289e-002

1.91852823865052e+004,-7.21711007142211e+000,-7.95775815193483e-002

1.94530989482457e+004,-7.21712392071901e+000,-8.06828341188407e-002

1.97246540898671e+004,-7.21713815640815e+000,-8.18032784974229e-002

1.99999999999999e+004,-7.21715278918551e+000,-8.29391167407074e-002

2.02791895958005e+004,-7.21716783003613e+000,-8.40905533529780e-002

2.05622765331213e+004,-7.21718329024605e+000,-8.52577952434470e-002

2.08493152168224e+004,-7.21719918140628e+000,-8.64410517687149e-002

2.11403608112276e+004,-7.21721551542297e+000,-8.76405347329083e-002

2.14354692507258e+004,-7.21723230452609e+000,-8.88564584005665e-002

2.17346972505211e+004,-7.21724956127559e+000,-9.00890395245619e-002

2.20381023175322e+004,-7.21726729857282e+000,-9.13384973418082e-002

2.23457427614443e+004,-7.21728552966613e+000,-9.26050536071133e-002

2.26576777059159e+004,-7.21730426816321e+000,-9.38889325831607e-002

2.29739670999406e+004,-7.21732352803766e+000,-9.51903610704183e-002

2.32946717293690e+004,-7.21734332364096e+000,-9.65095684001225e-002

2.36198532285905e+004,-7.21736366970934e+000,-9.78467864627892e-002

2.39495740923785e+004,-7.21738458137544e+000,-9.92022497060601e-002

2.42838976879009e+004,-7.21740607417810e+000,-1.00576195143572e-001

2.46228882668982e+004,-7.21742816407342e+000,-1.01968862358389e-001

2.49666109780322e+004,-7.21745086744294e+000,-1.03380493523388e-001

2.53151318794055e+004,-7.21747420110775e+000,-1.04811333385354e-001

2.56685179512580e+004,-7.21749818233612e+000,-1.06261629290465e-001

2.60268371088386e+004,-7.21752282885805e+000,-1.07731631165113e-001

2.63901582154578e+004,-7.21754815887462e+000,-1.09221591531480e-001

2.67585510957221e+004,-7.21757419106966e+000,-1.10731765507718e-001

2.71320865489533e+004,-7.21760094462426e+000,-1.12262410790147e-001

2.75108363627948e+004,-7.21762843922529e+000,-1.13813787674302e-001

2.78948733270080e+004,-7.21765669508084e+000,-1.15386159030802e-001

2.82842712474618e+004,-7.21768573293273e+000,-1.16979790300989e-001

2.86791049603164e+004,-7.21771557406781e+000,-1.18594949500191e-001

2.90794503464061e+004,-7.21774624033275e+000,-1.20231907196947e-001

2.94853843458219e+004,-7.21777775414687e+000,-1.21890936506740e-001

2.98969849726987e+004,-7.21781013851734e+000,-1.23572313068811e-001

3.03143313302078e+004,-7.21784341705112e+000,-1.25276315043404e-001

3.07375036257601e+004,-7.21787761397060e+000,-1.27003223085379e-001

3.11665831864199e+004,-7.21791275412875e+000,-1.28753320320279e-001

3.16016524745350e+004,-7.21794886302220e+000,-1.30526892333041e-001

3.20427951035848e+004,-7.21798596680853e+000,-1.32324227127590e-001

3.24900958542493e+004,-7.21802409232005e+000,-1.34145615110682e-001

3.29436406907028e+004,-7.21806326708052e+000,-1.35991349052714e-001

3.34035167771346e+004,-7.21810351931993e+000,-1.37861724062469e-001

3.38698124945009e+004,-7.21814487799198e+000,-1.39757037541236e-001

3.43426174575100e+004,-7.21818737279016e+000,-1.41677589146442e-001

3.48220225318448e+004,-7.21823103416365e+000,-1.43623680752103e-001

3.53081198516260e+004,-7.21827589333556e+000,-1.45595616395932e-001

3.58010028371187e+004,-7.21832198231932e+000,-1.47593702232516e-001

3.63007662126863e+004,-7.21836933393603e+000,-1.49618246482077e-001

3.68075060249948e+004,-7.21841798183300e+000,-1.51669559366947e-001

3.73213196614721e+004,-7.21846796050077e+000,-1.53747953054725e-001

3.78423058690237e+004,-7.21851930529183e+000,-1.55853741590943e-001

3.83705647730104e+004,-7.21857205243838e+000,-1.57987240831639e-001

3.89061978964912e+004,-7.21862623907231e+000,-1.60148768361015e-001

3.94493081797342e+004,-7.21868190324152e+000,-1.62338643426810e-001

3.99999999999998e+004,-7.21873908393176e+000,-1.64557186839951e-001

4.05583791916010e+004,-7.21879782108304e+000,-1.66804720901846e-001

4.11245530662425e+004,-7.21885815561146e+000,-1.69081569295589e-001

4.16986304336447e+004,-7.21892012942655e+000,-1.71388056999175e-001

4.22807216224550e+004,-7.21898378545166e+000,-1.73724510176681e-001

4.28709385014515e+004,-7.21904916764398e+000,-1.76091256065515e-001

4.34693945010421e+004,-7.21911632101349e+000,-1.78488622866014e-001

4.40762046350642e+004,-7.21918529164443e+000,-1.80916939607752e-001

4.46914855228886e+004,-7.21925612671276e+000,-1.83376536039047e-001

4.53153554118317e+004,-7.21932887450810e+000,-1.85867742477235e-001

4.59479341998812e+004,-7.21940358445290e+000,-1.88390889673036e-001

4.65893434587380e+004,-7.21948030712242e+000,-1.90946308662615e-001

4.72397064571810e+004,-7.21955909426458e+000,-1.93534330609879e-001

4.78991481847569e+004,-7.21963999882005e+000,-1.96155286645154e-001

4.85677953758016e+004,-7.21972307494141e+000,-1.98809507696106e-001

4.92457765337964e+004,-7.21980837801372e+000,-2.01497324303697e-001

4.99332219560642e+004,-7.21989596467234e+000,-2.04219066446314e-001

5.06302637588109e+004,-7.21998589282340e+000,-2.06975063337371e-001

5.13370359025159e+004,-7.22007822166261e+000,-2.09765643223441e-001

5.20536742176771e+004,-7.22017301169287e+000,-2.12591133179030e-001

5.27803164309155e+004,-7.22027032474355e+000,-2.15451858880420e-001

5.35171021914442e+004,-7.22037022398785e+000,-2.18348144379591e-001

5.42641730979066e+004,-7.22047277396042e+000,-2.21280311865131e-001

5.50216727255895e+004,-7.22057804057421e+000,-2.24248681414607e-001

5.57897466540159e+004,-7.22068609113669e+000,-2.27253570737823e-001

5.65685424949235e+004,-7.22079699436582e+000,-2.30295294908809e-001

5.73582099206328e+004,-7.22091082040465e+000,-2.33374166090960e-001

5.81589006928121e+004,-7.22102764083650e+000,-2.36490493243921e-001

5.89707686916437e+004,-7.22114752869754e+000,-2.39644581831856e-001

5.97939699453972e+004,-7.22127055848941e+000,-2.42836733513877e-001

6.06286626604156e+004,-7.22139680619177e+000,-2.46067245820543e-001

6.14750072515201e+004,-7.22152634927217e+000,-2.49336411826111e-001

6.23331663728396e+004,-7.22165926669499e+000,-2.52644519812531e-001

6.32033049490698e+004,-7.22179563893117e+000,-2.55991852906147e-001

6.40855902071694e+004,-7.22193554796353e+000,-2.59378688724902e-001

6.49801917084985e+004,-7.22207907729310e+000,-2.62805298997953e-001

6.58872813814055e+004,-7.22222631194298e+000,-2.66271949179656e-001

6.68070335542691e+004,-7.22237733846103e+000,-2.69778898051105e-001

6.77396249890018e+004,-7.22253224491961e+000,-2.73326397314760e-001

6.86852349150199e+004,-7.22269112091536e+000,-2.76914691169402e-001

6.96440450636895e+004,-7.22285405756586e+000,-2.80544015877786e-001

7.06162397032520e+004,-7.22302114750438e+000,-2.84214599324851e-001

7.16020056742374e+004,-7.22319248487191e+000,-2.87926660565224e-001

7.26015324253724e+004,-7.22336816530915e+000,-2.91680409346782e-001

7.36150120499896e+004,-7.22354828594235e+000,-2.95476045646673e-001

7.46426393229441e+004,-7.22373294536992e+000,-2.99313759173996e-001

7.56846117380472e+004,-7.22392224364507e+000,-3.03193728870875e-001

7.67411295460207e+004,-7.22411628225486e+000,-3.07116122407125e-001

7.78123957929823e+004,-7.22431516409708e+000,-3.11081095661038e-001

7.88986163594682e+004,-7.22451899345450e+000,-3.15088792183587e-001

7.99999999999995e+004,-7.22472787596399e+000,-3.19139342669724e-001

8.11167583832018e+004,-7.22494191858486e+000,-3.23232864400370e-001

8.22491061324848e+004,-7.22516122956025e+000,-3.27369460698047e-001

8.33972608672892e+004,-7.22538591837817e+000,-3.31549220354020e-001

8.45614432449099e+004,-7.22561609572586e+000,-3.35772217065595e-001

8.57418770029029e+004,-7.22585187344211e+000,-3.40038508852319e-001

8.69387890020841e+004,-7.22609336446327e+000,-3.44348137482767e-001

8.81524092701283e+004,-7.22634068276676e+000,-3.48701127882030e-001

8.93829710457770e+004,-7.22659394330945e+000,-3.53097487539018e-001

9.06307108236633e+004,-7.22685326195994e+000,-3.57537205921327e-001

9.18958683997622e+004,-7.22711875542767e+000,-3.62020253876857e-001

9.31786869174758e+004,-7.22739054118622e+000,-3.66546583037427e-001

9.44794129143618e+004,-7.22766873739152e+000,-3.71116125226220e-001

9.57982963695136e+004,-7.22795346279428e+000,-3.75728791867059e-001

9.71355907516031e+004,-7.22824483664731e+000,-3.80384473395572e-001

9.84915530675926e+004,-7.22854297860670e+000,-3.85083038678481e-001

9.98664439121282e+004,-7.22884800862801e+000,-3.89824334435913e-001

1.01260527517622e+005,-7.22916004685574e+000,-3.94608184673564e-001

1.02674071805032e+005,-7.22947921350631e+000,-3.99434390131536e-001

1.04107348435354e+005,-7.22980562874646e+000,-4.04302727734221e-001

1.05560632861831e+005,-7.23013941256342e+000,-4.09212950065977e-001

1.07034204382888e+005,-7.23048068462994e+000,-4.14164784855852e-001

1.08528346195813e+005,-7.23082956416210e+000,-4.19157934487335e-001

1.10043345451179e+005,-7.23118616977165e+000,-4.24192075519616e-001

1.11579493308032e+005,-7.23155061930939e+000,-4.29266858249808e-001

1.13137084989847e+005,-7.23192302970538e+000,-4.34381906278312e-001

1.14716419841265e+005,-7.23230351679876e+000,-4.39536816126970e-001

1.16317801385624e+005,-7.23269219516359e+000,-4.44731156871363e-001

1.17941537383287e+005,-7.23308917792682e+000,-4.49964469815460e-001

1.19587939890794e+005,-7.23349457657979e+000,-4.55236268203496e-001

1.21257325320831e+005,-7.23390850078328e+000,-4.60546036969608e-001

1.22950014503040e+005,-7.23433105816616e+000,-4.65893232532882e-001

1.24666332745679e+005,-7.23476235411694e+000,-4.71277282641865e-001

1.26406609898139e+005,-7.23520249157109e+000,-4.76697586257145e-001

1.28171180414339e+005,-7.23565157078948e+000,-4.82153513505419e-001

1.29960383416997e+005,-7.23610968913315e+000,-4.87644405674376e-001

1.31774562762811e+005,-7.23657694083202e+000,-4.93169575272937e-001

1.33614067108538e+005,-7.23705341674780e+000,-4.98728306154544e-001

1.35479249978003e+005,-7.23753920413226e+000,-5.04319853705994e-001

1.37370469830040e+005,-7.23803438638054e+000,-5.09943445106570e-001

1.39288090127379e+005,-7.23853904278060e+000,-5.15598279658376e-001

1.41232479406504e+005,-7.23905324825873e+000,-5.21283529191925e-001

1.43204011348474e+005,-7.23957707312155e+000,-5.26998338551325e-001

1.45203064850745e+005,-7.24011058279455e+000,-5.32741826166170e-001

1.47230024099979e+005,-7.24065383755946e+000,-5.38513084699141e-001

1.49285278645888e+005,-7.24120689228887e+000,-5.44311181789319e-001

1.51369223476094e+005,-7.24176979618001e+000,-5.50135160882528e-001

1.53482259092041e+005,-7.24234259248800e+000,-5.55984042154860e-001

1.55624791585964e+005,-7.24292531825968e+000,-5.61856823530347e-001

1.57797232718936e+005,-7.24351800406732e+000,-5.67752481800793e-001

1.59999999999999e+005,-7.24412067374539e+000,-5.73669973837874e-001

1.62233516766403e+005,-7.24473334412874e+000,-5.79608237911713e-001

1.64498212264969e+005,-7.24535602479493e+000,-5.85566195108388e-001

1.66794521734578e+005,-7.24598871781028e+000,-5.91542750852489e-001

1.69122886489819e+005,-7.24663141748083e+000,-5.97536796535308e-001

1.71483754005805e+005,-7.24728411011102e+000,-6.03547211238242e-001

1.73877578004168e+005,-7.24794677376699e+000,-6.09572863574826e-001

1.76304818540256e+005,-7.24861937805001e+000,-6.15612613623426e-001

1.78765942091554e+005,-7.24930188387750e+000,-6.21665314971828e-001

1.81261421647326e+005,-7.24999424327557e+000,-6.27729816856152e-001

1.83791736799524e+005,-7.25069639918100e+000,-6.33804966407287e-001

1.86357373834951e+005,-7.25140828525671e+000,-6.39889610989745e-001

1.88958825828723e+005,-7.25212982571961e+000,-6.45982600637682e-001

1.91596592739027e+005,-7.25286093518324e+000,-6.52082790580560e-001

1.94271181503206e+005,-7.25360151851485e+000,-6.58189043862382e-001

1.96983106135185e+005,-7.25435147070947e+000,-6.64300234038878e-001

1.99732887824256e+005,-7.25511067678074e+000,-6.70415247957764e-001

2.02521055035243e+005,-7.25587901167001e+000,-6.76532988611559e-001

2.05348143610063e+005,-7.25665634017441e+000,-6.82652378061126e-001

2.08214696870707e+005,-7.25744251689481e+000,-6.88772360419430e-001

2.11121265723661e+005,-7.25823738620475e+000,-6.94891904891931e-001

2.14068408765776e+005,-7.25904078224091e+000,-7.01010008864557e-001

2.17056692391625e+005,-7.25985252891571e+000,-7.07125701033023e-001

2.20086690902357e+005,-7.26067243995264e+000,-7.13238044566610e-001

2.23158986616063e+005,-7.26150031894528e+000,-7.19346140294246e-001

2.26274169979693e+005,-7.26233595944056e+000,-7.25449129905929e-001

2.29432839682530e+005,-7.26317914504572e+000,-7.31546199162933e-001

2.32635602771247e+005,-7.26402964956050e+000,-7.37636581103193e-001

2.35883074766574e+005,-7.26488723713418e+000,-7.43719559233269e-001

2.39175879781588e+005,-7.26575166244795e+000,-7.49794470696559e-001

2.42514650641661e+005,-7.26662267092115e+000,-7.55860709416064e-001

2.45900029006080e+005,-7.26749999894445e+000,-7.61917729180841e-001

2.49332665491357e+005,-7.26838337413627e+000,-7.67965046690446e-001

2.52813219796278e+005,-7.26927251562423e+000,-7.74002244531036e-001

2.56342360828676e+005,-7.27016713435116e+000,-7.80028974074686e-001

2.59920766833993e+005,-7.27106693340429e+000,-7.86044958296469e-001

2.63549125525621e+005,-7.27197160836717e+000,-7.92049994499659e-001

2.67228134217075e+005,-7.27288084769411e+000,-7.98043956931604e-001

2.70958499956006e+005,-7.27379433310626e+000,-8.04026799287710e-001

2.74740939660078e+005,-7.27471174000758e+000,-8.09998557092382e-001

2.78576180254757e+005,-7.27563273792015e+000,-8.15959349947204e-001

2.82464958813007e+005,-7.27655699093817e+000,-8.21909383638204e-001

2.86408022696948e+005,-7.27748415819834e+000,-8.27848952094768e-001

2.90406129701488e+005,-7.27841389436561e+000,-8.33778439195075e-001

2.94460048199957e+005,-7.27934585013387e+000,-8.39698320402980e-001

2.98570557291775e+005,-7.28027967273836e+000,-8.45609164243370e-001

3.02738446952187e+005,-7.28121500647932e+000,-8.51511633598419e-001

3.06964518184081e+005,-7.28215149325542e+000,-8.57406486826249e-001

3.11249583171928e+005,-7.28308877310413e+000,-8.63294578698526e-001

3.15594465437872e+005,-7.28402648474866e+000,-8.69176861149869e-001

3.19999999999997e+005,-7.28496426614879e+000,-8.75054383839968e-001

3.24467033532806e+005,-7.28590175505374e+000,-8.80928294528019e-001

3.28996424529938e+005,-7.28683858955627e+000,-8.86799839253072e-001

3.33589043469155e+005,-7.28777440864477e+000,-8.92670362328639e-001

3.38245772979638e+005,-7.28870885275293e+000,-8.98541306144728e-001

3.42967508011610e+005,-7.28964156430445e+000,-9.04414210782480e-001

3.47755156008335e+005,-7.29057218825020e+000,-9.10290713450891e-001

3.52609637080511e+005,-7.29150037259865e+000,-9.16172547732055e-001

3.57531884183106e+005,-7.29242576893511e+000,-9.22061542658215e-001

3.62522843294651e+005,-7.29334803292946e+000,-9.27959621614522e-001

3.67583473599047e+005,-7.29426682483126e+000,-9.33868801073876e-001

3.72714747669902e+005,-7.29518180994949e+000,-9.39791189174923e-001

3.77917651657445e+005,-7.29609265911667e+000,-9.45728984146949e-001

3.83193185478053e+005,-7.29699904913533e+000,-9.51684472588936e-001

3.88542363006410e+005,-7.29790066320586e+000,-9.57660027613897e-001

3.93966212270369e+005,-7.29879719133463e+000,-9.63658106863257e-001

3.99465775648511e+005,-7.29968833072166e+000,-9.69681250401310e-001

4.05042110070485e+005,-7.30057378612534e+000,-9.75732078507659e-001

4.10696287220124e+005,-7.30145327020626e+000,-9.81813289358383e-001

4.16429393741414e+005,-7.30232650384655e+000,-9.87927656627886e-001

4.22242531447321e+005,-7.30319321644542e+000,-9.94078027007297e-001

4.28136817531551e+005,-7.30405314619159e+000,-1.00026731765057e+000

4.34113384783250e+005,-7.30490604030912e+000,-1.00649851356999e+000

4.40173381804713e+005,-7.30575165527996e+000,-1.01277466497547e+000

4.46317973232124e+005,-7.30658975704014e+000,-1.01909888458237e+000

4.52548339959385e+005,-7.30742012115172e+000,-1.02547434488775e+000

4.58865679365059e+005,-7.30824253294909e+000,-1.03190427543115e+000

4.65271205542494e+005,-7.30905678766036e+000,-1.03839196005053e+000

4.71766149533147e+005,-7.30986269050475e+000,-1.04494073413439e+000

4.78351759563174e+005,-7.31066005676429e+000,-1.05155398189455e+000

4.85029301283321e+005,-7.31144871183326e+000,-1.05823513365279e+000

4.91800058012158e+005,-7.31222849124335e+000,-1.06498766316032e+000

4.98665330982714e+005,-7.31299924066591e+000,-1.07181508495769e+000

5.05626439592555e+005,-7.31376081589297e+000,-1.07872095177712e+000

5.12684721657352e+005,-7.31451308279602e+000,-1.08570885200207e+000

5.19841533667984e+005,-7.31525591726486e+000,-1.09278240718633e+000

5.27098251051240e+005,-7.31598920512650e+000,-1.09994526964022e+000

5.34456268434150e+005,-7.31671284204559e+000,-1.10720112009013e+000

5.41916999912011e+005,-7.31742673340588e+000,-1.11455366542273e+000

