Freq.,VOut,OutRef

1.00000000000000e+004,-1.83466229910777e+001,-1.81596253952216e-001

1.01395947979003e+004,-1.83466251277457e+001,-1.84130843673286e-001

1.02811382665607e+004,-1.83466273243740e+001,-1.86700798006673e-001

1.04246576084112e+004,-1.83466295826420e+001,-1.89306609905476e-001

1.05701804056138e+004,-1.83466319042761e+001,-1.91948779174474e-001

1.07177346253629e+004,-1.83466342910508e+001,-1.94627812563670e-001

1.08673486252606e+004,-1.83466367447901e+001,-1.97344223865008e-001

1.10190511587661e+004,-1.83466392673689e+001,-2.00098534005768e-001

1.11728713807222e+004,-1.83466418607141e+001,-2.02891271152904e-001

1.13288388529580e+004,-1.83466445268066e+001,-2.05722970807238e-001

1.14869835499703e+004,-1.83466472676825e+001,-2.08594175905202e-001

1.16473358646846e+004,-1.83466500854345e+001,-2.11505436922326e-001

1.18099266142953e+004,-1.83466529822136e+001,-2.14457311976398e-001

1.19747870461893e+004,-1.83466559602306e+001,-2.17450366932992e-001

1.21419488439505e+004,-1.83466590217582e+001,-2.20485175509868e-001

1.23114441334492e+004,-1.83466621691318e+001,-2.23562319385887e-001

1.24833054890161e+004,-1.83466654047523e+001,-2.26682388310677e-001

1.26575659397028e+004,-1.83466687310870e+001,-2.29845980213208e-001

1.28342589756290e+004,-1.83466721506719e+001,-2.33053701317832e-001

1.30134185544193e+004,-1.83466756661135e+001,-2.36306166252596e-001

1.31950791077289e+004,-1.83466792800907e+001,-2.39603998167448e-001

1.33792755478611e+004,-1.83466829953570e+001,-2.42947828849507e-001

1.35660432744767e+004,-1.83466868147420e+001,-2.46338298842557e-001

1.37554181813974e+004,-1.83466907411541e+001,-2.49776057564897e-001

1.39474366635040e+004,-1.83466947775823e+001,-2.53261763430895e-001

1.41421356237309e+004,-1.83466989270985e+001,-2.56796083975176e-001

1.43395524801583e+004,-1.83467031928598e+001,-2.60379695973477e-001

1.45397251732031e+004,-1.83467075781109e+001,-2.64013285572692e-001

1.47426921729110e+004,-1.83467120861861e+001,-2.67697548414939e-001

1.49484924863494e+004,-1.83467167205122e+001,-2.71433189768807e-001

1.51571656651040e+004,-1.83467214846110e+001,-2.75220924659587e-001

1.53687518128801e+004,-1.83467263821014e+001,-2.79061478000825e-001

1.55832915932100e+004,-1.83467314167026e+001,-2.82955584730755e-001

1.58008262372675e+004,-1.83467365922367e+001,-2.86903989944169e-001

1.60213975517924e+004,-1.83467419126313e+001,-2.90907449034934e-001

1.62450479271247e+004,-1.83467473819222e+001,-2.94966727832627e-001

1.64718203453514e+004,-1.83467530042568e+001,-2.99082602743861e-001

1.67017583885674e+004,-1.83467587838971e+001,-3.03255860894987e-001

1.69349062472505e+004,-1.83467647252225e+001,-3.07487300277374e-001

1.71713087287550e+004,-1.83467708327327e+001,-3.11777729894653e-001

1.74110112659224e+004,-1.83467771110519e+001,-3.16127969909365e-001

1.76540599258131e+004,-1.83467835649312e+001,-3.20538851794287e-001

1.79005014185594e+004,-1.83467901992525e+001,-3.25011218484002e-001

1.81503831063432e+004,-1.83467970190319e+001,-3.29545924530668e-001

1.84037530124975e+004,-1.83468040294234e+001,-3.34143836256070e-001

1.86606598307361e+004,-1.83468112357222e+001,-3.38805831914373e-001

1.89211529345119e+004,-1.83468186433692e+001,-3.43532801846089e-001

1.91852823865052e+004,-1.83468262579542e+001,-3.48325648646158e-001

1.94530989482457e+004,-1.83468340852202e+001,-3.53185287321371e-001

1.97246540898671e+004,-1.83468421310674e+001,-3.58112645461686e-001

1.99999999999999e+004,-1.83468504015573e+001,-3.63108663403763e-001

2.02791895958005e+004,-1.83468589029176e+001,-3.68174294401117e-001

2.05622765331213e+004,-1.83468676415455e+001,-3.73310504797767e-001

2.08493152168224e+004,-1.83468766240131e+001,-3.78518274200686e-001

2.11403608112276e+004,-1.83468858570716e+001,-3.83798595655944e-001

2.14354692507258e+004,-1.83468953476562e+001,-3.89152475825504e-001

2.17346972505211e+004,-1.83469051028907e+001,-3.94580935169171e-001

2.20381023175322e+004,-1.83469151300929e+001,-4.00085008123704e-001

2.23457427614443e+004,-1.83469254367792e+001,-4.05665743290815e-001

2.26576777059159e+004,-1.83469360306702e+001,-4.11324203619075e-001

2.29739670999406e+004,-1.83469469196956e+001,-4.17061466596347e-001

2.32946717293690e+004,-1.83469581120000e+001,-4.22878624438087e-001

2.36198532285905e+004,-1.83469696159483e+001,-4.28776784280827e-001

2.39495740923785e+004,-1.83469814401318e+001,-4.34757068375412e-001

2.42838976879009e+004,-1.83469935933733e+001,-4.40820614288134e-001

2.46228882668982e+004,-1.83470060847338e+001,-4.46968575094747e-001

2.49666109780322e+004,-1.83470189235182e+001,-4.53202119586594e-001

2.53151318794055e+004,-1.83470321192818e+001,-4.59522432471234e-001

2.56685179512580e+004,-1.83470456818365e+001,-4.65930714579599e-001

2.60268371088386e+004,-1.83470596212576e+001,-4.72428183075274e-001

2.63901582154578e+004,-1.83470739478901e+001,-4.79016071662037e-001

2.67585510957221e+004,-1.83470886723562e+001,-4.85695630798879e-001

2.71320865489533e+004,-1.83471038055617e+001,-4.92468127913908e-001

2.75108363627948e+004,-1.83471193587033e+001,-4.99334847622139e-001

2.78948733270080e+004,-1.83471353432761e+001,-5.06297091944130e-001

2.82842712474618e+004,-1.83471517710807e+001,-5.13356180529080e-001

2.86791049603164e+004,-1.83471686542315e+001,-5.20513450875260e-001

2.90794503464061e+004,-1.83471860051637e+001,-5.27770258561246e-001

2.94853843458219e+004,-1.83472038366418e+001,-5.35127977469690e-001

2.98969849726987e+004,-1.83472221617674e+001,-5.42588000021154e-001

3.03143313302078e+004,-1.83472409939879e+001,-5.50151737405523e-001

3.07375036257601e+004,-1.83472603471042e+001,-5.57820619818343e-001

3.11665831864199e+004,-1.83472802352801e+001,-5.65596096697431e-001

3.16016524745350e+004,-1.83473006730509e+001,-5.73479636961439e-001

3.20427951035848e+004,-1.83473216753319e+001,-5.81472729255585e-001

3.24900958542493e+004,-1.83473432574280e+001,-5.89576882191954e-001

3.29436406907028e+004,-1.83473654350432e+001,-5.97793624597454e-001

3.34035167771346e+004,-1.83473882242894e+001,-6.06124505763502e-001

3.38698124945009e+004,-1.83474116416964e+001,-6.14571095695142e-001

3.43426174575100e+004,-1.83474357042219e+001,-6.23134985365462e-001

3.48220225318448e+004,-1.83474604292614e+001,-6.31817786969401e-001

3.53081198516260e+004,-1.83474858346582e+001,-6.40621134183380e-001

3.58010028371187e+004,-1.83475119387137e+001,-6.49546682422579e-001

3.63007662126863e+004,-1.83475387601983e+001,-6.58596109104701e-001

3.68075060249948e+004,-1.83475663183620e+001,-6.67771113910941e-001

3.73213196614721e+004,-1.83475946329445e+001,-6.77073419056269e-001

3.78423058690237e+004,-1.83476237241876e+001,-6.86504769552899e-001

3.83705647730104e+004,-1.83476536128448e+001,-6.96066933483853e-001

3.89061978964912e+004,-1.83476843201942e+001,-7.05761702272552e-001

3.94493081797342e+004,-1.83477158680486e+001,-7.15590890959480e-001

3.99999999999998e+004,-1.83477482787680e+001,-7.25556338476157e-001

4.05583791916010e+004,-1.83477815752714e+001,-7.35659907924237e-001

4.11245530662425e+004,-1.83478157810481e+001,-7.45903486854729e-001

4.16986304336447e+004,-1.83478509201705e+001,-7.56288987551509e-001

4.22807216224550e+004,-1.83478870173060e+001,-7.66818347312977e-001

4.28709385014515e+004,-1.83479240977290e+001,-7.77493528740645e-001

4.34693945010421e+004,-1.83479621873341e+001,-7.88316520022474e-001

4.40762046350642e+004,-1.83480013126481e+001,-7.99289335226619e-001

4.46914855228886e+004,-1.83480415008430e+001,-8.10414014588506e-001

4.53153554118317e+004,-1.83480827797482e+001,-8.21692624805997e-001

4.59479341998812e+004,-1.83481251778643e+001,-8.33127259332616e-001

4.65893434587380e+004,-1.83481687243750e+001,-8.44720038675349e-001

4.72397064571810e+004,-1.83482134491610e+001,-8.56473110688391e-001

4.78991481847569e+004,-1.83482593828122e+001,-8.68388650875988e-001

4.85677953758016e+004,-1.83483065566415e+001,-8.80468862692036e-001

4.92457765337964e+004,-1.83483550026974e+001,-8.92715977841928e-001

4.99332219560642e+004,-1.83484047537772e+001,-9.05132256586176e-001

5.06302637588109e+004,-1.83484558434403e+001,-9.17719988045653e-001

5.13370359025159e+004,-1.83485083060211e+001,-9.30481490508420e-001

5.20536742176771e+004,-1.83485621766418e+001,-9.43419111737114e-001

5.27803164309155e+004,-1.83486174912257e+001,-9.56535229278528e-001

5.35171021914442e+004,-1.83486742865099e+001,-9.69832250773491e-001

5.42641730979066e+004,-1.83487326000580e+001,-9.83312614269563e-001

5.50216727255895e+004,-1.83487924702727e+001,-9.96978788532576e-001

5.57897466540159e+004,-1.83488539364084e+001,-1.01083327336246e+000

5.65685424949235e+004,-1.83489170385832e+001,-1.02487859990830e+000

5.73582099206328e+004,-1.83489818177912e+001,-1.03911733098444e+000

5.81589006928121e+004,-1.83490483159141e+001,-1.05355206138825e+000

5.89707686916437e+004,-1.83491165757327e+001,-1.06818541821999e+000

5.97939699453972e+004,-1.83491866409384e+001,-1.08302006120274e+000

6.06286626604156e+004,-1.83492585561437e+001,-1.09805868300311e+000

6.14750072515201e+004,-1.83493323668931e+001,-1.11330400955529e+000

6.23331663728396e+004,-1.83494081196724e+001,-1.12875880038374e+000

6.32033049490698e+004,-1.83494858619193e+001,-1.14442584892854e+000

6.40855902071694e+004,-1.83495656420320e+001,-1.16030798287227e+000

6.49801917084985e+004,-1.83496475093774e+001,-1.17640806446739e+000

6.58872813814055e+004,-1.83497315142999e+001,-1.19272899086548e+000

6.68070335542691e+004,-1.83498177081280e+001,-1.20927369444866e+000

6.77396249890018e+004,-1.83499061431817e+001,-1.22604514315976e+000

6.86852349150199e+004,-1.83499968727774e+001,-1.24304634083897e+000

6.96440450636895e+004,-1.83500899512342e+001,-1.26028032755752e+000

7.06162397032520e+004,-1.83501854338771e+001,-1.27775017995637e+000

7.16020056742374e+004,-1.83502833770415e+001,-1.29545901158414e+000

7.26015324253724e+004,-1.83503838380745e+001,-1.31340997324144e+000

7.36150120499896e+004,-1.83504868753374e+001,-1.33160625332229e+000

7.46426393229441e+004,-1.83505925482051e+001,-1.35005107816299e+000

7.56846117380472e+004,-1.83507009170662e+001,-1.36874771239064e+000

7.67411295460207e+004,-1.83508120433202e+001,-1.38769945927554e+000

7.78123957929823e+004,-1.83509259893747e+001,-1.40690966108782e+000

7.88986163594682e+004,-1.83510428186408e+001,-1.42638169945637e+000

7.99999999999995e+004,-1.83511625955266e+001,-1.44611899573230e+000

8.11167583832018e+004,-1.83512853854305e+001,-1.46612501135674e+000

8.22491061324848e+004,-1.83514112547312e+001,-1.48640324823338e+000

8.33972608672892e+004,-1.83515402707780e+001,-1.50695724910490e+000

8.45614432449099e+004,-1.83516725018776e+001,-1.52779059793752e+000

8.57418770029029e+004,-1.83518080172803e+001,-1.54890692030885e+000

8.69387890020841e+004,-1.83519468871640e+001,-1.57030988380268e+000

8.81524092701283e+004,-1.83520891826163e+001,-1.59200319841336e+000

8.93829710457770e+004,-1.83522349756145e+001,-1.61399061695433e+000

9.06307108236633e+004,-1.83523843390034e+001,-1.63627593547746e+000

9.18958683997622e+004,-1.83525373464717e+001,-1.65886299369960e+000

9.31786869174758e+004,-1.83526940725252e+001,-1.68175567544096e+000

9.44794129143618e+004,-1.83528545924581e+001,-1.70495790907122e+000

9.57982963695136e+004,-1.83530189823224e+001,-1.72847366797011e+000

9.71355907516031e+004,-1.83531873188942e+001,-1.75230697099656e+000

9.84915530675926e+004,-1.83533596796377e+001,-1.77646188297418e+000

9.98664439121282e+004,-1.83535361426669e+001,-1.80094251518863e+000

1.01260527517622e+005,-1.83537167867046e+001,-1.82575302590080e+000

1.02674071805032e+005,-1.83539016910382e+001,-1.85089762087652e+000

1.04107348435354e+005,-1.83540909354741e+001,-1.87638055393160e+000

1.05560632861831e+005,-1.83542846002873e+001,-1.90220612749813e+000

1.07034204382888e+005,-1.83544827661705e+001,-1.92837869320770e+000

1.08528346195813e+005,-1.83546855141787e+001,-1.95490265249668e+000

1.10043345451179e+005,-1.83548929256717e+001,-1.98178245723393e+000

1.11579493308032e+005,-1.83551050822534e+001,-2.00902261037231e+000

1.13137084989847e+005,-1.83553220657084e+001,-2.03662766662238e+000

1.14716419841265e+005,-1.83555439579358e+001,-2.06460223315718e+000

1.16317801385624e+005,-1.83557708408802e+001,-2.09295097034106e+000

1.17941537383287e+005,-1.83560027964590e+001,-2.12167859249062e+000

1.19587939890794e+005,-1.83562399064886e+001,-2.15078986866436e+000

1.21257325320831e+005,-1.83564822526059e+001,-2.18028962348760e+000

1.22950014503040e+005,-1.83567299161885e+001,-2.21018273801101e+000

1.24666332745679e+005,-1.83569829782716e+001,-2.24047415060418e+000

1.26406609898139e+005,-1.83572415194626e+001,-2.27116885788960e+000

1.28171180414339e+005,-1.83575056198533e+001,-2.30227191571372e+000

1.29960383416997e+005,-1.83577753589292e+001,-2.33378844016207e+000

1.31774562762811e+005,-1.83580508154774e+001,-2.36572360861562e+000

1.33614067108538e+005,-1.83583320674924e+001,-2.39808266085449e+000

1.35479249978003e+005,-1.83586191920789e+001,-2.43087090020621e+000

1.37370469830040e+005,-1.83589122653544e+001,-2.46409369474609e+000

1.39288090127379e+005,-1.83592113623496e+001,-2.49775647854453e+000

1.41232479406504e+005,-1.83595165569074e+001,-2.53186475297018e+000

1.43204011348474e+005,-1.83598279215813e+001,-2.56642408804501e+000

1.45203064850745e+005,-1.83601455275325e+001,-2.60144012385658e+000

1.47230024099979e+005,-1.83604694444275e+001,-2.63691857202822e+000

1.49285278645888e+005,-1.83607997403345e+001,-2.67286521724591e+000

1.51369223476094e+005,-1.83611364816209e+001,-2.70928591884995e+000

1.53482259092041e+005,-1.83614797328505e+001,-2.74618661248561e+000

1.55624791585964e+005,-1.83618295566821e+001,-2.78357331181940e+000

1.57797232718936e+005,-1.83621860137696e+001,-2.82145211031841e+000

1.59999999999999e+005,-1.83625491626632e+001,-2.85982918309728e+000

1.62233516766403e+005,-1.83629190597135e+001,-2.89871078883235e+000

1.64498212264969e+005,-1.83632957589772e+001,-2.93810327174234e+000

1.66794521734578e+005,-1.83636793121269e+001,-2.97801306363841e+000

1.69122886489819e+005,-1.83640697683639e+001,-3.01844668604523e+000

1.71483754005805e+005,-1.83644671743348e+001,-3.05941075238807e+000

1.73877578004168e+005,-1.83648715740535e+001,-3.10091197025404e+000

1.76304818540256e+005,-1.83652830088269e+001,-3.14295714372010e+000

1.78765942091554e+005,-1.83657015171882e+001,-3.18555317575238e+000

1.81261421647326e+005,-1.83661271348339e+001,-3.22870707067487e+000

1.83791736799524e+005,-1.83665598945696e+001,-3.27242593670645e+000

1.86357373834951e+005,-1.83669998262622e+001,-3.31671698856558e+000

1.88958825828723e+005,-1.83674469567993e+001,-3.36158755014342e+000

1.91596592739027e+005,-1.83679013100583e+001,-3.40704505723965e+000

1.94271181503206e+005,-1.83683629068831e+001,-3.45309706036637e+000

1.96983106135185e+005,-1.83688317650711e+001,-3.49975122760931e+000

1.99732887824256e+005,-1.83693078993698e+001,-3.54701534755288e+000

2.02521055035243e+005,-1.83697913214837e+001,-3.59489733226137e+000

2.05348143610063e+005,-1.83702820400933e+001,-3.64340522031446e+000

2.08214696870707e+005,-1.83707800608834e+001,-3.69254717989702e+000

2.11121265723661e+005,-1.83712853865858e+001,-3.74233151193609e+000

2.14068408765776e+005,-1.83717980170330e+001,-3.79276665328465e+000

2.17056692391625e+005,-1.83723179492243e+001,-3.84386117994759e+000

2.20086690902357e+005,-1.83728451774066e+001,-3.89562381034591e+000

2.23158986616063e+005,-1.83733796931673e+001,-3.94806340861539e+000

2.26274169979693e+005,-1.83739214855415e+001,-4.00118898793547e+000

2.29432839682530e+005,-1.83744705411338e+001,-4.05500971388415e+000

2.32635602771247e+005,-1.83750268442529e+001,-4.10953490781510e+000

2.35883074766574e+005,-1.83755903770627e+001,-4.16477405024925e+000

2.39175879781588e+005,-1.83761611197464e+001,-4.22073678428151e+000

2.42514650641661e+005,-1.83767390506859e+001,-4.27743291899097e+000

2.45900029006080e+005,-1.83773241466559e+001,-4.33487243285687e+000

2.49332665491357e+005,-1.83779163830327e+001,-4.39306547716876e+000

2.52813219796278e+005,-1.83785157340171e+001,-4.45202237943084e+000

2.56342360828676e+005,-1.83791221728728e+001,-4.51175364675200e+000

2.59920766833993e+005,-1.83797356721777e+001,-4.57226996921938e+000

2.63549125525621e+005,-1.83803562040906e+001,-4.63358222324846e+000

2.67228134217075e+005,-1.83809837406307e+001,-4.69570147490582e+000

2.70958499956006e+005,-1.83816182539705e+001,-4.75863898320014e+000

2.74740939660078e+005,-1.83822597167424e+001,-4.82240620333638e+000

2.78576180254757e+005,-1.83829081023570e+001,-4.88701478992946e+000

2.82464958813007e+005,-1.83835633853337e+001,-4.95247660017289e+000

2.86408022696948e+005,-1.83842255416430e+001,-5.01880369695766e+000

2.90406129701488e+005,-1.83848945490590e+001,-5.08600835194128e+000

2.94460048199957e+005,-1.83855703875231e+001,-5.15410304855819e+000

2.98570557291775e+005,-1.83862530395159e+001,-5.22310048497439e+000

3.02738446952187e+005,-1.83869424904397e+001,-5.29301357697832e+000

3.06964518184081e+005,-1.83876387290070e+001,-5.36385546081126e+000

3.11249583171928e+005,-1.83883417476382e+001,-5.43563949592935e+000

3.15594465437872e+005,-1.83890515428646e+001,-5.50837926770170e+000

3.19999999999997e+005,-1.83897681157381e+001,-5.58208859003833e+000

3.24467033532806e+005,-1.83904914722449e+001,-5.65678150795083e+000

3.28996424529938e+005,-1.83912216237241e+001,-5.73247230004420e+000

3.33589043469155e+005,-1.83919585872891e+001,-5.80917548093894e+000

3.38245772979638e+005,-1.83927023862522e+001,-5.88690580362627e+000

3.42967508011610e+005,-1.83934530505497e+001,-5.96567826175508e+000

3.47755156008335e+005,-1.83942106171693e+001,-6.04550809185441e+000

3.52609637080511e+005,-1.83949751305772e+001,-6.12641077548969e+000

3.57531884183106e+005,-1.83957466431436e+001,-6.20840204135911e+000

3.62522843294651e+005,-1.83965252155687e+001,-6.29149786732984e+000

3.67583473599047e+005,-1.83973109173056e+001,-6.37571448241698e+000

3.72714747669902e+005,-1.83981038269805e+001,-6.46106836871029e+000

3.77917651657445e+005,-1.83989040328104e+001,-6.54757626325033e+000

3.83193185478053e+005,-1.83997116330168e+001,-6.63525515985851e+000

3.88542363006410e+005,-1.84005267362345e+001,-6.72412231092505e+000

3.93966212270369e+005,-1.84013494619172e+001,-6.81419522915966e+000

3.99465775648511e+005,-1.84021799407362e+001,-6.90549168930808e+000

4.05042110070485e+005,-1.84030183149748e+001,-6.99802972984060e+000

4.10696287220124e+005,-1.84038647389170e+001,-7.09182765461623e+000

4.16429393741414e+005,-1.84047193792294e+001,-7.18690403452834e+000

4.22242531447321e+005,-1.84055824153380e+001,-7.28327770913573e+000

4.28136817531551e+005,-1.84064540397979e+001,-7.38096778828505e+000

4.34113384783250e+005,-1.84073344586575e+001,-7.47999365372954e+000

4.40173381804713e+005,-1.84082238918154e+001,-7.58037496074832e+000

4.46317973232124e+005,-1.84091225733720e+001,-7.68213163977205e+000

4.52548339959385e+005,-1.84100307519750e+001,-7.78528389802024e+000

4.58865679365059e+005,-1.84109486911580e+001,-7.88985222115341e+000

4.65271205542494e+005,-1.84118766696746e+001,-7.99585737494682e+000

4.71766149533147e+005,-1.84128149818264e+001,-8.10332040698858e+000

4.78351759563174e+005,-1.84137639377860e+001,-8.21226264840830e+000

4.85029301283321e+005,-1.84147238639157e+001,-8.32270571563881e+000

4.91800058012158e+005,-1.84156951030817e+001,-8.43467151221584e+000

4.98665330982714e+005,-1.84166780149641e+001,-8.54818223061997e+000

5.05626439592555e+005,-1.84176729763645e+001,-8.66326035416226e+000

5.12684721657352e+005,-1.84186803815100e+001,-8.77992865891982e+000

5.19841533667984e+005,-1.84197006423555e+001,-8.89821021572231e+000

5.27098251051240e+005,-1.84207341888849e+001,-9.01812839219138e+000

5.34456268434150e+005,-1.84217814694097e+001,-9.13970685483868e+000

5.41916999912011e+005,-1.84228429508696e+001,-9.26296957122035e+000

