Freq.,VOut,OutRef

1.00000000000000e+004,-7.69361014586914e+000,-1.75240150986866e-002

1.01395947979003e+004,-7.69361019494047e+000,-1.77686303505382e-002

1.02811382665607e+004,-7.69361024538791e+000,-1.80166598457380e-002

1.04246576084112e+004,-7.69361029725096e+000,-1.82681512193242e-002

1.05701804056138e+004,-7.69361035056834e+000,-1.85231527828419e-002

1.07177346253629e+004,-7.69361040538156e+000,-1.87817135102737e-002

1.08673486252606e+004,-7.69361046173171e+000,-1.90438830683482e-002

1.10190511587661e+004,-7.69361051966220e+000,-1.93097118087752e-002

1.11728713807222e+004,-7.69361057921718e+000,-1.95792507882455e-002

1.13288388529580e+004,-7.69361064044202e+000,-1.98525517749552e-002

1.14869835499703e+004,-7.69361070338393e+000,-2.01296672551907e-002

1.16473358646846e+004,-7.69361076808968e+000,-2.04106504580662e-002

1.18099266142953e+004,-7.69361083460996e+000,-2.06955553375489e-002

1.19747870461893e+004,-7.69361090299443e+000,-2.09844366156405e-002

1.21419488439505e+004,-7.69361097329571e+000,-2.12773497664556e-002

1.23114441334492e+004,-7.69361104556772e+000,-2.15743510384977e-002

1.24833054890161e+004,-7.69361111986447e+000,-2.18754974728923e-002

1.26575659397028e+004,-7.69361119624384e+000,-2.21808468906854e-002

1.28342589756290e+004,-7.69361127476264e+000,-2.24904579355452e-002

1.30134185544193e+004,-7.69361135548174e+000,-2.28043900522375e-002

1.31950791077289e+004,-7.69361143846140e+000,-2.31227035289561e-002

1.33792755478611e+004,-7.69361152376567e+000,-2.34454594797084e-002

1.35660432744767e+004,-7.69361161145950e+000,-2.37727198754819e-002

1.37554181813974e+004,-7.69361170160870e+000,-2.41045475570458e-002

1.39474366635040e+004,-7.69361179428232e+000,-2.44410062309277e-002

1.41421356237309e+004,-7.69361188955058e+000,-2.47821604961259e-002

1.43395524801583e+004,-7.69361198748632e+000,-2.51280758466099e-002

1.45397251732031e+004,-7.69361208816292e+000,-2.54788186979555e-002

1.47426921729110e+004,-7.69361219165770e+000,-2.58344563788545e-002

1.49484924863494e+004,-7.69361229804859e+000,-2.61950571650177e-002

1.51571656651040e+004,-7.69361240741643e+000,-2.65606902779230e-002

1.53687518128801e+004,-7.69361251984427e+000,-2.69314259025709e-002

1.55832915932100e+004,-7.69361263541682e+000,-2.73073352063436e-002

1.58008262372675e+004,-7.69361275422257e+000,-2.76884903365919e-002

1.60213975517924e+004,-7.69361287635023e+000,-2.80749644602045e-002

1.62450479271247e+004,-7.69361300189290e+000,-2.84668317496466e-002

1.64718203453514e+004,-7.69361313094564e+000,-2.88641674135073e-002

1.67017583885674e+004,-7.69361326360572e+000,-2.92670477095619e-002

1.69349062472505e+004,-7.69361339997316e+000,-2.96755499566797e-002

1.71713087287550e+004,-7.69361354015154e+000,-3.00897525435285e-002

1.74110112659224e+004,-7.69361368424612e+000,-3.05097349578949e-002

1.76540599258131e+004,-7.69361383236613e+000,-3.09355777854645e-002

1.79005014185594e+004,-7.69361398462306e+000,-3.13673627380916e-002

1.81503831063432e+004,-7.69361414113137e+000,-3.18051726649523e-002

1.84037530124975e+004,-7.69361430200962e+000,-3.22490915605581e-002

1.86606598307361e+004,-7.69361446737798e+000,-3.26992045985635e-002

1.89211529345119e+004,-7.69361463736194e+000,-3.31555981233151e-002

1.91852823865052e+004,-7.69361481208830e+000,-3.36183596940083e-002

1.94530989482457e+004,-7.69361499168887e+000,-3.40875780762269e-002

1.97246540898671e+004,-7.69361517629870e+000,-3.45633432722746e-002

1.99999999999999e+004,-7.69361536605569e+000,-3.50457465404531e-002

2.02791895958005e+004,-7.69361556110308e+000,-3.55348803968124e-002

2.05622765331213e+004,-7.69361576158623e+000,-3.60308386550892e-002

2.08493152168224e+004,-7.69361596765562e+000,-3.65337164240226e-002

2.11403608112276e+004,-7.69361617946539e+000,-3.70436101366790e-002

2.14354692507258e+004,-7.69361639717416e+000,-3.75606175640008e-002

2.17346972505211e+004,-7.69361662094398e+000,-3.80848378393648e-002

2.20381023175322e+004,-7.69361685094275e+000,-3.86163714642571e-002

2.23457427614443e+004,-7.69361708734130e+000,-3.91553203450392e-002

2.26576777059159e+004,-7.69361733031613e+000,-3.97017877965017e-002

2.29739670999406e+004,-7.69361758004806e+000,-4.02558785702502e-002

2.32946717293690e+004,-7.69361783672341e+000,-4.08176988669149e-002

2.36198532285905e+004,-7.69361810053222e+000,-4.13873563695443e-002

2.39495740923785e+004,-7.69361837167087e+000,-4.19649602470070e-002

2.42838976879009e+004,-7.69361865034024e+000,-4.25506211873142e-002

2.46228882668982e+004,-7.69361893674707e+000,-4.31444514104792e-002

2.49666109780322e+004,-7.69361923110320e+000,-4.37465646957024e-002

2.53151318794055e+004,-7.69361953362656e+000,-4.43570763959805e-002

2.56685179512580e+004,-7.69361984454053e+000,-4.49761034662267e-002

2.60268371088386e+004,-7.69362016407466e+000,-4.56037644802566e-002

2.63901582154578e+004,-7.69362049246393e+000,-4.62401796596777e-002

2.67585510957221e+004,-7.69362082995080e+000,-4.68854708831865e-002

2.71320865489533e+004,-7.69362117678289e+000,-4.75397617255709e-002

2.75108363627948e+004,-7.69362153321517e+000,-4.82031774677281e-002

2.78948733270080e+004,-7.69362189950906e+000,-4.88758451267525e-002

2.82842712474618e+004,-7.69362227593284e+000,-4.95578934780404e-002

2.86791049603164e+004,-7.69362266276159e+000,-5.02494530809782e-002

2.90794503464061e+004,-7.69362306027778e+000,-5.09506562992907e-002

2.94853843458219e+004,-7.69362346877201e+000,-5.16616373236377e-002

2.98969849726987e+004,-7.69362388854092e+000,-5.23825322098318e-002

3.03143313302078e+004,-7.69362431989009e+000,-5.31134788872036e-002

3.07375036257601e+004,-7.69362476313272e+000,-5.38546171933030e-002

3.11665831864199e+004,-7.69362521859001e+000,-5.46060888991148e-002

3.16016524745350e+004,-7.69362568659134e+000,-5.53680377346605e-002

3.20427951035848e+004,-7.69362616747505e+000,-5.61406094126168e-002

3.24900958542493e+004,-7.69362666158751e+000,-5.69239516608630e-002

3.29436406907028e+004,-7.69362716928450e+000,-5.77182142442664e-002

3.34035167771346e+004,-7.69362769093054e+000,-5.85235489958247e-002

3.38698124945009e+004,-7.69362822690003e+000,-5.93401098394472e-002

3.43426174575100e+004,-7.69362877757603e+000,-6.01680528281182e-002

3.48220225318448e+004,-7.69362934335199e+000,-6.10075361612477e-002

3.53081198516260e+004,-7.69362992463105e+000,-6.18587202205235e-002

3.58010028371187e+004,-7.69363052182645e+000,-6.27217675978870e-002

3.63007662126863e+004,-7.69363113536188e+000,-6.35968431240043e-002

3.68075060249948e+004,-7.69363176567139e+000,-6.44841139008136e-002

3.73213196614721e+004,-7.69363241320034e+000,-6.53837493275396e-002

3.78423058690237e+004,-7.69363307840481e+000,-6.62959211360586e-002

3.83705647730104e+004,-7.69363376175218e+000,-6.72208034199554e-002

3.89061978964912e+004,-7.69363446372122e+000,-6.81585726680845e-002

3.94493081797342e+004,-7.69363518480246e+000,-6.91094077946854e-002

3.99999999999998e+004,-7.69363592549876e+000,-7.00734901694090e-002

4.05583791916010e+004,-7.69363668632516e+000,-7.10510036541670e-002

4.11245530662425e+004,-7.69363746780888e+000,-7.20421346360790e-002

4.16986304336447e+004,-7.69363827048960e+000,-7.30470720621089e-002

4.22807216224550e+004,-7.69363909492076e+000,-7.40660074658691e-002

4.28709385014515e+004,-7.69363994166832e+000,-7.50991350110821e-002

4.34693945010421e+004,-7.69364081131192e+000,-7.61466515218199e-002

4.40762046350642e+004,-7.69364170444479e+000,-7.72087565186746e-002

4.46914855228886e+004,-7.69364262167420e+000,-7.82856522538910e-002

4.53153554118317e+004,-7.69364356362162e+000,-7.93775437480360e-002

4.59479341998812e+004,-7.69364453092248e+000,-8.04846388291254e-002

4.65893434587380e+004,-7.69364552422791e+000,-8.16071481614510e-002

4.72397064571810e+004,-7.69364654420273e+000,-8.27452852954546e-002

4.78991481847569e+004,-7.69364759152765e+000,-8.38992666951245e-002

4.85677953758016e+004,-7.69364866689856e+000,-8.50693117807468e-002

4.92457765337964e+004,-7.69364977102711e+000,-8.62556429674526e-002

4.99332219560642e+004,-7.69365090464043e+000,-8.74584857059669e-002

5.06302637588109e+004,-7.69365206848196e+000,-8.86780685195728e-002

5.13370359025159e+004,-7.69365326331157e+000,-8.99146230448670e-002

5.20536742176771e+004,-7.69365448990547e+000,-9.11683840748831e-002

5.27803164309155e+004,-7.69365574905650e+000,-9.24395895985255e-002

5.35171021914442e+004,-7.69365704157482e+000,-9.37284808412401e-002

5.42641730979066e+004,-7.69365836828717e+000,-9.50353023118605e-002

5.50216727255895e+004,-7.69365973003803e+000,-9.63603018389620e-002

5.57897466540159e+004,-7.69366112768919e+000,-9.77037306189859e-002

5.65685424949235e+004,-7.69366256212045e+000,-9.90658432565986e-002

5.73582099206328e+004,-7.69366403422876e+000,-1.00446897814686e-001

5.81589006928121e+004,-7.69366554492994e+000,-1.01847155849624e-001

5.89707686916437e+004,-7.69366709515736e+000,-1.03266882466672e-001

5.97939699453972e+004,-7.69366868586255e+000,-1.04706346361549e-001

6.06286626604156e+004,-7.69367031801587e+000,-1.06165819864177e-001

6.14750072515201e+004,-7.69367199260591e+000,-1.07645578989698e-001

6.23331663728396e+004,-7.69367371063972e+000,-1.09145903485866e-001

6.32033049490698e+004,-7.69367547314320e+000,-1.10667076878154e-001

6.40855902071694e+004,-7.69367728116043e+000,-1.12209386523498e-001

6.49801917084985e+004,-7.69367913575444e+000,-1.13773123654772e-001

6.58872813814055e+004,-7.69368103800717e+000,-1.15358583431679e-001

6.68070335542691e+004,-7.69368298901879e+000,-1.16966064994268e-001

6.77396249890018e+004,-7.69368498990828e+000,-1.18595871510976e-001

6.86852349150199e+004,-7.69368704181268e+000,-1.20248310234609e-001

6.96440450636895e+004,-7.69368914588831e+000,-1.21923692545939e-001

7.06162397032520e+004,-7.69369130330884e+000,-1.23622334019049e-001

7.16020056742374e+004,-7.69369351526650e+000,-1.25344554465538e-001

7.26015324253724e+004,-7.69369578297142e+000,-1.27090677992546e-001

7.36150120499896e+004,-7.69369810765116e+000,-1.28861033059526e-001

7.46426393229441e+004,-7.69370049055091e+000,-1.30655952529839e-001

7.56846117380472e+004,-7.69370293293254e+000,-1.32475773733224e-001

7.67411295460207e+004,-7.69370543607539e+000,-1.34320838514918e-001

7.78123957929823e+004,-7.69370800127415e+000,-1.36191493304564e-001

7.88986163594682e+004,-7.69371062984005e+000,-1.38088089165176e-001

7.99999999999995e+004,-7.69371332309969e+000,-1.40010981857211e-001

8.11167583832018e+004,-7.69371608239418e+000,-1.41960531900477e-001

8.22491061324848e+004,-7.69371890907887e+000,-1.43937104634097e-001

8.33972608672892e+004,-7.69372180452308e+000,-1.45941070275805e-001

8.45614432449099e+004,-7.69372477010872e+000,-1.47972803990156e-001

8.57418770029029e+004,-7.69372780723025e+000,-1.50032685946642e-001

8.69387890020841e+004,-7.69373091729268e+000,-1.52121101393044e-001

8.81524092701283e+004,-7.69373410171232e+000,-1.54238440710369e-001

8.93829710457770e+004,-7.69373736191449e+000,-1.56385099488512e-001

9.06307108236633e+004,-7.69374069933303e+000,-1.58561478590849e-001

9.18958683997622e+004,-7.69374411540895e+000,-1.60767984223791e-001

9.31786869174758e+004,-7.69374761158990e+000,-1.63005028003993e-001

9.44794129143618e+004,-7.69375118932803e+000,-1.65273027033969e-001

9.57982963695136e+004,-7.69375485007967e+000,-1.67572403968795e-001

9.71355907516031e+004,-7.69375859530293e+000,-1.69903587095223e-001

9.84915530675926e+004,-7.69376242645680e+000,-1.72267010402826e-001

9.98664439121282e+004,-7.69376634499952e+000,-1.74663113659834e-001

1.01260527517622e+005,-7.69377035238710e+000,-1.77092342489590e-001

1.02674071805032e+005,-7.69377445007112e+000,-1.79555148452001e-001

1.04107348435354e+005,-7.69377863949709e+000,-1.82051989121277e-001

1.05560632861831e+005,-7.69378292210278e+000,-1.84583328166114e-001

1.07034204382888e+005,-7.69378729931598e+000,-1.87149635433715e-001

1.08528346195813e+005,-7.69379177255235e+000,-1.89751387034205e-001

1.10043345451179e+005,-7.69379634321369e+000,-1.92389065423335e-001

1.11579493308032e+005,-7.69380101268464e+000,-1.95063159495920e-001

1.13137084989847e+005,-7.69380578233148e+000,-1.97774164667393e-001

1.14716419841265e+005,-7.69381065349882e+000,-2.00522582969868e-001

1.16317801385624e+005,-7.69381562750718e+000,-2.03308923142785e-001

1.17941537383287e+005,-7.69382070565072e+000,-2.06133700725715e-001

1.19587939890794e+005,-7.69382588919402e+000,-2.08997438155564e-001

1.21257325320831e+005,-7.69383117936881e+000,-2.11900664869204e-001

1.22950014503040e+005,-7.69383657737233e+000,-2.14843917393450e-001

1.24666332745679e+005,-7.69384208436278e+000,-2.17827739456938e-001

1.26406609898139e+005,-7.69384770145720e+000,-2.20852682088748e-001

1.28171180414339e+005,-7.69385342972750e+000,-2.23919303727959e-001

1.29960383416997e+005,-7.69385927019773e+000,-2.27028170329936e-001

1.31774562762811e+005,-7.69386522384002e+000,-2.30179855480322e-001

1.33614067108538e+005,-7.69387129157175e+000,-2.33374940504991e-001

1.35479249978003e+005,-7.69387747425155e+000,-2.36614014588214e-001

1.37370469830040e+005,-7.69388377267550e+000,-2.39897674892248e-001

1.39288090127379e+005,-7.69389018757379e+000,-2.43226526675721e-001

1.41232479406504e+005,-7.69389671960665e+000,-2.46601183418951e-001

1.43204011348474e+005,-7.69390336936079e+000,-2.50022266949717e-001

1.45203064850745e+005,-7.69391013734520e+000,-2.53490407572773e-001

1.47230024099979e+005,-7.69391702398728e+000,-2.57006244203047e-001

1.49285278645888e+005,-7.69392402962894e+000,-2.60570424498897e-001

1.51369223476094e+005,-7.69393115452265e+000,-2.64183605001030e-001

1.53482259092041e+005,-7.69393839882722e+000,-2.67846451273569e-001

1.55624791585964e+005,-7.69394576260383e+000,-2.71559638048965e-001

1.57797232718936e+005,-7.69395324581222e+000,-2.75323849373427e-001

1.59999999999999e+005,-7.69396084830617e+000,-2.79139778760275e-001

1.62233516766403e+005,-7.69396856983000e+000,-2.83008129341201e-001

1.64498212264969e+005,-7.69397641001459e+000,-2.86929614022695e-001

1.66794521734578e+005,-7.69398436837274e+000,-2.90904955652040e-001

1.69122886489819e+005,-7.69399244429621e+000,-2.94934887174309e-001

1.71483754005805e+005,-7.69400063705148e+000,-2.99020151803246e-001

1.73877578004168e+005,-7.69400894577598e+000,-3.03161503191927e-001

1.76304818540256e+005,-7.69401736947449e+000,-3.07359705606224e-001

1.78765942091554e+005,-7.69402590701583e+000,-3.11615534102604e-001

1.81261421647326e+005,-7.69403455712922e+000,-3.15929774709341e-001

1.83791736799524e+005,-7.69404331840100e+000,-3.20303224612212e-001

1.86357373834951e+005,-7.69405218927182e+000,-3.24736692340360e-001

1.88958825828723e+005,-7.69406116803318e+000,-3.29230997961454e-001

1.91596592739027e+005,-7.69407025282544e+000,-3.33786973271916e-001

1.94271181503206e+005,-7.69407944163427e+000,-3.38405462001892e-001

1.96983106135185e+005,-7.69408873228910e+000,-3.43087320011683e-001

1.99732887824256e+005,-7.69409812246022e+000,-3.47833415502159e-001

2.02521055035243e+005,-7.69410760965759e+000,-3.52644629219899e-001

2.05348143610063e+005,-7.69411719122873e+000,-3.57521854670653e-001

2.08214696870707e+005,-7.69412686435723e+000,-3.62465998336318e-001

2.11121265723661e+005,-7.69413662606169e+000,-3.67477979892859e-001

2.14068408765776e+005,-7.69414647319492e+000,-3.72558732431763e-001

2.17056692391625e+005,-7.69415640244321e+000,-3.77709202685661e-001

2.20086690902357e+005,-7.69416641032608e+000,-3.82930351256289e-001

2.23158986616063e+005,-7.69417649319616e+000,-3.88223152846550e-001

2.26274169979693e+005,-7.69418664723958e+000,-3.93588596493362e-001

2.29432839682530e+005,-7.69419686847654e+000,-3.99027685804497e-001

2.32635602771247e+005,-7.69420715276228e+000,-4.04541439198886e-001

2.35883074766574e+005,-7.69421749578816e+000,-4.10130890148502e-001

2.39175879781588e+005,-7.69422789308362e+000,-4.15797087420848e-001

2.42514650641661e+005,-7.69423834001750e+000,-4.21541095329888e-001

2.45900029006080e+005,-7.69424883180084e+000,-4.27363993980506e-001

2.49332665491357e+005,-7.69425936348892e+000,-4.33266879524424e-001

2.52813219796278e+005,-7.69426992998453e+000,-4.39250864410180e-001

2.56342360828676e+005,-7.69428052604064e+000,-4.45317077641504e-001

2.59920766833993e+005,-7.69429114626448e+000,-4.51466665030763e-001

2.63549125525621e+005,-7.69430178512067e+000,-4.57700789462864e-001

2.67228134217075e+005,-7.69431243693552e+000,-4.64020631153325e-001

2.70958499956006e+005,-7.69432309590157e+000,-4.70427387909575e-001

2.74740939660078e+005,-7.69433375608169e+000,-4.76922275397744e-001

2.78576180254757e+005,-7.69434441141396e+000,-4.83506527407767e-001

2.82464958813007e+005,-7.69435505571718e+000,-4.90181396116317e-001

2.86408022696948e+005,-7.69436568269550e+000,-4.96948152358868e-001

2.90406129701488e+005,-7.69437628594386e+000,-5.03808085899455e-001

2.94460048199957e+005,-7.69438685895405e+000,-5.10762505697024e-001

2.98570557291775e+005,-7.69439739511997e+000,-5.17812740180610e-001

3.02738446952187e+005,-7.69440788774371e+000,-5.24960137520240e-001

3.06964518184081e+005,-7.69441833004130e+000,-5.32206065902320e-001

3.11249583171928e+005,-7.69442871514893e+000,-5.39551913802717e-001

3.15594465437872e+005,-7.69443903612874e+000,-5.46999090264894e-001

3.19999999999997e+005,-7.69444928597527e+000,-5.54549025174989e-001

3.24467033532806e+005,-7.69445945762112e+000,-5.62203169542244e-001

3.28996424529938e+005,-7.69446954394342e+000,-5.69962995776169e-001

3.33589043469155e+005,-7.69447953776941e+000,-5.77829997969810e-001

3.38245772979638e+005,-7.69448943188272e+000,-5.85805692180205e-001

3.42967508011610e+005,-7.69449921902905e+000,-5.93891616711416e-001

3.47755156008335e+005,-7.69450889192169e+000,-6.02089332400927e-001

3.52609637080511e+005,-7.69451844324729e+000,-6.10400422905431e-001

3.57531884183106e+005,-7.69452786567101e+000,-6.18826494988869e-001

3.62522843294651e+005,-7.69453715184180e+000,-6.27369178812337e-001

3.67583473599047e+005,-7.69454629439714e+000,-6.36030128226528e-001

3.72714747669902e+005,-7.69455528596786e+000,-6.44811021065044e-001

3.77917651657445e+005,-7.69456411918232e+000,-6.53713559441881e-001

3.83193185478053e+005,-7.69457278667051e+000,-6.62739470049517e-001

3.88542363006410e+005,-7.69458128106829e+000,-6.71890504457814e-001

3.93966212270369e+005,-7.69458959501992e+000,-6.81168439423662e-001

3.99465775648511e+005,-7.69459772118199e+000,-6.90575077192430e-001

4.05042110070485e+005,-7.69460565222571e+000,-7.00112245811170e-001

4.10696287220124e+005,-7.69461338083936e+000,-7.09781799441147e-001

4.16429393741414e+005,-7.69462089973040e+000,-7.19585618674758e-001

4.22242531447321e+005,-7.69462820162659e+000,-7.29525610858043e-001

4.28136817531551e+005,-7.69463527927771e+000,-7.39603710412964e-001

4.34113384783250e+005,-7.69464212545597e+000,-7.49821879168511e-001

4.40173381804713e+005,-7.69464873295626e+000,-7.60182106693560e-001

4.46317973232124e+005,-7.69465509459647e+000,-7.70686410633410e-001

4.52548339959385e+005,-7.69466120321637e+000,-7.81336837055827e-001

4.58865679365059e+005,-7.69466705167707e+000,-7.92135460796152e-001

4.65271205542494e+005,-7.69467263285944e+000,-8.03084385812258e-001

4.71766149533147e+005,-7.69467793966248e+000,-8.14185745541610e-001

4.78351759563174e+005,-7.69468296500059e+000,-8.25441703268391e-001

4.85029301283321e+005,-7.69468770180149e+000,-8.36854452491024e-001

4.91800058012158e+005,-7.69469214300274e+000,-8.48426217299706e-001

4.98665330982714e+005,-7.69469628154819e+000,-8.60159252760205e-001

5.05626439592555e+005,-7.69470011038436e+000,-8.72055845300721e-001

5.12684721657352e+005,-7.69470362245577e+000,-8.84118313110269e-001

5.19841533667984e+005,-7.69470681070032e+000,-8.96349006540194e-001

5.27098251051240e+005,-7.69470966804437e+000,-9.08750308513362e-001

5.34456268434150e+005,-7.69471218739677e+000,-9.21324634943822e-001

5.41916999912011e+005,-7.69471436164360e+000,-9.34074435157687e-001

