Freq.,VOut,OutRef

1.00000000000000e+004,-1.64018895039008e+001,-1.05579279146972e-001

1.01395947979003e+004,-1.64018933541605e+001,-1.07052306700691e-001

1.02811382665607e+004,-1.64018973124438e+001,-1.08545862846842e-001

1.04246576084112e+004,-1.64019013817750e+001,-1.10060232708423e-001

1.05701804056138e+004,-1.64019055652625e+001,-1.11595705329803e-001

1.07177346253629e+004,-1.64019098661021e+001,-1.13152573721358e-001

1.08673486252606e+004,-1.64019142875776e+001,-1.14731134924021e-001

1.10190511587661e+004,-1.64019188330650e+001,-1.16331690051288e-001

1.11728713807222e+004,-1.64019235060339e+001,-1.17954544350921e-001

1.13288388529580e+004,-1.64019283100510e+001,-1.19600007252453e-001

1.14869835499703e+004,-1.64019332487815e+001,-1.21268392433436e-001

1.16473358646846e+004,-1.64019383259936e+001,-1.22960017859820e-001

1.18099266142953e+004,-1.64019435455593e+001,-1.24675205859722e-001

1.19747870461893e+004,-1.64019489114590e+001,-1.26414283166033e-001

1.21419488439505e+004,-1.64019544277833e+001,-1.28177580983996e-001

1.23114441334492e+004,-1.64019600987370e+001,-1.29965435043080e-001

1.24833054890161e+004,-1.64019659286409e+001,-1.31778185663150e-001

1.26575659397028e+004,-1.64019719219366e+001,-1.33616177805510e-001

1.28342589756290e+004,-1.64019780831888e+001,-1.35479761140625e-001

1.30134185544193e+004,-1.64019844170886e+001,-1.37369290107462e-001

1.31950791077289e+004,-1.64019909284574e+001,-1.39285123973882e-001

1.33792755478611e+004,-1.64019976222506e+001,-1.41227626897394e-001

1.35660432744767e+004,-1.64020045035606e+001,-1.43197167993262e-001

1.37554181813974e+004,-1.64020115776209e+001,-1.45194121395128e-001

1.39474366635040e+004,-1.64020188498103e+001,-1.47218866319766e-001

1.41421356237309e+004,-1.64020263256563e+001,-1.49271787131977e-001

1.43395524801583e+004,-1.64020340108394e+001,-1.51353273410761e-001

1.45397251732031e+004,-1.64020419111972e+001,-1.53463720016832e-001

1.47426921729110e+004,-1.64020500327289e+001,-1.55603527156769e-001

1.49484924863494e+004,-1.64020583815992e+001,-1.57773100455225e-001

1.51571656651040e+004,-1.64020669641435e+001,-1.59972851017328e-001

1.53687518128801e+004,-1.64020757868718e+001,-1.62203195504033e-001

1.55832915932100e+004,-1.64020848564737e+001,-1.64464556199499e-001

1.58008262372675e+004,-1.64020941798236e+001,-1.66757361078450e-001

1.60213975517924e+004,-1.64021037639853e+001,-1.69082043881309e-001

1.62450479271247e+004,-1.64021136162173e+001,-1.71439044183650e-001

1.64718203453514e+004,-1.64021237439778e+001,-1.73828807469542e-001

1.67017583885674e+004,-1.64021341549301e+001,-1.76251785205100e-001

1.69349062472505e+004,-1.64021448569486e+001,-1.78708434910670e-001

1.71713087287550e+004,-1.64021558581242e+001,-1.81199220233628e-001

1.74110112659224e+004,-1.64021671667696e+001,-1.83724611027510e-001

1.76540599258131e+004,-1.64021787914259e+001,-1.86285083424576e-001

1.79005014185594e+004,-1.64021907408687e+001,-1.88881119910152e-001

1.81503831063432e+004,-1.64022030241141e+001,-1.91513209402269e-001

1.84037530124975e+004,-1.64022156504245e+001,-1.94181847330583e-001

1.86606598307361e+004,-1.64022286293168e+001,-1.96887535706643e-001

1.89211529345119e+004,-1.64022419705676e+001,-1.99630783209934e-001

1.91852823865052e+004,-1.64022556842210e+001,-2.02412105260954e-001

1.94530989482457e+004,-1.64022697805948e+001,-2.05232024106772e-001

1.97246540898671e+004,-1.64022842702890e+001,-2.08091068893610e-001

1.99999999999999e+004,-1.64022991641924e+001,-2.10989775751000e-001

2.02791895958005e+004,-1.64023144734900e+001,-2.13928687873794e-001

2.05622765331213e+004,-1.64023302096715e+001,-2.16908355601361e-001

2.08493152168224e+004,-1.64023463845388e+001,-2.19929336498603e-001

2.11403608112276e+004,-1.64023630102143e+001,-2.22992195439983e-001

2.14354692507258e+004,-1.64023800991499e+001,-2.26097504688176e-001

2.17346972505211e+004,-1.64023976641340e+001,-2.29245843983496e-001

2.20381023175322e+004,-1.64024157183023e+001,-2.32437800619463e-001

2.23457427614443e+004,-1.64024342751447e+001,-2.35673969533334e-001

2.26576777059159e+004,-1.64024533485166e+001,-2.38954953382897e-001

2.29739670999406e+004,-1.64024729526468e+001,-2.42281362634765e-001

2.32946717293690e+004,-1.64024931021475e+001,-2.45653815648270e-001

2.36198532285905e+004,-1.64025138120246e+001,-2.49072938757878e-001

2.39495740923785e+004,-1.64025350976875e+001,-2.52539366358062e-001

2.42838976879009e+004,-1.64025569749589e+001,-2.56053740990075e-001

2.46228882668982e+004,-1.64025794600866e+001,-2.59616713423013e-001

2.49666109780322e+004,-1.64026025697525e+001,-2.63228942742362e-001

2.53151318794055e+004,-1.64026263210860e+001,-2.66891096429030e-001

2.56685179512580e+004,-1.64026507316725e+001,-2.70603850451369e-001

2.60268371088386e+004,-1.64026758195674e+001,-2.74367889342331e-001

2.63901582154578e+004,-1.64027016033060e+001,-2.78183906289923e-001

2.67585510957221e+004,-1.64027281019171e+001,-2.82052603214042e-001

2.71320865489533e+004,-1.64027553349337e+001,-2.85974690858547e-001

2.75108363627948e+004,-1.64027833224066e+001,-2.89950888868549e-001

2.78948733270080e+004,-1.64028120849171e+001,-2.93981925875014e-001

2.82842712474618e+004,-1.64028416435897e+001,-2.98068539577546e-001

2.86791049603164e+004,-1.64028720201053e+001,-3.02211476828875e-001

2.90794503464061e+004,-1.64029032367154e+001,-3.06411493711375e-001

2.94853843458219e+004,-1.64029353162552e+001,-3.10669355622369e-001

2.98969849726987e+004,-1.64029682821587e+001,-3.14985837350680e-001

3.03143313302078e+004,-1.64030021584721e+001,-3.19361723157248e-001

3.07375036257601e+004,-1.64030369698689e+001,-3.23797806856545e-001

3.11665831864199e+004,-1.64030727416648e+001,-3.28294891889009e-001

3.16016524745350e+004,-1.64031094998332e+001,-3.32853791399865e-001

3.20427951035848e+004,-1.64031472710202e+001,-3.37475328313599e-001

3.24900958542493e+004,-1.64031860825607e+001,-3.42160335408917e-001

3.29436406907028e+004,-1.64032259624942e+001,-3.46909655391297e-001

3.34035167771346e+004,-1.64032669395812e+001,-3.51724140962993e-001

3.38698124945009e+004,-1.64033090433204e+001,-3.56604654891867e-001

3.43426174575100e+004,-1.64033523039640e+001,-3.61552070083419e-001

3.48220225318448e+004,-1.64033967525366e+001,-3.66567269642379e-001

3.53081198516260e+004,-1.64034424208513e+001,-3.71651146940504e-001

3.58010028371187e+004,-1.64034893415278e+001,-3.76804605676652e-001

3.63007662126863e+004,-1.64035375480104e+001,-3.82028559937337e-001

3.68075060249948e+004,-1.64035870745860e+001,-3.87323934256560e-001

3.73213196614721e+004,-1.64036379564022e+001,-3.92691663669264e-001

3.78423058690237e+004,-1.64036902294862e+001,-3.98132693766608e-001

3.83705647730104e+004,-1.64037439307638e+001,-4.03647980744449e-001

3.89061978964912e+004,-1.64037990980780e+001,-4.09238491451769e-001

3.94493081797342e+004,-1.64038557702085e+001,-4.14905203437276e-001

3.99999999999998e+004,-1.64039139868911e+001,-4.20649104987862e-001

4.05583791916010e+004,-1.64039737888373e+001,-4.26471195170218e-001

4.11245530662425e+004,-1.64040352177544e+001,-4.32372483864592e-001

4.16986304336447e+004,-1.64040983163649e+001,-4.38353991795985e-001

4.22807216224550e+004,-1.64041631284270e+001,-4.44416750564662e-001

4.28709385014515e+004,-1.64042296987551e+001,-4.50561802665607e-001

4.34693945010421e+004,-1.64042980732392e+001,-4.56790201514066e-001

4.40762046350642e+004,-1.64043682988665e+001,-4.63103011457149e-001

4.46914855228886e+004,-1.64044404237410e+001,-4.69501307787701e-001

4.53153554118317e+004,-1.64045144971044e+001,-4.75986176750684e-001

4.59479341998812e+004,-1.64045905693569e+001,-4.82558715544694e-001

4.65893434587380e+004,-1.64046686920773e+001,-4.89220032320475e-001

4.72397064571810e+004,-1.64047489180436e+001,-4.95971246172952e-001

4.78991481847569e+004,-1.64048313012541e+001,-5.02813487126136e-001

4.85677953758016e+004,-1.64049158969467e+001,-5.09747896118368e-001

4.92457765337964e+004,-1.64050027616202e+001,-5.16775624974047e-001

4.99332219560642e+004,-1.64050919530537e+001,-5.23897836376886e-001

5.06302637588109e+004,-1.64051835303266e+001,-5.31115703832542e-001

5.13370359025159e+004,-1.64052775538387e+001,-5.38430411625268e-001

5.20536742176771e+004,-1.64053740853287e+001,-5.45843154770758e-001

5.27803164309155e+004,-1.64054731878940e+001,-5.53355138960466e-001

5.35171021914442e+004,-1.64055749260091e+001,-5.60967580499292e-001

5.42641730979066e+004,-1.64056793655433e+001,-5.68681706236334e-001

5.50216727255895e+004,-1.64057865737796e+001,-5.76498753488258e-001

5.57897466540159e+004,-1.64058966194304e+001,-5.84419969957486e-001

5.65685424949235e+004,-1.64060095726552e+001,-5.92446613640296e-001

5.73582099206328e+004,-1.64061255050761e+001,-6.00579952725916e-001

5.81589006928121e+004,-1.64062444897928e+001,-6.08821265494631e-001

5.89707686916437e+004,-1.64063666013975e+001,-6.17171840198822e-001

5.97939699453972e+004,-1.64064919159877e+001,-6.25632974943543e-001

6.06286626604156e+004,-1.64066205111795e+001,-6.34205977553735e-001

6.14750072515201e+004,-1.64067524661183e+001,-6.42892165437705e-001

6.23331663728396e+004,-1.64068878614899e+001,-6.51692865436119e-001

6.32033049490698e+004,-1.64070267795293e+001,-6.60609413669808e-001

6.40855902071694e+004,-1.64071693040289e+001,-6.69643155371546e-001

6.49801917084985e+004,-1.64073155203443e+001,-6.78795444716767e-001

6.58872813814055e+004,-1.64074655154004e+001,-6.88067644637009e-001

6.68070335542691e+004,-1.64076193776940e+001,-6.97461126633772e-001

6.77396249890018e+004,-1.64077771972957e+001,-7.06977270576313e-001

6.86852349150199e+004,-1.64079390658500e+001,-7.16617464494946e-001

6.96440450636895e+004,-1.64081050765728e+001,-7.26383104365559e-001

7.06162397032520e+004,-1.64082753242481e+001,-7.36275593881184e-001

7.16020056742374e+004,-1.64084499052210e+001,-7.46296344222648e-001

7.26015324253724e+004,-1.64086289173899e+001,-7.56446773814408e-001

7.36150120499896e+004,-1.64088124601946e+001,-7.66728308077329e-001

7.46426393229441e+004,-1.64090006346036e+001,-7.77142379168012e-001

7.56846117380472e+004,-1.64091935430977e+001,-7.87690425717199e-001

7.67411295460207e+004,-1.64093912896503e+001,-7.98373892557145e-001

7.78123957929823e+004,-1.64095939797063e+001,-8.09194230441213e-001

7.88986163594682e+004,-1.64098017201564e+001,-8.20152895759910e-001

7.99999999999995e+004,-1.64100146193082e+001,-8.31251350250644e-001

8.11167583832018e+004,-1.64102327868550e+001,-8.42491060699826e-001

8.22491061324848e+004,-1.64104563338401e+001,-8.53873498640685e-001

8.33972608672892e+004,-1.64106853726169e+001,-8.65400140052158e-001

8.45614432449099e+004,-1.64109200168066e+001,-8.77072465043812e-001

8.57418770029029e+004,-1.64111603812499e+001,-8.88891957549316e-001

8.69387890020841e+004,-1.64114065819563e+001,-9.00860105011482e-001

8.81524092701283e+004,-1.64116587360476e+001,-9.12978398065634e-001

8.93829710457770e+004,-1.64119169616975e+001,-9.25248330229809e-001

9.06307108236633e+004,-1.64121813780664e+001,-9.37671397587365e-001

9.18958683997622e+004,-1.64124521052307e+001,-9.50249098479955e-001

9.31786869174758e+004,-1.64127292641085e+001,-9.62982933197783e-001

9.44794129143618e+004,-1.64130129763780e+001,-9.75874403678680e-001

9.57982963695136e+004,-1.64133033643923e+001,-9.88925013213155e-001

9.71355907516031e+004,-1.64136005510876e+001,-1.00213626615514e+000

9.84915530675926e+004,-1.64139046598866e+001,-1.01550966764359e+000

9.98664439121282e+004,-1.64142158145948e+001,-1.02904672333809e+000

1.01260527517622e+005,-1.64145341392923e+001,-1.04274893916148e+000

1.02674071805032e+005,-1.64148597582187e+001,-1.05661782106290e+000

1.04107348435354e+005,-1.64151927956512e+001,-1.07065487479633e+000

1.05560632861831e+005,-1.64155333757784e+001,-1.08486160571549e+000

1.07034204382888e+005,-1.64158816225652e+001,-1.09923951859495e+000

1.08528346195813e+005,-1.64162376596131e+001,-1.11379011747244e+000

1.10043345451179e+005,-1.64166016100131e+001,-1.12851490551382e+000

1.11579493308032e+005,-1.64169735961919e+001,-1.14341538491563e+000

1.13137084989847e+005,-1.64173537397521e+001,-1.15849305682973e+000

1.14716419841265e+005,-1.64177421613050e+001,-1.17374942132624e+000

1.16317801385624e+005,-1.64181389802972e+001,-1.18918597739545e+000

1.17941537383287e+005,-1.64185443148302e+001,-1.20480422298457e+000

1.19587939890794e+005,-1.64189582814738e+001,-1.22060565508098e+000

1.21257325320831e+005,-1.64193809950726e+001,-1.23659176984015e+000

1.22950014503040e+005,-1.64198125685465e+001,-1.25276406276165e+000

1.24666332745679e+005,-1.64202531126837e+001,-1.26912402892042e+000

1.26406609898139e+005,-1.64207027359293e+001,-1.28567316324988e+000

1.28171180414339e+005,-1.64211615441667e+001,-1.30241296088601e+000

1.29960383416997e+005,-1.64216296404929e+001,-1.31934491757378e+000

1.31774562762811e+005,-1.64221071249898e+001,-1.33647053013738e+000

1.33614067108538e+005,-1.64225940944884e+001,-1.35379129702201e+000

1.35479249978003e+005,-1.64230906423291e+001,-1.37130871890615e+000

1.37370469830040e+005,-1.64235968581176e+001,-1.38902429938996e+000

1.39288090127379e+005,-1.64241128274753e+001,-1.40693954576294e+000

1.41232479406504e+005,-1.64246386317875e+001,-1.42505596985487e+000

1.43204011348474e+005,-1.64251743479472e+001,-1.44337508897037e+000

1.45203064850745e+005,-1.64257200480959e+001,-1.46189842691545e+000

1.47230024099979e+005,-1.64262757993635e+001,-1.48062751511229e+000

1.49285278645888e+005,-1.64268416636048e+001,-1.49956389381138e+000

1.51369223476094e+005,-1.64274176971358e+001,-1.51870911340089e+000

1.53482259092041e+005,-1.64280039504699e+001,-1.53806473581544e+000

1.55624791585964e+005,-1.64286004680535e+001,-1.55763233604873e+000

1.57797232718936e+005,-1.64292072880033e+001,-1.57741350376945e+000

1.59999999999999e+005,-1.64298244418454e+001,-1.59740984504669e+000

1.62233516766403e+005,-1.64304519542565e+001,-1.61762298418087e+000

1.64498212264969e+005,-1.64310898428095e+001,-1.63805456564754e+000

1.66794521734578e+005,-1.64317381177227e+001,-1.65870625615005e+000

1.69122886489819e+005,-1.64323967816147e+001,-1.67957974678720e+000

1.71483754005805e+005,-1.64330658292655e+001,-1.70067675532956e+000

1.73877578004168e+005,-1.64337452473849e+001,-1.72199902861256e+000

1.76304818540256e+005,-1.64344350143891e+001,-1.74354834503880e+000

1.78765942091554e+005,-1.64351351001864e+001,-1.76532651719362e+000

1.81261421647326e+005,-1.64358454659737e+001,-1.78733539456941e+000

1.83791736799524e+005,-1.64365660640437e+001,-1.80957686640135e+000

1.86357373834951e+005,-1.64372968376050e+001,-1.83205286460779e+000

1.88958825828723e+005,-1.64380377206150e+001,-1.85476536683597e+000

1.91596592739027e+005,-1.64387886376285e+001,-1.87771639960648e+000

1.94271181503206e+005,-1.64395495036600e+001,-1.90090804156021e+000

1.96983106135185e+005,-1.64403202240645e+001,-1.92434242679268e+000

1.99732887824256e+005,-1.64411006944343e+001,-1.94802174828242e+000

2.02521055035243e+005,-1.64418908005148e+001,-1.97194826140024e+000

2.05348143610063e+005,-1.64426904181402e+001,-1.99612428749856e+000

2.08214696870707e+005,-1.64434994131889e+001,-2.02055221756941e+000

2.11121265723661e+005,-1.64443176415603e+001,-2.04523451597295e+000

2.14068408765776e+005,-1.64451449491732e+001,-2.07017372422072e+000

2.17056692391625e+005,-1.64459811719879e+001,-2.09537246481106e+000

2.20086690902357e+005,-1.64468261360503e+001,-2.12083344510697e+000

2.23158986616063e+005,-1.64476796575611e+001,-2.14655946124921e+000

2.26274169979693e+005,-1.64485415429685e+001,-2.17255340209420e+000

2.29432839682530e+005,-1.64494115890867e+001,-2.19881825316972e+000

2.32635602771247e+005,-1.64502895832390e+001,-2.22535710063695e+000

2.35883074766574e+005,-1.64511753034263e+001,-2.25217313524993e+000

2.39175879781588e+005,-1.64520685185218e+001,-2.27926965630368e+000

2.42514650641661e+005,-1.64529689884908e+001,-2.30665007555795e+000

2.45900029006080e+005,-1.64538764646365e+001,-2.33431792113043e+000

2.49332665491357e+005,-1.64547906898707e+001,-2.36227684134527e+000

2.52813219796278e+005,-1.64557113990102e+001,-2.39053060852850e+000

2.56342360828676e+005,-1.64566383190976e+001,-2.41908312274052e+000

2.59920766833993e+005,-1.64575711697462e+001,-2.44793841543365e+000

2.63549125525621e+005,-1.64585096635092e+001,-2.47710065302707e+000

2.67228134217075e+005,-1.64594535062707e+001,-2.50657414038669e+000

2.70958499956006e+005,-1.64604023976595e+001,-2.53636332420266e+000

2.74740939660078e+005,-1.64613560314838e+001,-2.56647279625386e+000

2.78576180254757e+005,-1.64623140961854e+001,-2.59690729655228e+000

2.82464958813007e+005,-1.64632762753140e+001,-2.62767171635558e+000

2.86408022696948e+005,-1.64642422480172e+001,-2.65877110104477e+000

2.90406129701488e+005,-1.64652116895480e+001,-2.69021065285499e+000

2.94460048199957e+005,-1.64661842717876e+001,-2.72199573345616e+000

2.98570557291775e+005,-1.64671596637794e+001,-2.75413186637523e+000

3.02738446952187e+005,-1.64681375322770e+001,-2.78662473925710e+000

3.06964518184081e+005,-1.64691175423007e+001,-2.81948020595612e+000

3.11249583171928e+005,-1.64700993577031e+001,-2.85270428845801e+000

3.15594465437872e+005,-1.64710826417409e+001,-2.88630317862683e+000

3.19999999999997e+005,-1.64720670576520e+001,-2.92028323977553e+000

3.24467033532806e+005,-1.64730522692355e+001,-2.95465100805976e+000

3.28996424529938e+005,-1.64740379414324e+001,-2.98941319369119e+000

3.33589043469155e+005,-1.64750237409066e+001,-3.02457668197499e+000

3.38245772979638e+005,-1.64760093366233e+001,-3.06014853416953e+000

3.42967508011610e+005,-1.64769944004225e+001,-3.09613598817103e+000

3.47755156008335e+005,-1.64779786075879e+001,-3.13254645902673e+000

3.52609637080511e+005,-1.64789616374068e+001,-3.16938753928054e+000

3.57531884183106e+005,-1.64799431737223e+001,-3.20666699915242e+000

3.62522843294651e+005,-1.64809229054722e+001,-3.24439278656327e+000

3.67583473599047e+005,-1.64819005272183e+001,-3.28257302700192e+000

3.72714747669902e+005,-1.64828757396595e+001,-3.32121602325151e+000

3.77917651657445e+005,-1.64838482501303e+001,-3.36033025497276e+000

3.83193185478053e+005,-1.64848177730830e+001,-3.39992437815973e+000

3.88542363006410e+005,-1.64857840305514e+001,-3.44000722447007e+000

3.93966212270369e+005,-1.64867467525954e+001,-3.48058780044529e+000

3.99465775648511e+005,-1.64877056777266e+001,-3.52167528662305e+000

4.05042110070485e+005,-1.64886605533111e+001,-3.56327903655847e+000

4.10696287220124e+005,-1.64896111359525e+001,-3.60540857575824e+000

4.16429393741414e+005,-1.64905571918508e+001,-3.64807360054344e+000

4.22242531447321e+005,-1.64914984971396e+001,-3.69128397684543e+000

4.28136817531551e+005,-1.64924348381981e+001,-3.73504973895254e+000

4.34113384783250e+005,-1.64933660119416e+001,-3.77938108821172e+000

4.40173381804713e+005,-1.64942918260852e+001,-3.82428839170061e+000

4.46317973232124e+005,-1.64952120993855e+001,-3.86978218087748e+000

4.52548339959385e+005,-1.64961266618569e+001,-3.91587315022227e+000

4.58865679365059e+005,-1.64970353549638e+001,-3.96257215587747e+000

4.65271205542494e+005,-1.64979380317895e+001,-4.00989021430050e+000

4.71766149533147e+005,-1.64988345571804e+001,-4.05783850093506e+000

4.78351759563174e+005,-1.64997248078681e+001,-4.10642834891585e+000

4.85029301283321e+005,-1.65006086725677e+001,-4.15567124781087e+000

4.91800058012158e+005,-1.65014860520544e+001,-4.20557884241387e+000

4.98665330982714e+005,-1.65023568592181e+001,-4.25616293159524e+000

5.05626439592555e+005,-1.65032210190981e+001,-4.30743546721731e+000

5.12684721657352e+005,-1.65040784688962e+001,-4.35940855312574e+000

5.19841533667984e+005,-1.65049291579714e+001,-4.41209444422100e+000

5.27098251051240e+005,-1.65057730478165e+001,-4.46550554561825e+000

5.34456268434150e+005,-1.65066101120166e+001,-4.51965441190142e+000

5.41916999912011e+005,-1.65074403361912e+001,-4.57455374648008e+000

