Freq.,VOut,OutRef

1.00000000000000e+004,-8.18956821944487e+000,-1.77244736026585e-001

1.01395947979003e+004,-8.18956850101119e+000,-1.79718868843558e-001

1.02811382665607e+004,-8.18956879046189e+000,-1.82227534540547e-001

1.04246576084112e+004,-8.18956908801715e+000,-1.84771214976578e-001

1.05701804056138e+004,-8.18956939390271e+000,-1.87350398731860e-001

1.07177346253629e+004,-8.18956970835093e+000,-1.89965581195520e-001

1.08673486252606e+004,-8.18957003160040e+000,-1.92617264664321e-001

1.10190511587661e+004,-8.18957036389620e+000,-1.95305958437813e-001

1.11728713807222e+004,-8.18957070549036e+000,-1.98032178913670e-001

1.13288388529580e+004,-8.18957105664203e+000,-2.00796449687146e-001

1.14869835499703e+004,-8.18957141761694e+000,-2.03599301654988e-001

1.16473358646846e+004,-8.18957178868860e+000,-2.06441273110739e-001

1.18099266142953e+004,-8.18957217013804e+000,-2.09322909850963e-001

1.19747870461893e+004,-8.18957256225391e+000,-2.12244765279095e-001

1.21419488439505e+004,-8.18957296533265e+000,-2.15207400512450e-001

1.23114441334492e+004,-8.18957337967904e+000,-2.18211384486555e-001

1.24833054890161e+004,-8.18957380560635e+000,-2.21257294064089e-001

1.26575659397028e+004,-8.18957424343618e+000,-2.24345714147906e-001

1.28342589756290e+004,-8.18957469349902e+000,-2.27477237790224e-001

1.30134185544193e+004,-8.18957515613450e+000,-2.30652466305825e-001

1.31950791077289e+004,-8.18957563169165e+000,-2.33872009386001e-001

1.33792755478611e+004,-8.18957612052865e+000,-2.37136485219184e-001

1.35660432744767e+004,-8.18957662301399e+000,-2.40446520602134e-001

1.37554181813974e+004,-8.18957713952579e+000,-2.43802751065338e-001

1.39474366635040e+004,-8.18957767045281e+000,-2.47205820990057e-001

1.41421356237309e+004,-8.18957821619433e+000,-2.50656383732447e-001

1.43395524801583e+004,-8.18957877716040e+000,-2.54155101750141e-001

1.45397251732031e+004,-8.18957935377230e+000,-2.57702646724987e-001

1.47426921729110e+004,-8.18957994646282e+000,-2.61299699692346e-001

1.49484924863494e+004,-8.18958055567666e+000,-2.64946951170344e-001

1.51571656651040e+004,-8.18958118187000e+000,-2.68645101294756e-001

1.53687518128801e+004,-8.18958182551216e+000,-2.72394859944702e-001

1.55832915932100e+004,-8.18958248708475e+000,-2.76196946884751e-001

1.58008262372675e+004,-8.18958316708237e+000,-2.80052091898936e-001

1.60213975517924e+004,-8.18958386601336e+000,-2.83961034927883e-001

1.62450479271247e+004,-8.18958458439941e+000,-2.87924526212793e-001

1.64718203453514e+004,-8.18958532277633e+000,-2.91943326436637e-001

1.67017583885674e+004,-8.18958608169464e+000,-2.96018206865801e-001

1.69349062472505e+004,-8.18958686171947e+000,-3.00149949500674e-001

1.71713087287550e+004,-8.18958766343105e+000,-3.04339347222516e-001

1.74110112659224e+004,-8.18958848742545e+000,-3.08587203942031e-001

1.76540599258131e+004,-8.18958933431443e+000,-3.12894334755074e-001

1.79005014185594e+004,-8.18959020472633e+000,-3.17261566094032e-001

1.81503831063432e+004,-8.18959109930628e+000,-3.21689735886160e-001

1.84037530124975e+004,-8.18959201871652e+000,-3.26179693712147e-001

1.86606598307361e+004,-8.18959296363697e+000,-3.30732300966757e-001

1.89211529345119e+004,-8.18959393476571e+000,-3.35348431021421e-001

1.91852823865052e+004,-8.18959493281915e+000,-3.40028969391285e-001

1.94530989482457e+004,-8.18959595853307e+000,-3.44774813898633e-001

1.97246540898671e+004,-8.18959701266229e+000,-3.49586874848083e-001

1.99999999999999e+004,-8.18959809598199e+000,-3.54466075192952e-001

2.02791895958005e+004,-8.18959920928746e+000,-3.59413350714495e-001

2.05622765331213e+004,-8.18960035339505e+000,-3.64429650195747e-001

2.08493152168224e+004,-8.18960152914261e+000,-3.69515935600065e-001

2.11403608112276e+004,-8.18960273739000e+000,-3.74673182253891e-001

2.14354692507258e+004,-8.18960397901932e+000,-3.79902379031529e-001

2.17346972505211e+004,-8.18960525493586e+000,-3.85204528539077e-001

2.20381023175322e+004,-8.18960656606856e+000,-3.90580647304170e-001

2.23457427614443e+004,-8.18960791337030e+000,-3.96031765967710e-001

2.26576777059159e+004,-8.18960929781900e+000,-4.01558929475890e-001

2.29739670999406e+004,-8.18961072041752e+000,-4.07163197279791e-001

2.32946717293690e+004,-8.18961218219462e+000,-4.12845643532995e-001

2.36198532285905e+004,-8.18961368420563e+000,-4.18607357291170e-001

2.39495740923785e+004,-8.18961522753315e+000,-4.24449442717796e-001

2.42838976879009e+004,-8.18961681328702e+000,-4.30373019293379e-001

2.46228882668982e+004,-8.18961844260559e+000,-4.36379222022678e-001

2.49666109780322e+004,-8.18962011665642e+000,-4.42469201646112e-001

2.53151318794055e+004,-8.18962183663625e+000,-4.48644124859367e-001

2.56685179512580e+004,-8.18962360377218e+000,-4.54905174527967e-001

2.60268371088386e+004,-8.18962541932241e+000,-4.61253549908397e-001

2.63901582154578e+004,-8.18962728457644e+000,-4.67690466874505e-001

2.67585510957221e+004,-8.18962920085613e+000,-4.74217158142284e-001

2.71320865489533e+004,-8.18963116951636e+000,-4.80834873499609e-001

2.75108363627948e+004,-8.18963319194539e+000,-4.87544880041302e-001

2.78948733270080e+004,-8.18963526956609e+000,-4.94348462401286e-001

2.82842712474618e+004,-8.18963740383601e+000,-5.01246922996024e-001

2.86791049603164e+004,-8.18963959624863e+000,-5.08241582262700e-001

2.90794503464061e+004,-8.18964184833398e+000,-5.15333778905182e-001

2.94853843458219e+004,-8.18964416165884e+000,-5.22524870145781e-001

2.98969849726987e+004,-8.18964653782838e+000,-5.29816231970725e-001

3.03143313302078e+004,-8.18964897848583e+000,-5.37209259391722e-001

3.07375036257601e+004,-8.18965148531419e+000,-5.44705366697610e-001

3.11665831864199e+004,-8.18965406003619e+000,-5.52305987721078e-001

3.16016524745350e+004,-8.18965670441548e+000,-5.60012576100293e-001

3.20427951035848e+004,-8.18965942025713e+000,-5.67826605548163e-001

3.24900958542493e+004,-8.18966220940854e+000,-5.75749570123028e-001

3.29436406907028e+004,-8.18966507375980e+000,-5.83782984505560e-001

3.34035167771346e+004,-8.18966801524494e+000,-5.91928384274960e-001

3.38698124945009e+004,-8.18967103584214e+000,-6.00187326192598e-001

3.43426174575100e+004,-8.18967413757459e+000,-6.08561388488317e-001

3.48220225318448e+004,-8.18967732251124e+000,-6.17052171147439e-001

3.53081198516260e+004,-8.18968059276767e+000,-6.25661296204378e-001

3.58010028371187e+004,-8.18968395050599e+000,-6.34390408042455e-001

3.63007662126863e+004,-8.18968739793671e+000,-6.43241173688204e-001

3.68075060249948e+004,-8.18969093731802e+000,-6.52215283121817e-001

3.73213196614721e+004,-8.18969457095741e+000,-6.61314449580604e-001

3.78423058690237e+004,-8.18969830121193e+000,-6.70540409872099e-001

3.83705647730104e+004,-8.18970213048848e+000,-6.79894924691205e-001

3.89061978964912e+004,-8.18970606124474e+000,-6.89379778937620e-001

3.94493081797342e+004,-8.18971009598938e+000,-6.98996782040842e-001

3.99999999999998e+004,-8.18971423728285e+000,-7.08747768286097e-001

4.05583791916010e+004,-8.18971848773742e+000,-7.18634597148279e-001

4.11245530662425e+004,-8.18972285001763e+000,-7.28659153627207e-001

4.16986304336447e+004,-8.18972732684107e+000,-7.38823348584290e-001

4.22807216224550e+004,-8.18973192097809e+000,-7.49129119090679e-001

4.28709385014515e+004,-8.18973663525243e+000,-7.59578428773633e-001

4.34693945010421e+004,-8.18974147254112e+000,-7.70173268168928e-001

4.40762046350642e+004,-8.18974643577485e+000,-7.80915655078348e-001

4.46914855228886e+004,-8.18975152793762e+000,-7.91807634930817e-001

4.53153554118317e+004,-8.18975675206747e+000,-8.02851281145944e-001

4.59479341998812e+004,-8.18976211125534e+000,-8.14048695507995e-001

4.65893434587380e+004,-8.18976760864585e+000,-8.25402008536209e-001

4.72397064571810e+004,-8.18977324743626e+000,-8.36913379867330e-001

4.78991481847569e+004,-8.18977903087663e+000,-8.48584998636069e-001

4.85677953758016e+004,-8.18978496226897e+000,-8.60419083866183e-001

4.92457765337964e+004,-8.18979104496677e+000,-8.72417884861742e-001

4.99332219560642e+004,-8.18979728237443e+000,-8.84583681604552e-001

5.06302637588109e+004,-8.18980367794601e+000,-8.96918785158384e-001

5.13370359025159e+004,-8.18981023518464e+000,-9.09425538074640e-001

5.20536742176771e+004,-8.18981695764135e+000,-9.22106314804010e-001

5.27803164309155e+004,-8.18982384891326e+000,-9.34963522116870e-001

5.35171021914442e+004,-8.18983091264292e+000,-9.47999599521097e-001

5.42641730979066e+004,-8.18983815251605e+000,-9.61217019692517e-001

5.50216727255895e+004,-8.18984557225999e+000,-9.74618288905598e-001

5.57897466540159e+004,-8.18985317564163e+000,-9.88205947471837e-001

5.65685424949235e+004,-8.18986096646509e+000,-1.00198257018222e+000

5.73582099206328e+004,-8.18986894856957e+000,-1.01595076675442e+000

5.81589006928121e+004,-8.18987712582617e+000,-1.03011318228851e+000

5.89707686916437e+004,-8.18988550213533e+000,-1.04447249772402e+000

5.97939699453972e+004,-8.18989408142363e+000,-1.05903143030394e+000

6.06286626604156e+004,-8.18990286763991e+000,-1.07379273404820e+000

6.14750072515201e+004,-8.18991186475217e+000,-1.08875920022429e+000

6.23331663728396e+004,-8.18992107674259e+000,-1.10393365783465e+000

6.32033049490698e+004,-8.18993050760400e+000,-1.11931897409910e+000

6.40855902071694e+004,-8.18994016133460e+000,-1.13491805495090e+000

6.49801917084985e+004,-8.18995004193293e+000,-1.15073384553605e+000

6.58872813814055e+004,-8.18996015339252e+000,-1.16676933071779e+000

6.68070335542691e+004,-8.18997049969563e+000,-1.18302753559040e+000

6.77396249890018e+004,-8.18998108480744e+000,-1.19951152599474e+000

6.86852349150199e+004,-8.18999191266894e+000,-1.21622440904519e+000

6.96440450636895e+004,-8.19000298718955e+000,-1.23316933366057e+000

7.06162397032520e+004,-8.19001431223988e+000,-1.25034949110155e+000

7.16020056742374e+004,-8.19002589164329e+000,-1.26776811551493e+000

7.26015324253724e+004,-8.19003772916689e+000,-1.28542848448771e+000

7.36150120499896e+004,-8.19004982851253e+000,-1.30333391960427e+000

7.46426393229441e+004,-8.19006219330681e+000,-1.32148778701351e+000

7.56846117380472e+004,-8.19007482709051e+000,-1.33989349800222e+000

7.67411295460207e+004,-8.19008773330779e+000,-1.35855450957600e+000

7.78123957929823e+004,-8.19010091529373e+000,-1.37747432505047e+000

7.88986163594682e+004,-8.19011437626255e+000,-1.39665649464593e+000

7.99999999999995e+004,-8.19012811929401e+000,-1.41610461609414e+000

8.11167583832018e+004,-8.19014214731948e+000,-1.43582233525165e+000

8.22491061324848e+004,-8.19015646310731e+000,-1.45581334672338e+000

8.33972608672892e+004,-8.19017106924737e+000,-1.47608139449077e+000

8.45614432449099e+004,-8.19018596813441e+000,-1.49663027255560e+000

8.57418770029029e+004,-8.19020116195109e+000,-1.51746382558735e+000

8.69387890020841e+004,-8.19021665264960e+000,-1.53858594958299e+000

8.81524092701283e+004,-8.19023244193302e+000,-1.56000059253518e+000

8.93829710457770e+004,-8.19024853123461e+000,-1.58171175511312e+000

9.06307108236633e+004,-8.19026492169744e+000,-1.60372349135075e+000

9.18958683997622e+004,-8.19028161415183e+000,-1.62603990934771e+000

9.31786869174758e+004,-8.19029860909269e+000,-1.64866517197963e+000

9.44794129143618e+004,-8.19031590665479e+000,-1.67160349762320e+000

9.57982963695136e+004,-8.19033350658783e+000,-1.69485916088917e+000

9.71355907516031e+004,-8.19035140822982e+000,-1.71843649336913e+000

9.84915530675926e+004,-8.19036961047926e+000,-1.74233988439621e+000

9.98664439121282e+004,-8.19038811176653e+000,-1.76657378181643e+000

1.01260527517622e+005,-8.19040691002339e+000,-1.79114269277473e+000

1.02674071805032e+005,-8.19042600265165e+000,-1.81605118451580e+000

1.04107348435354e+005,-8.19044538649068e+000,-1.84130388519657e+000

1.05560632861831e+005,-8.19046505778297e+000,-1.86690548471519e+000

1.07034204382888e+005,-8.19048501213893e+000,-1.89286073555639e+000

1.08528346195813e+005,-8.19050524449993e+000,-1.91917445365073e+000

1.10043345451179e+005,-8.19052574910006e+000,-1.94585151925091e+000

1.11579493308032e+005,-8.19054651942664e+000,-1.97289687782467e+000

1.13137084989847e+005,-8.19056754817868e+000,-2.00031554096714e+000

1.14716419841265e+005,-8.19058882722491e+000,-2.02811258732648e+000

1.16317801385624e+005,-8.19061034755907e+000,-2.05629316355533e+000

1.17941537383287e+005,-8.19063209925476e+000,-2.08486248527404e+000

1.19587939890794e+005,-8.19065407141822e+000,-2.11382583805953e+000

1.21257325320831e+005,-8.19067625213968e+000,-2.14318857845156e+000

1.22950014503040e+005,-8.19069862844330e+000,-2.17295613498225e+000

1.24666332745679e+005,-8.19072118623558e+000,-2.20313400922485e+000

1.26406609898139e+005,-8.19074391025227e+000,-2.23372777686829e+000

1.28171180414339e+005,-8.19076678400353e+000,-2.26474308881332e+000

1.29960383416997e+005,-8.19078978971796e+000,-2.29618567229209e+000

1.31774562762811e+005,-8.19081290828497e+000,-2.32806133201426e+000

1.33614067108538e+005,-8.19083611919566e+000,-2.36037595133703e+000

1.35479249978003e+005,-8.19085940048230e+000,-2.39313549346251e+000

1.37370469830040e+005,-8.19088272865642e+000,-2.42634600266110e+000

1.39288090127379e+005,-8.19090607864561e+000,-2.46001360552341e+000

1.41232479406504e+005,-8.19092942372871e+000,-2.49414451224007e+000

1.43204011348474e+005,-8.19095273547011e+000,-2.52874501791036e+000

1.45203064850745e+005,-8.19097598365251e+000,-2.56382150388177e+000

1.47230024099979e+005,-8.19099913620846e+000,-2.59938043911968e+000

1.49285278645888e+005,-8.19102215915106e+000,-2.63542838160804e+000

1.51369223476094e+005,-8.19104501650346e+000,-2.67197197978168e+000

1.53482259092041e+005,-8.19106767022714e+000,-2.70901797399281e+000

1.55624791585964e+005,-8.19109008014966e+000,-2.74657319800930e+000

1.57797232718936e+005,-8.19111220389129e+000,-2.78464458054824e+000

1.59999999999999e+005,-8.19113399679092e+000,-2.82323914684220e+000

1.62233516766403e+005,-8.19115541183156e+000,-2.86236402024295e+000

1.64498212264969e+005,-8.19117639956488e+000,-2.90202642385891e+000

1.66794521734578e+005,-8.19119690803563e+000,-2.94223368222928e+000

1.69122886489819e+005,-8.19121688270532e+000,-2.98299322303635e+000

1.71483754005805e+005,-8.19123626637595e+000,-3.02431257885257e+000

1.73877578004168e+005,-8.19125499911367e+000,-3.06619938892546e+000

1.76304818540256e+005,-8.19127301817180e+000,-3.10866140100275e+000

1.78765942091554e+005,-8.19129025791461e+000,-3.15170647319170e+000

1.81261421647326e+005,-8.19130664974080e+000,-3.19534257586019e+000

1.83791736799524e+005,-8.19132212200757e+000,-3.23957779357375e+000

1.86357373834951e+005,-8.19133659995486e+000,-3.28442032707251e+000

1.88958825828723e+005,-8.19135000563029e+000,-3.32987849528590e+000

1.91596592739027e+005,-8.19136225781456e+000,-3.37596073738701e+000

1.94271181503206e+005,-8.19137327194784e+000,-3.42267561488372e+000

1.96983106135185e+005,-8.19138296005663e+000,-3.47003181375018e+000

1.99732887824256e+005,-8.19139123068206e+000,-3.51803814659451e+000

2.02521055035243e+005,-8.19139798880868e+000,-3.56670355486600e+000

2.05348143610063e+005,-8.19140313579500e+000,-3.61603711109832e+000

2.08214696870707e+005,-8.19140656930462e+000,-3.66604802119125e+000

2.11121265723661e+005,-8.19140818323919e+000,-3.71674562672821e+000

2.14068408765776e+005,-8.19140786767246e+000,-3.76813940733037e+000

2.17056692391625e+005,-8.19140550878579e+000,-3.82023898304579e+000

2.20086690902357e+005,-8.19140098880516e+000,-3.87305411677513e+000

2.23158986616063e+005,-8.19139418593995e+000,-3.92659471672837e+000

2.26274169979693e+005,-8.19138497432269e+000,-3.98087083891978e+000

2.29432839682530e+005,-8.19137322395083e+000,-4.03589268969167e+000

2.32635602771247e+005,-8.19135880063016e+000,-4.09167062827167e+000

2.35883074766574e+005,-8.19134156591910e+000,-4.14821516936307e+000

2.39175879781588e+005,-8.19132137707527e+000,-4.20553698576171e+000

2.42514650641661e+005,-8.19129808700302e+000,-4.26364691100670e+000

2.45900029006080e+005,-8.19127154420260e+000,-4.32255594205646e+000

2.49332665491357e+005,-8.19124159272032e+000,-4.38227524199563e+000

2.52813219796278e+005,-8.19120807210041e+000,-4.44281614276583e+000

2.56342360828676e+005,-8.19117081733743e+000,-4.50419014792625e+000

2.59920766833993e+005,-8.19112965883016e+000,-4.56640893543639e+000

2.63549125525621e+005,-8.19108442233565e+000,-4.62948436046709e+000

2.67228134217075e+005,-8.19103492892465e+000,-4.69342845823153e+000

2.70958499956006e+005,-8.19098099493691e+000,-4.75825344684332e+000

2.74740939660078e+005,-8.19092243193689e+000,-4.82397173019604e+000

2.78576180254757e+005,-8.19085904666954e+000,-4.89059590086406e+000

2.82464958813007e+005,-8.19079064101590e+000,-4.95813874302735e+000

2.86408022696948e+005,-8.19071701194800e+000,-5.02661323541646e+000

2.90406129701488e+005,-8.19063795148329e+000,-5.09603255427973e+000

2.94460048199957e+005,-8.19055324663769e+000,-5.16641007637133e+000

2.98570557291775e+005,-8.19046267937774e+000,-5.23775938196075e+000

3.02738446952187e+005,-8.19036602657082e+000,-5.31009425786388e+000

3.06964518184081e+005,-8.19026305993338e+000,-5.38342870049546e+000

3.11249583171928e+005,-8.19015354597714e+000,-5.45777691894446e+000

3.15594465437872e+005,-8.19003724595238e+000,-5.53315333807054e+000

3.19999999999997e+005,-8.18991391578845e+000,-5.60957260162597e+000

3.24467033532806e+005,-8.18978330603101e+000,-5.68704957539927e+000

3.28996424529938e+005,-8.18964516177518e+000,-5.76559935038634e+000

3.33589043469155e+005,-8.18949922259531e+000,-5.84523724598571e+000

3.38245772979638e+005,-8.18934522246979e+000,-5.92597881322332e+000

3.42967508011610e+005,-8.18918288970132e+000,-6.00783983800444e+000

3.47755156008335e+005,-8.18901194683221e+000,-6.09083634439759e+000

3.52609637080511e+005,-8.18883211055396e+000,-6.17498459795008e+000

3.57531884183106e+005,-8.18864309161119e+000,-6.26030110903749e+000

3.62522843294651e+005,-8.18844459469927e+000,-6.34680263625078e+000

3.67583473599047e+005,-8.18823631835563e+000,-6.43450618981986e+000

3.72714747669902e+005,-8.18801795484412e+000,-6.52342903508001e+000

3.77917651657445e+005,-8.18778919003207e+000,-6.61358869597986e+000

3.83193185478053e+005,-8.18754970326026e+000,-6.70500295863617e+000

3.88542363006410e+005,-8.18729916720474e+000,-6.79768987493731e+000

3.93966212270369e+005,-8.18703724773082e+000,-6.89166776619738e+000

3.99465775648511e+005,-8.18676360373850e+000,-6.98695522686600e+000

4.05042110070485e+005,-8.18647788699955e+000,-7.08357112829378e+000

4.10696287220124e+005,-8.18617974198568e+000,-7.18153462256020e+000

4.16429393741414e+005,-8.18586880568729e+000,-7.28086514636476e+000

4.22242531447321e+005,-8.18554470742341e+000,-7.38158242498472e+000

4.28136817531551e+005,-8.18520706864166e+000,-7.48370647630468e+000

4.34113384783250e+005,-8.18485550270880e+000,-7.58725761491938e+000

4.40173381804713e+005,-8.18448961469126e+000,-7.69225645631514e+000

4.46317973232124e+005,-8.18410900112536e+000,-7.79872392113191e+000

4.52548339959385e+005,-8.18371324977779e+000,-7.90668123951120e+000

4.58865679365059e+005,-8.18330193939530e+000,-8.01614995553210e+000

4.65271205542494e+005,-8.18287463944399e+000,-8.12715193174093e+000

4.71766149533147e+005,-8.18243090983811e+000,-8.23970935377638e+000

4.78351759563174e+005,-8.18197030065799e+000,-8.35384473509611e+000

4.85029301283321e+005,-8.18149235185731e+000,-8.46958092180632e+000

4.91800058012158e+005,-8.18099659295923e+000,-8.58694109760136e+000

4.98665330982714e+005,-8.18048254274182e+000,-8.70594878881385e+000

5.05626439592555e+005,-8.17994970891226e+000,-8.82662786958255e+000

5.12684721657352e+005,-8.17939758777012e+000,-8.94900256713975e+000

5.19841533667984e+005,-8.17882566385921e+000,-9.07309746722325e+000

5.27098251051240e+005,-8.17823340960882e+000,-9.19893751961685e+000

5.34456268434150e+005,-8.17762028496292e+000,-9.32654804382450e+000

5.41916999912011e+005,-8.17698573699897e+000,-9.45595473487966e+000

