Freq.,VOut,OutRef

1.00000000000000e+004,-3.63585002396609e+000,-6.30870554701953e-002

1.01395947979003e+004,-3.63585067898387e+000,-6.39675746169353e-002

1.02811382665607e+004,-3.63585135237738e+000,-6.48603792737849e-002

1.04246576084112e+004,-3.63585204466052e+000,-6.57656406857975e-002

1.05701804056138e+004,-3.63585275636243e+000,-6.66835324708816e-002

1.07177346253629e+004,-3.63585348802626e+000,-6.76142306647662e-002

1.08673486252606e+004,-3.63585424021106e+000,-6.85579137436996e-002

1.10190511587661e+004,-3.63585501349008e+000,-6.95147626712803e-002

1.11728713807222e+004,-3.63585580845439e+000,-7.04849609129557e-002

1.13288388529580e+004,-3.63585662570976e+000,-7.14686944927941e-002

1.14869835499703e+004,-3.63585746587977e+000,-7.24661520116288e-002

1.16473358646846e+004,-3.63585832960527e+000,-7.34775246892306e-002

1.18099266142953e+004,-3.63585921754478e+000,-7.45030064001888e-002

1.19747870461893e+004,-3.63586013037501e+000,-7.55427937103399e-002

1.21419488439505e+004,-3.63586106879168e+000,-7.65970859119808e-002

1.23114441334492e+004,-3.63586203350973e+000,-7.76660850629998e-002

1.24833054890161e+004,-3.63586302526421e+000,-7.87499960219471e-002

1.26575659397028e+004,-3.63586404480988e+000,-7.98490264932584e-002

1.28342589756290e+004,-3.63586509292332e+000,-8.09633870556174e-002

1.30134185544193e+004,-3.63586617040201e+000,-8.20932912114073e-002

1.31950791077289e+004,-3.63586727806583e+000,-8.32389554202699e-002

1.33792755478611e+004,-3.63586841675757e+000,-8.44005991402848e-002

1.35660432744767e+004,-3.63586958734263e+000,-8.55784448748803e-002

1.37554181813974e+004,-3.63587079071115e+000,-8.67727182049588e-002

1.39474366635040e+004,-3.63587202777763e+000,-8.79836478372705e-002

1.41421356237309e+004,-3.63587329948168e+000,-8.92114656465088e-002

1.43395524801583e+004,-3.63587460678946e+000,-9.04564067134180e-002

1.45397251732031e+004,-3.63587595069322e+000,-9.17187093764477e-002

1.47426921729110e+004,-3.63587733221264e+000,-9.29986152719440e-002

1.49484924863494e+004,-3.63587875239607e+000,-9.42963693751326e-002

1.51571656651040e+004,-3.63588021232060e+000,-9.56122200506030e-002

1.53687518128801e+004,-3.63588171309268e+000,-9.69464190992091e-002

1.55832915932100e+004,-3.63588325584958e+000,-9.82992218004829e-002

1.58008262372675e+004,-3.63588484176015e+000,-9.96708869595508e-002

1.60213975517924e+004,-3.63588647202479e+000,-1.01061676961464e-001

1.62450479271247e+004,-3.63588814787735e+000,-1.02471857811997e-001

1.64718203453514e+004,-3.63588987058582e+000,-1.03901699188630e-001

1.67017583885674e+004,-3.63589164145260e+000,-1.05351474494046e-001

1.69349062472505e+004,-3.63589346181601e+000,-1.06821460901782e-001

1.71713087287550e+004,-3.63589533305120e+000,-1.08311939408726e-001

1.74110112659224e+004,-3.63589725657117e+000,-1.09823194885948e-001

1.76540599258131e+004,-3.63589923382744e+000,-1.11355516131579e-001

1.79005014185594e+004,-3.63590126631137e+000,-1.12909195923982e-001

1.81503831063432e+004,-3.63590335555509e+000,-1.14484531074190e-001

1.84037530124975e+004,-3.63590550313299e+000,-1.16081822478294e-001

1.86606598307361e+004,-3.63590771066196e+000,-1.17701375177345e-001

1.89211529345119e+004,-3.63590997980331e+000,-1.19343498407885e-001

1.91852823865052e+004,-3.63591231226377e+000,-1.21008505658942e-001

1.94530989482457e+004,-3.63591470979659e+000,-1.22696714729581e-001

1.97246540898671e+004,-3.63591717420267e+000,-1.24408447786807e-001

1.99999999999999e+004,-3.63591970733218e+000,-1.26144031421245e-001

2.02791895958005e+004,-3.63592231108506e+000,-1.27903796711343e-001

2.05622765331213e+004,-3.63592498741347e+000,-1.29688079275063e-001

2.08493152168224e+004,-3.63592773832243e+000,-1.31497219335125e-001

2.11403608112276e+004,-3.63593056587088e+000,-1.33331561781934e-001

2.14354692507258e+004,-3.63593347217431e+000,-1.35191456226986e-001

2.17346972505211e+004,-3.63593645940468e+000,-1.37077257075494e-001

2.20381023175322e+004,-3.63593952979304e+000,-1.38989323581832e-001

2.23457427614443e+004,-3.63594268563056e+000,-1.40928019916842e-001

2.26576777059159e+004,-3.63594592927054e+000,-1.42893715228886e-001

2.29739670999406e+004,-3.63594926312895e+000,-1.44886783716278e-001

2.32946717293690e+004,-3.63595268968745e+000,-1.46907604683876e-001

2.36198532285905e+004,-3.63595621149389e+000,-1.48956562618515e-001

2.39495740923785e+004,-3.63595983116488e+000,-1.51034047248635e-001

2.42838976879009e+004,-3.63596355138696e+000,-1.53140453618525e-001

2.46228882668982e+004,-3.63596737491825e+000,-1.55276182156941e-001

2.49666109780322e+004,-3.63597130459093e+000,-1.57441638742312e-001

2.53151318794055e+004,-3.63597534331265e+000,-1.59637234777351e-001

2.56685179512580e+004,-3.63597949406856e+000,-1.61863387257735e-001

2.60268371088386e+004,-3.63598375992294e+000,-1.64120518847691e-001

2.63901582154578e+004,-3.63598814402188e+000,-1.66409057947781e-001

2.67585510957221e+004,-3.63599264959454e+000,-1.68729438772736e-001

2.71320865489533e+004,-3.63599727995550e+000,-1.71082101424776e-001

2.75108363627948e+004,-3.63600203850701e+000,-1.73467491967334e-001

2.78948733270080e+004,-3.63600692874106e+000,-1.75886062501392e-001

2.82842712474618e+004,-3.63601195424140e+000,-1.78338271243356e-001

2.86791049603164e+004,-3.63601711868614e+000,-1.80824582600546e-001

2.90794503464061e+004,-3.63602242584942e+000,-1.83345467252502e-001

2.94853843458219e+004,-3.63602787960449e+000,-1.85901402225330e-001

2.98969849726987e+004,-3.63603348392563e+000,-1.88492870974873e-001

3.03143313302078e+004,-3.63603924289046e+000,-1.91120363466814e-001

3.07375036257601e+004,-3.63604516068265e+000,-1.93784376257169e-001

3.11665831864199e+004,-3.63605124159436e+000,-1.96485412574827e-001

3.16016524745350e+004,-3.63605749002877e+000,-1.99223982403214e-001

3.20427951035848e+004,-3.63606391050265e+000,-2.02000602565408e-001

3.24900958542493e+004,-3.63607050764902e+000,-2.04815796807372e-001

3.29436406907028e+004,-3.63607728621969e+000,-2.07670095883924e-001

3.34035167771346e+004,-3.63608425108818e+000,-2.10564037643794e-001

3.38698124945009e+004,-3.63609140725240e+000,-2.13498167116547e-001

3.43426174575100e+004,-3.63609875983765e+000,-2.16473036597749e-001

3.48220225318448e+004,-3.63610631409885e+000,-2.19489205742742e-001

3.53081198516260e+004,-3.63611407542407e+000,-2.22547241649209e-001

3.58010028371187e+004,-3.63612204933732e+000,-2.25647718949029e-001

3.63007662126863e+004,-3.63613024150129e+000,-2.28791219899566e-001

3.68075060249948e+004,-3.63613865772067e+000,-2.31978334472349e-001

3.73213196614721e+004,-3.63614730394463e+000,-2.35209660448126e-001

3.78423058690237e+004,-3.63615618627070e+000,-2.38485803504336e-001

3.83705647730104e+004,-3.63616531094710e+000,-2.41807377313356e-001

3.89061978964912e+004,-3.63617468437661e+000,-2.45175003631137e-001

3.94493081797342e+004,-3.63618431311923e+000,-2.48589312394469e-001

3.99999999999998e+004,-3.63619420389516e+000,-2.52050941818307e-001

4.05583791916010e+004,-3.63620436358887e+000,-2.55560538484859e-001

4.11245530662425e+004,-3.63621479925165e+000,-2.59118757445745e-001

4.16986304336447e+004,-3.63622551810503e+000,-2.62726262316386e-001

4.22807216224550e+004,-3.63623652754432e+000,-2.66383725373371e-001

4.28709385014515e+004,-3.63624783514128e+000,-2.70091827655458e-001

4.34693945010421e+004,-3.63625944864831e+000,-2.73851259056924e-001

4.40762046350642e+004,-3.63627137600116e+000,-2.77662718431844e-001

4.46914855228886e+004,-3.63628362532239e+000,-2.81526913691112e-001

4.53153554118317e+004,-3.63629620492457e+000,-2.85444561905188e-001

4.59479341998812e+004,-3.63630912331406e+000,-2.89416389401633e-001

4.65893434587380e+004,-3.63632238919349e+000,-2.93443131871336e-001

4.72397064571810e+004,-3.63633601146601e+000,-2.97525534465189e-001

4.78991481847569e+004,-3.63634999923785e+000,-3.01664351900559e-001

4.85677953758016e+004,-3.63636436182176e+000,-3.05860348562683e-001

4.92457765337964e+004,-3.63637910874030e+000,-3.10114298608422e-001

4.99332219560642e+004,-3.63639424972898e+000,-3.14426986069815e-001

5.06302637588109e+004,-3.63640979473903e+000,-3.18799204960219e-001

5.13370359025159e+004,-3.63642575394126e+000,-3.23231759374880e-001

5.20536742176771e+004,-3.63644213772832e+000,-3.27725463600253e-001

5.27803164309155e+004,-3.63645895671766e+000,-3.32281142219310e-001

5.35171021914442e+004,-3.63647622175477e+000,-3.36899630215415e-001

5.42641730979066e+004,-3.63649394391594e+000,-3.41581773078509e-001

5.50216727255895e+004,-3.63651213451032e+000,-3.46328426915513e-001

5.57897466540159e+004,-3.63653080508304e+000,-3.51140458554051e-001

5.65685424949235e+004,-3.63654996741759e+000,-3.56018745650091e-001

5.73582099206328e+004,-3.63656963353762e+000,-3.60964176798781e-001

5.81589006928121e+004,-3.63658981570959e+000,-3.65977651639430e-001

5.89707686916437e+004,-3.63661052644463e+000,-3.71060080965393e-001

5.97939699453972e+004,-3.63663177850014e+000,-3.76212386833574e-001

6.06286626604156e+004,-3.63665358488172e+000,-3.81435502671859e-001

6.14750072515201e+004,-3.63667595884439e+000,-3.86730373390772e-001

6.23331663728396e+004,-3.63669891389383e+000,-3.92097955492074e-001

6.32033049490698e+004,-3.63672246378710e+000,-3.97539217181915e-001

6.40855902071694e+004,-3.63674662253392e+000,-4.03055138476896e-001

6.49801917084985e+004,-3.63677140439672e+000,-4.08646711318819e-001

6.58872813814055e+004,-3.63679682389087e+000,-4.14314939685299e-001

6.68070335542691e+004,-3.63682289578462e+000,-4.20060839701324e-001

6.77396249890018e+004,-3.63684963509825e+000,-4.25885439754414e-001

6.86852349150199e+004,-3.63687705710397e+000,-4.31789780602989e-001

6.96440450636895e+004,-3.63690517732425e+000,-4.37774915493412e-001

7.06162397032520e+004,-3.63693401153018e+000,-4.43841910274164e-001

7.16020056742374e+004,-3.63696357573992e+000,-4.49991843508837e-001

7.26015324253724e+004,-3.63699388621582e+000,-4.56225806593529e-001

7.36150120499896e+004,-3.63702495946183e+000,-4.62544903872329e-001

7.46426393229441e+004,-3.63705681222008e+000,-4.68950252754458e-001

7.56846117380472e+004,-3.63708946146700e+000,-4.75442983832823e-001

7.67411295460207e+004,-3.63712292440897e+000,-4.82024241002650e-001

7.78123957929823e+004,-3.63715721847735e+000,-4.88695181581629e-001

7.88986163594682e+004,-3.63719236132259e+000,-4.95456976433133e-001

7.99999999999995e+004,-3.63722837080876e+000,-5.02310810086109e-001

8.11167583832018e+004,-3.63726526500612e+000,-5.09257880861504e-001

8.22491061324848e+004,-3.63730306218377e+000,-5.16299400997832e-001

8.33972608672892e+004,-3.63734178080171e+000,-5.23436596777215e-001

8.45614432449099e+004,-3.63738143950147e+000,-5.30670708657729e-001

8.57418770029029e+004,-3.63742205709684e+000,-5.38002991402009e-001

8.69387890020841e+004,-3.63746365256308e+000,-5.45434714213247e-001

8.81524092701283e+004,-3.63750624502578e+000,-5.52967160869607e-001

8.93829710457770e+004,-3.63754985374859e+000,-5.60601629864859e-001

9.06307108236633e+004,-3.63759449812001e+000,-5.68339434550289e-001

9.18958683997622e+004,-3.63764019763972e+000,-5.76181903278331e-001

9.31786869174758e+004,-3.63768697190326e+000,-5.84130379553153e-001

9.44794129143618e+004,-3.63773484058651e+000,-5.92186222180565e-001

9.57982963695136e+004,-3.63778382342872e+000,-6.00350805424383e-001

9.71355907516031e+004,-3.63783394021401e+000,-6.08625519170280e-001

9.84915530675926e+004,-3.63788521075300e+000,-6.17011769086686e-001

9.98664439121282e+004,-3.63793765486245e+000,-6.25510976796731e-001

1.01260527517622e+005,-3.63799129234394e+000,-6.34124580054049e-001

1.02674071805032e+005,-3.63804614296155e+000,-6.42854032923495e-001

1.04107348435354e+005,-3.63810222641838e+000,-6.51700805968001e-001

1.05560632861831e+005,-3.63815956233184e+000,-6.60666386443024e-001

1.07034204382888e+005,-3.63821817020746e+000,-6.69752278497904e-001

1.08528346195813e+005,-3.63827806941208e+000,-6.78960003383188e-001

1.10043345451179e+005,-3.63833927914528e+000,-6.88291099667330e-001

1.11579493308032e+005,-3.63840181840968e+000,-6.97747123462014e-001

1.13137084989847e+005,-3.63846570598016e+000,-7.07329648654628e-001

1.14716419841265e+005,-3.63853096037174e+000,-7.17040267152607e-001

1.16317801385624e+005,-3.63859759980590e+000,-7.26880589136612e-001

1.17941537383287e+005,-3.63866564217602e+000,-7.36852243323885e-001

1.19587939890794e+005,-3.63873510501161e+000,-7.46956877243294e-001

1.21257325320831e+005,-3.63880600544075e+000,-7.57196157523369e-001

1.22950014503040e+005,-3.63887836015182e+000,-7.67571770190558e-001

1.24666332745679e+005,-3.63895218535385e+000,-7.78085420982006e-001

1.26406609898139e+005,-3.63902749673569e+000,-7.88738835671002e-001

1.28171180414339e+005,-3.63910430942367e+000,-7.99533760410052e-001

1.29960383416997e+005,-3.63918263793883e+000,-8.10471962082870e-001

1.31774562762811e+005,-3.63926249615246e+000,-8.21555228677218e-001

1.33614067108538e+005,-3.63934389724067e+000,-8.32785369674019e-001

1.35479249978003e+005,-3.63942685363842e+000,-8.44164216448327e-001

1.37370469830040e+005,-3.63951137699188e+000,-8.55693622694909e-001

1.39288090127379e+005,-3.63959747811054e+000,-8.67375464867189e-001

1.41232479406504e+005,-3.63968516691837e+000,-8.79211642636771e-001

1.43204011348474e+005,-3.63977445240406e+000,-8.91204079372521e-001

1.45203064850745e+005,-3.63986534257063e+000,-9.03354722641776e-001

1.47230024099979e+005,-3.63995784438503e+000,-9.15665544727764e-001

1.49285278645888e+005,-3.64005196372633e+000,-9.28138543175080e-001

1.51369223476094e+005,-3.64014770533480e+000,-9.40775741350411e-001

1.53482259092041e+005,-3.64024507275967e+000,-9.53579189030077e-001

1.55624791585964e+005,-3.64034406830723e+000,-9.66550963011790e-001

1.57797232718936e+005,-3.64044469298935e+000,-9.79693167745075e-001

1.59999999999999e+005,-3.64054694647153e+000,-9.93007935989568e-001

1.62233516766403e+005,-3.64065082702170e+000,-1.00649742949779e+000

1.64498212264969e+005,-3.64075633145918e+000,-1.02016383972033e+000

1.66794521734578e+005,-3.64086345510462e+000,-1.03400938853810e+000

1.69122886489819e+005,-3.64097219173037e+000,-1.04803632901912e+000

1.71483754005805e+005,-3.64108253351198e+000,-1.06224694620166e+000

1.73877578004168e+005,-3.64119447098105e+000,-1.07664355789929e+000

1.76304818540256e+005,-3.64130799297855e+000,-1.09122851553863e+000

1.78765942091554e+005,-3.64142308661085e+000,-1.10600420501498e+000

1.81261421647326e+005,-3.64153973720605e+000,-1.12097304757931e+000

1.83791736799524e+005,-3.64165792827358e+000,-1.13613750074488e+000

1.86357373834951e+005,-3.64177764146433e+000,-1.15150005922657e+000

1.88958825828723e+005,-3.64189885653423e+000,-1.16706325589567e+000

1.91596592739027e+005,-3.64202155130945e+000,-1.18282966276652e+000

1.94271181503206e+005,-3.64214570165457e+000,-1.19880189200215e+000

1.96983106135185e+005,-3.64227128144319e+000,-1.21498259694540e+000

1.99732887824256e+005,-3.64239826253159e+000,-1.23137447317157e+000

2.02521055035243e+005,-3.64252661473576e+000,-1.24798025956077e+000

2.05348143610063e+005,-3.64265630581112e+000,-1.26480273939495e+000

2.08214696870707e+005,-3.64278730143617e+000,-1.28184474146944e+000

2.11121265723661e+005,-3.64291956519937e+000,-1.29910914122769e+000

2.14068408765776e+005,-3.64305305858978e+000,-1.31659886191036e+000

2.17056692391625e+005,-3.64318774099161e+000,-1.33431687572198e+000

2.20086690902357e+005,-3.64332356968275e+000,-1.35226620501112e+000

2.23158986616063e+005,-3.64346049983700e+000,-1.37044992346579e+000

2.26274169979693e+005,-3.64359848453104e+000,-1.38887115731785e+000

2.29432839682530e+005,-3.64373747475484e+000,-1.40753308656239e+000

2.32635602771247e+005,-3.64387741942686e+000,-1.42643894618147e+000

2.35883074766574e+005,-3.64401826541370e+000,-1.44559202737623e+000

2.39175879781588e+005,-3.64415995755316e+000,-1.46499567880747e+000

2.42514650641661e+005,-3.64430243868284e+000,-1.48465330783561e+000

2.45900029006080e+005,-3.64444564967198e+000,-1.50456838176594e+000

2.49332665491357e+005,-3.64458952945841e+000,-1.52474442909292e+000

2.52813219796278e+005,-3.64473401508904e+000,-1.54518504074273e+000

2.56342360828676e+005,-3.64487904176483e+000,-1.56589387131544e+000

2.59920766833993e+005,-3.64502454288987e+000,-1.58687464031766e+000

2.63549125525621e+005,-3.64517045012421e+000,-1.60813113339272e+000

2.67228134217075e+005,-3.64531669344045e+000,-1.62966720354145e+000

2.70958499956006e+005,-3.64546320118393e+000,-1.65148677233299e+000

2.74740939660078e+005,-3.64560990013682e+000,-1.67359383110352e+000

2.78576180254757e+005,-3.64575671558479e+000,-1.69599244214340e+000

2.82464958813007e+005,-3.64590357138712e+000,-1.71868673987053e+000

2.86408022696948e+005,-3.64605039004955e+000,-1.74168093198662e+000

2.90406129701488e+005,-3.64619709279948e+000,-1.76497930061855e+000

2.94460048199957e+005,-3.64634359966379e+000,-1.78858620344073e+000

2.98570557291775e+005,-3.64648982954848e+000,-1.81250607477872e+000

3.02738446952187e+005,-3.64663570031977e+000,-1.83674342669559e+000

3.06964518184081e+005,-3.64678112888718e+000,-1.86130285005402e+000

3.11249583171928e+005,-3.64692603128718e+000,-1.88618901556167e+000

3.15594465437872e+005,-3.64707032276762e+000,-1.91140667479326e+000

3.19999999999997e+005,-3.64721391787312e+000,-1.93696066119050e+000

3.24467033532806e+005,-3.64735673052987e+000,-1.96285589104230e+000

3.28996424529938e+005,-3.64749867413058e+000,-1.98909736444270e+000

3.33589043469155e+005,-3.64763966161875e+000,-2.01569016622686e+000

3.38245772979638e+005,-3.64777960557212e+000,-2.04263946688591e+000

3.42967508011610e+005,-3.64791841828455e+000,-2.06995052346328e+000

3.47755156008335e+005,-3.64805601184676e+000,-2.09762868042752e+000

3.52609637080511e+005,-3.64819229822466e+000,-2.12567937053060e+000

3.57531884183106e+005,-3.64832718933573e+000,-2.15410811564451e+000

3.62522843294651e+005,-3.64846059712291e+000,-2.18292052758185e+000

3.67583473599047e+005,-3.64859243362534e+000,-2.21212230890189e+000

3.72714747669902e+005,-3.64872261104611e+000,-2.24171925370115e+000

3.77917651657445e+005,-3.64885104181685e+000,-2.27171724838992e+000

3.83193185478053e+005,-3.64897763865806e+000,-2.30212227246033e+000

3.88542363006410e+005,-3.64910231463614e+000,-2.33294039924218e+000

3.93966212270369e+005,-3.64922498321568e+000,-2.36417779665279e+000

3.99465775648511e+005,-3.64934555830809e+000,-2.39584072793866e+000

4.05042110070485e+005,-3.64946395431495e+000,-2.42793555241567e+000

4.10696287220124e+005,-3.64958008616712e+000,-2.46046872620616e+000

4.16429393741414e+005,-3.64969386935899e+000,-2.49344680297437e+000

4.22242531447321e+005,-3.64980521997726e+000,-2.52687643466808e+000

4.28136817531551e+005,-3.64991405472532e+000,-2.56076437226018e+000

4.34113384783250e+005,-3.65002029094177e+000,-2.59511746650001e+000

4.40173381804713e+005,-3.65012384661408e+000,-2.62994266867098e+000

4.46317973232124e+005,-3.65022464038675e+000,-2.66524703136113e+000

4.52548339959385e+005,-3.65032259156420e+000,-2.70103770924523e+000

4.58865679365059e+005,-3.65041762010810e+000,-2.73732195988262e+000

4.65271205542494e+005,-3.65050964662964e+000,-2.77410714453183e+000

4.71766149533147e+005,-3.65059859237612e+000,-2.81140072898547e+000

4.78351759563174e+005,-3.65068437921253e+000,-2.84921028442558e+000

4.85029301283321e+005,-3.65076692959760e+000,-2.88754348830252e+000

4.91800058012158e+005,-3.65084616655465e+000,-2.92640812524089e+000

4.98665330982714e+005,-3.65092201363793e+000,-2.96581208796829e+000

5.05626439592555e+005,-3.65099439489282e+000,-3.00576337827931e+000

5.12684721657352e+005,-3.65106323481223e+000,-3.04627010802436e+000

5.19841533667984e+005,-3.65112845828742e+000,-3.08734050013491e+000

5.27098251051240e+005,-3.65118999055469e+000,-3.12898288967988e+000

5.34456268434150e+005,-3.65124775713690e+000,-3.17120572496033e+000

5.41916999912011e+005,-3.65130168378131e+000,-3.21401756863842e+000

