Freq.,VOut,OutRef

1.00000000000000e+004,-1.69645631492006e+001,-1.03058033594715e-001

1.01395947979003e+004,-1.69645669494868e+001,-1.04495877012528e-001

1.02811382665607e+004,-1.69645708563945e+001,-1.05953758343831e-001

1.04246576084112e+004,-1.69645748729090e+001,-1.07431955881724e-001

1.05701804056138e+004,-1.69645790020986e+001,-1.08930751744848e-001

1.07177346253629e+004,-1.69645832471172e+001,-1.10450431925941e-001

1.08673486252606e+004,-1.69645876112061e+001,-1.11991286348073e-001

1.10190511587661e+004,-1.69645920976978e+001,-1.13553608908797e-001

1.11728713807222e+004,-1.69645967100169e+001,-1.15137697539062e-001

1.13288388529580e+004,-1.69646014516834e+001,-1.16743854256564e-001

1.14869835499703e+004,-1.69646063263154e+001,-1.18372385216755e-001

1.16473358646846e+004,-1.69646113376317e+001,-1.20023600766549e-001

1.18099266142953e+004,-1.69646164894546e+001,-1.21697815502787e-001

1.19747870461893e+004,-1.69646217857129e+001,-1.23395348324667e-001

1.21419488439505e+004,-1.69646272304436e+001,-1.25116522497207e-001

1.23114441334492e+004,-1.69646328277972e+001,-1.26861665697579e-001

1.24833054890161e+004,-1.69646385820389e+001,-1.28631110080227e-001

1.26575659397028e+004,-1.69646444975522e+001,-1.30425192333756e-001

1.28342589756290e+004,-1.69646505788425e+001,-1.32244253738996e-001

1.30134185544193e+004,-1.69646568305405e+001,-1.34088640228070e-001

1.31950791077289e+004,-1.69646632574049e+001,-1.35958702447076e-001

1.33792755478611e+004,-1.69646698643270e+001,-1.37854795813028e-001

1.35660432744767e+004,-1.69646766563327e+001,-1.39777280582192e-001

1.37554181813974e+004,-1.69646836385878e+001,-1.41726521905037e-001

1.39474366635040e+004,-1.69646908164017e+001,-1.43702889888885e-001

1.41421356237309e+004,-1.69646981952299e+001,-1.45706759669854e-001

1.43395524801583e+004,-1.69647057806793e+001,-1.47738511469125e-001

1.45397251732031e+004,-1.69647135785118e+001,-1.49798530659595e-001

1.47426921729110e+004,-1.69647215946490e+001,-1.51887207830599e-001

1.49484924863494e+004,-1.69647298351754e+001,-1.54004938859878e-001

1.51571656651040e+004,-1.69647383063445e+001,-1.56152124969016e-001

1.53687518128801e+004,-1.69647470145817e+001,-1.58329172802916e-001

1.55832915932100e+004,-1.69647559664900e+001,-1.60536494489664e-001

1.58008262372675e+004,-1.69647651688547e+001,-1.62774507709837e-001

1.60213975517924e+004,-1.69647746286482e+001,-1.65043635769480e-001

1.62450479271247e+004,-1.69647843530346e+001,-1.67344307667654e-001

1.64718203453514e+004,-1.69647943493754e+001,-1.69676958167779e-001

1.67017583885674e+004,-1.69648046252349e+001,-1.72042027866424e-001

1.69349062472505e+004,-1.69648151883852e+001,-1.74439963267579e-001

1.71713087287550e+004,-1.69648260468124e+001,-1.76871216853367e-001

1.74110112659224e+004,-1.69648372087216e+001,-1.79336247157642e-001

1.76540599258131e+004,-1.69648486825431e+001,-1.81835518840315e-001

1.79005014185594e+004,-1.69648604769388e+001,-1.84369502757282e-001

1.81503831063432e+004,-1.69648726008079e+001,-1.86938676040676e-001

1.84037530124975e+004,-1.69648850632929e+001,-1.89543522171816e-001

1.86606598307361e+004,-1.69648978737874e+001,-1.92184531053477e-001

1.89211529345119e+004,-1.69649110419414e+001,-1.94862199090699e-001

1.91852823865052e+004,-1.69649245776685e+001,-1.97577029265798e-001

1.94530989482457e+004,-1.69649384911537e+001,-2.00329531213675e-001

1.97246540898671e+004,-1.69649527928588e+001,-2.03120221304695e-001

1.99999999999999e+004,-1.69649674935321e+001,-2.05949622714770e-001

2.02791895958005e+004,-1.69649826042134e+001,-2.08818265513317e-001

2.05622765331213e+004,-1.69649981362437e+001,-2.11726686734024e-001

2.08493152168224e+004,-1.69650141012724e+001,-2.14675430456994e-001

2.11403608112276e+004,-1.69650305112647e+001,-2.17665047893762e-001

2.14354692507258e+004,-1.69650473785111e+001,-2.20696097457570e-001

2.17346972505211e+004,-1.69650647156348e+001,-2.23769144851890e-001

2.20381023175322e+004,-1.69650825356008e+001,-2.26884763149537e-001

2.23457427614443e+004,-1.69651008517253e+001,-2.30043532869090e-001

2.26576777059159e+004,-1.69651196776839e+001,-2.33246042061939e-001

2.29739670999406e+004,-1.69651390275211e+001,-2.36492886392370e-001

2.32946717293690e+004,-1.69651589156602e+001,-2.39784669217052e-001

2.36198532285905e+004,-1.69651793569130e+001,-2.43122001669074e-001

2.39495740923785e+004,-1.69652003664891e+001,-2.46505502740420e-001

2.42838976879009e+004,-1.69652219600070e+001,-2.49935799359986e-001

2.46228882668982e+004,-1.69652441535040e+001,-2.53413526480434e-001

2.49666109780322e+004,-1.69652669634466e+001,-2.56939327160185e-001

2.53151318794055e+004,-1.69652904067420e+001,-2.60513852640510e-001

2.56685179512580e+004,-1.69653145007488e+001,-2.64137762433959e-001

2.60268371088386e+004,-1.69653392632886e+001,-2.67811724400419e-001

2.63901582154578e+004,-1.69653647126573e+001,-2.71536414834579e-001

2.67585510957221e+004,-1.69653908676372e+001,-2.75312518542083e-001

2.71320865489533e+004,-1.69654177475093e+001,-2.79140728923967e-001

2.75108363627948e+004,-1.69654453720652e+001,-2.83021748055896e-001

2.78948733270080e+004,-1.69654737616200e+001,-2.86956286769355e-001

2.82842712474618e+004,-1.69655029370253e+001,-2.90945064732174e-001

2.86791049603164e+004,-1.69655329196819e+001,-2.94988810526724e-001

2.90794503464061e+004,-1.69655637315540e+001,-2.99088261727308e-001

2.94853843458219e+004,-1.69655953951818e+001,-3.03244164983535e-001

2.98969849726987e+004,-1.69656279336965e+001,-3.07457276091925e-001

3.03143313302078e+004,-1.69656613708340e+001,-3.11728360074658e-001

3.07375036257601e+004,-1.69656957309491e+001,-3.16058191257894e-001

3.11665831864199e+004,-1.69657310390309e+001,-3.20447553340990e-001

3.16016524745350e+004,-1.69657673207174e+001,-3.24897239474486e-001

3.20427951035848e+004,-1.69658046023110e+001,-3.29408052331757e-001

3.24900958542493e+004,-1.69658429107938e+001,-3.33980804178453e-001

3.29436406907028e+004,-1.69658822738437e+001,-3.38616316945732e-001

3.34035167771346e+004,-1.69659227198504e+001,-3.43315422293962e-001

3.38698124945009e+004,-1.69659642779320e+001,-3.48078961682409e-001

3.43426174575100e+004,-1.69660069779507e+001,-3.52907786437811e-001

3.48220225318448e+004,-1.69660508505314e+001,-3.57802757809693e-001

3.53081198516260e+004,-1.69660959270772e+001,-3.62764747038765e-001

3.58010028371187e+004,-1.69661422397874e+001,-3.67794635415842e-001

3.63007662126863e+004,-1.69661898216757e+001,-3.72893314335260e-001

3.68075060249948e+004,-1.69662387065872e+001,-3.78061685354963e-001

3.73213196614721e+004,-1.69662889292172e+001,-3.83300660245100e-001

3.78423058690237e+004,-1.69663405251292e+001,-3.88611161043379e-001

3.83705647730104e+004,-1.69663935307737e+001,-3.93994120098165e-001

3.89061978964912e+004,-1.69664479835067e+001,-3.99450480116926e-001

3.94493081797342e+004,-1.69665039216095e+001,-4.04981194205658e-001

3.99999999999998e+004,-1.69665613843066e+001,-4.10587225911232e-001

4.05583791916010e+004,-1.69666204117867e+001,-4.16269549253070e-001

4.11245530662425e+004,-1.69666810452206e+001,-4.22029148760429e-001

4.16986304336447e+004,-1.69667433267822e+001,-4.27867019497852e-001

4.22807216224550e+004,-1.69668072996679e+001,-4.33784167091166e-001

4.28709385014515e+004,-1.69668730081163e+001,-4.39781607752185e-001

4.34693945010421e+004,-1.69669404974290e+001,-4.45860368290280e-001

4.40762046350642e+004,-1.69670098139900e+001,-4.52021486131432e-001

4.46914855228886e+004,-1.69670810052865e+001,-4.58266009324180e-001

4.53153554118317e+004,-1.69671541199291e+001,-4.64594996544527e-001

4.59479341998812e+004,-1.69672292076717e+001,-4.71009517097733e-001

4.65893434587380e+004,-1.69673063194327e+001,-4.77510650908781e-001

4.72397064571810e+004,-1.69673855073144e+001,-4.84099488517009e-001

4.78991481847569e+004,-1.69674668246235e+001,-4.90777131058806e-001

4.85677953758016e+004,-1.69675503258916e+001,-4.97544690246054e-001

4.92457765337964e+004,-1.69676360668949e+001,-5.04403288339347e-001

4.99332219560642e+004,-1.69677241046739e+001,-5.11354058118725e-001

5.06302637588109e+004,-1.69678144975534e+001,-5.18398142842006e-001

5.13370359025159e+004,-1.69679073051617e+001,-5.25536696202142e-001

5.20536742176771e+004,-1.69680025884497e+001,-5.32770882276997e-001

5.27803164309155e+004,-1.69681004097099e+001,-5.40101875469364e-001

5.35171021914442e+004,-1.69682008325949e+001,-5.47530860445330e-001

5.42641730979066e+004,-1.69683039221348e+001,-5.55059032062823e-001

5.50216727255895e+004,-1.69684097447556e+001,-5.62687595293831e-001

5.57897466540159e+004,-1.69685183682955e+001,-5.70417765137590e-001

5.65685424949235e+004,-1.69686298620217e+001,-5.78250766528419e-001

5.73582099206328e+004,-1.69687442966460e+001,-5.86187834238105e-001

5.81589006928121e+004,-1.69688617443399e+001,-5.94230212762474e-001

5.89707686916437e+004,-1.69689822787487e+001,-6.02379156210452e-001

5.97939699453972e+004,-1.69691059750050e+001,-6.10635928177978e-001

6.06286626604156e+004,-1.69692329097412e+001,-6.19001801615156e-001

6.14750072515201e+004,-1.69693631611007e+001,-6.27478058687677e-001

6.23331663728396e+004,-1.69694968087486e+001,-6.36065990626174e-001

6.32033049490698e+004,-1.69696339338802e+001,-6.44766897571429e-001

6.40855902071694e+004,-1.69697746192298e+001,-6.53582088405447e-001

6.49801917084985e+004,-1.69699189490762e+001,-6.62512880580255e-001

6.58872813814055e+004,-1.69700670092485e+001,-6.71560599933433e-001

6.68070335542691e+004,-1.69702188871290e+001,-6.80726580496904e-001

6.77396249890018e+004,-1.69703746716554e+001,-6.90012164297052e-001

6.86852349150199e+004,-1.69705344533207e+001,-6.99418701145144e-001

6.96440450636895e+004,-1.69706983241709e+001,-7.08947548422021e-001

7.06162397032520e+004,-1.69708663778017e+001,-7.18600070850029e-001

7.16020056742374e+004,-1.69710387093520e+001,-7.28377640261788e-001

7.26015324253724e+004,-1.69712154154958e+001,-7.38281635355446e-001

7.36150120499896e+004,-1.69713965944315e+001,-7.48313441446163e-001

7.46426393229441e+004,-1.69715823458683e+001,-7.58474450209576e-001

7.56846117380472e+004,-1.69717727710110e+001,-7.68766059413428e-001

7.67411295460207e+004,-1.69719679725405e+001,-7.79189672648291e-001

7.78123957929823e+004,-1.69721680545926e+001,-7.89746699047240e-001

7.88986163594682e+004,-1.69723731227336e+001,-8.00438552999461e-001

7.99999999999995e+004,-1.69725832839313e+001,-8.11266653861271e-001

8.11167583832018e+004,-1.69727986465248e+001,-8.22232425656783e-001

8.22491061324848e+004,-1.69730193201887e+001,-8.33337296778641e-001

8.33972608672892e+004,-1.69732454158950e+001,-8.44582699680433e-001

8.45614432449099e+004,-1.69734770458702e+001,-8.55970070568876e-001

8.57418770029029e+004,-1.69737143235491e+001,-8.67500849090693e-001

8.69387890020841e+004,-1.69739573635239e+001,-8.79176478020617e-001

8.81524092701283e+004,-1.69742062814894e+001,-8.90998402944432e-001

8.93829710457770e+004,-1.69744611941830e+001,-9.02968071945984e-001

9.06307108236633e+004,-1.69747222193209e+001,-9.15086935293236e-001

9.18958683997622e+004,-1.69749894755285e+001,-9.27356445126639e-001

9.31786869174758e+004,-1.69752630822670e+001,-9.39778055151229e-001

9.44794129143618e+004,-1.69755431597536e+001,-9.52353220334038e-001

9.57982963695136e+004,-1.69758298288770e+001,-9.65083396606522e-001

9.71355907516031e+004,-1.69761232111080e+001,-9.77970040577189e-001

9.84915530675926e+004,-1.69764234284031e+001,-9.91014609248376e-001

9.98664439121282e+004,-1.69767306031037e+001,-1.00421855975162e+000

1.01260527517622e+005,-1.69770448578289e+001,-1.01758334908905e+000

1.02674071805032e+005,-1.69773663153619e+001,-1.03111043389264e+000

1.04107348435354e+005,-1.69776950985310e+001,-1.04480127020062e+000

1.05560632861831e+005,-1.69780313300842e+001,-1.05865731325023e+000

1.07034204382888e+005,-1.69783751325571e+001,-1.07268001729401e+000

1.08528346195813e+005,-1.69787266281347e+001,-1.08687083543802e+000

1.10043345451179e+005,-1.69790859385067e+001,-1.10123121950693e+000

1.11579493308032e+005,-1.69794531847166e+001,-1.11576261993432e+000

1.13137084989847e+005,-1.69798284870033e+001,-1.13046648568867e+000

1.14716419841265e+005,-1.69802119646373e+001,-1.14534426422865e+000

1.16317801385624e+005,-1.69806037357496e+001,-1.16039740149659e+000

1.17941537383287e+005,-1.69810039171541e+001,-1.17562734194895e+000

1.19587939890794e+005,-1.69814126241638e+001,-1.19103552863433e+000

1.21257325320831e+005,-1.69818299704001e+001,-1.20662340330989e+000

1.22950014503040e+005,-1.69822560675964e+001,-1.22239240660954e+000

1.24666332745679e+005,-1.69826910253946e+001,-1.23834397826448e+000

1.26406609898139e+005,-1.69831349511363e+001,-1.25447955737525e+000

1.28171180414339e+005,-1.69835879496474e+001,-1.27080058274606e+000

1.29960383416997e+005,-1.69840501230179e+001,-1.28730849327379e+000

1.31774562762811e+005,-1.69845215703751e+001,-1.30400472841003e+000

1.33614067108538e+005,-1.69850023876526e+001,-1.32089072868280e+000

1.35479249978003e+005,-1.69854926673536e+001,-1.33796793629634e+000

1.37370469830040e+005,-1.69859924983103e+001,-1.35523779580049e+000

1.39288090127379e+005,-1.69865019654388e+001,-1.37270175484117e+000

1.41232479406504e+005,-1.69870211494904e+001,-1.39036126499025e+000

1.43204011348474e+005,-1.69875501267994e+001,-1.40821778266051e+000

1.45203064850745e+005,-1.69880889690284e+001,-1.42627277010893e+000

1.47230024099979e+005,-1.69886377429109e+001,-1.44452769652817e+000

1.49285278645888e+005,-1.69891965099931e+001,-1.46298403923381e+000

1.51369223476094e+005,-1.69897653263735e+001,-1.48164328494783e+000

1.53482259092041e+005,-1.69903442424430e+001,-1.50050693117715e+000

1.55624791585964e+005,-1.69909333026251e+001,-1.51957648769874e+000

1.57797232718936e+005,-1.69915325451164e+001,-1.53885347814455e+000

1.59999999999999e+005,-1.69921420016303e+001,-1.55833944169175e+000

1.62233516766403e+005,-1.69927616971422e+001,-1.57803593486209e+000

1.64498212264969e+005,-1.69933916496385e+001,-1.59794453342785e+000

1.66794521734578e+005,-1.69940318698700e+001,-1.61806683442896e+000

1.69122886489819e+005,-1.69946823611106e+001,-1.63840445829792e+000

1.71483754005805e+005,-1.69953431189221e+001,-1.65895905109888e+000

1.73877578004168e+005,-1.69960141309262e+001,-1.67973228687536e+000

1.76304818540256e+005,-1.69966953765846e+001,-1.70072587011029e+000

1.78765942091554e+005,-1.69973868269883e+001,-1.72194153829310e+000

1.81261421647326e+005,-1.69980884446570e+001,-1.74338106459957e+000

1.83791736799524e+005,-1.69988001833499e+001,-1.76504626067628e+000

1.86357373834951e+005,-1.69995219878884e+001,-1.78693897952958e+000

1.88958825828723e+005,-1.70002537939921e+001,-1.80906111852104e+000

1.91596592739027e+005,-1.70009955281298e+001,-1.83141462245659e+000

1.94271181503206e+005,-1.70017471073843e+001,-1.85400148677860e+000

1.96983106135185e+005,-1.70025084393355e+001,-1.87682376084326e+000

1.99732887824256e+005,-1.70032794219589e+001,-1.89988355129116e+000

2.02521055035243e+005,-1.70040599435437e+001,-1.92318302549613e+000

2.05348143610063e+005,-1.70048498826294e+001,-1.94672441509565e+000

2.08214696870707e+005,-1.70056491079627e+001,-1.97051001958569e+000

2.11121265723661e+005,-1.70064574784750e+001,-1.99454220998810e+000

2.14068408765776e+005,-1.70072748432823e+001,-2.01882343256827e+000

2.17056692391625e+005,-1.70081010417066e+001,-2.04335621260656e+000

2.20086690902357e+005,-1.70089359033208e+001,-2.06814315821299e+000

2.23158986616063e+005,-1.70097792480172e+001,-2.09318696417163e+000

2.26274169979693e+005,-1.70106308861005e+001,-2.11849041581425e+000

2.29432839682530e+005,-1.70114906184043e+001,-2.14405639290797e+000

2.32635602771247e+005,-1.70123582364338e+001,-2.16988787355193e+000

2.35883074766574e+005,-1.70132335225327e+001,-2.19598793806809e+000

2.39175879781588e+005,-1.70141162500761e+001,-2.22235977288327e+000

2.42514650641661e+005,-1.70150061836878e+001,-2.24900667438625e+000

2.45900029006080e+005,-1.70159030794841e+001,-2.27593205275423e+000

2.49332665491357e+005,-1.70168066853415e+001,-2.30313943573440e+000

2.52813219796278e+005,-1.70177167411900e+001,-2.33063247237557e+000

2.56342360828676e+005,-1.70186329793305e+001,-2.35841493669445e+000

2.59920766833993e+005,-1.70195551247764e+001,-2.38649073126974e+000

2.63549125525621e+005,-1.70204828956178e+001,-2.41486389075415e+000

2.67228134217075e+005,-1.70214160034097e+001,-2.44353858529206e+000

2.70958499956006e+005,-1.70223541535800e+001,-2.47251912383663e+000

2.74740939660078e+005,-1.70232970458601e+001,-2.50180995735563e+000

2.78576180254757e+005,-1.70242443747343e+001,-2.53141568191585e+000

2.82464958813007e+005,-1.70251958299078e+001,-2.56134104164233e+000

2.86408022696948e+005,-1.70261510967928e+001,-2.59159093153883e+000

2.90406129701488e+005,-1.70271098570096e+001,-2.62217040016762e+000

2.94460048199957e+005,-1.70280717889033e+001,-2.65308465217782e+000

2.98570557291775e+005,-1.70290365680728e+001,-2.68433905067965e+000

3.02738446952187e+005,-1.70300038679122e+001,-2.71593911945713e+000

3.06964518184081e+005,-1.70309733601617e+001,-2.74789054501547e+000

3.11249583171928e+005,-1.70319447154667e+001,-2.78019917845971e+000

3.15594465437872e+005,-1.70329176039436e+001,-2.81287103720066e+000

3.19999999999997e+005,-1.70338916957510e+001,-2.84591230648698e+000

3.24467033532806e+005,-1.70348666616626e+001,-2.87932934076193e+000

3.28996424529938e+005,-1.70358421736433e+001,-2.91312866484253e+000

3.33589043469155e+005,-1.70368179054230e+001,-2.94731697492524e+000

3.38245772979638e+005,-1.70377935330692e+001,-2.98190113941409e+000

3.42967508011610e+005,-1.70387687355553e+001,-3.01688819957856e+000

3.47755156008335e+005,-1.70397431953231e+001,-3.05228537004017e+000

3.52609637080511e+005,-1.70407165988378e+001,-3.08810003909261e+000

3.57531884183106e+005,-1.70416886371338e+001,-3.12433976886148e+000

3.62522843294651e+005,-1.70426590063504e+001,-3.16101229530541e+000

3.67583473599047e+005,-1.70436274082544e+001,-3.19812552806728e+000

3.72714747669902e+005,-1.70445935507495e+001,-3.23568755018060e+000

3.77917651657445e+005,-1.70455571483702e+001,-3.27370661763985e+000

3.83193185478053e+005,-1.70465179227604e+001,-3.31219115883896e+000

3.88542363006410e+005,-1.70474756031327e+001,-3.35114977389103e+000

3.93966212270369e+005,-1.70484299267106e+001,-3.39059123383443e+000

3.99465775648511e+005,-1.70493806391498e+001,-3.43052447973582e+000

4.05042110070485e+005,-1.70503274949397e+001,-3.47095862170047e+000

4.10696287220124e+005,-1.70512702577832e+001,-3.51190293779701e+000

4.16429393741414e+005,-1.70522087009544e+001,-3.55336687291076e+000

4.22242531447321e+005,-1.70531426076334e+001,-3.59536003753225e+000

4.28136817531551e+005,-1.70540717712185e+001,-3.63789220649501e+000

4.34113384783250e+005,-1.70549959956146e+001,-3.68097331766820e+000

4.40173381804713e+005,-1.70559150954980e+001,-3.72461347062158e+000

4.46317973232124e+005,-1.70568288965575e+001,-3.76882292526626e+000

4.52548339959385e+005,-1.70577372357113e+001,-3.81361210048693e+000

4.58865679365059e+005,-1.70586399613006e+001,-3.85899157277349e+000

4.65271205542494e+005,-1.70595369332596e+001,-3.90497207486260e+000

4.71766149533147e+005,-1.70604280232618e+001,-3.95156449439880e+000

4.78351759563174e+005,-1.70613131148443e+001,-3.99877987262658e+000

4.85029301283321e+005,-1.70621921035088e+001,-4.04662940311929e+000

4.91800058012158e+005,-1.70630648968013e+001,-4.09512443055924e+000

4.98665330982714e+005,-1.70639314143702e+001,-4.14427644956944e+000

5.05626439592555e+005,-1.70647915880051e+001,-4.19409710361472e+000

5.12684721657352e+005,-1.70656453616535e+001,-4.24459818397291e+000

5.19841533667984e+005,-1.70664926914216e+001,-4.29579162878479e+000

5.27098251051240e+005,-1.70673335455541e+001,-4.34768952219309e+000

5.34456268434150e+005,-1.70681679043998e+001,-4.40030409357167e+000

5.41916999912011e+005,-1.70689957603583e+001,-4.45364771685486e+000

