Freq.,VOut,OutRef

1.00000000000000e+004,-1.64765168294493e+001,-1.19664091804231e-001

1.01395947979003e+004,-1.64765180910667e+001,-1.21334290939427e-001

1.02811382665607e+004,-1.64765193880843e+001,-1.23027794612516e-001

1.04246576084112e+004,-1.64765207214935e+001,-1.24744927694477e-001

1.05701804056138e+004,-1.64765220923134e+001,-1.26486019572433e-001

1.07177346253629e+004,-1.64765235015914e+001,-1.28251404211182e-001

1.08673486252606e+004,-1.64765249504040e+001,-1.30041420219501e-001

1.10190511587661e+004,-1.64765264398578e+001,-1.31856410908427e-001

1.11728713807222e+004,-1.64765279710902e+001,-1.33696724362233e-001

1.13288388529580e+004,-1.64765295452705e+001,-1.35562713496804e-001

1.14869835499703e+004,-1.64765311636002e+001,-1.37454736134849e-001

1.16473358646846e+004,-1.64765328273145e+001,-1.39373155065252e-001

1.18099266142953e+004,-1.64765345376830e+001,-1.41318338115968e-001

1.19747870461893e+004,-1.64765362960104e+001,-1.43290658223390e-001

1.21419488439505e+004,-1.64765381036379e+001,-1.45290493500399e-001

1.23114441334492e+004,-1.64765399619438e+001,-1.47318227308454e-001

1.24833054890161e+004,-1.64765418723451e+001,-1.49374248328106e-001

1.26575659397028e+004,-1.64765438362977e+001,-1.51458950635274e-001

1.28342589756290e+004,-1.64765458552984e+001,-1.53572733771498e-001

1.30134185544193e+004,-1.64765479308851e+001,-1.55716002822655e-001

1.31950791077289e+004,-1.64765500646389e+001,-1.57889168490252e-001

1.33792755478611e+004,-1.64765522581845e+001,-1.60092647172324e-001

1.35660432744767e+004,-1.64765545131917e+001,-1.62326861039720e-001

1.37554181813974e+004,-1.64765568313766e+001,-1.64592238113897e-001

1.39474366635040e+004,-1.64765592145027e+001,-1.66889212351136e-001

1.41421356237309e+004,-1.64765616643829e+001,-1.69218223716502e-001

1.43395524801583e+004,-1.64765641828800e+001,-1.71579718271501e-001

1.45397251732031e+004,-1.64765667719082e+001,-1.73974148256199e-001

1.47426921729110e+004,-1.64765694334348e+001,-1.76401972173158e-001

1.49484924863494e+004,-1.64765721694818e+001,-1.78863654870124e-001

1.51571656651040e+004,-1.64765749821268e+001,-1.81359667630059e-001

1.53687518128801e+004,-1.64765778735049e+001,-1.83890488257809e-001

1.55832915932100e+004,-1.64765808458100e+001,-1.86456601167262e-001

1.58008262372675e+004,-1.64765839012972e+001,-1.89058497470650e-001

1.60213975517924e+004,-1.64765870422833e+001,-1.91696675072335e-001

1.62450479271247e+004,-1.64765902711490e+001,-1.94371638759603e-001

1.64718203453514e+004,-1.64765935903409e+001,-1.97083900294646e-001

1.67017583885674e+004,-1.64765970023728e+001,-1.99833978510192e-001

1.69349062472505e+004,-1.64766005098277e+001,-2.02622399405257e-001

1.71713087287550e+004,-1.64766041153601e+001,-2.05449696240613e-001

1.74110112659224e+004,-1.64766078216970e+001,-2.08316409638228e-001

1.76540599258131e+004,-1.64766116316406e+001,-2.11223087680981e-001

1.79005014185594e+004,-1.64766155480701e+001,-2.14170286010430e-001

1.81503831063432e+004,-1.64766195739437e+001,-2.17158567932711e-001

1.84037530124975e+004,-1.64766237123006e+001,-2.20188504518169e-001

1.86606598307361e+004,-1.64766279662636e+001,-2.23260674706882e-001

1.89211529345119e+004,-1.64766323390408e+001,-2.26375665414000e-001

1.91852823865052e+004,-1.64766368339284e+001,-2.29534071637706e-001

1.94530989482457e+004,-1.64766414543126e+001,-2.32736496564921e-001

1.97246540898671e+004,-1.64766462036720e+001,-2.35983551684990e-001

1.99999999999999e+004,-1.64766510855805e+001,-2.39275856896703e-001

2.02791895958005e+004,-1.64766561037091e+001,-2.42614040622716e-001

2.05622765331213e+004,-1.64766612618295e+001,-2.45998739920325e-001

2.08493152168224e+004,-1.64766665638157e+001,-2.49430600601019e-001

2.11403608112276e+004,-1.64766720136472e+001,-2.52910277343078e-001

2.14354692507258e+004,-1.64766776154119e+001,-2.56438433809939e-001

2.17346972505211e+004,-1.64766833733083e+001,-2.60015742771453e-001

2.20381023175322e+004,-1.64766892916495e+001,-2.63642886220288e-001

2.23457427614443e+004,-1.64766953748650e+001,-2.67320555498019e-001

2.26576777059159e+004,-1.64767016275043e+001,-2.71049451416551e-001

2.29739670999406e+004,-1.64767080542404e+001,-2.74830284383072e-001

2.32946717293690e+004,-1.64767146598719e+001,-2.78663774526307e-001

2.36198532285905e+004,-1.64767214493276e+001,-2.82550651823862e-001

2.39495740923785e+004,-1.64767284276689e+001,-2.86491656231518e-001

2.42838976879009e+004,-1.64767356000933e+001,-2.90487537815140e-001

2.46228882668982e+004,-1.64767429719385e+001,-2.94539056880365e-001

2.49666109780322e+004,-1.64767505486851e+001,-2.98646984108639e-001

2.53151318794055e+004,-1.64767583359611e+001,-3.02812100690399e-001

2.56685179512580e+004,-1.64767663395452e+001,-3.07035198461917e-001

2.60268371088386e+004,-1.64767745653704e+001,-3.11317080045601e-001

2.63901582154578e+004,-1.64767830195286e+001,-3.15658558985711e-001

2.67585510957221e+004,-1.64767917082739e+001,-3.20060459892907e-001

2.71320865489533e+004,-1.64768006380271e+001,-3.24523618584444e-001

2.75108363627948e+004,-1.64768098153796e+001,-3.29048882229581e-001

2.78948733270080e+004,-1.64768192470980e+001,-3.33637109495574e-001

2.82842712474618e+004,-1.64768289401278e+001,-3.38289170694550e-001

2.86791049603164e+004,-1.64768389015989e+001,-3.43005947929830e-001

2.90794503464061e+004,-1.64768491388290e+001,-3.47788335250848e-001

2.94853843458219e+004,-1.64768596593289e+001,-3.52637238800909e-001

2.98969849726987e+004,-1.64768704708069e+001,-3.57553576973406e-001

3.03143313302078e+004,-1.64768815811741e+001,-3.62538280562897e-001

3.07375036257601e+004,-1.64768929985486e+001,-3.67592292926155e-001

3.11665831864199e+004,-1.64769047312607e+001,-3.72716570138659e-001

3.16016524745350e+004,-1.64769167878586e+001,-3.77912081150923e-001

3.20427951035848e+004,-1.64769291771129e+001,-3.83179807953987e-001

3.24900958542493e+004,-1.64769419080219e+001,-3.88520745739461e-001

3.29436406907028e+004,-1.64769549898175e+001,-3.93935903064708e-001

3.34035167771346e+004,-1.64769684319702e+001,-3.99426302016957e-001

3.38698124945009e+004,-1.64769822441947e+001,-4.04992978383267e-001

3.43426174575100e+004,-1.64769964364559e+001,-4.10636981817163e-001

3.48220225318448e+004,-1.64770110189745e+001,-4.16359376007808e-001

3.53081198516260e+004,-1.64770260022325e+001,-4.22161238855610e-001

3.58010028371187e+004,-1.64770413969798e+001,-4.28043662640776e-001

3.63007662126863e+004,-1.64770572142396e+001,-4.34007754201952e-001

3.68075060249948e+004,-1.64770734653151e+001,-4.40054635110023e-001

3.73213196614721e+004,-1.64770901617952e+001,-4.46185441846280e-001

3.78423058690237e+004,-1.64771073155612e+001,-4.52401325983427e-001

3.83705647730104e+004,-1.64771249387929e+001,-4.58703454362317e-001

3.89061978964912e+004,-1.64771430439755e+001,-4.65093009277923e-001

3.94493081797342e+004,-1.64771616439054e+001,-4.71571188660902e-001

3.99999999999998e+004,-1.64771807516978e+001,-4.78139206261857e-001

4.05583791916010e+004,-1.64772003807927e+001,-4.84798291839082e-001

4.11245530662425e+004,-1.64772205449619e+001,-4.91549691345490e-001

4.16986304336447e+004,-1.64772412583159e+001,-4.98394667117904e-001

4.22807216224550e+004,-1.64772625353105e+001,-5.05334498067431e-001

4.28709385014515e+004,-1.64772843907544e+001,-5.12370479869986e-001

4.34693945010421e+004,-1.64773068398156e+001,-5.19503925162033e-001

4.40762046350642e+004,-1.64773298980289e+001,-5.26736163731847e-001

4.46914855228886e+004,-1.64773535813027e+001,-5.34068542716857e-001

4.53153554118317e+004,-1.64773779059263e+001,-5.41502426800431e-001

4.59479341998812e+004,-1.64774028885769e+001,-5.49039198410405e-001

4.65893434587380e+004,-1.64774285463274e+001,-5.56680257916346e-001

4.72397064571810e+004,-1.64774548966527e+001,-5.64427023833242e-001

4.78991481847569e+004,-1.64774819574377e+001,-5.72280933020178e-001

4.85677953758016e+004,-1.64775097469840e+001,-5.80243440885650e-001

4.92457765337964e+004,-1.64775382840175e+001,-5.88316021590430e-001

4.99332219560642e+004,-1.64775675876951e+001,-5.96500168252750e-001

5.06302637588109e+004,-1.64775976776124e+001,-6.04797393155312e-001

5.13370359025159e+004,-1.64776285738102e+001,-6.13209227952205e-001

5.20536742176771e+004,-1.64776602967823e+001,-6.21737223877303e-001

5.27803164309155e+004,-1.64776928674814e+001,-6.30382951954180e-001

5.35171021914442e+004,-1.64777263073271e+001,-6.39148003205935e-001

5.42641730979066e+004,-1.64777606382118e+001,-6.48033988868640e-001

5.50216727255895e+004,-1.64777958825079e+001,-6.57042540601580e-001

5.57897466540159e+004,-1.64778320630737e+001,-6.66175310703426e-001

5.65685424949235e+004,-1.64778692032609e+001,-6.75433972323951e-001

5.73582099206328e+004,-1.64779073269191e+001,-6.84820219683800e-001

5.81589006928121e+004,-1.64779464584034e+001,-6.94335768286917e-001

5.89707686916437e+004,-1.64779866225796e+001,-7.03982355140357e-001

5.97939699453972e+004,-1.64780278448290e+001,-7.13761738973948e-001

6.06286626604156e+004,-1.64780701510552e+001,-7.23675700457936e-001

6.14750072515201e+004,-1.64781135676875e+001,-7.33726042425676e-001

6.23331663728396e+004,-1.64781581216871e+001,-7.43914590093523e-001

6.32033049490698e+004,-1.64782038405503e+001,-7.54243191284880e-001

6.40855902071694e+004,-1.64782507523130e+001,-7.64713716655042e-001

6.49801917084985e+004,-1.64782988855549e+001,-7.75328059913457e-001

6.58872813814055e+004,-1.64783482694013e+001,-7.86088138053603e-001

6.68070335542691e+004,-1.64783989335272e+001,-7.96995891577916e-001

6.77396249890018e+004,-1.64784509081592e+001,-8.08053284727330e-001

6.86852349150199e+004,-1.64785042240769e+001,-8.19262305712496e-001

6.96440450636895e+004,-1.64785589126144e+001,-8.30624966943131e-001

7.06162397032520e+004,-1.64786150056611e+001,-8.42143305263430e-001

7.16020056742374e+004,-1.64786725356615e+001,-8.53819382185135e-001

7.26015324253724e+004,-1.64787315356147e+001,-8.65655284124592e-001

7.36150120499896e+004,-1.64787920390731e+001,-8.77653122641124e-001

7.46426393229441e+004,-1.64788540801399e+001,-8.89815034676396e-001

7.56846117380472e+004,-1.64789176934670e+001,-9.02143182798286e-001

7.67411295460207e+004,-1.64789829142508e+001,-9.14639755443363e-001

7.78123957929823e+004,-1.64790497782279e+001,-9.27306967164879e-001

7.88986163594682e+004,-1.64791183216693e+001,-9.40147058883445e-001

7.99999999999995e+004,-1.64791885813747e+001,-9.53162298136662e-001

8.11167583832018e+004,-1.64792605946643e+001,-9.66354979337725e-001

8.22491061324848e+004,-1.64793343993710e+001,-9.79727424032038e-001

8.33972608672892e+004,-1.64794100338306e+001,-9.93281981160207e-001

8.45614432449099e+004,-1.64794875368710e+001,-1.00702102732448e+000

8.57418770029029e+004,-1.64795669478005e+001,-1.02094696705906e+000

8.69387890020841e+004,-1.64796483063949e+001,-1.03506223310392e+000

8.81524092701283e+004,-1.64797316528823e+001,-1.04936928668642e+000

8.93829710457770e+004,-1.64798170279282e+001,-1.06387061780502e+000

9.06307108236633e+004,-1.64799044726181e+001,-1.07856874551912e+000

9.18958683997622e+004,-1.64799940284387e+001,-1.09346621824779e+000

9.31786869174758e+004,-1.64800857372580e+001,-1.10856561407020e+000

9.44794129143618e+004,-1.64801796413037e+001,-1.12386954103861e+000

9.57982963695136e+004,-1.64802757831400e+001,-1.13938063749405e+000

9.71355907516031e+004,-1.64803742056429e+001,-1.15510157239265e+000

9.84915530675926e+004,-1.64804749519735e+001,-1.17103504564005e+000

9.98664439121282e+004,-1.64805780655500e+001,-1.18718378843581e+000

1.01260527517622e+005,-1.64806835900178e+001,-1.20355056362576e+000

1.02674071805032e+005,-1.64807915692174e+001,-1.22013816606689e+000

1.04107348435354e+005,-1.64809020471514e+001,-1.23694942300361e+000

1.05560632861831e+005,-1.64810150679488e+001,-1.25398719445332e+000

1.07034204382888e+005,-1.64811306758277e+001,-1.27125437360877e+000

1.08528346195813e+005,-1.64812489150562e+001,-1.28875388725091e+000

1.10043345451179e+005,-1.64813698299114e+001,-1.30648869617743e+000

1.11579493308032e+005,-1.64814934646359e+001,-1.32446179564753e+000

1.13137084989847e+005,-1.64816198633935e+001,-1.34267621584057e+000

1.14716419841265e+005,-1.64817490702219e+001,-1.36113502233353e+000

1.16317801385624e+005,-1.64818811289835e+001,-1.37984131659758e+000

1.17941537383287e+005,-1.64820160833151e+001,-1.39879823651154e+000

1.19587939890794e+005,-1.64821539765750e+001,-1.41800895689678e+000

1.21257325320831e+005,-1.64822948517881e+001,-1.43747669007282e+000

1.22950014503040e+005,-1.64824387515898e+001,-1.45720468643609e+000

1.24666332745679e+005,-1.64825857181669e+001,-1.47719623506165e+000

1.26406609898139e+005,-1.64827357931986e+001,-1.49745466432884e+000

1.28171180414339e+005,-1.64828890177937e+001,-1.51798334257315e+000

1.29960383416997e+005,-1.64830454324271e+001,-1.53878567876545e+000

1.31774562762811e+005,-1.64832050768758e+001,-1.55986512321710e+000

1.33614067108538e+005,-1.64833679901507e+001,-1.58122516831748e+000

1.35479249978003e+005,-1.64835342104301e+001,-1.60286934929852e+000

1.37370469830040e+005,-1.64837037749896e+001,-1.62480124503314e+000

1.39288090127379e+005,-1.64838767201321e+001,-1.64702447886366e+000

1.41232479406504e+005,-1.64840530811161e+001,-1.66954271946810e+000

1.43204011348474e+005,-1.64842328920839e+001,-1.69235968175605e+000

1.45203064850745e+005,-1.64844161859882e+001,-1.71547912780510e+000

1.47230024099979e+005,-1.64846029945188e+001,-1.73890486783262e+000

1.49285278645888e+005,-1.64847933480289e+001,-1.76264076120360e+000

1.51369223476094e+005,-1.64849872754607e+001,-1.78669071748249e+000

1.53482259092041e+005,-1.64851848042719e+001,-1.81105869751861e+000

1.55624791585964e+005,-1.64853859603618e+001,-1.83574871457962e+000

1.57797232718936e+005,-1.64855907679984e+001,-1.86076483551999e+000

1.59999999999999e+005,-1.64857992497461e+001,-1.88611118199657e+000

1.62233516766403e+005,-1.64860114263942e+001,-1.91179193172593e+000

1.64498212264969e+005,-1.64862273168868e+001,-1.93781131978539e+000

1.66794521734578e+005,-1.64864469382551e+001,-1.96417363995760e+000

1.69122886489819e+005,-1.64866703055503e+001,-1.99088324612132e+000

1.71483754005805e+005,-1.64868974317795e+001,-2.01794455368678e+000

1.73877578004168e+005,-1.64871283278439e+001,-2.04536204107444e+000

1.76304818540256e+005,-1.64873630024801e+001,-2.07314025124206e+000

1.78765942091554e+005,-1.64876014622039e+001,-2.10128379325381e+000

1.81261421647326e+005,-1.64878437112579e+001,-2.12979734389749e+000

1.83791736799524e+005,-1.64880897515637e+001,-2.15868564934290e+000

1.86357373834951e+005,-1.64883395826765e+001,-2.18795352684725e+000

1.88958825828723e+005,-1.64885932017462e+001,-2.21760586650217e+000

1.91596592739027e+005,-1.64888506034815e+001,-2.24764763302553e+000

1.94271181503206e+005,-1.64891117801207e+001,-2.27808386759163e+000

1.96983106135185e+005,-1.64893767214063e+001,-2.30891968970661e+000

1.99732887824256e+005,-1.64896454145677e+001,-2.34016029911845e+000

2.02521055035243e+005,-1.64899178443073e+001,-2.37181097776898e+000

2.05348143610063e+005,-1.64901939927954e+001,-2.40387709177994e+000

2.08214696870707e+005,-1.64904738396705e+001,-2.43636409347482e+000

2.11121265723661e+005,-1.64907573620465e+001,-2.46927752343292e+000

2.14068408765776e+005,-1.64910445345284e+001,-2.50262301257506e+000

2.17056692391625e+005,-1.64913353292339e+001,-2.53640628427707e+000

2.20086690902357e+005,-1.64916297158238e+001,-2.57063315650975e+000

2.23158986616063e+005,-1.64919276615401e+001,-2.60530954400353e+000

2.26274169979693e+005,-1.64922291312519e+001,-2.64044146043311e+000

2.29432839682530e+005,-1.64925340875100e+001,-2.67603502062201e+000

2.32635602771247e+005,-1.64928424906094e+001,-2.71209644276296e+000

2.35883074766574e+005,-1.64931542986606e+001,-2.74863205065023e+000

2.39175879781588e+005,-1.64934694676696e+001,-2.78564827592306e+000

2.42514650641661e+005,-1.64937879516258e+001,-2.82315166031696e+000

2.45900029006080e+005,-1.64941097025991e+001,-2.86114885791701e+000

2.49332665491357e+005,-1.64944346708458e+001,-2.89964663741442e+000

2.52813219796278e+005,-1.64947628049216e+001,-2.93865188436070e+000

2.56342360828676e+005,-1.64950940518047e+001,-2.97817160341548e+000

2.59920766833993e+005,-1.64954283570261e+001,-3.01821292058857e+000

2.63549125525621e+005,-1.64957656648083e+001,-3.05878308546927e+000

2.67228134217075e+005,-1.64961059182114e+001,-3.09988947344321e+000

2.70958499956006e+005,-1.64964490592879e+001,-3.14153958789097e+000

2.74740939660078e+005,-1.64967950292435e+001,-3.18374106236996e+000

2.78576180254757e+005,-1.64971437686059e+001,-3.22650166277126e+000

2.82464958813007e+005,-1.64974952174001e+001,-3.26982928945468e+000

2.86408022696948e+005,-1.64978493153300e+001,-3.31373197935530e+000

2.90406129701488e+005,-1.64982060019658e+001,-3.35821790806297e+000

2.94460048199957e+005,-1.64985652169367e+001,-3.40329539186972e+000

2.98570557291775e+005,-1.64989269001299e+001,-3.44897288978526e+000

3.02738446952187e+005,-1.64992909918925e+001,-3.49525900551929e+000

3.06964518184081e+005,-1.64996574332387e+001,-3.54216248942685e+000

3.11249583171928e+005,-1.65000261660607e+001,-3.58969224041931e+000

3.15594465437872e+005,-1.65003971333415e+001,-3.63785730783760e+000

3.19999999999997e+005,-1.65007702793719e+001,-3.68666689328747e+000

3.24467033532806e+005,-1.65011455499685e+001,-3.73613035243724e+000

3.28996424529938e+005,-1.65015228926935e+001,-3.78625719677842e+000

3.33589043469155e+005,-1.65019022570754e+001,-3.83705709534744e+000

3.38245772979638e+005,-1.65022835948306e+001,-3.88853987641103e+000

3.42967508011610e+005,-1.65026668600844e+001,-3.94071552911640e+000

3.47755156008335e+005,-1.65030520095915e+001,-3.99359420510337e+000

3.52609637080511e+005,-1.65034390029557e+001,-4.04718622008591e+000

3.57531884183106e+005,-1.65038278028478e+001,-4.10150205539884e+000

3.62522843294651e+005,-1.65042183752214e+001,-4.15655235951553e+000

3.67583473599047e+005,-1.65046106895261e+001,-4.21234794953587e+000

3.72714747669902e+005,-1.65050047189182e+001,-4.26889981264875e+000

3.77917651657445e+005,-1.65054004404673e+001,-4.32621910757073e+000

3.83193185478053e+005,-1.65057978353601e+001,-4.38431716596298e+000

3.88542363006410e+005,-1.65061968890988e+001,-4.44320549382947e+000

3.93966212270369e+005,-1.65065975916968e+001,-4.50289577290152e+000

3.99465775648511e+005,-1.65069999378680e+001,-4.56339986200755e+000

4.05042110070485e+005,-1.65074039272124e+001,-4.62472979843581e+000

4.10696287220124e+005,-1.65078095643958e+001,-4.68689779928931e+000

4.16429393741414e+005,-1.65082168593246e+001,-4.74991626284055e+000

4.22242531447321e+005,-1.65086258273150e+001,-4.81379776988556e+000

4.28136817531551e+005,-1.65090364892565e+001,-4.87855508510257e+000

4.34113384783250e+005,-1.65094488717695e+001,-4.94420115842116e+000

4.40173381804713e+005,-1.65098630073580e+001,-5.01074912639928e+000

4.46317973232124e+005,-1.65102789345561e+001,-5.07821231361879e+000

4.52548339959385e+005,-1.65106966980683e+001,-5.14660423409831e+000

4.58865679365059e+005,-1.65111163489057e+001,-5.21593859272790e+000

4.65271205542494e+005,-1.65115379445149e+001,-5.28622928673128e+000

4.71766149533147e+005,-1.65119615489033e+001,-5.35749040715405e+000

4.78351759563174e+005,-1.65123872327580e+001,-5.42973624038697e+000

4.85029301283321e+005,-1.65128150735602e+001,-5.50298126972346e+000

4.91800058012158e+005,-1.65132451556953e+001,-5.57724017695460e+000

4.98665330982714e+005,-1.65136775705574e+001,-5.65252784400798e+000

5.05626439592555e+005,-1.65141124166511e+001,-5.72885935462718e+000

5.12684721657352e+005,-1.65145497996878e+001,-5.80624999610164e+000

5.19841533667984e+005,-1.65149898326798e+001,-5.88471526104289e+000

5.27098251051240e+005,-1.65154326360304e+001,-5.96427084921473e+000

5.34456268434150e+005,-1.65158783376212e+001,-6.04493266941446e+000

5.41916999912011e+005,-1.65163270728973e+001,-6.12671684141252e+000

