Freq.,VOut,OutRef

1.00000000000000e+004,-2.01826216114083e+001,-3.52194041731949e-001

1.01395947979003e+004,-2.01826250702939e+001,-3.57109993107814e-001

1.02811382665607e+004,-2.01826286262903e+001,-3.62094547647175e-001

1.04246576084112e+004,-2.01826322821199e+001,-3.67148662127179e-001

1.05701804056138e+004,-2.01826360405813e+001,-3.72273306643160e-001

1.07177346253629e+004,-2.01826399045520e+001,-3.77469464791233e-001

1.08673486252606e+004,-2.01826438769888e+001,-3.82738133861173e-001

1.10190511587661e+004,-2.01826479609322e+001,-3.88080325017704e-001

1.11728713807222e+004,-2.01826521595069e+001,-3.93497063499334e-001

1.13288388529580e+004,-2.01826564759253e+001,-3.98989388809867e-001

1.14869835499703e+004,-2.01826609134893e+001,-4.04558354914333e-001

1.16473358646846e+004,-2.01826654755930e+001,-4.10205030442012e-001

1.18099266142953e+004,-2.01826701657257e+001,-4.15930498885916e-001

1.19747870461893e+004,-2.01826749874732e+001,-4.21735858812549e-001

1.21419488439505e+004,-2.01826799445223e+001,-4.27622224062728e-001

1.23114441334492e+004,-2.01826850406621e+001,-4.33590723970359e-001

1.24833054890161e+004,-2.01826902797875e+001,-4.39642503571189e-001

1.26575659397028e+004,-2.01826956659023e+001,-4.45778723819983e-001

1.28342589756290e+004,-2.01827012031216e+001,-4.52000561812740e-001

1.30134185544193e+004,-2.01827068956753e+001,-4.58309211006261e-001

1.31950791077289e+004,-2.01827127479112e+001,-4.64705881444589e-001

1.33792755478611e+004,-2.01827187642983e+001,-4.71191799988548e-001

1.35660432744767e+004,-2.01827249494302e+001,-4.77768210544487e-001

1.37554181813974e+004,-2.01827313080281e+001,-4.84436374302547e-001

1.39474366635040e+004,-2.01827378449448e+001,-4.91197569972375e-001

1.41421356237309e+004,-2.01827445651683e+001,-4.98053094023884e-001

1.43395524801583e+004,-2.01827514738252e+001,-5.05004260932283e-001

1.45397251732031e+004,-2.01827585761848e+001,-5.12052403425039e-001

1.47426921729110e+004,-2.01827658776630e+001,-5.19198872733299e-001

1.49484924863494e+004,-2.01827733838261e+001,-5.26445038845038e-001

1.51571656651040e+004,-2.01827811003952e+001,-5.33792290762799e-001

1.53687518128801e+004,-2.01827890332504e+001,-5.41242036764312e-001

1.55832915932100e+004,-2.01827971884351e+001,-5.48795704667370e-001

1.58008262372675e+004,-2.01828055721601e+001,-5.56454742098583e-001

1.60213975517924e+004,-2.01828141908093e+001,-5.64220616760966e-001

1.62450479271247e+004,-2.01828230509432e+001,-5.72094816713041e-001

1.64718203453514e+004,-2.01828321593042e+001,-5.80078850645603e-001

1.67017583885674e+004,-2.01828415228221e+001,-5.88174248162420e-001

1.69349062472505e+004,-2.01828511486182e+001,-5.96382560069095e-001

1.71713087287550e+004,-2.01828610440113e+001,-6.04705358659869e-001

1.74110112659224e+004,-2.01828712165230e+001,-6.13144238013389e-001

1.76540599258131e+004,-2.01828816738828e+001,-6.21700814287633e-001

1.79005014185594e+004,-2.01828924240343e+001,-6.30376726021832e-001

1.81503831063432e+004,-2.01829034751404e+001,-6.39173634443096e-001

1.84037530124975e+004,-2.01829148355900e+001,-6.48093223772857e-001

1.86606598307361e+004,-2.01829265140037e+001,-6.57137201540100e-001

1.89211529345119e+004,-2.01829385192400e+001,-6.66307298900067e-001

1.91852823865052e+004,-2.01829508604017e+001,-6.75605270954561e-001

1.94530989482457e+004,-2.01829635468433e+001,-6.85032897074704e-001

1.97246540898671e+004,-2.01829765881765e+001,-6.94591981234565e-001

1.99999999999999e+004,-2.01829899942784e+001,-7.04284352340639e-001

2.02791895958005e+004,-2.01830037752978e+001,-7.14111864572180e-001

2.05622765331213e+004,-2.01830179416629e+001,-7.24076397722225e-001

2.08493152168224e+004,-2.01830325040887e+001,-7.34179857543750e-001

2.11403608112276e+004,-2.01830474735849e+001,-7.44424176101778e-001

2.14354692507258e+004,-2.01830628614634e+001,-7.54811312127423e-001

2.17346972505211e+004,-2.01830786793470e+001,-7.65343251376141e-001

2.20381023175322e+004,-2.01830949391770e+001,-7.76022006996183e-001

2.23457427614443e+004,-2.01831116532224e+001,-7.86849619893061e-001

2.26576777059159e+004,-2.01831288340881e+001,-7.97828159104941e-001

2.29739670999406e+004,-2.01831464947243e+001,-8.08959722180723e-001

2.32946717293690e+004,-2.01831646484353e+001,-8.20246435561058e-001

2.36198532285905e+004,-2.01831833088892e+001,-8.31690454968016e-001

2.39495740923785e+004,-2.01832024901275e+001,-8.43293965794945e-001

2.42838976879009e+004,-2.01832222065746e+001,-8.55059183506053e-001

2.46228882668982e+004,-2.01832424730483e+001,-8.66988354035918e-001

2.49666109780322e+004,-2.01832633047707e+001,-8.79083754196388e-001

2.53151318794055e+004,-2.01832847173773e+001,-8.91347692089852e-001

2.56685179512580e+004,-2.01833067269297e+001,-9.03782507524480e-001

2.60268371088386e+004,-2.01833293499253e+001,-9.16390572435572e-001

2.63901582154578e+004,-2.01833526033097e+001,-9.29174291314235e-001

2.67585510957221e+004,-2.01833765044877e+001,-9.42136101636221e-001

2.71320865489533e+004,-2.01834010713358e+001,-9.55278474301296e-001

2.75108363627948e+004,-2.01834263222142e+001,-9.68603914073889e-001

2.78948733270080e+004,-2.01834522759795e+001,-9.82114960031220e-001

2.82842712474618e+004,-2.01834789519972e+001,-9.95814186015363e-001

2.86791049603164e+004,-2.01835063701554e+001,-1.00970420109058e+000

2.90794503464061e+004,-2.01835345508778e+001,-1.02378765000788e+000

2.94853843458219e+004,-2.01835635151376e+001,-1.03806721367183e+000

2.98969849726987e+004,-2.01835932844719e+001,-1.05254560961533e+000

3.03143313302078e+004,-2.01836238809955e+001,-1.06722559247897e+000

3.07375036257601e+004,-2.01836553274159e+001,-1.08210995449534e+000

3.11665831864199e+004,-2.01836876470489e+001,-1.09720152597888e+000

3.16016524745350e+004,-2.01837208638330e+001,-1.11250317582260e+000

3.20427951035848e+004,-2.01837550023459e+001,-1.12801781199975e+000

3.24900958542493e+004,-2.01837900878204e+001,-1.14374838206741e+000

3.29436406907028e+004,-2.01838261461604e+001,-1.15969787368420e+000

3.34035167771346e+004,-2.01838632039588e+001,-1.17586931512263e+000

3.38698124945009e+004,-2.01839012885131e+001,-1.19226577579788e+000

3.43426174575100e+004,-2.01839404278444e+001,-1.20889036679367e+000

3.48220225318448e+004,-2.01839806507143e+001,-1.22574624139929e+000

3.53081198516260e+004,-2.01840219866435e+001,-1.24283659565006e+000

3.58010028371187e+004,-2.01840644659306e+001,-1.26016466887252e+000

3.63007662126863e+004,-2.01841081196708e+001,-1.27773374423985e+000

3.68075060249948e+004,-2.01841529797754e+001,-1.29554714932710e+000

3.73213196614721e+004,-2.01841990789917e+001,-1.31360825667636e+000

3.78423058690237e+004,-2.01842464509231e+001,-1.33192048436675e+000

3.83705647730104e+004,-2.01842951300496e+001,-1.35048729658956e+000

3.89061978964912e+004,-2.01843451517487e+001,-1.36931220423045e+000

3.94493081797342e+004,-2.01843965523169e+001,-1.38839876545664e+000

3.99999999999998e+004,-2.01844493689915e+001,-1.40775058630900e+000

4.05583791916010e+004,-2.01845036399723e+001,-1.42737132130360e+000

4.11245530662425e+004,-2.01845594044449e+001,-1.44726467403441e+000

4.16986304336447e+004,-2.01846167026027e+001,-1.46743439778600e+000

4.22807216224550e+004,-2.01846755756710e+001,-1.48788429614985e+000

4.28709385014515e+004,-2.01847360659303e+001,-1.50861822364704e+000

4.34693945010421e+004,-2.01847982167405e+001,-1.52964008635786e+000

4.40762046350642e+004,-2.01848620725656e+001,-1.55095384255594e+000

4.46914855228886e+004,-2.01849276789981e+001,-1.57256350334939e+000

4.53153554118317e+004,-2.01849950827848e+001,-1.59447313332767e+000

4.59479341998812e+004,-2.01850643318523e+001,-1.61668685121370e+000

4.65893434587380e+004,-2.01851354753330e+001,-1.63920883052346e+000

4.72397064571810e+004,-2.01852085635912e+001,-1.66204330023047e+000

4.78991481847569e+004,-2.01852836482504e+001,-1.68519454543540e+000

4.85677953758016e+004,-2.01853607822199e+001,-1.70866690804595e+000

4.92457765337964e+004,-2.01854400197227e+001,-1.73246478745514e+000

4.99332219560642e+004,-2.01855214163230e+001,-1.75659264123407e+000

5.06302637588109e+004,-2.01856050289543e+001,-1.78105498582470e+000

5.13370359025159e+004,-2.01856909159482e+001,-1.80585639724072e+000

5.20536742176771e+004,-2.01857791370625e+001,-1.83100151177613e+000

5.27803164309155e+004,-2.01858697535108e+001,-1.85649502671610e+000

5.35171021914442e+004,-2.01859628279914e+001,-1.88234170105775e+000

5.42641730979066e+004,-2.01860584247171e+001,-1.90854635623410e+000

5.50216727255895e+004,-2.01861566094448e+001,-1.93511387684734e+000

5.57897466540159e+004,-2.01862574495055e+001,-1.96204921140380e+000

5.65685424949235e+004,-2.01863610138346e+001,-1.98935737306018e+000

5.73582099206328e+004,-2.01864673730022e+001,-2.01704344037248e+000

5.81589006928121e+004,-2.01865765992435e+001,-2.04511255805143e+000

5.89707686916437e+004,-2.01866887664896e+001,-2.07356993772680e+000

5.97939699453972e+004,-2.01868039503982e+001,-2.10242085871580e+000

6.06286626604156e+004,-2.01869222283843e+001,-2.13167066879801e+000

6.14750072515201e+004,-2.01870436796510e+001,-2.16132478499776e+000

6.23331663728396e+004,-2.01871683852208e+001,-2.19138869437340e+000

6.32033049490698e+004,-2.01872964279657e+001,-2.22186795481155e+000

6.40855902071694e+004,-2.01874278926384e+001,-2.25276819582992e+000

6.49801917084985e+004,-2.01875628659032e+001,-2.28409511938606e+000

6.58872813814055e+004,-2.01877014363659e+001,-2.31585450069399e+000

6.68070335542691e+004,-2.01878436946047e+001,-2.34805218904641e+000

6.77396249890018e+004,-2.01879897332000e+001,-2.38069410864663e+000

6.86852349150199e+004,-2.01881396467644e+001,-2.41378625944548e+000

6.96440450636895e+004,-2.01882935319722e+001,-2.44733471798808e+000

7.06162397032520e+004,-2.01884514875888e+001,-2.48134563826711e+000

7.16020056742374e+004,-2.01886136144991e+001,-2.51582525258460e+000

7.26015324253724e+004,-2.01887800157362e+001,-2.55077987242204e+000

7.36150120499896e+004,-2.01889507965091e+001,-2.58621588932031e+000

7.46426393229441e+004,-2.01891260642299e+001,-2.62213977576577e+000

7.56846117380472e+004,-2.01893059285405e+001,-2.65855808608898e+000

7.67411295460207e+004,-2.01894905013384e+001,-2.69547745737057e+000

7.78123957929823e+004,-2.01896798968021e+001,-2.73290461035755e+000

7.88986163594682e+004,-2.01898742314155e+001,-2.77084635039167e+000

7.99999999999995e+004,-2.01900736239914e+001,-2.80930956834595e+000

8.11167583832018e+004,-2.01902781956941e+001,-2.84830124157473e+000

8.22491061324848e+004,-2.01904880700612e+001,-2.88782843487440e+000

8.33972608672892e+004,-2.01907033730238e+001,-2.92789830145671e+000

8.45614432449099e+004,-2.01909242329266e+001,-2.96851808393550e+000

8.57418770029029e+004,-2.01911507805457e+001,-3.00969511532585e+000

8.69387890020841e+004,-2.01913831491060e+001,-3.05143682005862e+000

8.81524092701283e+004,-2.01916214742968e+001,-3.09375071500960e+000

8.93829710457770e+004,-2.01918658942862e+001,-3.13664441054406e+000

9.06307108236633e+004,-2.01921165497343e+001,-3.18012561157792e+000

9.18958683997622e+004,-2.01923735838044e+001,-3.22420211865642e+000

9.31786869174758e+004,-2.01926371421734e+001,-3.26888182905102e+000

9.44794129143618e+004,-2.01929073730395e+001,-3.31417273787588e+000

9.57982963695136e+004,-2.01931844271298e+001,-3.36008293922316e+000

9.71355907516031e+004,-2.01934684577045e+001,-3.40662062732204e+000

9.84915530675926e+004,-2.01937596205607e+001,-3.45379409771739e+000

9.98664439121282e+004,-2.01940580740340e+001,-3.50161174847494e+000

1.01260527517622e+005,-2.01943639789975e+001,-3.55008208140833e+000

1.02674071805032e+005,-2.01946774988606e+001,-3.59921370333511e+000

1.04107348435354e+005,-2.01949987995643e+001,-3.64901532735846e+000

1.05560632861831e+005,-2.01953280495755e+001,-3.69949577417812e+000

1.07034204382888e+005,-2.01956654198794e+001,-3.75066397343254e+000

1.08528346195813e+005,-2.01960110839696e+001,-3.80252896507227e+000

1.10043345451179e+005,-2.01963652178369e+001,-3.85509990076670e+000

1.11579493308032e+005,-2.01967279999554e+001,-3.90838604534775e+000

1.13137084989847e+005,-2.01970996112676e+001,-3.96239677828737e+000

1.14716419841265e+005,-2.01974802351676e+001,-4.01714159521733e+000

1.16317801385624e+005,-2.01978700574820e+001,-4.07263010948664e+000

1.17941537383287e+005,-2.01982692664496e+001,-4.12887205376353e+000

1.19587939890794e+005,-2.01986780527000e+001,-4.18587728167995e+000

1.21257325320831e+005,-2.01990966092295e+001,-4.24365576952407e+000

1.22950014503040e+005,-2.01995251313768e+001,-4.30221761797991e+000

1.24666332745679e+005,-2.01999638167970e+001,-4.36157305391779e+000

1.26406609898139e+005,-2.02004128654347e+001,-4.42173243223729e+000

1.28171180414339e+005,-2.02008724794960e+001,-4.48270623776473e+000

1.29960383416997e+005,-2.02013428634204e+001,-4.54450508720724e+000

1.31774562762811e+005,-2.02018242238511e+001,-4.60713973116554e+000

1.33614067108538e+005,-2.02023167696065e+001,-4.67062105620790e+000

1.35479249978003e+005,-2.02028207116507e+001,-4.73496008700684e+000

1.37370469830040e+005,-2.02033362630650e+001,-4.80016798854135e+000

1.39288090127379e+005,-2.02038636390191e+001,-4.86625606836664e+000

1.41232479406504e+005,-2.02044030567445e+001,-4.93323577895182e+000

1.43204011348474e+005,-2.02049547355083e+001,-5.00111872009091e+000

1.45203064850745e+005,-2.02055188965894e+001,-5.06991664138567e+000

1.47230024099979e+005,-2.02060957632557e+001,-5.13964144480427e+000

1.49285278645888e+005,-2.02066855607455e+001,-5.21030518731691e+000

1.51369223476094e+005,-2.02072885162508e+001,-5.28192008360973e+000

1.53482259092041e+005,-2.02079048589040e+001,-5.35449850888022e+000

1.55624791585964e+005,-2.02085348197695e+001,-5.42805300171290e+000

1.57797232718936e+005,-2.02091786318396e+001,-5.50259626703950e+000

1.59999999999999e+005,-2.02098365300348e+001,-5.57814117918271e+000

1.62233516766403e+005,-2.02105087512109e+001,-5.65470078498595e+000

1.64498212264969e+005,-2.02111955341719e+001,-5.73228830702928e+000

1.66794521734578e+005,-2.02118971196903e+001,-5.81091714693200e+000

1.69122886489819e+005,-2.02126137505342e+001,-5.89060088874290e+000

1.71483754005805e+005,-2.02133456715042e+001,-5.97135330241866e+000

1.73877578004168e+005,-2.02140931294778e+001,-6.05318834738910e+000

1.76304818540256e+005,-2.02148563734647e+001,-6.13612017621033e+000

1.78765942091554e+005,-2.02156356546722e+001,-6.22016313830505e+000

1.81261421647326e+005,-2.02164312265815e+001,-6.30533178378868e+000

1.83791736799524e+005,-2.02172433450368e+001,-6.39164086738012e+000

1.86357373834951e+005,-2.02180722683463e+001,-6.47910535239785e+000

1.88958825828723e+005,-2.02189182573972e+001,-6.56774041483576e+000

1.91596592739027e+005,-2.02197815757852e+001,-6.65756144752093e+000

1.94271181503206e+005,-2.02206624899580e+001,-6.74858406434787e+000

1.96983106135185e+005,-2.02215612693756e+001,-6.84082410458908e+000

1.99732887824256e+005,-2.02224781866872e+001,-6.93429763727617e+000

2.02521055035243e+005,-2.02234135179241e+001,-7.02902096565119e+000

2.05348143610063e+005,-2.02243675427121e+001,-7.12501063168192e+000

2.08214696870707e+005,-2.02253405445013e+001,-7.22228342063997e+000

2.11121265723661e+005,-2.02263328108161e+001,-7.32085636573394e+000

2.14068408765776e+005,-2.02273446335248e+001,-7.42074675279622e+000

2.17056692391625e+005,-2.02283763091295e+001,-7.52197212501673e+000

2.20086690902357e+005,-2.02294281390776e+001,-7.62455028771925e+000

2.23158986616063e+005,-2.02305004300945e+001,-7.72849931317383e+000

2.26274169979693e+005,-2.02315934945390e+001,-7.83383754544107e+000

2.29432839682530e+005,-2.02327076507808e+001,-7.94058360524050e+000

2.32635602771247e+005,-2.02338432236009e+001,-8.04875639483893e+000

2.35883074766574e+005,-2.02350005446155e+001,-8.15837510294969e+000

2.39175879781588e+005,-2.02361799527239e+001,-8.26945920963944e+000

2.42514650641661e+005,-2.02373817945792e+001,-8.38202849123200e+000

2.45900029006080e+005,-2.02386064250837e+001,-8.49610302520612e+000

2.49332665491357e+005,-2.02398542079085e+001,-8.61170319507744e+000

2.52813219796278e+005,-2.02411255160359e+001,-8.72884969525881e+000

2.56342360828676e+005,-2.02424207323278e+001,-8.84756353589169e+000

2.59920766833993e+005,-2.02437402501163e+001,-8.96786604764154e+000

2.63549125525621e+005,-2.02450844738190e+001,-9.08977888645027e+000

2.67228134217075e+005,-2.02464538195776e+001,-9.21332403823873e+000

2.70958499956006e+005,-2.02478487159201e+001,-9.33852382355205e+000

2.74740939660078e+005,-2.02492696044451e+001,-9.46540090214164e+000

2.78576180254757e+005,-2.02507169405296e+001,-9.59397827747713e+000

2.82464958813007e+005,-2.02521911940582e+001,-9.72427930118136e+000

2.86408022696948e+005,-2.02536928501738e+001,-9.85632767738345e+000

2.90406129701488e+005,-2.02552224100495e+001,-9.99014746698239e+000

2.94460048199957e+005,-2.02567803916806e+001,-1.01257630918179e+001

2.98570557291775e+005,-2.02583673306964e+001,-1.02631993387402e+001

3.02738446952187e+005,-2.02599837811905e+001,-1.04024813635771e+001

3.06964518184081e+005,-2.02616303165695e+001,-1.05436346949910e+001

3.11249583171928e+005,-2.02633075304192e+001,-1.06866852382237e+001

3.15594465437872e+005,-2.02650160373869e+001,-1.08316592787240e+001

3.19999999999997e+005,-2.02667564740801e+001,-1.09785834856536e+001

3.24467033532806e+005,-2.02685294999789e+001,-1.11274849152726e+001

3.28996424529938e+005,-2.02703357983637e+001,-1.12783910141955e+001

3.33589043469155e+005,-2.02721760772552e+001,-1.14313296225220e+001

3.38245772979638e+005,-2.02740510703669e+001,-1.15863289768355e+001

3.42967508011610e+005,-2.02759615380692e+001,-1.17434177130713e+001

3.47755156008335e+005,-2.02779082683636e+001,-1.19026248692521e+001

3.52609637080511e+005,-2.02798920778672e+001,-1.20639798880903e+001

3.57531884183106e+005,-2.02819138128060e+001,-1.22275126194568e+001

3.62522843294651e+005,-2.02839743500160e+001,-1.23932533227162e+001

3.67583473599047e+005,-2.02860745979524e+001,-1.25612326689294e+001

3.72714747669902e+005,-2.02882154977051e+001,-1.27314817429233e+001

3.77917651657445e+005,-2.02903980240203e+001,-1.29040320452291e+001

3.83193185478053e+005,-2.02926231863278e+001,-1.30789154938902e+001

3.88542363006410e+005,-2.02948920297731e+001,-1.32561644261406e+001

3.93966212270369e+005,-2.02972056362540e+001,-1.34358115999558e+001

3.99465775648511e+005,-2.02995651254605e+001,-1.36178901954786e+001

4.05042110070485e+005,-2.03019716559194e+001,-1.38024338163173e+001

4.10696287220124e+005,-2.03044264260408e+001,-1.39894764907251e+001

4.16429393741414e+005,-2.03069306751684e+001,-1.41790526726554e+001

4.22242531447321e+005,-2.03094856846315e+001,-1.43711972426991e+001

4.28136817531551e+005,-2.03120927788005e+001,-1.45659455089033e+001

4.34113384783250e+005,-2.03147533261434e+001,-1.47633332074741e+001

4.40173381804713e+005,-2.03174687402853e+001,-1.49633965033642e+001

4.46317973232124e+005,-2.03202404810702e+001,-1.51661719907465e+001

4.52548339959385e+005,-2.03230700556236e+001,-1.53716966933746e+001

4.58865679365059e+005,-2.03259590194189e+001,-1.55800080648307e+001

4.65271205542494e+005,-2.03289089773447e+001,-1.57911439886625e+001

4.71766149533147e+005,-2.03319215847753e+001,-1.60051427784067e+001

4.78351759563174e+005,-2.03349985486432e+001,-1.62220431775011e+001

4.85029301283321e+005,-2.03381416285145e+001,-1.64418843590835e+001

4.91800058012158e+005,-2.03413526376668e+001,-1.66647059256765e+001

4.98665330982714e+005,-2.03446334441708e+001,-1.68905479087568e+001

5.05626439592555e+005,-2.03479859719743e+001,-1.71194507682070e+001

5.12684721657352e+005,-2.03514122019907e+001,-1.73514553916472e+001

5.19841533667984e+005,-2.03549141731902e+001,-1.75866030936447e+001

5.27098251051240e+005,-2.03584939836953e+001,-1.78249356147962e+001

5.34456268434150e+005,-2.03621537918811e+001,-1.80664951206823e+001

5.41916999912011e+005,-2.03658958174788e+001,-1.83113242006850e+001

