Freq.,VOut,OutRef

1.00000000000000e+004,-1.84916754561228e+001,-1.30854943225306e-001

1.01395947979003e+004,-1.84916785244115e+001,-1.32680985486527e-001

1.02811382665607e+004,-1.84916816787892e+001,-1.34532491857432e-001

1.04246576084112e+004,-1.84916849216667e+001,-1.36409816680606e-001

1.05701804056138e+004,-1.84916882555216e+001,-1.38313319199754e-001

1.07177346253629e+004,-1.84916916829007e+001,-1.40243363621518e-001

1.08673486252606e+004,-1.84916952064215e+001,-1.42200319187662e-001

1.10190511587661e+004,-1.84916988287750e+001,-1.44184560237928e-001

1.11728713807222e+004,-1.84917025527269e+001,-1.46196466282940e-001

1.13288388529580e+004,-1.84917063811196e+001,-1.48236422072652e-001

1.14869835499703e+004,-1.84917103168750e+001,-1.50304817668109e-001

1.16473358646846e+004,-1.84917143629961e+001,-1.52402048511627e-001

1.18099266142953e+004,-1.84917185225698e+001,-1.54528515497440e-001

1.19747870461893e+004,-1.84917227987686e+001,-1.56684625049464e-001

1.21419488439505e+004,-1.84917271948531e+001,-1.58870789193304e-001

1.23114441334492e+004,-1.84917317141749e+001,-1.61087425630798e-001

1.24833054890161e+004,-1.84917363601785e+001,-1.63334957816108e-001

1.26575659397028e+004,-1.84917411364042e+001,-1.65613815035054e-001

1.28342589756290e+004,-1.84917460464903e+001,-1.67924432482085e-001

1.30134185544193e+004,-1.84917510941768e+001,-1.70267251334983e-001

1.31950791077289e+004,-1.84917562833070e+001,-1.72642718840565e-001

1.33792755478611e+004,-1.84917616178307e+001,-1.75051288395048e-001

1.35660432744767e+004,-1.84917671018077e+001,-1.77493419620579e-001

1.37554181813974e+004,-1.84917727394099e+001,-1.79969578454049e-001

1.39474366635040e+004,-1.84917785349249e+001,-1.82480237228099e-001

1.41421356237309e+004,-1.84917844927596e+001,-1.85025874753859e-001

1.43395524801583e+004,-1.84917906174423e+001,-1.87606976410669e-001

1.45397251732031e+004,-1.84917969136265e+001,-1.90224034232536e-001

1.47426921729110e+004,-1.84918033860951e+001,-1.92877546991126e-001

1.49484924863494e+004,-1.84918100397626e+001,-1.95568020289998e-001

1.51571656651040e+004,-1.84918168796801e+001,-1.98295966649814e-001

1.53687518128801e+004,-1.84918239110374e+001,-2.01061905604732e-001

1.55832915932100e+004,-1.84918311391678e+001,-2.03866363789236e-001

1.58008262372675e+004,-1.84918385695524e+001,-2.06709875031235e-001

1.60213975517924e+004,-1.84918462078227e+001,-2.09592980449657e-001

1.62450479271247e+004,-1.84918540597656e+001,-2.12516228546996e-001

1.64718203453514e+004,-1.84918621313280e+001,-2.15480175302653e-001

1.67017583885674e+004,-1.84918704286199e+001,-2.18485384276460e-001

1.69349062472505e+004,-1.84918789579196e+001,-2.21532426700419e-001

1.71713087287550e+004,-1.84918877256784e+001,-2.24621881581473e-001

1.74110112659224e+004,-1.84918967385244e+001,-2.27754335799686e-001

1.76540599258131e+004,-1.84919060032684e+001,-2.30930384210123e-001

1.79005014185594e+004,-1.84919155269074e+001,-2.34150629747639e-001

1.81503831063432e+004,-1.84919253166309e+001,-2.37415683525766e-001

1.84037530124975e+004,-1.84919353798252e+001,-2.40726164942901e-001

1.86606598307361e+004,-1.84919457240791e+001,-2.44082701789603e-001

1.89211529345119e+004,-1.84919563571891e+001,-2.47485930351994e-001

1.91852823865052e+004,-1.84919672871646e+001,-2.50936495523305e-001

1.94530989482457e+004,-1.84919785222345e+001,-2.54435050906009e-001

1.97246540898671e+004,-1.84919900708517e+001,-2.57982258930305e-001

1.99999999999999e+004,-1.84920019417003e+001,-2.61578790956027e-001

2.02791895958005e+004,-1.84920141437010e+001,-2.65225327389738e-001

2.05622765331213e+004,-1.84920266860170e+001,-2.68922557797291e-001

2.08493152168224e+004,-1.84920395780616e+001,-2.72671181013483e-001

2.11403608112276e+004,-1.84920528295036e+001,-2.76471905261565e-001

2.14354692507258e+004,-1.84920664502744e+001,-2.80325448267424e-001

2.17346972505211e+004,-1.84920804505748e+001,-2.84232537374750e-001

2.20381023175322e+004,-1.84920948408823e+001,-2.88193909665706e-001

2.23457427614443e+004,-1.84921096319582e+001,-2.92210312075663e-001

2.26576777059159e+004,-1.84921248348544e+001,-2.96282501518778e-001

2.29739670999406e+004,-1.84921404609217e+001,-3.00411245003160e-001

2.32946717293690e+004,-1.84921565218172e+001,-3.04597319754291e-001

2.36198532285905e+004,-1.84921730295125e+001,-3.08841513338326e-001

2.39495740923785e+004,-1.84921899963008e+001,-3.13144623786167e-001

2.42838976879009e+004,-1.84922074348066e+001,-3.17507459714637e-001

2.46228882668982e+004,-1.84922253579929e+001,-3.21930840455209e-001

2.49666109780322e+004,-1.84922437791704e+001,-3.26415596178669e-001

2.53151318794055e+004,-1.84922627120065e+001,-3.30962568021370e-001

2.56685179512580e+004,-1.84922821705341e+001,-3.35572608212209e-001

2.60268371088386e+004,-1.84923021691607e+001,-3.40246580204259e-001

2.63901582154578e+004,-1.84923227226779e+001,-3.44985358801413e-001

2.67585510957221e+004,-1.84923438462714e+001,-3.49789830287116e-001

2.71320865489533e+004,-1.84923655555303e+001,-3.54660892559037e-001

2.75108363627948e+004,-1.84923878664577e+001,-3.59599455256054e-001

2.78948733270080e+004,-1.84924107954802e+001,-3.64606439893604e-001

2.82842712474618e+004,-1.84924343594596e+001,-3.69682779992092e-001

2.86791049603164e+004,-1.84924585757020e+001,-3.74829421215545e-001

2.90794503464061e+004,-1.84924834619703e+001,-3.80047321498954e-001

2.94853843458219e+004,-1.84925090364943e+001,-3.85337451185926e-001

2.98969849726987e+004,-1.84925353179822e+001,-3.90700793164529e-001

3.03143313302078e+004,-1.84925623256327e+001,-3.96138342996255e-001

3.07375036257601e+004,-1.84925900791459e+001,-4.01651109058053e-001

3.11665831864199e+004,-1.84926185987365e+001,-4.07240112672274e-001

3.16016524745350e+004,-1.84926479051450e+001,-4.12906388245519e-001

3.20427951035848e+004,-1.84926780196505e+001,-4.18650983403641e-001

3.24900958542493e+004,-1.84927089640837e+001,-4.24474959125888e-001

3.29436406907028e+004,-1.84927407608396e+001,-4.30379389883583e-001

3.34035167771346e+004,-1.84927734328904e+001,-4.36365363774564e-001

3.38698124945009e+004,-1.84928070037994e+001,-4.42433982659635e-001

3.43426174575100e+004,-1.84928414977339e+001,-4.48586362298188e-001

3.48220225318448e+004,-1.84928769394797e+001,-4.54823632483054e-001

3.53081198516260e+004,-1.84929133544549e+001,-4.61146937175925e-001

3.58010028371187e+004,-1.84929507687238e+001,-4.67557434644086e-001

3.63007662126863e+004,-1.84929892090118e+001,-4.74056297592964e-001

3.68075060249948e+004,-1.84930287027198e+001,-4.80644713299263e-001

3.73213196614721e+004,-1.84930692779392e+001,-4.87323883747922e-001

3.78423058690237e+004,-1.84931109634669e+001,-4.94095025760798e-001

3.83705647730104e+004,-1.84931537888207e+001,-5.00959371130522e-001

3.89061978964912e+004,-1.84931977842543e+001,-5.07918166752713e-001

3.94493081797342e+004,-1.84932429807736e+001,-5.14972674752911e-001

3.99999999999998e+004,-1.84932894101519e+001,-5.22124172618733e-001

4.05583791916010e+004,-1.84933371049462e+001,-5.29373953325923e-001

4.11245530662425e+004,-1.84933860985132e+001,-5.36723325464895e-001

4.16986304336447e+004,-1.84934364250256e+001,-5.44173613367891e-001

4.22807216224550e+004,-1.84934881194885e+001,-5.51726157230228e-001

4.28709385014515e+004,-1.84935412177557e+001,-5.59382313234461e-001

4.34693945010421e+004,-1.84935957565466e+001,-5.67143453670401e-001

4.40762046350642e+004,-1.84936517734627e+001,-5.75010967053700e-001

4.46914855228886e+004,-1.84937093070048e+001,-5.82986258241961e-001

4.53153554118317e+004,-1.84937683965893e+001,-5.91070748550785e-001

4.59479341998812e+004,-1.84938290825653e+001,-5.99265875865800e-001

4.65893434587380e+004,-1.84938914062315e+001,-6.07573094753452e-001

4.72397064571810e+004,-1.84939554098534e+001,-6.15993876568204e-001

4.78991481847569e+004,-1.84940211366799e+001,-6.24529709558290e-001

4.85677953758016e+004,-1.84940886309599e+001,-6.33182098969291e-001

4.92457765337964e+004,-1.84941579379595e+001,-6.41952567143162e-001

4.99332219560642e+004,-1.84942291039789e+001,-6.50842653614776e-001

5.06302637588109e+004,-1.84943021763681e+001,-6.59853915209179e-001

5.13370359025159e+004,-1.84943772035444e+001,-6.68987926127626e-001

5.20536742176771e+004,-1.84944542350073e+001,-6.78246278041107e-001

5.27803164309155e+004,-1.84945333213557e+001,-6.87630580169258e-001

5.35171021914442e+004,-1.84946145143030e+001,-6.97142459364584e-001

5.42641730979066e+004,-1.84946978666926e+001,-7.06783560188986e-001

5.50216727255895e+004,-1.84947834325131e+001,-7.16555544986466e-001

5.57897466540159e+004,-1.84948712669130e+001,-7.26460093953283e-001

5.65685424949235e+004,-1.84949614262147e+001,-7.36498905203147e-001

5.73582099206328e+004,-1.84950539679285e+001,-7.46673694830651e-001

5.81589006928121e+004,-1.84951489507660e+001,-7.56986196966375e-001

5.89707686916437e+004,-1.84952464346525e+001,-7.67438163831394e-001

5.97939699453972e+004,-1.84953464807394e+001,-7.78031365785479e-001

6.06286626604156e+004,-1.84954491514151e+001,-7.88767591373418e-001

6.14750072515201e+004,-1.84955545103157e+001,-7.99648647362935e-001

6.23331663728396e+004,-1.84956626223352e+001,-8.10676358781510e-001

6.32033049490698e+004,-1.84957735536339e+001,-8.21852568946940e-001

6.40855902071694e+004,-1.84958873716466e+001,-8.33179139494376e-001

6.49801917084985e+004,-1.84960041450893e+001,-8.44657950397192e-001

6.58872813814055e+004,-1.84961239439651e+001,-8.56290899985661e-001

6.68070335542691e+004,-1.84962468395687e+001,-8.68079904959866e-001

6.77396249890018e+004,-1.84963729044902e+001,-8.80026900394910e-001

6.86852349150199e+004,-1.84965022126163e+001,-8.92133839749251e-001

6.96440450636895e+004,-1.84966348391316e+001,-9.04402694860493e-001

7.06162397032520e+004,-1.84967708605171e+001,-9.16835455942253e-001

7.16020056742374e+004,-1.84969103545478e+001,-9.29434131574565e-001

7.26015324253724e+004,-1.84970534002886e+001,-9.42200748691151e-001

7.36150120499896e+004,-1.84972000780878e+001,-9.55137352561673e-001

7.46426393229441e+004,-1.84973504695691e+001,-9.68246006772486e-001

7.56846117380472e+004,-1.84975046576215e+001,-9.81528793203031e-001

7.67411295460207e+004,-1.84976627263874e+001,-9.94987811996309e-001

7.78123957929823e+004,-1.84978247612476e+001,-1.00862518153216e+000

7.88986163594682e+004,-1.84979908488047e+001,-1.02244303839459e+000

7.99999999999995e+004,-1.84981610768638e+001,-1.03644353733614e+000

8.11167583832018e+004,-1.84983355344105e+001,-1.05062885124401e+000

8.22491061324848e+004,-1.84985143115862e+001,-1.06500117110139e+000

8.33972608672892e+004,-1.84986974996607e+001,-1.07956270595314e+000

8.45614432449099e+004,-1.84988851910017e+001,-1.09431568286583e+000

8.57418770029029e+004,-1.84990774790413e+001,-1.10926234689180e+000

8.69387890020841e+004,-1.84992744582392e+001,-1.12440496103548e+000

8.81524092701283e+004,-1.84994762240426e+001,-1.13974580621911e+000

8.93829710457770e+004,-1.84996828728425e+001,-1.15528718125228e+000

9.06307108236633e+004,-1.84998945019269e+001,-1.17103140280693e+000

9.18958683997622e+004,-1.85001112094296e+001,-1.18698080539571e+000

9.31786869174758e+004,-1.85003330942758e+001,-1.20313774135495e+000

9.44794129143618e+004,-1.85005602561231e+001,-1.21950458083819e+000

9.57982963695136e+004,-1.85007927952989e+001,-1.23608371181332e+000

9.71355907516031e+004,-1.85010308127335e+001,-1.25287754007318e+000

9.84915530675926e+004,-1.85012744098890e+001,-1.26988848925180e+000

9.98664439121282e+004,-1.85015236886834e+001,-1.28711900085836e+000

1.01260527517622e+005,-1.85017787514105e+001,-1.30457153432004e+000

1.02674071805032e+005,-1.85020397006553e+001,-1.32224856704141e+000

1.04107348435354e+005,-1.85023066392042e+001,-1.34015259447998e+000

1.05560632861831e+005,-1.85025796699512e+001,-1.35828613024170e+000

1.07034204382888e+005,-1.85028588957983e+001,-1.37665170619369e+000

1.08528346195813e+005,-1.85031444195521e+001,-1.39525187260000e+000

1.10043345451179e+005,-1.85034363438141e+001,-1.41408919828264e+000

1.11579493308032e+005,-1.85037347708674e+001,-1.43316627080645e+000

1.13137084989847e+005,-1.85040398025571e+001,-1.45248569669281e+000

1.14716419841265e+005,-1.85043515401668e+001,-1.47205010166225e+000

1.16317801385624e+005,-1.85046700842892e+001,-1.49186213091281e+000

1.17941537383287e+005,-1.85049955346921e+001,-1.51192444942780e+000

1.19587939890794e+005,-1.85053279901792e+001,-1.53223974232509e+000

1.21257325320831e+005,-1.85056675484461e+001,-1.55281071524388e+000

1.22950014503040e+005,-1.85060143059315e+001,-1.57364009477447e+000

1.24666332745679e+005,-1.85063683576636e+001,-1.59473062893018e+000

1.26406609898139e+005,-1.85067297971019e+001,-1.61608508766942e+000

1.28171180414339e+005,-1.85070987159742e+001,-1.63770626346634e+000

1.29960383416997e+005,-1.85074752041095e+001,-1.65959697193272e+000

1.31774562762811e+005,-1.85078593492673e+001,-1.68176005249684e+000

1.33614067108538e+005,-1.85082512369617e+001,-1.70419836913933e+000

1.35479249978003e+005,-1.85086509502832e+001,-1.72691481118887e+000

1.37370469830040e+005,-1.85090585697161e+001,-1.74991229418336e+000

1.39288090127379e+005,-1.85094741729538e+001,-1.77319376079271e+000

1.41232479406504e+005,-1.85098978347097e+001,-1.79676218181613e+000

1.43204011348474e+005,-1.85103296265279e+001,-1.82062055724426e+000

1.45203064850745e+005,-1.85107696165901e+001,-1.84477191739999e+000

1.47230024099979e+005,-1.85112178695221e+001,-1.86921932415189e+000

1.49285278645888e+005,-1.85116744461978e+001,-1.89396587220854e+000

1.51369223476094e+005,-1.85121394035449e+001,-1.91901469049082e+000

1.53482259092041e+005,-1.85126127943479e+001,-1.94436894359061e+000

1.55624791585964e+005,-1.85130946670535e+001,-1.97003183330968e+000

1.57797232718936e+005,-1.85135850655760e+001,-1.99600660029011e+000

1.59999999999999e+005,-1.85140840291051e+001,-2.02229652572882e+000

1.62233516766403e+005,-1.85145915919154e+001,-2.04890493318341e+000

1.64498212264969e+005,-1.85151077831792e+001,-2.07583519046854e+000

1.66794521734578e+005,-1.85156326267829e+001,-2.10309071164565e+000

1.69122886489819e+005,-1.85161661411484e+001,-2.13067495910113e+000

1.71483754005805e+005,-1.85167083390583e+001,-2.15859144572231e+000

1.73877578004168e+005,-1.85172592274885e+001,-2.18684373716317e+000

1.76304818540256e+005,-1.85178188074469e+001,-2.21543545420461e+000

1.78765942091554e+005,-1.85183870738195e+001,-2.24437027520551e+000

1.81261421647326e+005,-1.85189640152247e+001,-2.27365193864850e+000

1.83791736799524e+005,-1.85195496138776e+001,-2.30328424577226e+000

1.86357373834951e+005,-1.85201438454635e+001,-2.33327106329614e+000

1.88958825828723e+005,-1.85207466790222e+001,-2.36361632623034e+000

1.91596592739027e+005,-1.85213580768443e+001,-2.39432404077070e+000

1.94271181503206e+005,-1.85219779943802e+001,-2.42539828727590e+000

1.96983106135185e+005,-1.85226063801613e+001,-2.45684322332407e+000

1.99732887824256e+005,-1.85232431757364e+001,-2.48866308684467e+000

2.02521055035243e+005,-1.85238883156223e+001,-2.52086219932116e+000

2.05348143610063e+005,-1.85245417272700e+001,-2.55344496906291e+000

2.08214696870707e+005,-1.85252033310473e+001,-2.58641589453841e+000

2.11121265723661e+005,-1.85258730402384e+001,-2.61977956776653e+000

2.14068408765776e+005,-1.85265507610607e+001,-2.65354067776008e+000

2.17056692391625e+005,-1.85272363927001e+001,-2.68770401401667e+000

2.20086690902357e+005,-1.85279298273650e+001,-2.72227447004869e+000

2.23158986616063e+005,-1.85286309503592e+001,-2.75725704694804e+000

2.26274169979693e+005,-1.85293396401746e+001,-2.79265685697831e+000

2.29432839682530e+005,-1.85300557686038e+001,-2.82847912718660e+000

2.32635602771247e+005,-1.85307792008729e+001,-2.86472920302886e+000

2.35883074766574e+005,-1.85315097957945e+001,-2.90141255200019e+000

2.39175879781588e+005,-1.85322474059422e+001,-2.93853476726352e+000

2.42514650641661e+005,-1.85329918778439e+001,-2.97610157126861e+000

2.45900029006080e+005,-1.85337430521980e+001,-3.01411881935261e+000

2.49332665491357e+005,-1.85345007641081e+001,-3.05259250331516e+000

2.52813219796278e+005,-1.85352648433394e+001,-3.09152875496008e+000

2.56342360828676e+005,-1.85360351145938e+001,-3.13093384959521e+000

2.59920766833993e+005,-1.85368113978061e+001,-3.17081420948276e+000

2.63549125525621e+005,-1.85375935084580e+001,-3.21117640723289e+000

2.67228134217075e+005,-1.85383812579119e+001,-3.25202716913177e+000

2.70958499956006e+005,-1.85391744537615e+001,-3.29337337839813e+000

2.74740939660078e+005,-1.85399729002009e+001,-3.33522207835948e+000

2.78576180254757e+005,-1.85407763984091e+001,-3.37758047554493e+000

2.82464958813007e+005,-1.85415847469509e+001,-3.42045594268159e+000

2.86408022696948e+005,-1.85423977421919e+001,-3.46385602159560e+000

2.90406129701488e+005,-1.85432151787274e+001,-3.50778842600790e+000

2.94460048199957e+005,-1.85440368498240e+001,-3.55226104421968e+000

2.98570557291775e+005,-1.85448625478720e+001,-3.59728194168554e+000

3.02738446952187e+005,-1.85456920648485e+001,-3.64285936346794e+000

3.06964518184081e+005,-1.85465251927897e+001,-3.68900173656875e+000

3.11249583171928e+005,-1.85473617242697e+001,-3.73571767213776e+000

3.15594465437872e+005,-1.85482014528871e+001,-3.78301596755406e+000

3.19999999999997e+005,-1.85490441737557e+001,-3.83090560837812e+000

3.24467033532806e+005,-1.85498896839987e+001,-3.87939577017493e+000

3.28996424529938e+005,-1.85507377832461e+001,-3.92849582020631e+000

3.33589043469155e+005,-1.85515882741317e+001,-3.97821531899434e+000

3.38245772979638e+005,-1.85524409627906e+001,-4.02856402175574e+000

3.42967508011610e+005,-1.85532956593548e+001,-4.07955187970856e+000

3.47755156008335e+005,-1.85541521784446e+001,-4.13118904125407e+000

3.52609637080511e+005,-1.85550103396570e+001,-4.18348585303741e+000

3.57531884183106e+005,-1.85558699680468e+001,-4.23645286088817e+000

3.62522843294651e+005,-1.85567308946022e+001,-4.29010081064757e+000

3.67583473599047e+005,-1.85575929567110e+001,-4.34444064888549e+000

3.72714747669902e+005,-1.85584559986182e+001,-4.39948352351144e+000

3.77917651657445e+005,-1.85593198718731e+001,-4.45524078428997e+000

3.83193185478053e+005,-1.85601844357651e+001,-4.51172398325827e+000

3.88542363006410e+005,-1.85610495577469e+001,-4.56894487506144e+000

3.93966212270369e+005,-1.85619151138454e+001,-4.62691541720670e+000

3.99465775648511e+005,-1.85627809890579e+001,-4.68564777024543e+000

4.05042110070485e+005,-1.85636470777345e+001,-4.74515429789081e+000

4.10696287220124e+005,-1.85645132839446e+001,-4.80544756707948e+000

4.16429393741414e+005,-1.85653795218290e+001,-4.86654034798310e+000

4.22242531447321e+005,-1.85662457159347e+001,-4.92844561398030e+000

4.28136817531551e+005,-1.85671118015343e+001,-4.99117654159668e+000

4.34113384783250e+005,-1.85679777249284e+001,-5.05474651042014e+000

4.40173381804713e+005,-1.85688434437317e+001,-5.11916910300108e+000

4.46317973232124e+005,-1.85697089271419e+001,-5.18445810474582e+000

4.52548339959385e+005,-1.85705741561923e+001,-5.25062750381017e+000

4.58865679365059e+005,-1.85714391239877e+001,-5.31769149100347e+000

4.65271205542494e+005,-1.85723038359239e+001,-5.38566445970834e+000

4.71766149533147e+005,-1.85731683098913e+001,-5.45456100582707e+000

4.78351759563174e+005,-1.85740325764624e+001,-5.52439592775922e+000

4.85029301283321e+005,-1.85748966790646e+001,-5.59518422642051e+000

4.91800058012158e+005,-1.85757606741376e+001,-5.66694110530709e+000

4.98665330982714e+005,-1.85766246312770e+001,-5.73968197061539e+000

5.05626439592555e+005,-1.85774886333641e+001,-5.81342243141975e+000

5.12684721657352e+005,-1.85783527766828e+001,-5.88817829991853e+000

5.19841533667984e+005,-1.85792171710242e+001,-5.96396559175035e+000

5.27098251051240e+005,-1.85800819397798e+001,-6.04080052638825e+000

5.34456268434150e+005,-1.85809472200243e+001,-6.11869952761500e+000

5.41916999912011e+005,-1.85818131625880e+001,-6.19767922408608e+000

