Freq.,VOut,OutRef

1.00000000000000e+004,-2.29014916058403e+001,-2.76961251568947e-002

1.01395947979003e+004,-2.29014946329025e+001,-2.80821109953509e-002

1.02811382665607e+004,-2.29014977448907e+001,-2.84734579578373e-002

1.04246576084112e+004,-2.29015009441826e+001,-2.88702397354239e-002

1.05701804056138e+004,-2.29015042332224e+001,-2.92725309994098e-002

1.07177346253629e+004,-2.29015076145231e+001,-2.96804074079045e-002

1.08673486252606e+004,-2.29015110906646e+001,-3.00939456438869e-002

1.10190511587661e+004,-2.29015146643021e+001,-3.05132233811100e-002

1.11728713807222e+004,-2.29015183381630e+001,-3.09383193346588e-002

1.13288388529580e+004,-2.29015221150513e+001,-3.13693132529183e-002

1.14869835499703e+004,-2.29015259978482e+001,-3.18062859406832e-002

1.16473358646846e+004,-2.29015299895169e+001,-3.22493192549530e-002

1.18099266142953e+004,-2.29015340930999e+001,-3.26984961475119e-002

1.19747870461893e+004,-2.29015383117269e+001,-3.31539006413036e-002

1.21419488439505e+004,-2.29015426486148e+001,-3.36156178575676e-002

1.23114441334492e+004,-2.29015471070676e+001,-3.40837340453658e-002

1.24833054890161e+004,-2.29015516904831e+001,-3.45583365628189e-002

1.26575659397028e+004,-2.29015564023524e+001,-3.50395139140442e-002

1.28342589756290e+004,-2.29015612462637e+001,-3.55273557491977e-002

1.30134185544193e+004,-2.29015662259058e+001,-3.60219528751168e-002

1.31950791077289e+004,-2.29015713450685e+001,-3.65233972792589e-002

1.33792755478611e+004,-2.29015766076478e+001,-3.70317821295965e-002

1.35660432744767e+004,-2.29015820176457e+001,-3.75472018049596e-002

1.37554181813974e+004,-2.29015875791770e+001,-3.80697518839883e-002

1.39474366635040e+004,-2.29015932964712e+001,-3.85995291635772e-002

1.41421356237309e+004,-2.29015991738714e+001,-3.91366316995567e-002

1.43395524801583e+004,-2.29016052158452e+001,-3.96811587684471e-002

1.45397251732031e+004,-2.29016114269804e+001,-4.02332109306724e-002

1.47426921729110e+004,-2.29016178119928e+001,-4.07928900098211e-002

1.49484924863494e+004,-2.29016243757300e+001,-4.13602991090703e-002

1.51571656651040e+004,-2.29016311231706e+001,-4.19355426457194e-002

1.53687518128801e+004,-2.29016380594329e+001,-4.25187263338987e-002

1.55832915932100e+004,-2.29016451897754e+001,-4.31099572157189e-002

1.58008262372675e+004,-2.29016525196026e+001,-4.37093436618338e-002

1.60213975517924e+004,-2.29016600544661e+001,-4.43169954008512e-002

1.62450479271247e+004,-2.29016678000729e+001,-4.49330235040468e-002

1.64718203453514e+004,-2.29016757622852e+001,-4.55575404250148e-002

1.67017583885674e+004,-2.29016839471274e+001,-4.61906599910294e-002

1.69349062472505e+004,-2.29016923607891e+001,-4.68324974275164e-002

1.71713087287550e+004,-2.29017010096296e+001,-4.74831693645442e-002

1.74110112659224e+004,-2.29017099001844e+001,-4.81427938388745e-002

1.76540599258131e+004,-2.29017190391664e+001,-4.88114903249700e-002

1.79005014185594e+004,-2.29017284334746e+001,-4.94893797201661e-002

1.81503831063432e+004,-2.29017380901958e+001,-5.01765843786914e-002

1.84037530124975e+004,-2.29017480166107e+001,-5.08732281115505e-002

1.86606598307361e+004,-2.29017582201997e+001,-5.15794361958229e-002

1.89211529345119e+004,-2.29017687086491e+001,-5.22953353754659e-002

1.91852823865052e+004,-2.29017794898519e+001,-5.30210539016268e-002

1.94530989482457e+004,-2.29017905719190e+001,-5.37567215052118e-002

1.97246540898671e+004,-2.29018019631831e+001,-5.45024694167757e-002

1.99999999999999e+004,-2.29018136722019e+001,-5.52584303937115e-002

2.02791895958005e+004,-2.29018257077676e+001,-5.60247387017103e-002

2.05622765331213e+004,-2.29018380789115e+001,-5.68015301364727e-002

2.08493152168224e+004,-2.29018507949093e+001,-5.75889420313734e-002

2.11403608112276e+004,-2.29018638652903e+001,-5.83871132526223e-002

2.14354692507258e+004,-2.29018772998399e+001,-5.91961842262225e-002

2.17346972505211e+004,-2.29018911086109e+001,-6.00162969155870e-002

2.20381023175322e+004,-2.29019053019273e+001,-6.08475948484175e-002

2.23457427614443e+004,-2.29019198903929e+001,-6.16902231072882e-002

2.26576777059159e+004,-2.29019348848960e+001,-6.25443283523235e-002

2.29739670999406e+004,-2.29019502966201e+001,-6.34100588024653e-002

2.32946717293690e+004,-2.29019661370511e+001,-6.42875642376164e-002

2.36198532285905e+004,-2.29019824179816e+001,-6.51769960247806e-002

2.39495740923785e+004,-2.29019991515228e+001,-6.60785070931230e-002

2.42838976879009e+004,-2.29020163501106e+001,-6.69922519436955e-002

2.46228882668982e+004,-2.29020340265142e+001,-6.79183866500978e-002

2.49666109780322e+004,-2.29020521938439e+001,-6.88570688569977e-002

2.53151318794055e+004,-2.29020708655622e+001,-6.98084577639852e-002

2.56685179512580e+004,-2.29020900554898e+001,-7.07727141382357e-002

2.60268371088386e+004,-2.29021097778156e+001,-7.17500003046241e-002

2.63901582154578e+004,-2.29021300471069e+001,-7.27404801302737e-002

2.67585510957221e+004,-2.29021508783167e+001,-7.37443190349274e-002

2.71320865489533e+004,-2.29021722867961e+001,-7.47616839602452e-002

2.75108363627948e+004,-2.29021942883014e+001,-7.57927433791893e-002

2.78948733270080e+004,-2.29022168990073e+001,-7.68376672661611e-002

2.82842712474618e+004,-2.29022401355130e+001,-7.78966271064267e-002

2.86791049603164e+004,-2.29022640148564e+001,-7.89697958600668e-002

2.90794503464061e+004,-2.29022885545225e+001,-8.00573479612495e-002

2.94853843458219e+004,-2.29023137724551e+001,-8.11594592932895e-002

2.98969849726987e+004,-2.29023396870687e+001,-8.22763071646237e-002

3.03143313302078e+004,-2.29023663172574e+001,-8.34080703040513e-002

3.07375036257601e+004,-2.29023936824090e+001,-8.45549288190164e-002

3.11665831864199e+004,-2.29024218024154e+001,-8.57170641825389e-002

3.16016524745350e+004,-2.29024506976845e+001,-8.68946592021084e-002

3.20427951035848e+004,-2.29024803891521e+001,-8.80878979936239e-002

3.24900958542493e+004,-2.29025108982958e+001,-8.92969659429365e-002

3.29436406907028e+004,-2.29025422471458e+001,-9.05220496775026e-002

3.34035167771346e+004,-2.29025744582983e+001,-9.17633370331317e-002

3.38698124945009e+004,-2.29026075549287e+001,-9.30210170080234e-002

3.43426174575100e+004,-2.29026415608052e+001,-9.42952797237309e-002

3.48220225318448e+004,-2.29026765003008e+001,-9.55863163854725e-002

3.53081198516260e+004,-2.29027123984080e+001,-9.68943192331177e-002

3.58010028371187e+004,-2.29027492807527e+001,-9.82194814869414e-002

3.63007662126863e+004,-2.29027871736071e+001,-9.95619973038376e-002

3.68075060249948e+004,-2.29028261039056e+001,-1.00922061708614e-001

3.73213196614721e+004,-2.29028660992576e+001,-1.02299870549067e-001

3.78423058690237e+004,-2.29029071879629e+001,-1.03695620421016e-001

3.83705647730104e+004,-2.29029493990259e+001,-1.05109508611678e-001

3.89061978964912e+004,-2.29029927621706e+001,-1.06541733025269e-001

3.94493081797342e+004,-2.29030373078567e+001,-1.07992492105167e-001

3.99999999999998e+004,-2.29030830672931e+001,-1.09461984764413e-001

4.05583791916010e+004,-2.29031300724546e+001,-1.10950410296717e-001

4.11245530662425e+004,-2.29031783560973e+001,-1.12457968292110e-001

4.16986304336447e+004,-2.29032279517717e+001,-1.13984858558743e-001

4.22807216224550e+004,-2.29032788938430e+001,-1.15531281002316e-001

4.28709385014515e+004,-2.29033312175029e+001,-1.17097435549594e-001

4.34693945010421e+004,-2.29033849587870e+001,-1.18683522035017e-001

4.40762046350642e+004,-2.29034401545912e+001,-1.20289740088072e-001

4.46914855228886e+004,-2.29034968426869e+001,-1.21916289023915e-001

4.53153554118317e+004,-2.29035550617369e+001,-1.23563367723140e-001

4.59479341998812e+004,-2.29036148513123e+001,-1.25231174500198e-001

4.65893434587380e+004,-2.29036762519081e+001,-1.26919906976403e-001

4.72397064571810e+004,-2.29037393049584e+001,-1.28629761947442e-001

4.78991481847569e+004,-2.29038040528535e+001,-1.30360935230959e-001

4.85677953758016e+004,-2.29038705389548e+001,-1.32113621525533e-001

4.92457765337964e+004,-2.29039388076115e+001,-1.33888014246164e-001

4.99332219560642e+004,-2.29040089041753e+001,-1.35684305370332e-001

5.06302637588109e+004,-2.29040808750165e+001,-1.37502685262200e-001

5.13370359025159e+004,-2.29041547675381e+001,-1.39343342507223e-001

5.20536742176771e+004,-2.29042306301924e+001,-1.41206463713982e-001

5.27803164309155e+004,-2.29043085124943e+001,-1.43092233337729e-001

5.35171021914442e+004,-2.29043884650364e+001,-1.45000833473992e-001

5.42641730979066e+004,-2.29044705395035e+001,-1.46932443654663e-001

5.50216727255895e+004,-2.29045547886839e+001,-1.48887240645380e-001

5.57897466540159e+004,-2.29046412664867e+001,-1.50865398202839e-001

5.65685424949235e+004,-2.29047300279500e+001,-1.52867086869943e-001

5.73582099206328e+004,-2.29048211292566e+001,-1.54892473720626e-001

5.81589006928121e+004,-2.29049146277435e+001,-1.56941722123872e-001

5.89707686916437e+004,-2.29050105819134e+001,-1.59014991485670e-001

5.97939699453972e+004,-2.29051090514462e+001,-1.61112436982112e-001

6.06286626604156e+004,-2.29052100972054e+001,-1.63234209300100e-001

6.14750072515201e+004,-2.29053137812498e+001,-1.65380454342826e-001

6.23331663728396e+004,-2.29054201668403e+001,-1.67551312943809e-001

6.32033049490698e+004,-2.29055293184452e+001,-1.69746920574384e-001

6.40855902071694e+004,-2.29056413017481e+001,-1.71967407026297e-001

6.49801917084985e+004,-2.29057561836514e+001,-1.74212896095971e-001

6.58872813814055e+004,-2.29058740322786e+001,-1.76483505267629e-001

6.68070335542691e+004,-2.29059949169786e+001,-1.78779345360868e-001

6.77396249890018e+004,-2.29061189083254e+001,-1.81100520192796e-001

6.86852349150199e+004,-2.29062460781165e+001,-1.83447126225541e-001

6.96440450636895e+004,-2.29063764993727e+001,-1.85819252192121e-001

7.06162397032520e+004,-2.29065102463320e+001,-1.88216978729974e-001

7.16020056742374e+004,-2.29066473944452e+001,-1.90640377995709e-001

7.26015324253724e+004,-2.29067880203683e+001,-1.93089513267754e-001

7.36150120499896e+004,-2.29069322019530e+001,-1.95564438546676e-001

7.46426393229441e+004,-2.29070800182346e+001,-1.98065198146312e-001

7.56846117380472e+004,-2.29072315494197e+001,-2.00591826266250e-001

7.67411295460207e+004,-2.29073868768686e+001,-2.03144346571482e-001

7.78123957929823e+004,-2.29075460830780e+001,-2.05722771751335e-001

7.88986163594682e+004,-2.29077092516607e+001,-2.08327103067571e-001

7.99999999999995e+004,-2.29078764673198e+001,-2.10957329917931e-001

8.11167583832018e+004,-2.29080478158258e+001,-2.13613429353395e-001

8.22491061324848e+004,-2.29082233839844e+001,-2.16295365628320e-001

8.33972608672892e+004,-2.29084032596060e+001,-2.19003089721065e-001

8.45614432449099e+004,-2.29085875314702e+001,-2.21736538847552e-001

8.57418770029029e+004,-2.29087762892873e+001,-2.24495635983202e-001

8.69387890020841e+004,-2.29089696236555e+001,-2.27280289371914e-001

8.81524092701283e+004,-2.29091676260166e+001,-2.30090392026060e-001

8.93829710457770e+004,-2.29093703886061e+001,-2.32925821233374e-001

9.06307108236633e+004,-2.29095780044004e+001,-2.35786438055757e-001

9.18958683997622e+004,-2.29097905670603e+001,-2.38672086824135e-001

9.31786869174758e+004,-2.29100081708691e+001,-2.41582594640120e-001

9.44794129143618e+004,-2.29102309106682e+001,-2.44517770871181e-001

9.57982963695136e+004,-2.29104588817881e+001,-2.47477406644637e-001

9.71355907516031e+004,-2.29106921799736e+001,-2.50461274355661e-001

9.84915530675926e+004,-2.29109309013049e+001,-2.53469127174459e-001

9.98664439121282e+004,-2.29111751421165e+001,-2.56500698542737e-001

1.01260527517622e+005,-2.29114249989079e+001,-2.59555701702181e-001

1.02674071805032e+005,-2.29116805682502e+001,-2.62633829218551e-001

1.04107348435354e+005,-2.29119419466903e+001,-2.65734752506921e-001

1.05560632861831e+005,-2.29122092306462e+001,-2.68858121385956e-001

1.07034204382888e+005,-2.29124825163007e+001,-2.72003563628521e-001

1.08528346195813e+005,-2.29127618994874e+001,-2.75170684535196e-001

1.10043345451179e+005,-2.29130474755717e+001,-2.78359066530569e-001

1.11579493308032e+005,-2.29133393393285e+001,-2.81568268759110e-001

1.13137084989847e+005,-2.29136375848125e+001,-2.84797826718080e-001

1.14716419841265e+005,-2.29139423052234e+001,-2.88047251910949e-001

1.16317801385624e+005,-2.29142535927668e+001,-2.91316031515524e-001

1.17941537383287e+005,-2.29145715385083e+001,-2.94603628093391e-001

1.19587939890794e+005,-2.29148962322243e+001,-2.97909479312779e-001

1.21257325320831e+005,-2.29152277622449e+001,-3.01232997718321e-001

1.22950014503040e+005,-2.29155662152936e+001,-3.04573570526829e-001

1.24666332745679e+005,-2.29159116763218e+001,-3.07930559456945e-001

1.26406609898139e+005,-2.29162642283364e+001,-3.11303300610684e-001

1.28171180414339e+005,-2.29166239522260e+001,-3.14691104374572e-001

1.29960383416997e+005,-2.29169909265777e+001,-3.18093255395577e-001

1.31774562762811e+005,-2.29173652274948e+001,-3.21509012571460e-001

1.33614067108538e+005,-2.29177469284052e+001,-3.24937609116591e-001

1.35479249978003e+005,-2.29181360998689e+001,-3.28378252668797e-001

1.37370469830040e+005,-2.29185328093815e+001,-3.31830125444290e-001

1.39288090127379e+005,-2.29189371211727e+001,-3.35292384464409e-001

1.41232479406504e+005,-2.29193490960024e+001,-3.38764161839122e-001

1.43204011348474e+005,-2.29197687909547e+001,-3.42244565100402e-001

1.45203064850745e+005,-2.29201962592290e+001,-3.45732677617425e-001

1.47230024099979e+005,-2.29206315499285e+001,-3.49227559068935e-001

1.49285278645888e+005,-2.29210747078492e+001,-3.52728245983824e-001

1.51369223476094e+005,-2.29215257732648e+001,-3.56233752366994e-001

1.53482259092041e+005,-2.29219847817144e+001,-3.59743070380291e-001

1.55624791585964e+005,-2.29224517637882e+001,-3.63255171113117e-001

1.57797232718936e+005,-2.29229267449146e+001,-3.66769005422829e-001

1.59999999999999e+005,-2.29234097451485e+001,-3.70283504859458e-001

1.62233516766403e+005,-2.29239007789614e+001,-3.73797582666570e-001

1.64498212264969e+005,-2.29243998550352e+001,-3.77310134859858e-001

1.66794521734578e+005,-2.29249069760566e+001,-3.80820041403522e-001

1.69122886489819e+005,-2.29254221385195e+001,-3.84326167447307e-001

1.71483754005805e+005,-2.29259453325285e+001,-3.87827364664477e-001

1.73877578004168e+005,-2.29264765416104e+001,-3.91322472661078e-001

1.76304818540256e+005,-2.29270157425310e+001,-3.94810320477394e-001

1.78765942091554e+005,-2.29275629051194e+001,-3.98289728163320e-001

1.81261421647326e+005,-2.29281179921002e+001,-4.01759508438596e-001

1.83791736799524e+005,-2.29286809589345e+001,-4.05218468433397e-001

1.86357373834951e+005,-2.29292517536708e+001,-4.08665411504759e-001

1.88958825828723e+005,-2.29298303168060e+001,-4.12099139128997e-001

1.91596592739027e+005,-2.29304165811575e+001,-4.15518452873043e-001

1.94271181503206e+005,-2.29310104717488e+001,-4.18922156423244e-001

1.96983106135185e+005,-2.29316119057060e+001,-4.22309057696866e-001

1.99732887824256e+005,-2.29322207921691e+001,-4.25677971007790e-001

2.02521055035243e+005,-2.29328370322187e+001,-4.29027719290195e-001

2.05348143610063e+005,-2.29334605188161e+001,-4.32357136382232e-001

2.08214696870707e+005,-2.29340911367599e+001,-4.35665069360122e-001

2.11121265723661e+005,-2.29347287626600e+001,-4.38950380911849e-001

2.14068408765776e+005,-2.29353732649286e+001,-4.42211951747908e-001

2.17056692391625e+005,-2.29360245037876e+001,-4.45448683057187e-001

2.20086690902357e+005,-2.29366823312966e+001,-4.48659498972056e-001

2.23158986616063e+005,-2.29373465913974e+001,-4.51843349068185e-001

2.26274169979693e+005,-2.29380171199798e+001,-4.54999210866254e-001

2.29432839682530e+005,-2.29386937449653e+001,-4.58126092342911e-001

2.32635602771247e+005,-2.29393762864112e+001,-4.61223034442265e-001

2.35883074766574e+005,-2.29400645566354e+001,-4.64289113570247e-001

2.39175879781588e+005,-2.29407583603603e+001,-4.67323444074061e-001

2.42514650641661e+005,-2.29414574948767e+001,-4.70325180700153e-001

2.45900029006080e+005,-2.29421617502296e+001,-4.73293521003725e-001

2.49332665491357e+005,-2.29428709094212e+001,-4.76227707735318e-001

2.52813219796278e+005,-2.29435847486365e+001,-4.79127031153553e-001

2.56342360828676e+005,-2.29443030374856e+001,-4.81990831300511e-001

2.59920766833993e+005,-2.29450255392678e+001,-4.84818500186558e-001

2.63549125525621e+005,-2.29457520112512e+001,-4.87609483919539e-001

2.67228134217075e+005,-2.29464822049726e+001,-4.90363284739646e-001

2.70958499956006e+005,-2.29472158665540e+001,-4.93079462959877e-001

2.74740939660078e+005,-2.29479527370344e+001,-4.95757638815927e-001

2.78576180254757e+005,-2.29486925527191e+001,-4.98397494203318e-001

2.82464958813007e+005,-2.29494350455424e+001,-5.00998774304271e-001

2.86408022696948e+005,-2.29501799434442e+001,-5.03561289092235e-001

2.90406129701488e+005,-2.29509269707598e+001,-5.06084914715153e-001

2.94460048199957e+005,-2.29516758486198e+001,-5.08569594746410e-001

2.98570557291775e+005,-2.29524262953628e+001,-5.11015341292020e-001

3.02738446952187e+005,-2.29531780269534e+001,-5.13422235974949e-001

3.06964518184081e+005,-2.29539307574122e+001,-5.15790430751250e-001

3.11249583171928e+005,-2.29546841992479e+001,-5.18120148606002e-001

3.15594465437872e+005,-2.29554380638974e+001,-5.20411684074525e-001

3.19999999999997e+005,-2.29561920621683e+001,-5.22665403625231e-001

3.24467033532806e+005,-2.29569459046833e+001,-5.24881745888717e-001

3.28996424529938e+005,-2.29576993023252e+001,-5.27061221727636e-001

3.33589043469155e+005,-2.29584519666820e+001,-5.29204414155388e-001

3.38245772979638e+005,-2.29592036104883e+001,-5.31311978104792e-001

3.42967508011610e+005,-2.29599539480641e+001,-5.33384640039904e-001

3.47755156008335e+005,-2.29607026957486e+001,-5.35423197418374e-001

3.52609637080511e+005,-2.29614495723262e+001,-5.37428518013891e-001

3.57531884183106e+005,-2.29621942994457e+001,-5.39401539087709e-001

3.62522843294651e+005,-2.29629366020305e+001,-5.41343266421569e-001

3.67583473599047e+005,-2.29636762086779e+001,-5.43254773219777e-001

3.72714747669902e+005,-2.29644128520466e+001,-5.45137198876121e-001

3.77917651657445e+005,-2.29651462692316e+001,-5.46991747621663e-001

3.83193185478053e+005,-2.29658762021259e+001,-5.48819687048979e-001

3.88542363006410e+005,-2.29666023977669e+001,-5.50622346525763e-001

3.93966212270369e+005,-2.29673246086664e+001,-5.52401115508438e-001

3.99465775648511e+005,-2.29680425931252e+001,-5.54157441751791e-001

4.05042110070485e+005,-2.29687561155300e+001,-5.55892829429375e-001

4.10696287220124e+005,-2.29694649466316e+001,-5.57608837176749e-001

4.16429393741414e+005,-2.29701688638055e+001,-5.59307076052318e-001

4.22242531447321e+005,-2.29708676512932e+001,-5.60989207438859e-001

4.28136817531551e+005,-2.29715611004234e+001,-5.62656940884032e-001

4.34113384783250e+005,-2.29722490098142e+001,-5.64312031891546e-001

4.40173381804713e+005,-2.29729311855557e+001,-5.65956279669249e-001

4.46317973232124e+005,-2.29736074413705e+001,-5.67591524850597e-001

4.52548339959385e+005,-2.29742775987567e+001,-5.69219647183865e-001

4.58865679365059e+005,-2.29749414871093e+001,-5.70842563207481e-001

4.65271205542494e+005,-2.29755989438212e+001,-5.72462223923167e-001

4.71766149533147e+005,-2.29762498143659e+001,-5.74080612457693e-001

4.78351759563174e+005,-2.29768939523597e+001,-5.75699741739157e-001

4.85029301283321e+005,-2.29775312196050e+001,-5.77321652185137e-001

4.91800058012158e+005,-2.29781614861148e+001,-5.78948409412655e-001

4.98665330982714e+005,-2.29787846301190e+001,-5.80582101977812e-001

5.05626439592555e+005,-2.29794005380531e+001,-5.82224839146105e-001

5.12684721657352e+005,-2.29800091045299e+001,-5.83878748706787e-001

5.19841533667984e+005,-2.29806102322943e+001,-5.85545974832090e-001

5.27098251051240e+005,-2.29812038321623e+001,-5.87228675989334e-001

5.34456268434150e+005,-2.29817898229455e+001,-5.88929022907907e-001

5.41916999912011e+005,-2.29823681313607e+001,-5.90649196608699e-001

