Freq.,VOut,OutRef

1.00000000000000e+004,-1.97278372105904e+001,-5.71551894602039e-002

1.01395947979003e+004,-1.97278393767148e+001,-5.79525937499314e-002

1.02811382665607e+004,-1.97278416036127e+001,-5.87611102022769e-002

1.04246576084112e+004,-1.97278438929851e+001,-5.95808931267999e-002

1.05701804056138e+004,-1.97278462465813e+001,-6.04120989487680e-002

1.07177346253629e+004,-1.97278486661988e+001,-6.12548862431592e-002

1.08673486252606e+004,-1.97278511536856e+001,-6.21094157593730e-002

1.10190511587661e+004,-1.97278537109409e+001,-6.29758504533288e-002

1.11728713807222e+004,-1.97278563399166e+001,-6.38543555172562e-002

1.13288388529580e+004,-1.97278590426190e+001,-6.47450984046709e-002

1.14869835499703e+004,-1.97278618211107e+001,-6.56482488621965e-002

1.16473358646846e+004,-1.97278646775111e+001,-6.65639789627769e-002

1.18099266142953e+004,-1.97278676139992e+001,-6.74924631287372e-002

1.19747870461893e+004,-1.97278706328140e+001,-6.84338781726228e-002

1.21419488439505e+004,-1.97278737362568e+001,-6.93884033212019e-002

1.23114441334492e+004,-1.97278769266934e+001,-7.03562202479525e-002

1.24833054890161e+004,-1.97278802065547e+001,-7.13375131070381e-002

1.26575659397028e+004,-1.97278835783397e+001,-7.23324685638920e-002

1.28342589756290e+004,-1.97278870446158e+001,-7.33412758316346e-002

1.30134185544193e+004,-1.97278906080232e+001,-7.43641266941802e-002

1.31950791077289e+004,-1.97278942712740e+001,-7.54012155518314e-002

1.33792755478611e+004,-1.97278980371558e+001,-7.64527394494740e-002

1.35660432744767e+004,-1.97279019085340e+001,-7.75188981058266e-002

1.37554181813974e+004,-1.97279058883531e+001,-7.85998939550837e-002

1.39474366635040e+004,-1.97279099796387e+001,-7.96959321814344e-002

1.41421356237309e+004,-1.97279141855010e+001,-8.08072207474643e-002

1.43395524801583e+004,-1.97279185091356e+001,-8.19339704356121e-002

1.45397251732031e+004,-1.97279229538272e+001,-8.30763948796693e-002

1.47426921729110e+004,-1.97279275229505e+001,-8.42347106079927e-002

1.49484924863494e+004,-1.97279322199740e+001,-8.54091370721250e-002

1.51571656651040e+004,-1.97279370484620e+001,-8.65998966849246e-002

1.53687518128801e+004,-1.97279420120774e+001,-8.78072148620108e-002

1.55832915932100e+004,-1.97279471145832e+001,-8.90313200589790e-002

1.58008262372675e+004,-1.97279523598475e+001,-9.02724438015779e-002

1.60213975517924e+004,-1.97279577518444e+001,-9.15308207326602e-002

1.62450479271247e+004,-1.97279632946572e+001,-9.28066886482490e-002

1.64718203453514e+004,-1.97279689924820e+001,-9.41002885349380e-002

1.67017583885674e+004,-1.97279748496309e+001,-9.54118646046697e-002

1.69349062472505e+004,-1.97279808705335e+001,-9.67416643478101e-002

1.71713087287550e+004,-1.97279870597419e+001,-9.80899385588902e-002

1.74110112659224e+004,-1.97279934219332e+001,-9.94569413820324e-002

1.76540599258131e+004,-1.97279999619126e+001,-1.00842930355118e-001

1.79005014185594e+004,-1.97280066846170e+001,-1.02248166446428e-001

1.81503831063432e+004,-1.97280135951193e+001,-1.03672914092654e-001

1.84037530124975e+004,-1.97280206986307e+001,-1.05117441247841e-001

1.86606598307361e+004,-1.97280280005055e+001,-1.06582019419067e-001

1.89211529345119e+004,-1.97280355062442e+001,-1.08066923712127e-001

1.91852823865052e+004,-1.97280432214975e+001,-1.09572432870917e-001

1.94530989482457e+004,-1.97280511520707e+001,-1.11098829322584e-001

1.97246540898671e+004,-1.97280593039274e+001,-1.12646399216383e-001

1.99999999999999e+004,-1.97280676831938e+001,-1.14215432470630e-001

2.02791895958005e+004,-1.97280762961629e+001,-1.15806222813823e-001

2.05622765331213e+004,-1.97280851492990e+001,-1.17419067828028e-001

2.08493152168224e+004,-1.97280942492419e+001,-1.19054268994054e-001

2.11403608112276e+004,-1.97281036028121e+001,-1.20712131733735e-001

2.14354692507258e+004,-1.97281132170154e+001,-1.22392965451193e-001

2.17346972505211e+004,-1.97281230990465e+001,-1.24097083585845e-001

2.20381023175322e+004,-1.97281332562963e+001,-1.25824803644079e-001

2.23457427614443e+004,-1.97281436963543e+001,-1.27576447258085e-001

2.26576777059159e+004,-1.97281544270160e+001,-1.29352340215391e-001

2.29739670999406e+004,-1.97281654562866e+001,-1.31152812517481e-001

2.32946717293690e+004,-1.97281767923878e+001,-1.32978198412758e-001

2.36198532285905e+004,-1.97281884437621e+001,-1.34828836449330e-001

2.39495740923785e+004,-1.97282004190792e+001,-1.36705069517511e-001

2.42838976879009e+004,-1.97282127272417e+001,-1.38607244891998e-001

2.46228882668982e+004,-1.97282253773910e+001,-1.40535714280197e-001

2.49666109780322e+004,-1.97282383789131e+001,-1.42490833867188e-001

2.53151318794055e+004,-1.97282517414450e+001,-1.44472964358408e-001

2.56685179512580e+004,-1.97282654748814e+001,-1.46482471023736e-001

2.60268371088386e+004,-1.97282795893808e+001,-1.48519723744523e-001

2.63901582154578e+004,-1.97282940953722e+001,-1.50585097056137e-001

2.67585510957221e+004,-1.97283090035612e+001,-1.52678970196267e-001

2.71320865489533e+004,-1.97283243249384e+001,-1.54801727142318e-001

2.75108363627948e+004,-1.97283400707854e+001,-1.56953756658954e-001

2.78948733270080e+004,-1.97283562526817e+001,-1.59135452344490e-001

2.82842712474618e+004,-1.97283728825131e+001,-1.61347212669172e-001

2.86791049603164e+004,-1.97283899724782e+001,-1.63589441020649e-001

2.90794503464061e+004,-1.97284075350970e+001,-1.65862545745157e-001

2.94853843458219e+004,-1.97284255832178e+001,-1.68166940192277e-001

2.98969849726987e+004,-1.97284441300252e+001,-1.70503042756493e-001

3.03143313302078e+004,-1.97284631890495e+001,-1.72871276911611e-001

3.07375036257601e+004,-1.97284827741731e+001,-1.75272071262607e-001

3.11665831864199e+004,-1.97285028996402e+001,-1.77705859576672e-001

3.16016524745350e+004,-1.97285235800648e+001,-1.80173080827868e-001

3.20427951035848e+004,-1.97285448304397e+001,-1.82674179232002e-001

3.24900958542493e+004,-1.97285666661452e+001,-1.85209604287426e-001

3.29436406907028e+004,-1.97285891029582e+001,-1.87779810810529e-001

3.34035167771346e+004,-1.97286121570614e+001,-1.90385258974158e-001

3.38698124945009e+004,-1.97286358450526e+001,-1.93026414340213e-001

3.43426174575100e+004,-1.97286601839540e+001,-1.95703747896761e-001

3.48220225318448e+004,-1.97286851912221e+001,-1.98417736089019e-001

3.53081198516260e+004,-1.97287108847577e+001,-2.01168860852956e-001

3.58010028371187e+004,-1.97287372829149e+001,-2.03957609647491e-001

3.63007662126863e+004,-1.97287644045124e+001,-2.06784475480908e-001

3.68075060249948e+004,-1.97287922688426e+001,-2.09649956943076e-001

3.73213196614721e+004,-1.97288208956827e+001,-2.12554558230268e-001

3.78423058690237e+004,-1.97288503053047e+001,-2.15498789172949e-001

3.83705647730104e+004,-1.97288805184867e+001,-2.18483165254927e-001

3.89061978964912e+004,-1.97289115565222e+001,-2.21508207645065e-001

3.94493081797342e+004,-1.97289434412329e+001,-2.24574443206442e-001

3.99999999999998e+004,-1.97289761949780e+001,-2.27682404525823e-001

4.05583791916010e+004,-1.97290098406657e+001,-2.30832629925667e-001

4.11245530662425e+004,-1.97290444017652e+001,-2.34025663478689e-001

4.16986304336447e+004,-1.97290799023166e+001,-2.37262055023719e-001

4.22807216224550e+004,-1.97291163669432e+001,-2.40542360174737e-001

4.28709385014515e+004,-1.97291538208628e+001,-2.43867140329807e-001

4.34693945010421e+004,-1.97291922898987e+001,-2.47236962677979e-001

4.40762046350642e+004,-1.97292318004915e+001,-2.50652400204064e-001

4.46914855228886e+004,-1.97292723797105e+001,-2.54114031688593e-001

4.53153554118317e+004,-1.97293140552654e+001,-2.57622441707750e-001

4.59479341998812e+004,-1.97293568555182e+001,-2.61178220627915e-001

4.65893434587380e+004,-1.97294008094939e+001,-2.64781964601358e-001

4.72397064571810e+004,-1.97294459468931e+001,-2.68434275552691e-001

4.78991481847569e+004,-1.97294922981030e+001,-2.72135761170567e-001

4.85677953758016e+004,-1.97295398942087e+001,-2.75887034888669e-001

4.92457765337964e+004,-1.97295887670049e+001,-2.79688715868399e-001

4.99332219560642e+004,-1.97296389490073e+001,-2.83541428973941e-001

5.06302637588109e+004,-1.97296904734636e+001,-2.87445804748408e-001

5.13370359025159e+004,-1.97297433743646e+001,-2.91402479383088e-001

5.20536742176771e+004,-1.97297976864551e+001,-2.95412094684851e-001

5.27803164309155e+004,-1.97298534452449e+001,-2.99475298037166e-001

5.35171021914442e+004,-1.97299106870188e+001,-3.03592742362977e-001

5.42641730979066e+004,-1.97299694488474e+001,-3.07765086073989e-001

5.50216727255895e+004,-1.97300297685965e+001,-3.11992993026587e-001

5.57897466540159e+004,-1.97300916849374e+001,-3.16277132465365e-001

5.65685424949235e+004,-1.97301552373561e+001,-3.20618178965552e-001

5.73582099206328e+004,-1.97302204661616e+001,-3.25016812374391e-001

5.81589006928121e+004,-1.97302874124957e+001,-3.29473717738396e-001

5.89707686916437e+004,-1.97303561183401e+001,-3.33989585236977e-001

5.97939699453972e+004,-1.97304266265243e+001,-3.38565110105402e-001

6.06286626604156e+004,-1.97304989807329e+001,-3.43200992553091e-001

6.14750072515201e+004,-1.97305732255118e+001,-3.47897937680272e-001

6.23331663728396e+004,-1.97306494062743e+001,-3.52656655384412e-001

6.32033049490698e+004,-1.97307275693065e+001,-3.57477860267003e-001

6.40855902071694e+004,-1.97308077617710e+001,-3.62362271535888e-001

6.49801917084985e+004,-1.97308900317117e+001,-3.67310612894226e-001

6.58872813814055e+004,-1.97309744280555e+001,-3.72323612436613e-001

6.68070335542691e+004,-1.97310610006152e+001,-3.77402002528685e-001

6.77396249890018e+004,-1.97311498000899e+001,-3.82546519691011e-001

6.86852349150199e+004,-1.97312408780656e+001,-3.87757904470650e-001

6.96440450636895e+004,-1.97313342870129e+001,-3.93036901314584e-001

7.06162397032520e+004,-1.97314300802865e+001,-3.98384258429665e-001

7.16020056742374e+004,-1.97315283121201e+001,-4.03800727647335e-001

7.26015324253724e+004,-1.97316290376225e+001,-4.09287064277565e-001

7.36150120499896e+004,-1.97317323127713e+001,-4.14844026958560e-001

7.46426393229441e+004,-1.97318381944054e+001,-4.20472377501963e-001

7.56846117380472e+004,-1.97319467402153e+001,-4.26172880739632e-001

7.67411295460207e+004,-1.97320580087335e+001,-4.31946304353881e-001

7.78123957929823e+004,-1.97321720593213e+001,-4.37793418716162e-001

7.88986163594682e+004,-1.97322889521546e+001,-4.43714996716678e-001

7.99999999999995e+004,-1.97324087482082e+001,-4.49711813587898e-001

8.11167583832018e+004,-1.97325315092381e+001,-4.55784646729368e-001

8.22491061324848e+004,-1.97326572977610e+001,-4.61934275527372e-001

8.33972608672892e+004,-1.97327861770324e+001,-4.68161481173635e-001

8.45614432449099e+004,-1.97329182110223e+001,-4.74467046479501e-001

8.57418770029029e+004,-1.97330534643886e+001,-4.80851755689597e-001

8.69387890020841e+004,-1.97331920024484e+001,-4.87316394295193e-001

8.81524092701283e+004,-1.97333338911456e+001,-4.93861748846377e-001

8.93829710457770e+004,-1.97334791970181e+001,-5.00488606762030e-001

9.06307108236633e+004,-1.97336279871599e+001,-5.07197756143397e-001

9.18958683997622e+004,-1.97337803291822e+001,-5.13989985587349e-001

9.31786869174758e+004,-1.97339362911709e+001,-5.20866084000681e-001

9.44794129143618e+004,-1.97340959416412e+001,-5.27826840418227e-001

9.57982963695136e+004,-1.97342593494893e+001,-5.34873043823144e-001

9.71355907516031e+004,-1.97344265839412e+001,-5.42005482972067e-001

9.84915530675926e+004,-1.97345977144969e+001,-5.49224946227972e-001

9.98664439121282e+004,-1.97347728108739e+001,-5.56532221392855e-001

1.01260527517622e+005,-1.97349519429450e+001,-5.63928095552709e-001

1.02674071805032e+005,-1.97351351806737e+001,-5.71413354928869e-001

1.04107348435354e+005,-1.97353225940454e+001,-5.78988784741812e-001

1.05560632861831e+005,-1.97355142529967e+001,-5.86655169077132e-001

1.07034204382888e+005,-1.97357102273388e+001,-5.94413290774022e-001

1.08528346195813e+005,-1.97359105866789e+001,-6.02263931318550e-001

1.10043345451179e+005,-1.97361154003373e+001,-6.10207870755419e-001

1.11579493308032e+005,-1.97363247372604e+001,-6.18245887615606e-001

1.13137084989847e+005,-1.97365386659311e+001,-6.26378758858403e-001

1.14716419841265e+005,-1.97367572542739e+001,-6.34607259835131e-001

1.16317801385624e+005,-1.97369805695572e+001,-6.42932164274013e-001

1.17941537383287e+005,-1.97372086782919e+001,-6.51354244283444e-001

1.19587939890794e+005,-1.97374416461258e+001,-6.59874270381355e-001

1.21257325320831e+005,-1.97376795377339e+001,-6.68493011553894e-001

1.22950014503040e+005,-1.97379224167066e+001,-6.77211235331155e-001

1.24666332745679e+005,-1.97381703454324e+001,-6.86029707904620e-001

1.26406609898139e+005,-1.97384233849786e+001,-6.94949194265306e-001

1.28171180414339e+005,-1.97386815949671e+001,-7.03970458382301e-001

1.29960383416997e+005,-1.97389450334490e+001,-7.13094263408501e-001

1.31774562762811e+005,-1.97392137567737e+001,-7.22321371930797e-001

1.33614067108538e+005,-1.97394878194565e+001,-7.31652546253956e-001

1.35479249978003e+005,-1.97397672740433e+001,-7.41088548724949e-001

1.37370469830040e+005,-1.97400521709714e+001,-7.50630142103372e-001

1.39288090127379e+005,-1.97403425584297e+001,-7.60278089971001e-001

1.41232479406504e+005,-1.97406384822153e+001,-7.70033157192129e-001

1.43204011348474e+005,-1.97409399855887e+001,-7.79896110420070e-001

1.45203064850745e+005,-1.97412471091272e+001,-7.89867718652576e-001

1.47230024099979e+005,-1.97415598905777e+001,-7.99948753838768e-001

1.49285278645888e+005,-1.97418783647067e+001,-8.10139991542707e-001

1.51369223476094e+005,-1.97422025631522e+001,-8.20442211655923e-001

1.53482259092041e+005,-1.97425325142727e+001,-8.30856199172918e-001

1.55624791585964e+005,-1.97428682429978e+001,-8.41382745017923e-001

1.57797232718936e+005,-1.97432097706798e+001,-8.52022646934685e-001

1.59999999999999e+005,-1.97435571149447e+001,-8.62776710434767e-001

1.62233516766403e+005,-1.97439102895454e+001,-8.73645749807922e-001

1.64498212264969e+005,-1.97442693042175e+001,-8.84630589193861e-001

1.66794521734578e+005,-1.97446341645361e+001,-8.95732063715615e-001

1.69122886489819e+005,-1.97450048717773e+001,-9.06951020676521e-001

1.71483754005805e+005,-1.97453814227808e+001,-9.18288320822962e-001

1.73877578004168e+005,-1.97457638098194e+001,-9.29744839665741e-001

1.76304818540256e+005,-1.97461520204703e+001,-9.41321468869180e-001

1.78765942091554e+005,-1.97465460374934e+001,-9.53019117701453e-001

1.81261421647326e+005,-1.97469458387150e+001,-9.64838714544760e-001

1.83791736799524e+005,-1.97473513969170e+001,-9.76781208472099e-001

1.86357373834951e+005,-1.97477626797339e+001,-9.88847570879150e-001

1.88958825828723e+005,-1.97481796495573e+001,-1.00103879717732e+000

1.91596592739027e+005,-1.97486022634473e+001,-1.01335590854587e+000

1.94271181503206e+005,-1.97490304730547e+001,-1.02579995373367e+000

1.96983106135185e+005,-1.97494642245503e+001,-1.03837201091912e+000

1.99732887824256e+005,-1.97499034585653e+001,-1.05107318961773e+000

2.02521055035243e+005,-1.97503481101418e+001,-1.06390463263799e+000

2.05348143610063e+005,-1.97507981086942e+001,-1.07686751808069e+000

2.08214696870707e+005,-1.97512533779816e+001,-1.08996306138094e+000

2.11121265723661e+005,-1.97517138360929e+001,-1.10319251738401e+000

2.14068408765776e+005,-1.97521793954436e+001,-1.11655718245856e+000

2.17056692391625e+005,-1.97526499627853e+001,-1.13005839663575e+000

2.20086690902357e+005,-1.97531254392289e+001,-1.14369754577409e+000

2.23158986616063e+005,-1.97536057202808e+001,-1.15747606374307e+000

2.26274169979693e+005,-1.97540906958931e+001,-1.17139543462380e+000

2.29432839682530e+005,-1.97545802505276e+001,-1.18545719491569e+000

2.32635602771247e+005,-1.97550742632342e+001,-1.19966293575250e+000

2.35883074766574e+005,-1.97555726077438e+001,-1.21401430511218e+000

2.39175879781588e+005,-1.97560751525750e+001,-1.22851301002303e+000

2.42514650641661e+005,-1.97565817611562e+001,-1.24316081875657e+000

2.45900029006080e+005,-1.97570922919614e+001,-1.25795956300377e+000

2.49332665491357e+005,-1.97576065986607e+001,-1.27291114002313e+000

2.52813219796278e+005,-1.97581245302848e+001,-1.28801751476491e+000

2.56342360828676e+005,-1.97586459314037e+001,-1.30328072195366e+000

2.59920766833993e+005,-1.97591706423190e+001,-1.31870286813424e+000

2.63549125525621e+005,-1.97596984992697e+001,-1.33428613366651e+000

2.67228134217075e+005,-1.97602293346501e+001,-1.35003277467190e+000

2.70958499956006e+005,-1.97607629772419e+001,-1.36594512491687e+000

2.74740939660078e+005,-1.97612992524563e+001,-1.38202559763773e+000

2.78576180254757e+005,-1.97618379825886e+001,-1.39827668729328e+000

2.82464958813007e+005,-1.97623789870834e+001,-1.41470097124610e+000

2.86408022696948e+005,-1.97629220828091e+001,-1.43130111136735e+000

2.90406129701488e+005,-1.97634670843428e+001,-1.44807985555730e+000

2.94460048199957e+005,-1.97640138042622e+001,-1.46504003918155e+000

2.98570557291775e+005,-1.97645620534459e+001,-1.48218458642005e+000

3.02738446952187e+005,-1.97651116413807e+001,-1.49951651152041e+000

3.06964518184081e+005,-1.97656623764737e+001,-1.51703891995765e+000

3.11249583171928e+005,-1.97662140663699e+001,-1.53475500950097e+000

3.15594465437872e+005,-1.97667665182731e+001,-1.55266807117542e+000

3.19999999999997e+005,-1.97673195392706e+001,-1.57078149012761e+000

3.24467033532806e+005,-1.97678729366578e+001,-1.58909874639125e+000

3.28996424529938e+005,-1.97684265182661e+001,-1.60762341554761e+000

3.33589043469155e+005,-1.97689800927882e+001,-1.62635916928901e+000

3.38245772979638e+005,-1.97695334701037e+001,-1.64530977587898e+000

3.42967508011610e+005,-1.97700864616014e+001,-1.66447910051589e+000

3.47755156008335e+005,-1.97706388804993e+001,-1.68387110559525e+000

3.52609637080511e+005,-1.97711905421594e+001,-1.70348985087971e+000

3.57531884183106e+005,-1.97717412643977e+001,-1.72333949357347e+000

3.62522843294651e+005,-1.97722908677885e+001,-1.74342428830746e+000

3.67583473599047e+005,-1.97728391759604e+001,-1.76374858703705e+000

3.72714747669902e+005,-1.97733860158863e+001,-1.78431683885593e+000

3.77917651657445e+005,-1.97739312181627e+001,-1.80513358973195e+000

3.83193185478053e+005,-1.97744746172814e+001,-1.82620348216708e+000

3.88542363006410e+005,-1.97750160518894e+001,-1.84753125478804e+000

3.93966212270369e+005,-1.97755553650401e+001,-1.86912174186924e+000

3.99465775648511e+005,-1.97760924044304e+001,-1.89097987280140e+000

4.05042110070485e+005,-1.97766270226288e+001,-1.91311067149885e+000

4.10696287220124e+005,-1.97771590772890e+001,-1.93551925576402e+000

4.16429393741414e+005,-1.97776884313522e+001,-1.95821083660525e+000

4.22242531447321e+005,-1.97782149532350e+001,-1.98119071751934e+000

4.28136817531551e+005,-1.97787385170049e+001,-2.00446429374357e+000

4.34113384783250e+005,-1.97792590025424e+001,-2.02803705148111e+000

4.40173381804713e+005,-1.97797762956885e+001,-2.05191456710838e+000

4.46317973232124e+005,-1.97802902883788e+001,-2.07610250637189e+000

4.52548339959385e+005,-1.97808008787642e+001,-2.10060662357453e+000

4.58865679365059e+005,-1.97813079713175e+001,-2.12543276076404e+000

4.65271205542494e+005,-1.97818114769263e+001,-2.15058684692554e+000

4.71766149533147e+005,-1.97823113129720e+001,-2.17607489718525e+000

4.78351759563174e+005,-1.97828074033970e+001,-2.20190301202972e+000

4.85029301283321e+005,-1.97832996787568e+001,-2.22807737654861e+000

4.91800058012158e+005,-1.97837880762610e+001,-2.25460425970206e+000

4.98665330982714e+005,-1.97842725398011e+001,-2.28149001362226e+000

5.05626439592555e+005,-1.97847530199669e+001,-2.30874107295039e+000

5.12684721657352e+005,-1.97852294740507e+001,-2.33636395421427e+000

5.19841533667984e+005,-1.97857018660407e+001,-2.36436525525357e+000

5.27098251051240e+005,-1.97861701666044e+001,-2.39275165469083e+000

5.34456268434150e+005,-1.97866343530609e+001,-2.42152991145861e+000

5.41916999912011e+005,-1.97870944093447e+001,-2.45070686438171e+000

