Freq.,VOut,OutRef

1.00000000000000e+004,-2.89404766662220e+001,-4.51258600915869e-001

1.01395947979003e+004,-2.89404824074689e+001,-4.57557223466977e-001

1.02811382665607e+004,-2.89404883099396e+001,-4.63943741283390e-001

1.04246576084112e+004,-2.89404943781563e+001,-4.70419380056009e-001

1.05701804056138e+004,-2.89405006167676e+001,-4.76985382531973e-001

1.07177346253629e+004,-2.89405070305523e+001,-4.83643008750376e-001

1.08673486252606e+004,-2.89405136244226e+001,-4.90393536280562e-001

1.10190511587661e+004,-2.89405204034285e+001,-4.97238260464295e-001

1.11728713807222e+004,-2.89405273727608e+001,-5.04178494662527e-001

1.13288388529580e+004,-2.89405345377560e+001,-5.11215570502434e-001

1.14869835499703e+004,-2.89405419038991e+001,-5.18350838131879e-001

1.16473358646846e+004,-2.89405494768288e+001,-5.25585666473422e-001

1.18099266142953e+004,-2.89405572623417e+001,-5.32921443481765e-001

1.19747870461893e+004,-2.89405652663958e+001,-5.40359576410959e-001

1.21419488439505e+004,-2.89405734951159e+001,-5.47901492075868e-001

1.23114441334492e+004,-2.89405819547978e+001,-5.55548637124123e-001

1.24833054890161e+004,-2.89405906519131e+001,-5.63302478308444e-001

1.26575659397028e+004,-2.89405995931143e+001,-5.71164502765122e-001

1.28342589756290e+004,-2.89406087852394e+001,-5.79136218292344e-001

1.30134185544193e+004,-2.89406182353176e+001,-5.87219153635753e-001

1.31950791077289e+004,-2.89406279505737e+001,-5.95414858777585e-001

1.33792755478611e+004,-2.89406379384347e+001,-6.03724905226285e-001

1.35660432744767e+004,-2.89406482065344e+001,-6.12150886315597e-001

1.37554181813974e+004,-2.89406587627198e+001,-6.20694417500876e-001

1.39474366635040e+004,-2.89406696150564e+001,-6.29357136665904e-001

1.41421356237309e+004,-2.89406807718348e+001,-6.38140704429481e-001

1.43395524801583e+004,-2.89406922415764e+001,-6.47046804457370e-001

1.45397251732031e+004,-2.89407040330404e+001,-6.56077143778028e-001

1.47426921729110e+004,-2.89407161552297e+001,-6.65233453103918e-001

1.49484924863494e+004,-2.89407286173980e+001,-6.74517487155843e-001

1.51571656651040e+004,-2.89407414290569e+001,-6.83931024989879e-001

1.53687518128801e+004,-2.89407545999823e+001,-6.93475870333437e-001

1.55832915932100e+004,-2.89407681402225e+001,-7.03153851920854e-001

1.58008262372675e+004,-2.89407820601054e+001,-7.12966823834531e-001

1.60213975517924e+004,-2.89407963702457e+001,-7.22916665854221e-001

1.62450479271247e+004,-2.89408110815536e+001,-7.33005283804666e-001

1.64718203453514e+004,-2.89408262052423e+001,-7.43234609913138e-001

1.67017583885674e+004,-2.89408417528369e+001,-7.53606603168282e-001

1.69349062472505e+004,-2.89408577361822e+001,-7.64123249686306e-001

1.71713087287550e+004,-2.89408741674522e+001,-7.74786563079227e-001

1.74110112659224e+004,-2.89408910591586e+001,-7.85598584829618e-001

1.76540599258131e+004,-2.89409084241603e+001,-7.96561384670132e-001

1.79005014185594e+004,-2.89409262756732e+001,-8.07677060965663e-001

1.81503831063432e+004,-2.89409446272790e+001,-8.18947741105253e-001

1.84037530124975e+004,-2.89409634929364e+001,-8.30375581893767e-001

1.86606598307361e+004,-2.89409828869905e+001,-8.41962769950514e-001

1.89211529345119e+004,-2.89410028241836e+001,-8.53711522116064e-001

1.91852823865052e+004,-2.89410233196664e+001,-8.65624085857562e-001

1.94530989482457e+004,-2.89410443890084e+001,-8.77702739686783e-001

1.97246540898671e+004,-2.89410660482102e+001,-8.89949793576580e-001

1.99999999999999e+004,-2.89410883137141e+001,-9.02367589388346e-001

2.02791895958005e+004,-2.89411112024172e+001,-9.14958501300991e-001

2.05622765331213e+004,-2.89411347316832e+001,-9.27724936245221e-001

2.08493152168224e+004,-2.89411589193547e+001,-9.40669334348601e-001

2.11403608112276e+004,-2.89411837837670e+001,-9.53794169378207e-001

2.14354692507258e+004,-2.89412093437608e+001,-9.67101949193912e-001

2.17346972505211e+004,-2.89412356186961e+001,-9.80595216207573e-001

2.20381023175322e+004,-2.89412626284661e+001,-9.94276547844405e-001

2.23457427614443e+004,-2.89412903935116e+001,-1.00814855701401e+000

2.26576777059159e+004,-2.89413189348359e+001,-1.02221389258285e+000

2.29739670999406e+004,-2.89413482740195e+001,-1.03647523985750e+000

2.32946717293690e+004,-2.89413784332364e+001,-1.05093532106925e+000

2.36198532285905e+004,-2.89414094352688e+001,-1.06559689586765e+000

2.39495740923785e+004,-2.89414413035249e+001,-1.08046276181741e+000

2.42838976879009e+004,-2.89414740620542e+001,-1.09553575490493e+000

2.46228882668982e+004,-2.89415077355655e+001,-1.11081875004686e+000

2.49666109780322e+004,-2.89415423494443e+001,-1.12631466160662e+000

2.53151318794055e+004,-2.89415779297708e+001,-1.14202644391849e+000

2.56685179512580e+004,-2.89416145033380e+001,-1.15795709181474e+000

2.60268371088386e+004,-2.89416520976714e+001,-1.17410964116100e+000

2.63901582154578e+004,-2.89416907410476e+001,-1.19048716939923e+000

2.67585510957221e+004,-2.89417304625148e+001,-1.20709279609205e+000

2.71320865489533e+004,-2.89417712919128e+001,-1.22392968347910e+000

2.75108363627948e+004,-2.89418132598940e+001,-1.24100103703684e+000

2.78948733270080e+004,-2.89418563979446e+001,-1.25831010604469e+000

2.82842712474618e+004,-2.89419007384069e+001,-1.27586018415837e+000

2.86791049603164e+004,-2.89419463145014e+001,-1.29365460999005e+000

2.90794503464061e+004,-2.89419931603498e+001,-1.31169676769383e+000

2.94853843458219e+004,-2.89420413109987e+001,-1.32999008755887e+000

2.98969849726987e+004,-2.89420908024435e+001,-1.34853804660892e+000

3.03143313302078e+004,-2.89421416716530e+001,-1.36734416920763e+000

3.07375036257601e+004,-2.89421939565953e+001,-1.38641202767145e+000

3.11665831864199e+004,-2.89422476962624e+001,-1.40574524289002e+000

3.16016524745350e+004,-2.89423029306979e+001,-1.42534748495044e+000

3.20427951035848e+004,-2.89423597010233e+001,-1.44522247377113e+000

3.24900958542493e+004,-2.89424180494660e+001,-1.46537397974124e+000

3.29436406907028e+004,-2.89424780193874e+001,-1.48580582436631e+000

3.34035167771346e+004,-2.89425396553123e+001,-1.50652188092231e+000

3.38698124945009e+004,-2.89426030029577e+001,-1.52752607511542e+000

3.43426174575100e+004,-2.89426681092643e+001,-1.54882238574797e+000

3.48220225318448e+004,-2.89427350224260e+001,-1.57041484539347e+000

3.53081198516260e+004,-2.89428037919229e+001,-1.59230754107597e+000

3.58010028371187e+004,-2.89428744685531e+001,-1.61450461495693e+000

3.63007662126863e+004,-2.89429471044654e+001,-1.63701026503203e+000

3.68075060249948e+004,-2.89430217531936e+001,-1.65982874582925e+000

3.73213196614721e+004,-2.89430984696910e+001,-1.68296436911868e+000

3.78423058690237e+004,-2.89431773103652e+001,-1.70642150462766e+000

3.83705647730104e+004,-2.89432583331146e+001,-1.73020458076125e+000

3.89061978964912e+004,-2.89433415973646e+001,-1.75431808533181e+000

3.94493081797342e+004,-2.89434271641057e+001,-1.77876656629561e+000

3.99999999999998e+004,-2.89435150959313e+001,-1.80355463249281e+000

4.05583791916010e+004,-2.89436054570768e+001,-1.82868695439915e+000

4.11245530662425e+004,-2.89436983134596e+001,-1.85416826488155e+000

4.16986304336447e+004,-2.89437937327195e+001,-1.88000335996110e+000

4.22807216224550e+004,-2.89438917842603e+001,-1.90619709958217e+000

4.28709385014515e+004,-2.89439925392919e+001,-1.93275440839100e+000

4.34693945010421e+004,-2.89440960708730e+001,-1.95968027651788e+000

4.40762046350642e+004,-2.89442024539555e+001,-1.98697976036818e+000

4.46914855228886e+004,-2.89443117654287e+001,-2.01465798341872e+000

4.53153554118317e+004,-2.89444240841647e+001,-2.04272013702343e+000

4.59479341998812e+004,-2.89445394910650e+001,-2.07117148122174e+000

4.65893434587380e+004,-2.89446580691069e+001,-2.10001734555757e+000

4.72397064571810e+004,-2.89447799033923e+001,-2.12926312990273e+000

4.78991481847569e+004,-2.89449050811953e+001,-2.15891430528758e+000

4.85677953758016e+004,-2.89450336920126e+001,-2.18897641473840e+000

4.92457765337964e+004,-2.89451658276133e+001,-2.21945507412101e+000

4.99332219560642e+004,-2.89453015820901e+001,-2.25035597299241e+000

5.06302637588109e+004,-2.89454410519112e+001,-2.28168487545576e+000

5.13370359025159e+004,-2.89455843359729e+001,-2.31344762102622e+000

5.20536742176771e+004,-2.89457315356534e+001,-2.34565012549891e+000

5.27803164309155e+004,-2.89458827548665e+001,-2.37829838182759e+000

5.35171021914442e+004,-2.89460381001170e+001,-2.41139846100550e+000

5.42641730979066e+004,-2.89461976805563e+001,-2.44495651295629e+000

5.50216727255895e+004,-2.89463616080388e+001,-2.47897876742994e+000

5.57897466540159e+004,-2.89465299971794e+001,-2.51347153490409e+000

5.65685424949235e+004,-2.89467029654108e+001,-2.54844120749386e+000

5.73582099206328e+004,-2.89468806330427e+001,-2.58389425986659e+000

5.81589006928121e+004,-2.89470631233209e+001,-2.61983725016304e+000

5.89707686916437e+004,-2.89472505624867e+001,-2.65627682092680e+000

5.97939699453972e+004,-2.89474430798379e+001,-2.69321970003727e+000

6.06286626604156e+004,-2.89476408077897e+001,-2.73067270165233e+000

6.14750072515201e+004,-2.89478438819362e+001,-2.76864272715468e+000

6.23331663728396e+004,-2.89480524411131e+001,-2.80713676610661e+000

6.32033049490698e+004,-2.89482666274594e+001,-2.84616189721102e+000

6.40855902071694e+004,-2.89484865864813e+001,-2.88572528927917e+000

6.49801917084985e+004,-2.89487124671155e+001,-2.92583420220488e+000

6.58872813814055e+004,-2.89489444217930e+001,-2.96649598794591e+000

6.68070335542691e+004,-2.89491826065036e+001,-3.00771809151252e+000

6.77396249890018e+004,-2.89494271808601e+001,-3.04950805196371e+000

6.86852349150199e+004,-2.89496783081636e+001,-3.09187350340956e+000

6.96440450636895e+004,-2.89499361554678e+001,-3.13482217602243e+000

7.06162397032520e+004,-2.89502008936452e+001,-3.17836189705477e+000

7.16020056742374e+004,-2.89504726974515e+001,-3.22250059186577e+000

7.26015324253724e+004,-2.89507517455913e+001,-3.26724628495669e+000

7.36150120499896e+004,-2.89510382207832e+001,-3.31260710101299e+000

7.46426393229441e+004,-2.89513323098258e+001,-3.35859126595669e+000

7.56846117380472e+004,-2.89516342036617e+001,-3.40520710800788e+000

7.67411295460207e+004,-2.89519440974437e+001,-3.45246305875530e+000

7.78123957929823e+004,-2.89522621905984e+001,-3.50036765423746e+000

7.88986163594682e+004,-2.89525886868917e+001,-3.54892953603332e+000

7.99999999999995e+004,-2.89529237944921e+001,-3.59815745236512e+000

8.11167583832018e+004,-2.89532677260347e+001,-3.64806025921237e+000

8.22491061324848e+004,-2.89536206986844e+001,-3.69864692143662e+000

8.33972608672892e+004,-2.89539829341981e+001,-3.74992651392147e+000

8.45614432449099e+004,-2.89543546589872e+001,-3.80190822272354e+000

8.57418770029029e+004,-2.89547361041785e+001,-3.85460134623964e+000

8.69387890020841e+004,-2.89551275056751e+001,-3.90801529638692e+000

8.81524092701283e+004,-2.89555291042156e+001,-3.96215959980062e+000

8.93829710457770e+004,-2.89559411454334e+001,-4.01704389904754e+000

9.06307108236633e+004,-2.89563638799143e+001,-4.07267795385748e+000

9.18958683997622e+004,-2.89567975632539e+001,-4.12907164237339e+000

9.31786869174758e+004,-2.89572424561128e+001,-4.18623496242133e+000

9.44794129143618e+004,-2.89576988242720e+001,-4.24417803280114e+000

9.57982963695136e+004,-2.89581669386862e+001,-4.30291109460072e+000

9.71355907516031e+004,-2.89586470755367e+001,-4.36244451253167e+000

9.84915530675926e+004,-2.89591395162821e+001,-4.42278877629132e+000

9.98664439121282e+004,-2.89596445477091e+001,-4.48395450195114e+000

1.01260527517622e+005,-2.89601624619809e+001,-4.54595243337276e+000

1.02674071805032e+005,-2.89606935566847e+001,-4.60879344365321e+000

1.04107348435354e+005,-2.89612381348787e+001,-4.67248853660161e+000

1.05560632861831e+005,-2.89617965051363e+001,-4.73704884824963e+000

1.07034204382888e+005,-2.89623689815910e+001,-4.80248564839527e+000

1.08528346195813e+005,-2.89629558839784e+001,-4.86881034218474e+000

1.10043345451179e+005,-2.89635575376781e+001,-4.93603447173191e+000

1.11579493308032e+005,-2.89641742737545e+001,-5.00416971777873e+000

1.13137084989847e+005,-2.89648064289960e+001,-5.07322790140014e+000

1.14716419841265e+005,-2.89654543459541e+001,-5.14322098575120e+000

1.16317801385624e+005,-2.89661183729812e+001,-5.21416107786388e+000

1.17941537383287e+005,-2.89667988642681e+001,-5.28606043049251e+000

1.19587939890794e+005,-2.89674961798809e+001,-5.35893144401118e+000

1.21257325320831e+005,-2.89682106857976e+001,-5.43278666836589e+000

1.22950014503040e+005,-2.89689427539448e+001,-5.50763880508383e+000

1.24666332745679e+005,-2.89696927622347e+001,-5.58350070934086e+000

1.26406609898139e+005,-2.89704610946019e+001,-5.66038539209238e+000

1.28171180414339e+005,-2.89712481410416e+001,-5.73830602226852e+000

1.29960383416997e+005,-2.89720542976487e+001,-5.81727592903478e+000

1.31774562762811e+005,-2.89728799666579e+001,-5.89730860412435e+000

1.33614067108538e+005,-2.89737255564863e+001,-5.97841770424120e+000

1.35479249978003e+005,-2.89745914817771e+001,-6.06061705353896e+000

1.37370469830040e+005,-2.89754781634470e+001,-6.14392064617568e+000

1.39288090127379e+005,-2.89763860287362e+001,-6.22834264894974e+000

1.41232479406504e+005,-2.89773155112619e+001,-6.31389740401684e+000

1.43204011348474e+005,-2.89782670510763e+001,-6.40059943169140e+000

1.45203064850745e+005,-2.89792410947289e+001,-6.48846343333505e+000

1.47230024099979e+005,-2.89802380953350e+001,-6.57750429433356e+000

1.49285278645888e+005,-2.89812585126489e+001,-6.66773708716404e+000

1.51369223476094e+005,-2.89823028131454e+001,-6.75917707455573e+000

1.53482259092041e+005,-2.89833714701077e+001,-6.85183971274290e+000

1.55624791585964e+005,-2.89844649637235e+001,-6.94574065481639e+000

1.57797232718936e+005,-2.89855837811912e+001,-7.04089575416850e+000

1.59999999999999e+005,-2.89867284168346e+001,-7.13732106803884e+000

1.62233516766403e+005,-2.89878993722295e+001,-7.23503286115653e+000

1.64498212264969e+005,-2.89890971563415e+001,-7.33404760948326e+000

1.66794521734578e+005,-2.89903222856763e+001,-7.43438200405408e+000

1.69122886489819e+005,-2.89915752844440e+001,-7.53605295491952e+000

1.71483754005805e+005,-2.89928566847375e+001,-7.63907759518416e+000

1.73877578004168e+005,-2.89941670267269e+001,-7.74347328514460e+000

1.76304818540256e+005,-2.89955068588707e+001,-7.84925761652444e+000

1.78765942091554e+005,-2.89968767381442e+001,-7.95644841680311e+000

1.81261421647326e+005,-2.89982772302870e+001,-8.06506375363970e+000

1.83791736799524e+005,-2.89997089100704e+001,-8.17512193938595e+000

1.86357373834951e+005,-2.90011723615861e+001,-8.28664153568840e+000

1.88958825828723e+005,-2.90026681785564e+001,-8.39964135817415e+000

1.91596592739027e+005,-2.90041969646677e+001,-8.51414048121897e+000

1.94271181503206e+005,-2.90057593339292e+001,-8.63015824278987e+000

1.96983106135185e+005,-2.90073559110559e+001,-8.74771424936083e+000

1.99732887824256e+005,-2.90089873318782e+001,-8.86682838089550e+000

2.02521055035243e+005,-2.90106542437800e+001,-8.98752079588844e+000

2.05348143610063e+005,-2.90123573061640e+001,-9.10981193646385e+000

2.08214696870707e+005,-2.90140971909478e+001,-9.23372253351956e+000

2.11121265723661e+005,-2.90158745830896e+001,-9.35927361191252e+000

2.14068408765776e+005,-2.90176901811452e+001,-9.48648649567756e+000

2.17056692391625e+005,-2.90195446978587e+001,-9.61538281327006e+000

2.20086690902357e+005,-2.90214388607846e+001,-9.74598450282427e+000

2.23158986616063e+005,-2.90233734129445e+001,-9.87831381741989e+000

2.26274169979693e+005,-2.90253491135185e+001,-1.00123933303449e+001

2.29432839682530e+005,-2.90273667385718e+001,-1.01482459403462e+001

2.32635602771247e+005,-2.90294270818163e+001,-1.02858948768577e+001

2.35883074766574e+005,-2.90315309554093e+001,-1.04253637051953e+001

2.39175879781588e+005,-2.90336791907881e+001,-1.05666763317072e+001

2.42514650641661e+005,-2.90358726395420e+001,-1.07098570088702e+001

2.45900029006080e+005,-2.90381121743211e+001,-1.08549303403174e+001

2.49332665491357e+005,-2.90403986897821e+001,-1.10019212857900e+001

2.52813219796278e+005,-2.90427331035721e+001,-1.11508551659977e+001

2.56342360828676e+005,-2.90451163573483e+001,-1.13017576673788e+001

2.59920766833993e+005,-2.90475494178362e+001,-1.14546548467450e+001

2.63549125525621e+005,-2.90500332779235e+001,-1.16095731358036e+001

2.67228134217075e+005,-2.90525689577905e+001,-1.17665393455409e+001

2.70958499956006e+005,-2.90551575060767e+001,-1.19255806704573e+001

2.74740939660078e+005,-2.90578000010826e+001,-1.20867246926420e+001

2.78576180254757e+005,-2.90604975520064e+001,-1.22499993856768e+001

2.82464958813007e+005,-2.90632513002138e+001,-1.24154331183561e+001

2.86408022696948e+005,-2.90660624205424e+001,-1.25830546582137e+001

2.90406129701488e+005,-2.90689321226370e+001,-1.27528931748448e+001

2.94460048199957e+005,-2.90718616523164e+001,-1.29249782430141e+001

2.98570557291775e+005,-2.90748522929709e+001,-1.30993398455382e+001

3.02738446952187e+005,-2.90779053669885e+001,-1.32760083759353e+001

3.06964518184081e+005,-2.90810222372081e+001,-1.34550146408304e+001

3.11249583171928e+005,-2.90842043084005e+001,-1.36363898621099e+001

3.15594465437872e+005,-2.90874530287739e+001,-1.38201656788155e+001

3.19999999999997e+005,-2.90907698915030e+001,-1.40063741487711e+001

3.24467033532806e+005,-2.90941564362810e+001,-1.41950477499354e+001

3.28996424529938e+005,-2.90976142508927e+001,-1.43862193814715e+001

3.33589043469155e+005,-2.91011449728063e+001,-1.45799223645319e+001

3.38245772979638e+005,-2.91047502907843e+001,-1.47761904427475e+001

3.42967508011610e+005,-2.91084319465100e+001,-1.49750577824214e+001

3.47755156008335e+005,-2.91121917362296e+001,-1.51765589724175e+001

3.52609637080511e+005,-2.91160315124082e+001,-1.53807290237435e+001

3.57531884183106e+005,-2.91199531853967e+001,-1.55876033688239e+001

3.62522843294651e+005,-2.91239587251105e+001,-1.57972178604579e+001

3.67583473599047e+005,-2.91280501627165e+001,-1.60096087704614e+001

3.72714747669902e+005,-2.91322295923284e+001,-1.62248127879898e+001

3.77917651657445e+005,-2.91364991727079e+001,-1.64428670175399e+001

3.83193185478053e+005,-2.91408611289707e+001,-1.66638089766277e+001

3.88542363006410e+005,-2.91453177542967e+001,-1.68876765931424e+001

3.93966212270369e+005,-2.91498714116416e+001,-1.71145082023736e+001

3.99465775648511e+005,-2.91545245354498e+001,-1.73443425437120e+001

4.05042110070485e+005,-2.91592796333676e+001,-1.75772187570207e+001

4.10696287220124e+005,-2.91641392879534e+001,-1.78131763786777e+001

4.16429393741414e+005,-2.91691061583874e+001,-1.80522553372881e+001

4.22242531447321e+005,-2.91741829821752e+001,-1.82944959490643e+001

4.28136817531551e+005,-2.91793725768482e+001,-1.85399389128748e+001

4.34113384783250e+005,-2.91846778416572e+001,-1.87886253049588e+001

4.40173381804713e+005,-2.91901017592590e+001,-1.90405965733065e+001

4.46317973232124e+005,-2.91956473973953e+001,-1.92958945317033e+001

4.52548339959385e+005,-2.92013179105621e+001,-1.95545613534368e+001

4.58865679365059e+005,-2.92071165416689e+001,-1.98166395646633e+001

4.65271205542494e+005,-2.92130466236873e+001,-2.00821720374347e+001

4.71766149533147e+005,-2.92191115812870e+001,-2.03512019823797e+001

4.78351759563174e+005,-2.92253149324585e+001,-2.06237729410406e+001

4.85029301283321e+005,-2.92316602901223e+001,-2.08999287778590e+001

4.91800058012158e+005,-2.92381513637216e+001,-2.11797136718112e+001

4.98665330982714e+005,-2.92447919608000e+001,-2.14631721076856e+001

5.05626439592555e+005,-2.92515859885603e+001,-2.17503488670013e+001

5.12684721657352e+005,-2.92585374554056e+001,-2.20412890185638e+001

5.19841533667984e+005,-2.92656504724596e+001,-2.23360379086502e+001

5.27098251051240e+005,-2.92729292550657e+001,-2.26346411508226e+001

5.34456268434150e+005,-2.92803781242637e+001,-2.29371446153641e+001

5.41916999912011e+005,-2.92880015082416e+001,-2.32435944183298e+001

