Freq.,VOut,OutRef

1.00000000000000e+004,-2.15906757291085e+001,-4.50258337104610e-001

1.01395947979003e+004,-2.15906808736537e+001,-4.56543034808520e-001

1.02811382665607e+004,-2.15906861626555e+001,-4.62915435019427e-001

1.04246576084112e+004,-2.15906916001648e+001,-4.69376760807359e-001

1.05701804056138e+004,-2.15906971903465e+001,-4.75928252262058e-001

1.07177346253629e+004,-2.15907029374814e+001,-4.82571166734235e-001

1.08673486252606e+004,-2.15907088459701e+001,-4.89306779069034e-001

1.10190511587661e+004,-2.15907149203366e+001,-4.96136381849041e-001

1.11728713807222e+004,-2.15907211652309e+001,-5.03061285641664e-001

1.13288388529580e+004,-2.15907275854334e+001,-5.10082819245365e-001

1.14869835499703e+004,-2.15907341858577e+001,-5.17202329942631e-001

1.16473358646846e+004,-2.15907409715551e+001,-5.24421183754517e-001

1.18099266142953e+004,-2.15907479477176e+001,-5.31740765699324e-001

1.19747870461893e+004,-2.15907551196827e+001,-5.39162480055680e-001

1.21419488439505e+004,-2.15907624929366e+001,-5.46687750627668e-001

1.23114441334492e+004,-2.15907700731187e+001,-5.54318021014437e-001

1.24833054890161e+004,-2.15907778660262e+001,-5.62054754881606e-001

1.26575659397028e+004,-2.15907858776175e+001,-5.69899436240952e-001

1.28342589756290e+004,-2.15907941140179e+001,-5.77853569727690e-001

1.30134185544193e+004,-2.15908025815233e+001,-5.85918680885801e-001

1.31950791077289e+004,-2.15908112866053e+001,-5.94096316456126e-001

1.33792755478611e+004,-2.15908202359158e+001,-6.02388044667560e-001

1.35660432744767e+004,-2.15908294362923e+001,-6.10795455533285e-001

1.37554181813974e+004,-2.15908388947630e+001,-6.19320161149663e-001

1.39474366635040e+004,-2.15908486185518e+001,-6.27963796000123e-001

1.41421356237309e+004,-2.15908586150840e+001,-6.36728017262378e-001

1.43395524801583e+004,-2.15908688919917e+001,-6.45614505120929e-001

1.45397251732031e+004,-2.15908794571193e+001,-6.54624963082708e-001

1.47426921729110e+004,-2.15908903185301e+001,-6.63761118295819e-001

1.49484924863494e+004,-2.15909014845113e+001,-6.73024721875702e-001

1.51571656651040e+004,-2.15909129635810e+001,-6.82417549232044e-001

1.53687518128801e+004,-2.15909247644942e+001,-6.91941400402349e-001

1.55832915932100e+004,-2.15909368962492e+001,-7.01598100390141e-001

1.58008262372675e+004,-2.15909493680946e+001,-7.11389499504308e-001

1.60213975517924e+004,-2.15909621895360e+001,-7.21317473707372e-001

1.62450479271247e+004,-2.15909753703432e+001,-7.31383924965821e-001

1.64718203453514e+004,-2.15909889205570e+001,-7.41590781604037e-001

1.67017583885674e+004,-2.15910028504973e+001,-7.51939998666571e-001

1.69349062472505e+004,-2.15910171707703e+001,-7.62433558280706e-001

1.71713087287550e+004,-2.15910318922765e+001,-7.73073470026155e-001

1.74110112659224e+004,-2.15910470262184e+001,-7.83861771311455e-001

1.76540599258131e+004,-2.15910625841094e+001,-7.94800527749806e-001

1.79005014185594e+004,-2.15910785777820e+001,-8.05891833544580e-001

1.81503831063432e+004,-2.15910950193962e+001,-8.17137811879009e-001

1.84037530124975e+004,-2.15911119214488e+001,-8.28540615308187e-001

1.86606598307361e+004,-2.15911292967824e+001,-8.40102426159669e-001

1.89211529345119e+004,-2.15911471585951e+001,-8.51825456937326e-001

1.91852823865052e+004,-2.15911655204497e+001,-8.63711950729173e-001

1.94530989482457e+004,-2.15911843962840e+001,-8.75764181624053e-001

1.97246540898671e+004,-2.15912038004208e+001,-8.87984455128570e-001

1.99999999999999e+004,-2.15912237475784e+001,-9.00375108595938e-001

2.02791895958005e+004,-2.15912442528812e+001,-9.12938511652201e-001

2.05622765331213e+004,-2.15912653318711e+001,-9.25677066636101e-001

2.08493152168224e+004,-2.15912870005180e+001,-9.38593209036930e-001

2.11403608112276e+004,-2.15913092752321e+001,-9.51689407944403e-001

2.14354692507258e+004,-2.15913321728757e+001,-9.64968166498539e-001

2.17346972505211e+004,-2.15913557107749e+001,-9.78432022350314e-001

2.20381023175322e+004,-2.15913799067322e+001,-9.92083548123943e-001

2.23457427614443e+004,-2.15914047790400e+001,-1.00592535188683e+000

2.26576777059159e+004,-2.15914303464928e+001,-1.01996007762468e+000

2.29739670999406e+004,-2.15914566284011e+001,-1.03419040572352e+000

2.32946717293690e+004,-2.15914836446055e+001,-1.04861905345604e+000

2.36198532285905e+004,-2.15915114154902e+001,-1.06324877547546e+000

2.39495740923785e+004,-2.15915399619979e+001,-1.07808236431472e+000

2.42838976879009e+004,-2.15915693056449e+001,-1.09312265089001e+000

2.46228882668982e+004,-2.15915994685360e+001,-1.10837250501441e+000

2.49666109780322e+004,-2.15916304733801e+001,-1.12383483591312e+000

2.53151318794055e+004,-2.15916623435064e+001,-1.13951259274947e+000

2.56685179512580e+004,-2.15916951028809e+001,-1.15540876515352e+000

2.60268371088386e+004,-2.15917287761231e+001,-1.17152638375661e+000

2.63901582154578e+004,-2.15917633885233e+001,-1.18786852073732e+000

2.67585510957221e+004,-2.15917989660601e+001,-1.20443829036807e+000

2.71320865489533e+004,-2.15918355354186e+001,-1.22123884957124e+000

2.75108363627948e+004,-2.15918731240092e+001,-1.23827339848037e+000

2.78948733270080e+004,-2.15919117599862e+001,-1.25554518100984e+000

2.82842712474618e+004,-2.15919514722675e+001,-1.27305748542806e+000

2.86791049603164e+004,-2.15919922905541e+001,-1.29081364494089e+000

2.90794503464061e+004,-2.15920342453512e+001,-1.30881703827798e+000

2.94853843458219e+004,-2.15920773679884e+001,-1.32707109028938e+000

2.98969849726987e+004,-2.15921216906414e+001,-1.34557927254522e+000

3.03143313302078e+004,-2.15921672463536e+001,-1.36434510394675e+000

3.07375036257601e+004,-2.15922140690590e+001,-1.38337215133800e+000

3.11665831864199e+004,-2.15922621936043e+001,-1.40266403013064e+000

3.16016524745350e+004,-2.15923116557731e+001,-1.42222440493151e+000

3.20427951035848e+004,-2.15923624923092e+001,-1.44205699017880e+000

3.24900958542493e+004,-2.15924147409417e+001,-1.46216555078388e+000

3.29436406907028e+004,-2.15924684404094e+001,-1.48255390278234e+000

3.34035167771346e+004,-2.15925236304870e+001,-1.50322591398903e+000

3.38698124945009e+004,-2.15925803520109e+001,-1.52418550466267e+000

3.43426174575100e+004,-2.15926386469060e+001,-1.54543664817554e+000

3.48220225318448e+004,-2.15926985582134e+001,-1.56698337169189e+000

3.53081198516260e+004,-2.15927601301177e+001,-1.58882975685291e+000

3.58010028371187e+004,-2.15928234079762e+001,-1.61097994046699e+000

3.63007662126863e+004,-2.15928884383477e+001,-1.63343811521021e+000

3.68075060249948e+004,-2.15929552690221e+001,-1.65620853033147e+000

3.73213196614721e+004,-2.15930239490512e+001,-1.67929549236609e+000

3.78423058690237e+004,-2.15930945287794e+001,-1.70270336585597e+000

3.83705647730104e+004,-2.15931670598755e+001,-1.72643657407621e+000

3.89061978964912e+004,-2.15932415953649e+001,-1.75049959977121e+000

3.94493081797342e+004,-2.15933181896627e+001,-1.77489698589496e+000

3.99999999999998e+004,-2.15933968986072e+001,-1.79963333636122e+000

4.05583791916010e+004,-2.15934777794939e+001,-1.82471331679816e+000

4.11245530662425e+004,-2.15935608911109e+001,-1.85014165531298e+000

4.16986304336447e+004,-2.15936462937741e+001,-1.87592314326143e+000

4.22807216224550e+004,-2.15937340493636e+001,-1.90206263602654e+000

4.28709385014515e+004,-2.15938242213604e+001,-1.92856505380163e+000

4.34693945010421e+004,-2.15939168748845e+001,-1.95543538238388e+000

4.40762046350642e+004,-2.15940120767325e+001,-1.98267867397222e+000

4.46914855228886e+004,-2.15941098954168e+001,-2.01030004797466e+000

4.53153554118317e+004,-2.15942104012055e+001,-2.03830469182114e+000

4.59479341998812e+004,-2.15943136661622e+001,-2.06669786178338e+000

4.65893434587380e+004,-2.15944197641872e+001,-2.09548488380367e+000

4.72397064571810e+004,-2.15945287710590e+001,-2.12467115432889e+000

4.78991481847569e+004,-2.15946407644766e+001,-2.15426214115260e+000

4.85677953758016e+004,-2.15947558241023e+001,-2.18426338426402e+000

4.92457765337964e+004,-2.15948740316056e+001,-2.21468049670350e+000

4.99332219560642e+004,-2.15949954707071e+001,-2.24551916542633e+000

5.06302637588109e+004,-2.15951202272232e+001,-2.27678515217322e+000

5.13370359025159e+004,-2.15952483891122e+001,-2.30848429434538e+000

5.20536742176771e+004,-2.15953800465195e+001,-2.34062250589167e+000

5.27803164309155e+004,-2.15955152918249e+001,-2.37320577819792e+000

5.35171021914442e+004,-2.15956542196897e+001,-2.40624018098580e+000

5.42641730979066e+004,-2.15957969271044e+001,-2.43973186321811e+000

5.50216727255895e+004,-2.15959435134371e+001,-2.47368705401183e+000

5.57897466540159e+004,-2.15960940804824e+001,-2.50811206355683e+000

5.65685424949235e+004,-2.15962487325109e+001,-2.54301328404306e+000

5.73582099206328e+004,-2.15964075763189e+001,-2.57839719059343e+000

5.81589006928121e+004,-2.15965707212789e+001,-2.61427034220585e+000

5.89707686916437e+004,-2.15967382793903e+001,-2.65063938270033e+000

5.97939699453972e+004,-2.15969103653306e+001,-2.68751104167414e+000

6.06286626604156e+004,-2.15970870965071e+001,-2.72489213546491e+000

6.14750072515201e+004,-2.15972685931083e+001,-2.76278956811964e+000

6.23331663728396e+004,-2.15974549781569e+001,-2.80121033237293e+000

6.32033049490698e+004,-2.15976463775617e+001,-2.84016151062985e+000

6.40855902071694e+004,-2.15978429201705e+001,-2.87965027596016e+000

6.49801917084985e+004,-2.15980447378230e+001,-2.91968389309669e+000

6.58872813814055e+004,-2.15982519654039e+001,-2.96026971944431e+000

6.68070335542691e+004,-2.15984647408960e+001,-3.00141520609439e+000

6.77396249890018e+004,-2.15986832054335e+001,-3.04312789884925e+000

6.86852349150199e+004,-2.15989075033551e+001,-3.08541543925418e+000

6.96440450636895e+004,-2.15991377822575e+001,-3.12828556563784e+000

7.06162397032520e+004,-2.15993741930480e+001,-3.17174611416238e+000

7.16020056742374e+004,-2.15996168899979e+001,-3.21580501988042e+000

7.26015324253724e+004,-2.15998660307951e+001,-3.26047031780363e+000

7.36150120499896e+004,-2.16001217765962e+001,-3.30575014397967e+000

7.46426393229441e+004,-2.16003842920793e+001,-3.35165273657896e+000

7.56846117380472e+004,-2.16006537454951e+001,-3.39818643699254e+000

7.67411295460207e+004,-2.16009303087184e+001,-3.44535969093959e+000

7.78123957929823e+004,-2.16012141572989e+001,-3.49318104958662e+000

7.88986163594682e+004,-2.16015054705114e+001,-3.54165917067873e+000

7.99999999999995e+004,-2.16018044314050e+001,-3.59080281968170e+000

8.11167583832018e+004,-2.16021112268520e+001,-3.64062087093742e+000

8.22491061324848e+004,-2.16024260475961e+001,-3.69112230883416e+000

8.33972608672892e+004,-2.16027490882988e+001,-3.74231622898698e+000

8.45614432449099e+004,-2.16030805475861e+001,-3.79421183943697e+000

8.57418770029029e+004,-2.16034206280936e+001,-3.84681846186288e+000

8.69387890020841e+004,-2.16037695365101e+001,-3.90014553281035e+000

8.81524092701283e+004,-2.16041274836206e+001,-3.95420260493829e+000

8.93829710457770e+004,-2.16044946843480e+001,-4.00899934828179e+000

9.06307108236633e+004,-2.16048713577937e+001,-4.06454555153600e+000

9.18958683997622e+004,-2.16052577272760e+001,-4.12085112335824e+000

9.31786869174758e+004,-2.16056540203681e+001,-4.17792609369258e+000

9.44794129143618e+004,-2.16060604689341e+001,-4.23578061511562e+000

9.57982963695136e+004,-2.16064773091635e+001,-4.29442496420618e+000

9.71355907516031e+004,-2.16069047816041e+001,-4.35386954294105e+000

9.84915530675926e+004,-2.16073431311938e+001,-4.41412488011391e+000

9.98664439121282e+004,-2.16077926072901e+001,-4.47520163278548e+000

1.01260527517622e+005,-2.16082534636979e+001,-4.53711058776054e+000

1.02674071805032e+005,-2.16087259586964e+001,-4.59986266309646e+000

1.04107348435354e+005,-2.16092103550634e+001,-4.66346890964437e+000

1.05560632861831e+005,-2.16097069200984e+001,-4.72794051262461e+000

1.07034204382888e+005,-2.16102159256439e+001,-4.79328879323756e+000

1.08528346195813e+005,-2.16107376481050e+001,-4.85952521031347e+000

1.10043345451179e+005,-2.16112723684671e+001,-4.92666136200169e+000

1.11579493308032e+005,-2.16118203723128e+001,-4.99470898750181e+000

1.13137084989847e+005,-2.16123819498362e+001,-5.06367996883920e+000

1.14716419841265e+005,-2.16129573958566e+001,-5.13358633268713e+000

1.16317801385624e+005,-2.16135470098305e+001,-5.20444025223650e+000

1.17941537383287e+005,-2.16141510958624e+001,-5.27625404911730e+000

1.19587939890794e+005,-2.16147699627147e+001,-5.34904019537330e+000

1.21257325320831e+005,-2.16154039238161e+001,-5.42281131549229e+000

1.22950014503040e+005,-2.16160532972701e+001,-5.49758018849347e+000

1.24666332745679e+005,-2.16167184058625e+001,-5.57335975007791e+000

1.26406609898139e+005,-2.16173995770682e+001,-5.65016309483874e+000

1.28171180414339e+005,-2.16180971430589e+001,-5.72800347854080e+000

1.29960383416997e+005,-2.16188114407101e+001,-5.80689432046606e+000

1.31774562762811e+005,-2.16195428116093e+001,-5.88684920583021e+000

1.33614067108538e+005,-2.16202916020645e+001,-5.96788188827375e+000

1.35479249978003e+005,-2.16210581631149e+001,-6.05000629242864e+000

1.37370469830040e+005,-2.16218428505420e+001,-6.13323651656321e+000

1.39288090127379e+005,-2.16226460248840e+001,-6.21758683530820e+000

1.41232479406504e+005,-2.16234680514520e+001,-6.30307170246728e+000

1.43204011348474e+005,-2.16243093003495e+001,-6.38970575391132e+000

1.45203064850745e+005,-2.16251701464959e+001,-6.47750381056337e+000

1.47230024099979e+005,-2.16260509696537e+001,-6.56648088147207e+000

1.49285278645888e+005,-2.16269521544607e+001,-6.65665216697804e+000

1.51369223476094e+005,-2.16278740904679e+001,-6.74803306197501e+000

1.53482259092041e+005,-2.16288171721831e+001,-6.84063915926620e+000

1.55624791585964e+005,-2.16297817991216e+001,-6.93448625301936e+000

1.57797232718936e+005,-2.16307683758649e+001,-7.02959034231910e+000

1.59999999999999e+005,-2.16317773121269e+001,-7.12596763482204e+000

1.62233516766403e+005,-2.16328090228303e+001,-7.22363455051089e+000

1.64498212264969e+005,-2.16338639281925e+001,-7.32260772555156e+000

1.66794521734578e+005,-2.16349424538224e+001,-7.42290401625173e+000

1.69122886489819e+005,-2.16360450308293e+001,-7.52454050312341e+000

1.71483754005805e+005,-2.16371720959448e+001,-7.62753449504521e+000

1.73877578004168e+005,-2.16383240916577e+001,-7.73190353352937e+000

1.76304818540256e+005,-2.16395014663644e+001,-7.83766539708669e+000

1.78765942091554e+005,-2.16407046745346e+001,-7.94483810569309e+000

1.81261421647326e+005,-2.16419341768939e+001,-8.05343992535311e+000

1.83791736799524e+005,-2.16431904406237e+001,-8.16348937275993e+000

1.86357373834951e+005,-2.16444739395807e+001,-8.27500522004813e+000

1.88958825828723e+005,-2.16457851545356e+001,-8.38800649963769e+000

1.91596592739027e+005,-2.16471245734326e+001,-8.50251250916509e+000

1.94271181503206e+005,-2.16484926916712e+001,-8.61854281649749e+000

1.96983106135185e+005,-2.16498900124104e+001,-8.73611726482682e+000

1.99732887824256e+005,-2.16513170468972e+001,-8.85525597783767e+000

2.02521055035243e+005,-2.16527743148198e+001,-8.97597936494540e+000

2.05348143610063e+005,-2.16542623446864e+001,-9.09830812659752e+000

2.08214696870707e+005,-2.16557816742312e+001,-9.22226325963266e+000

2.11121265723661e+005,-2.16573328508478e+001,-9.34786606269132e+000

2.14068408765776e+005,-2.16589164320511e+001,-9.47513814166965e+000

2.17056692391625e+005,-2.16605329859684e+001,-9.60410141521232e+000

2.20086690902357e+005,-2.16621830918611e+001,-9.73477812023084e+000

2.23158986616063e+005,-2.16638673406764e+001,-9.86719081744560e+000

2.26274169979693e+005,-2.16655863356312e+001,-1.00013623969387e+001

2.29432839682530e+005,-2.16673406928274e+001,-1.01373160837097e+001

2.32635602771247e+005,-2.16691310418998e+001,-1.02750754432256e+001

2.35883074766574e+005,-2.16709580266974e+001,-1.04146643869550e+001

2.39175879781588e+005,-2.16728223059973e+001,-1.05561071778756e+001

2.42514650641661e+005,-2.16747245542528e+001,-1.06994284359472e+001

2.45900029006080e+005,-2.16766654623746e+001,-1.08446531435372e+001

2.49332665491357e+005,-2.16786457385464e+001,-1.09918066507908e+001

2.52813219796278e+005,-2.16806661090743e+001,-1.11409146809322e+001

2.56342360828676e+005,-2.16827273192694e+001,-1.12920033354896e+001

2.59920766833993e+005,-2.16848301343649e+001,-1.14450990994301e+001

2.63549125525621e+005,-2.16869753404655e+001,-1.16002288461962e+001

2.67228134217075e+005,-2.16891637455312e+001,-1.17574198426318e+001

2.70958499956006e+005,-2.16913961803920e+001,-1.19166997537873e+001

2.74740939660078e+005,-2.16936734997960e+001,-1.20780966475947e+001

2.78576180254757e+005,-2.16959965834879e+001,-1.22416389994003e+001

2.82464958813007e+005,-2.16983663373191e+001,-1.24073556963466e+001

2.86408022696948e+005,-2.17007836943868e+001,-1.25752760415939e+001

2.90406129701488e+005,-2.17032496162023e+001,-1.27454297583702e+001

2.94460048199957e+005,-2.17057650938884e+001,-1.29178469938423e+001

2.98570557291775e+005,-2.17083311494020e+001,-1.30925583227991e+001

3.02738446952187e+005,-2.17109488367844e+001,-1.32695947511372e+001

3.06964518184081e+005,-2.17136192434359e+001,-1.34489877191435e+001

3.11249583171928e+005,-2.17163434914131e+001,-1.36307691045639e+001

3.15594465437872e+005,-2.17191227387503e+001,-1.38149712254557e+001

3.19999999999997e+005,-2.17219581808005e+001,-1.40016268428124e+001

3.24467033532806e+005,-2.17248510515978e+001,-1.41907691629587e+001

3.28996424529938e+005,-2.17278026252364e+001,-1.43824318397078e+001

3.33589043469155e+005,-2.17308142172685e+001,-1.45766489762775e+001

3.38245772979638e+005,-2.17338871861171e+001,-1.47734551269597e+001

3.42967508011610e+005,-2.17370229345034e+001,-1.49728852985398e+001

3.47755156008335e+005,-2.17402229108871e+001,-1.51749749514624e+001

3.52609637080511e+005,-2.17434886109186e+001,-1.53797600007401e+001

3.57531884183106e+005,-2.17468215789015e+001,-1.55872768166026e+001

3.62522843294651e+005,-2.17502234092638e+001,-1.57975622248851e+001

3.67583473599047e+005,-2.17536957480375e+001,-1.60106535071522e+001

3.72714747669902e+005,-2.17572402943433e+001,-1.62265884005575e+001

3.77917651657445e+005,-2.17608588018821e+001,-1.64454050974373e+001

3.83193185478053e+005,-2.17645530804289e+001,-1.66671422446371e+001

3.88542363006410e+005,-2.17683249973304e+001,-1.68918389425707e+001

3.93966212270369e+005,-2.17721764790041e+001,-1.71195347440120e+001

3.99465775648511e+005,-2.17761095124377e+001,-1.73502696526181e+001

4.05042110070485e+005,-2.17801261466877e+001,-1.75840841211836e+001

4.10696287220124e+005,-2.17842284943774e+001,-1.78210190496283e+001

4.16429393741414e+005,-2.17884187331915e+001,-1.80611157827152e+001

4.22242531447321e+005,-2.17926991073676e+001,-1.83044161074996e+001

4.28136817531551e+005,-2.17970719291836e+001,-1.85509622505113e+001

4.34113384783250e+005,-2.18015395804399e+001,-1.88007968746668e+001

4.40173381804713e+005,-2.18061045139351e+001,-1.90539630759120e+001

4.46317973232124e+005,-2.18107692549359e+001,-1.93105043795959e+001

4.52548339959385e+005,-2.18155364026385e+001,-1.95704647365733e+001

4.58865679365059e+005,-2.18204086316227e+001,-1.98338885190350e+001

4.65271205542494e+005,-2.18253886932963e+001,-2.01008205160668e+001

4.71766149533147e+005,-2.18304794173302e+001,-2.03713059289313e+001

4.78351759563174e+005,-2.18356837130828e+001,-2.06453903660747e+001

4.85029301283321e+005,-2.18410045710136e+001,-2.09231198378532e+001

4.91800058012158e+005,-2.18464450640846e+001,-2.12045407509785e+001

4.98665330982714e+005,-2.18520083491493e+001,-2.14896999026771e+001

5.05626439592555e+005,-2.18576976683275e+001,-2.17786444745615e+001

5.12684721657352e+005,-2.18635163503672e+001,-2.20714220262086e+001

5.19841533667984e+005,-2.18694678119898e+001,-2.23680804884415e+001

5.27098251051240e+005,-2.18755555592200e+001,-2.26686681563093e+001

5.34456268434150e+005,-2.18817831886984e+001,-2.29732336817600e+001

5.41916999912011e+005,-2.18881543889756e+001,-2.32818260660016e+001

