Freq.,VOut,OutRef

1.00000000000000e+004,-9.92979592876181e+000,-1.37859273291094e-001

1.01395947979003e+004,-9.92979680452762e+000,-1.39783512031372e-001

1.02811382665607e+004,-9.92979770485794e+000,-1.41734603449951e-001

1.04246576084112e+004,-9.92979863044013e+000,-1.43712922027874e-001

1.05701804056138e+004,-9.92979958198051e+000,-1.45718847459585e-001

1.07177346253629e+004,-9.92980056020566e+000,-1.47752764719601e-001

1.08673486252606e+004,-9.92980156586159e+000,-1.49815064145105e-001

1.10190511587661e+004,-9.92980259971577e+000,-1.51906141499401e-001

1.11728713807222e+004,-9.92980366255665e+000,-1.54026398055006e-001

1.13288388529580e+004,-9.92980475519439e+000,-1.56176240667448e-001

1.14869835499703e+004,-9.92980587846213e+000,-1.58356081849893e-001

1.16473358646846e+004,-9.92980703321617e+000,-1.60566339852285e-001

1.18099266142953e+004,-9.92980822033597e+000,-1.62807438745767e-001

1.19747870461893e+004,-9.92980944072626e+000,-1.65079808493403e-001

1.21419488439505e+004,-9.92981069531628e+000,-1.67383885040353e-001

1.23114441334492e+004,-9.92981198506128e+000,-1.69720110391857e-001

1.24833054890161e+004,-9.92981331094291e+000,-1.72088932697770e-001

1.26575659397028e+004,-9.92981467397034e+000,-1.74490806335870e-001

1.28342589756290e+004,-9.92981607518026e+000,-1.76926192001836e-001

1.30134185544193e+004,-9.92981751563841e+000,-1.79395556791185e-001

1.31950791077289e+004,-9.92981899643990e+000,-1.81899374291141e-001

1.33792755478611e+004,-9.92982051871036e+000,-1.84438124666623e-001

1.35660432744767e+004,-9.92982208360613e+000,-1.87012294755852e-001

1.37554181813974e+004,-9.92982369231608e+000,-1.89622378155669e-001

1.39474366635040e+004,-9.92982534606166e+000,-1.92268875319239e-001

1.41421356237309e+004,-9.92982704609807e+000,-1.94952293648937e-001

1.43395524801583e+004,-9.92982879371508e+000,-1.97673147592003e-001

1.45397251732031e+004,-9.92983059023857e+000,-2.00431958734521e-001

1.47426921729110e+004,-9.92983243703036e+000,-2.03229255904975e-001

1.49484924863494e+004,-9.92983433549014e+000,-2.06065575268809e-001

1.51571656651040e+004,-9.92983628705622e+000,-2.08941460430324e-001

1.53687518128801e+004,-9.92983829320648e+000,-2.11857462535205e-001

1.55832915932100e+004,-9.92984035545949e+000,-2.14814140373237e-001

1.58008262372675e+004,-9.92984247537544e+000,-2.17812060484761e-001

1.60213975517924e+004,-9.92984465455774e+000,-2.20851797262701e-001

1.62450479271247e+004,-9.92984689465371e+000,-2.23933933063608e-001

1.64718203453514e+004,-9.92984919735579e+000,-2.27059058316210e-001

1.67017583885674e+004,-9.92985156440307e+000,-2.30227771628830e-001

1.69349062472505e+004,-9.92985399758209e+000,-2.33440679905269e-001

1.71713087287550e+004,-9.92985649872882e+000,-2.36698398452424e-001

1.74110112659224e+004,-9.92985906972878e+000,-2.40001551102483e-001

1.76540599258131e+004,-9.92986171251986e+000,-2.43350770320228e-001

1.79005014185594e+004,-9.92986442909250e+000,-2.46746697327560e-001

1.81503831063432e+004,-9.92986722149156e+000,-2.50189982219949e-001

1.84037530124975e+004,-9.92987009181794e+000,-2.53681284085870e-001

1.86606598307361e+004,-9.92987304222941e+000,-2.57221271133103e-001

1.89211529345119e+004,-9.92987607494307e+000,-2.60810620806892e-001

1.91852823865052e+004,-9.92987919223621e+000,-2.64450019918731e-001

1.94530989482457e+004,-9.92988239644774e+000,-2.68140164775210e-001

1.97246540898671e+004,-9.92988568998073e+000,-2.71881761300461e-001

1.99999999999999e+004,-9.92988907530296e+000,-2.75675525173324e-001

2.02791895958005e+004,-9.92989255494952e+000,-2.79522181953958e-001

2.05622765331213e+004,-9.92989613152399e+000,-2.83422467220321e-001

2.08493152168224e+004,-9.92989980770049e+000,-2.87377126702009e-001

2.11403608112276e+004,-9.92990358622548e+000,-2.91386916417576e-001

2.14354692507258e+004,-9.92990746991951e+000,-2.95452602813769e-001

2.17346972505211e+004,-9.92991146167940e+000,-2.99574962903707e-001

2.20381023175322e+004,-9.92991556447986e+000,-3.03754784412222e-001

2.23457427614443e+004,-9.92991978137561e+000,-3.07992865917943e-001

2.26576777059159e+004,-9.92992411550360e+000,-3.12290016998355e-001

2.29739670999406e+004,-9.92992857008501e+000,-3.16647058377885e-001

2.32946717293690e+004,-9.92993314842709e+000,-3.21064822078989e-001

2.36198532285905e+004,-9.92993785392625e+000,-3.25544151567773e-001

2.39495740923785e+004,-9.92994269006892e+000,-3.30085901915406e-001

2.42838976879009e+004,-9.92994766043490e+000,-3.34690939945701e-001

2.46228882668982e+004,-9.92995276869973e+000,-3.39360144393079e-001

2.49666109780322e+004,-9.92995801863634e+000,-3.44094406064600e-001

2.53151318794055e+004,-9.92996341411802e+000,-3.48894627997210e-001

2.56685179512580e+004,-9.92996895912075e+000,-3.53761725621343e-001

2.60268371088386e+004,-9.92997465772578e+000,-3.58696626925302e-001

2.63901582154578e+004,-9.92998051412245e+000,-3.63700272619802e-001

2.67585510957221e+004,-9.92998653261017e+000,-3.68773616310440e-001

2.71320865489533e+004,-9.92999271760211e+000,-3.73917624661661e-001

2.75108363627948e+004,-9.92999907362704e+000,-3.79133277575165e-001

2.78948733270080e+004,-9.93000560533277e+000,-3.84421568359814e-001

2.82842712474618e+004,-9.93001231748843e+000,-3.89783503911373e-001

2.86791049603164e+004,-9.93001921498802e+000,-3.95220104887382e-001

2.90794503464061e+004,-9.93002630285310e+000,-4.00732405888974e-001

2.94853843458219e+004,-9.93003358623566e+000,-4.06321455644143e-001

2.98969849726987e+004,-9.93004107042143e+000,-4.11988317190974e-001

3.03143313302078e+004,-9.93004876083303e+000,-4.17734068064255e-001

3.07375036257601e+004,-9.93005666303284e+000,-4.23559800485694e-001

3.11665831864199e+004,-9.93006478272675e+000,-4.29466621552039e-001

3.16016524745350e+004,-9.93007312576705e+000,-4.35455653430118e-001

3.20427951035848e+004,-9.93008169815601e+000,-4.41528033550672e-001

3.24900958542493e+004,-9.93009050604910e+000,-4.47684914806674e-001

3.29436406907028e+004,-9.93009955575894e+000,-4.53927465749351e-001

3.34035167771346e+004,-9.93010885375788e+000,-4.60256870795658e-001

3.38698124945009e+004,-9.93011840668252e+000,-4.66674330425491e-001

3.43426174575100e+004,-9.93012822133679e+000,-4.73181061391564e-001

3.48220225318448e+004,-9.93013830469577e+000,-4.79778296925787e-001

3.53081198516260e+004,-9.93014866390937e+000,-4.86467286949316e-001

3.58010028371187e+004,-9.93015930630613e+000,-4.93249298285697e-001

3.63007662126863e+004,-9.93017023939675e+000,-5.00125614875439e-001

3.68075060249948e+004,-9.93018147087860e+000,-5.07097537990397e-001

3.73213196614721e+004,-9.93019300863869e+000,-5.14166386457185e-001

3.78423058690237e+004,-9.93020486075829e+000,-5.21333496874170e-001

3.83705647730104e+004,-9.93021703551652e+000,-5.28600223837321e-001

3.89061978964912e+004,-9.93022954139452e+000,-5.35967940164779e-001

3.94493081797342e+004,-9.93024238707928e+000,-5.43438037125487e-001

3.99999999999998e+004,-9.93025558146786e+000,-5.51011924668610e-001

4.05583791916010e+004,-9.93026913367114e+000,-5.58691031657180e-001

4.11245530662425e+004,-9.93028305301839e+000,-5.66476806100325e-001

4.16986304336447e+004,-9.93029734906096e+000,-5.74370715392278e-001

4.22807216224550e+004,-9.93031203157623e+000,-5.82374246552002e-001

4.28709385014515e+004,-9.93032711057229e+000,-5.90488906461391e-001

4.34693945010421e+004,-9.93034259629140e+000,-5.98716222112948e-001

4.40762046350642e+004,-9.93035849921450e+000,-6.07057740852358e-001

4.46914855228886e+004,-9.93037483006513e+000,-6.15515030628551e-001

4.53153554118317e+004,-9.93039159981339e+000,-6.24089680243472e-001

4.59479341998812e+004,-9.93040881968012e+000,-6.32783299604952e-001

4.65893434587380e+004,-9.93042650114065e+000,-6.41597519982021e-001

4.72397064571810e+004,-9.93044465592906e+000,-6.50533994261004e-001

4.78991481847569e+004,-9.93046329604196e+000,-6.59594397205513e-001

4.85677953758016e+004,-9.93048243374188e+000,-6.68780425720016e-001

4.92457765337964e+004,-9.93050208156176e+000,-6.78093799110755e-001

4.99332219560642e+004,-9.93052225230806e+000,-6.87536259354147e-001

5.06302637588109e+004,-9.93054295906459e+000,-6.97109571364866e-001

5.13370359025159e+004,-9.93056421519583e+000,-7.06815523267024e-001

5.20536742176771e+004,-9.93058603435039e+000,-7.16655926667246e-001

5.27803164309155e+004,-9.93060843046424e+000,-7.26632616929458e-001

5.35171021914442e+004,-9.93063141776372e+000,-7.36747453453955e-001

5.42641730979066e+004,-9.93065501076861e+000,-7.47002319956179e-001

5.50216727255895e+004,-9.93067922429454e+000,-7.57399124751168e-001

5.57897466540159e+004,-9.93070407345600e+000,-7.67939801035843e-001

5.65685424949235e+004,-9.93072957366834e+000,-7.78626307178534e-001

5.73582099206328e+004,-9.93075574065020e+000,-7.89460627006475e-001

5.81589006928121e+004,-9.93078259042494e+000,-8.00444770100576e-001

5.89707686916437e+004,-9.93081013932286e+000,-8.11580772086301e-001

5.97939699453972e+004,-9.93083840398204e+000,-8.22870694934011e-001

6.06286626604156e+004,-9.93086740134987e+000,-8.34316627254589e-001

6.14750072515201e+004,-9.93089714868309e+000,-8.45920684606145e-001

6.23331663728396e+004,-9.93092766354890e+000,-8.57685009793364e-001

6.32033049490698e+004,-9.93095896382454e+000,-8.69611773177754e-001

6.40855902071694e+004,-9.93099106769679e+000,-8.81703172987276e-001

6.49801917084985e+004,-9.93102399366149e+000,-8.93961435627128e-001

6.58872813814055e+004,-9.93105776052214e+000,-9.06388815995570e-001

6.68070335542691e+004,-9.93109238738777e+000,-9.18987597803722e-001

6.77396249890018e+004,-9.93112789367147e+000,-9.31760093892532e-001

6.86852349150199e+004,-9.93116429908676e+000,-9.44708646560946e-001

6.96440450636895e+004,-9.93120162364469e+000,-9.57835627890256e-001

7.06162397032520e+004,-9.93123988764961e+000,-9.71143440075681e-001

7.16020056742374e+004,-9.93127911169481e+000,-9.84634515758261e-001

7.26015324253724e+004,-9.93131931665700e+000,-9.98311318363236e-001

7.36150120499896e+004,-9.93136052369033e+000,-1.01217634244002e+000

7.46426393229441e+004,-9.93140275421974e+000,-1.02623211400547e+000

7.56846117380472e+004,-9.93144602993329e+000,-1.04048119089274e+000

7.67411295460207e+004,-9.93149037277388e+000,-1.05492616310296e+000

7.78123957929823e+004,-9.93153580493003e+000,-1.06956965316029e+000

7.88986163594682e+004,-9.93158234882574e+000,-1.08441431647322e+000

7.99999999999995e+004,-9.93163002710923e+000,-1.09946284169979e+000

8.11167583832018e+004,-9.93167886264117e+000,-1.11471795111578e+000

8.22491061324848e+004,-9.93172887848146e+000,-1.13018240099055e+000

8.33972608672892e+004,-9.93178009787474e+000,-1.14585898196747e+000

8.45614432449099e+004,-9.93183254423563e+000,-1.16175051944703e+000

8.57418770029029e+004,-9.93188624113185e+000,-1.17785987398058e+000

8.69387890020841e+004,-9.93194121226665e+000,-1.19418994166679e+000

8.81524092701283e+004,-9.93199748145985e+000,-1.21074365455513e+000

8.93829710457770e+004,-9.93205507262766e+000,-1.22752398105694e+000

9.06307108236633e+004,-9.93211400976091e+000,-1.24453392636370e+000

9.18958683997622e+004,-9.93217431690223e+000,-1.26177653287118e+000

9.31786869174758e+004,-9.93223601812155e+000,-1.27925488061372e+000

9.44794129143618e+004,-9.93229913748996e+000,-1.29697208770715e+000

9.57982963695136e+004,-9.93236369905267e+000,-1.31493131079686e+000

9.71355907516031e+004,-9.93242972679939e+000,-1.33313574552109e+000

9.84915530675926e+004,-9.93249724463429e+000,-1.35158862697818e+000

9.98664439121282e+004,-9.93256627634317e+000,-1.37029323020941e+000

1.01260527517622e+005,-9.93263684555968e+000,-1.38925287068989e+000

1.02674071805032e+005,-9.93270897572956e+000,-1.40847090483093e+000

1.04107348435354e+005,-9.93278269007291e+000,-1.42795073049779e+000

1.05560632861831e+005,-9.93285801154515e+000,-1.44769578753556e+000

1.07034204382888e+005,-9.93293496279554e+000,-1.46770955831348e+000

1.08528346195813e+005,-9.93301356612434e+000,-1.48799556828088e+000

1.10043345451179e+005,-9.93309384343780e+000,-1.50855738653811e+000

1.11579493308032e+005,-9.93317581620129e+000,-1.52939862642495e+000

1.13137084989847e+005,-9.93325950539058e+000,-1.55052294612421e+000

1.14716419841265e+005,-9.93334493144104e+000,-1.57193404928439e+000

1.16317801385624e+005,-9.93343211419521e+000,-1.59363568565765e+000

1.17941537383287e+005,-9.93352107284788e+000,-1.61563165176162e+000

1.19587939890794e+005,-9.93361182588983e+000,-1.63792579155698e+000

1.21257325320831e+005,-9.93370439104928e+000,-1.66052199714809e+000

1.22950014503040e+005,-9.93379878523128e+000,-1.68342420950717e+000

1.24666332745679e+005,-9.93389502445571e+000,-1.70663641921734e+000

1.26406609898139e+005,-9.93399312379307e+000,-1.73016266724348e+000

1.28171180414339e+005,-9.93409309729835e+000,-1.75400704572590e+000

1.29960383416997e+005,-9.93419495794340e+000,-1.77817369880152e+000

1.31774562762811e+005,-9.93429871754731e+000,-1.80266682345004e+000

1.33614067108538e+005,-9.93440438670538e+000,-1.82749067037067e+000

1.35479249978003e+005,-9.93451197471637e+000,-1.85264954488441e+000

1.37370469830040e+005,-9.93462148950790e+000,-1.87814780787125e+000

1.39288090127379e+005,-9.93473293756128e+000,-1.90398987673265e+000

1.41232479406504e+005,-9.93484632383399e+000,-1.93018022639164e+000

1.43204011348474e+005,-9.93496165168157e+000,-1.95672339032279e+000

1.45203064850745e+005,-9.93507892277846e+000,-1.98362396161616e+000

1.47230024099979e+005,-9.93519813703723e+000,-2.01088659407932e+000

1.49285278645888e+005,-9.93531929252796e+000,-2.03851600337059e+000

1.51369223476094e+005,-9.93544238539589e+000,-2.06651696817434e+000

1.53482259092041e+005,-9.93556740977925e+000,-2.09489433141089e+000

1.55624791585964e+005,-9.93569435772658e+000,-2.12365300148444e+000

1.57797232718936e+005,-9.93582321911383e+000,-2.15279795357318e+000

1.59999999999999e+005,-9.93595398156117e+000,-2.18233423095825e+000

1.62233516766403e+005,-9.93608663035074e+000,-2.21226694639129e+000

1.64498212264969e+005,-9.93622114834409e+000,-2.24260128350667e+000

1.66794521734578e+005,-9.93635751590057e+000,-2.27334249827384e+000

1.69122886489819e+005,-9.93649571079674e+000,-2.30449592049129e+000

1.71483754005805e+005,-9.93663570814658e+000,-2.33606695532473e+000

1.73877578004168e+005,-9.93677748032307e+000,-2.36806108488687e+000

1.76304818540256e+005,-9.93692099688146e+000,-2.40048386986056e+000

1.78765942091554e+005,-9.93706622448446e+000,-2.43334095116513e+000

1.81261421647326e+005,-9.93721312682908e+000,-2.46663805166574e+000

1.83791736799524e+005,-9.93736166457631e+000,-2.50038097792469e+000

1.86357373834951e+005,-9.93751179528291e+000,-2.53457562199668e+000

1.88958825828723e+005,-9.93766347333644e+000,-2.56922796326496e+000

1.91596592739027e+005,-9.93781664989304e+000,-2.60434407031999e+000

1.94271181503206e+005,-9.93797127281873e+000,-2.63993010287762e+000

1.96983106135185e+005,-9.93812728663426e+000,-2.67599231373975e+000

1.99732887824256e+005,-9.93828463246387e+000,-2.71253705079117e+000

2.02521055035243e+005,-9.93844324798785e+000,-2.74957075903777e+000

2.05348143610063e+005,-9.93860306739949e+000,-2.78709998267986e+000

2.08214696870707e+005,-9.93876402136688e+000,-2.82513136722063e+000

2.11121265723661e+005,-9.93892603699874e+000,-2.86367166161188e+000

2.14068408765776e+005,-9.93908903781568e+000,-2.90272772042914e+000

2.17056692391625e+005,-9.93925294372641e+000,-2.94230650607947e+000

2.20086690902357e+005,-9.93941767100857e+000,-2.98241509104060e+000

2.23158986616063e+005,-9.93958313229611e+000,-3.02306066012325e+000

2.26274169979693e+005,-9.93974923657081e+000,-3.06425051276314e+000

2.29432839682530e+005,-9.93991588916026e+000,-3.10599206533417e+000

2.32635602771247e+005,-9.94008299174095e+000,-3.14829285348481e+000

2.35883074766574e+005,-9.94025044234728e+000,-3.19116053449191e+000

2.39175879781588e+005,-9.94041813538616e+000,-3.23460288963339e+000

2.42514650641661e+005,-9.94058596165722e+000,-3.27862782657373e+000

2.45900029006080e+005,-9.94075380837872e+000,-3.32324338176473e+000

2.49332665491357e+005,-9.94092155921911e+000,-3.36845772285304e+000

2.52813219796278e+005,-9.94108909433378e+000,-3.41427915109848e+000

2.56342360828676e+005,-9.94125629040737e+000,-3.46071610379686e+000

2.59920766833993e+005,-9.94142302070118e+000,-3.50777715670546e+000

2.63549125525621e+005,-9.94158915510579e+000,-3.55547102646998e+000

2.67228134217075e+005,-9.94175456019792e+000,-3.60380657305176e+000

2.70958499956006e+005,-9.94191909930259e+000,-3.65279280214902e+000

2.74740939660078e+005,-9.94208263255882e+000,-3.70243886761580e+000

2.78576180254757e+005,-9.94224501698991e+000,-3.75275407387156e+000

2.82464958813007e+005,-9.94240610657664e+000,-3.80374787830430e+000

2.86408022696948e+005,-9.94256575233472e+000,-3.85542989365995e+000

2.90406129701488e+005,-9.94272380239411e+000,-3.90780989042345e+000

2.94460048199957e+005,-9.94288010208157e+000,-3.96089779918416e+000

2.98570557291775e+005,-9.94303449400498e+000,-4.01470371298762e+000

3.02738446952187e+005,-9.94318681813932e+000,-4.06923788967189e+000

3.06964518184081e+005,-9.94333691191396e+000,-4.12451075418818e+000

3.11249583171928e+005,-9.94348461030029e+000,-4.18053290090469e+000

3.15594465437872e+005,-9.94362974590014e+000,-4.23731509589298e+000

3.19999999999997e+005,-9.94377214903341e+000,-4.29486827919768e+000

3.24467033532806e+005,-9.94391164782498e+000,-4.35320356709030e+000

3.28996424529938e+005,-9.94404806829074e+000,-4.41233225430441e+000

3.33589043469155e+005,-9.94418123442122e+000,-4.47226581625651e+000

3.38245772979638e+005,-9.94431096826329e+000,-4.53301591125147e+000

3.42967508011610e+005,-9.94443708999896e+000,-4.59459438267268e+000

3.47755156008335e+005,-9.94455941802065e+000,-4.65701326116193e+000

3.52609637080511e+005,-9.94467776900300e+000,-4.72028476678438e+000

3.57531884183106e+005,-9.94479195796999e+000,-4.78442131118763e+000

3.62522843294651e+005,-9.94490179835746e+000,-4.84943549975061e+000

3.67583473599047e+005,-9.94500710207037e+000,-4.91534013372763e+000

3.72714747669902e+005,-9.94510767953433e+000,-4.98214821239012e+000

3.77917651657445e+005,-9.94520333974115e+000,-5.04987293516634e+000

3.83193185478053e+005,-9.94529389028758e+000,-5.11852770378424e+000

3.88542363006410e+005,-9.94537913740759e+000,-5.18812612441853e+000

3.93966212270369e+005,-9.94545888599697e+000,-5.25868200984623e+000

3.99465775648511e+005,-9.94553293963082e+000,-5.33020938161232e+000

4.05042110070485e+005,-9.94560110057262e+000,-5.40272247221126e+000

4.10696287220124e+005,-9.94566316977567e+000,-5.47623572728460e+000

4.16429393741414e+005,-9.94571894687578e+000,-5.55076380784049e+000

4.22242531447321e+005,-9.94576823017552e+000,-5.62632159249802e+000

4.28136817531551e+005,-9.94581081661964e+000,-5.70292417975883e+000

4.34113384783250e+005,-9.94584650176130e+000,-5.78058689031250e+000

4.40173381804713e+005,-9.94587507971944e+000,-5.85932526937541e+000

4.46317973232124e+005,-9.94589634312697e+000,-5.93915508906958e+000

4.52548339959385e+005,-9.94591008306922e+000,-6.02009235084601e+000

4.58865679365059e+005,-9.94591608901352e+000,-6.10215328795171e+000

4.65271205542494e+005,-9.94591414872905e+000,-6.18535436794993e+000

4.71766149533147e+005,-9.94590404819753e+000,-6.26971229529231e+000

4.78351759563174e+005,-9.94588557151423e+000,-6.35524401394993e+000

4.85029301283321e+005,-9.94585850077985e+000,-6.44196671010475e+000

4.91800058012158e+005,-9.94582261598300e+000,-6.52989781490558e+000

4.98665330982714e+005,-9.94577769487366e+000,-6.61905500729228e+000

5.05626439592555e+005,-9.94572351282702e+000,-6.70945621689193e+000

5.12684721657352e+005,-9.94565984269890e+000,-6.80111962698827e+000

5.19841533667984e+005,-9.94558645467184e+000,-6.89406367757023e+000

5.27098251051240e+005,-9.94550311609264e+000,-6.98830706846070e+000

5.34456268434150e+005,-9.94540959130125e+000,-7.08386876252923e+000

5.41916999912011e+005,-9.94530564145109e+000,-7.18076798899219e+000

