Freq.,VOut,OutRef

1.00000000000000e+004,-2.68717310286552e+001,-3.59883151834840e-001

1.01395947979003e+004,-2.68717350808257e+001,-3.64906395112807e-001

1.02811382665607e+004,-2.68717392467757e+001,-3.69999737425276e-001

1.04246576084112e+004,-2.68717435296962e+001,-3.75164156350220e-001

1.05701804056138e+004,-2.68717479328671e+001,-3.80400643071343e-001

1.07177346253629e+004,-2.68717524596598e+001,-3.85710202568328e-001

1.08673486252606e+004,-2.68717571135407e+001,-3.91093853801576e-001

1.10190511587661e+004,-2.68717618980722e+001,-3.96552629913691e-001

1.11728713807222e+004,-2.68717668169169e+001,-4.02087578417743e-001

1.13288388529580e+004,-2.68717718738395e+001,-4.07699761401042e-001

1.14869835499703e+004,-2.68717770727100e+001,-4.13390255723497e-001

1.16473358646846e+004,-2.68717824175064e+001,-4.19160153224065e-001

1.18099266142953e+004,-2.68717879123182e+001,-4.25010560924782e-001

1.19747870461893e+004,-2.68717935613485e+001,-4.30942601243381e-001

1.21419488439505e+004,-2.68717993689181e+001,-4.36957412203422e-001

1.23114441334492e+004,-2.68718053394687e+001,-4.43056147649091e-001

1.24833054890161e+004,-2.68718114775655e+001,-4.49239977466327e-001

1.26575659397028e+004,-2.68718177879013e+001,-4.55510087800912e-001

1.28342589756290e+004,-2.68718242752999e+001,-4.61867681284611e-001

1.30134185544193e+004,-2.68718309447194e+001,-4.68313977260536e-001

1.31950791077289e+004,-2.68718378012568e+001,-4.74850212013164e-001

1.33792755478611e+004,-2.68718448501503e+001,-4.81477639005259e-001

1.35660432744767e+004,-2.68718520967849e+001,-4.88197529107732e-001

1.37554181813974e+004,-2.68718595466954e+001,-4.95011170844863e-001

1.39474366635040e+004,-2.68718672055706e+001,-5.01919870634363e-001

1.41421356237309e+004,-2.68718750792581e+001,-5.08924953033539e-001

1.43395524801583e+004,-2.68718831737683e+001,-5.16027760987009e-001

1.45397251732031e+004,-2.68718914952786e+001,-5.23229656083305e-001

1.47426921729110e+004,-2.68719000501390e+001,-5.30532018804963e-001

1.49484924863494e+004,-2.68719088448754e+001,-5.37936248793042e-001

1.51571656651040e+004,-2.68719178861958e+001,-5.45443765105919e-001

1.53687518128801e+004,-2.68719271809946e+001,-5.53056006487701e-001

1.55832915932100e+004,-2.68719367363576e+001,-5.60774431637263e-001

1.58008262372675e+004,-2.68719465595681e+001,-5.68600519478826e-001

1.60213975517924e+004,-2.68719566581112e+001,-5.76535769443232e-001

1.62450479271247e+004,-2.68719670396800e+001,-5.84581701745072e-001

1.64718203453514e+004,-2.68719777121815e+001,-5.92739857667545e-001

1.67017583885674e+004,-2.68719886837420e+001,-6.01011799849447e-001

1.69349062472505e+004,-2.68719999627131e+001,-6.09399112578255e-001

1.71713087287550e+004,-2.68720115576780e+001,-6.17903402084487e-001

1.74110112659224e+004,-2.68720234774582e+001,-6.26526296840322e-001

1.76540599258131e+004,-2.68720357311194e+001,-6.35269447863238e-001

1.79005014185594e+004,-2.68720483279785e+001,-6.44134529023089e-001

1.81503831063432e+004,-2.68720612776102e+001,-6.53123237352135e-001

1.84037530124975e+004,-2.68720745898547e+001,-6.62237293359736e-001

1.86606598307361e+004,-2.68720882748237e+001,-6.71478441354155e-001

1.89211529345119e+004,-2.68721023429093e+001,-6.80848449760570e-001

1.91852823865052e+004,-2.68721168047904e+001,-6.90349111452638e-001

1.94530989482457e+004,-2.68721316714409e+001,-6.99982244081968e-001

1.97246540898671e+004,-2.68721469541379e+001,-7.09749690413072e-001

1.99999999999999e+004,-2.68721626644696e+001,-7.19653318664781e-001

2.02791895958005e+004,-2.68721788143440e+001,-7.29695022852663e-001

2.05622765331213e+004,-2.68721954159975e+001,-7.39876723138028e-001

2.08493152168224e+004,-2.68722124820033e+001,-7.50200366182737e-001

2.11403608112276e+004,-2.68722300252812e+001,-7.60667925501754e-001

2.14354692507258e+004,-2.68722480591064e+001,-7.71281401830423e-001

2.17346972505211e+004,-2.68722665971195e+001,-7.82042823486198e-001

2.20381023175322e+004,-2.68722856533359e+001,-7.92954246742742e-001

2.23457427614443e+004,-2.68723052421560e+001,-8.04017756202532e-001

2.26576777059159e+004,-2.68723253783758e+001,-8.15235465179157e-001

2.29739670999406e+004,-2.68723460771972e+001,-8.26609516080249e-001

2.32946717293690e+004,-2.68723673542385e+001,-8.38142080798780e-001

2.36198532285905e+004,-2.68723892255466e+001,-8.49835361105405e-001

2.39495740923785e+004,-2.68724117076071e+001,-8.61691589049410e-001

2.42838976879009e+004,-2.68724348173571e+001,-8.73713027359789e-001

2.46228882668982e+004,-2.68724585721965e+001,-8.85901969856890e-001

2.49666109780322e+004,-2.68724829900006e+001,-8.98260741864176e-001

2.53151318794055e+004,-2.68725080891323e+001,-9.10791700628253e-001

2.56685179512580e+004,-2.68725338884556e+001,-9.23497235741242e-001

2.60268371088386e+004,-2.68725604073484e+001,-9.36379769569614e-001

2.63901582154578e+004,-2.68725876657161e+001,-9.49441757689148e-001

2.67585510957221e+004,-2.68726156840055e+001,-9.62685689321311e-001

2.71320865489533e+004,-2.68726444832190e+001,-9.76114087780715e-001

2.75108363627948e+004,-2.68726740849292e+001,-9.89729510920791e-001

2.78948733270080e+004,-2.68727045112938e+001,-1.00353455159033e+000

2.82842712474618e+004,-2.68727357850707e+001,-1.01753183809299e+000

2.86791049603164e+004,-2.68727679296338e+001,-1.03172403465120e+000

2.90794503464061e+004,-2.68728009689891e+001,-1.04611384187700e+000

2.94853843458219e+004,-2.68728349277904e+001,-1.06070399724835e+000

2.98969849726987e+004,-2.68728698313571e+001,-1.07549727558875e+000

3.03143313302078e+004,-2.68729057056906e+001,-1.09049648955410e+000

3.07375036257601e+004,-2.68729425774920e+001,-1.10570449012539e+000

3.11665831864199e+004,-2.68729804741801e+001,-1.12112416710483e+000

3.16016524745350e+004,-2.68730194239098e+001,-1.13675844961916e+000

3.20427951035848e+004,-2.68730594555906e+001,-1.15261030662801e+000

3.24900958542493e+004,-2.68731005989064e+001,-1.16868274743771e+000

3.29436406907028e+004,-2.68731428843343e+001,-1.18497882222058e+000

3.34035167771346e+004,-2.68731863431655e+001,-1.20150162253935e+000

3.38698124945009e+004,-2.68732310075250e+001,-1.21825428187944e+000

3.43426174575100e+004,-2.68732769103933e+001,-1.23523997618314e+000

3.48220225318448e+004,-2.68733240856274e+001,-1.25246192439281e+000

3.53081198516260e+004,-2.68733725679826e+001,-1.26992338899831e+000

3.58010028371187e+004,-2.68734223931352e+001,-1.28762767658932e+000

3.63007662126863e+004,-2.68734735977048e+001,-1.30557813841566e+000

3.68075060249948e+004,-2.68735262192782e+001,-1.32377817095069e+000

3.73213196614721e+004,-2.68735802964326e+001,-1.34223121646163e+000

3.78423058690237e+004,-2.68736358687603e+001,-1.36094076358679e+000

3.83705647730104e+004,-2.68736929768931e+001,-1.37991034791618e+000

3.89061978964912e+004,-2.68737516625277e+001,-1.39914355257910e+000

3.94493081797342e+004,-2.68738119684516e+001,-1.41864400883894e+000

3.99999999999998e+004,-2.68738739385690e+001,-1.43841539668990e+000

4.05583791916010e+004,-2.68739376179278e+001,-1.45846144546325e+000

4.11245530662425e+004,-2.68740030527468e+001,-1.47878593443734e+000

4.16986304336447e+004,-2.68740702904435e+001,-1.49939269345492e+000

4.22807216224550e+004,-2.68741393796623e+001,-1.52028560354331e+000

4.28709385014515e+004,-2.68742103703032e+001,-1.54146859754432e+000

4.34693945010421e+004,-2.68742833135516e+001,-1.56294566074600e+000

4.40762046350642e+004,-2.68743582619073e+001,-1.58472083152324e+000

4.46914855228886e+004,-2.68744352692158e+001,-1.60679820198288e+000

4.53153554118317e+004,-2.68745143906982e+001,-1.62918191861312e+000

4.59479341998812e+004,-2.68745956829834e+001,-1.65187618294172e+000

4.65893434587380e+004,-2.68746792041392e+001,-1.67488525219815e+000

4.72397064571810e+004,-2.68747650137054e+001,-1.69821343998005e+000

4.78991481847569e+004,-2.68748531727261e+001,-1.72186511692915e+000

4.85677953758016e+004,-2.68749437437833e+001,-1.74584471140974e+000

4.92457765337964e+004,-2.68750367910307e+001,-1.77015671019343e+000

4.99332219560642e+004,-2.68751323802283e+001,-1.79480565915120e+000

5.06302637588109e+004,-2.68752305787765e+001,-1.81979616394896e+000

5.13370359025159e+004,-2.68753314557523e+001,-1.84513289075045e+000

5.20536742176771e+004,-2.68754350819441e+001,-1.87082056692588e+000

5.27803164309155e+004,-2.68755415298887e+001,-1.89686398176432e+000

5.35171021914442e+004,-2.68756508739072e+001,-1.92326798719420e+000

5.42641730979066e+004,-2.68757631901424e+001,-1.95003749850817e+000

5.50216727255895e+004,-2.68758785565960e+001,-1.97717749509459e+000

5.57897466540159e+004,-2.68759970531666e+001,-2.00469302117299e+000

5.65685424949235e+004,-2.68761187616875e+001,-2.03258918653778e+000

5.73582099206328e+004,-2.68762437659656e+001,-2.06087116730598e+000

5.81589006928121e+004,-2.68763721518199e+001,-2.08954420667094e+000

5.89707686916437e+004,-2.68765040071207e+001,-2.11861361566315e+000

5.97939699453972e+004,-2.68766394218291e+001,-2.14808477391443e+000

6.06286626604156e+004,-2.68767784880364e+001,-2.17796313043142e+000

6.14750072515201e+004,-2.68769213000042e+001,-2.20825420437283e+000

6.23331663728396e+004,-2.68770679542043e+001,-2.23896358583228e+000

6.32033049490698e+004,-2.68772185493590e+001,-2.27009693662909e+000

6.40855902071694e+004,-2.68773731864815e+001,-2.30165999110456e+000

6.49801917084985e+004,-2.68775319689160e+001,-2.33365855692442e+000

6.58872813814055e+004,-2.68776950023788e+001,-2.36609851588644e+000

6.68070335542691e+004,-2.68778623949981e+001,-2.39898582473856e+000

6.77396249890018e+004,-2.68780342573551e+001,-2.43232651599885e+000

6.86852349150199e+004,-2.68782107025241e+001,-2.46612669878530e+000

6.96440450636895e+004,-2.68783918461131e+001,-2.50039255965232e+000

7.06162397032520e+004,-2.68785778063037e+001,-2.53513036343388e+000

7.16020056742374e+004,-2.68787687038912e+001,-2.57034645409452e+000

7.26015324253724e+004,-2.68789646623243e+001,-2.60604725558767e+000

7.36150120499896e+004,-2.68791658077447e+001,-2.64223927272240e+000

7.46426393229441e+004,-2.68793722690261e+001,-2.67892909203787e+000

7.56846117380472e+004,-2.68795841778128e+001,-2.71612338268748e+000

7.67411295460207e+004,-2.68798016685582e+001,-2.75382889733027e+000

7.78123957929823e+004,-2.68800248785619e+001,-2.79205247303317e+000

7.88986163594682e+004,-2.68802539480081e+001,-2.83080103218123e+000

7.99999999999995e+004,-2.68804890200007e+001,-2.87008158340018e+000

8.11167583832018e+004,-2.68807302406000e+001,-2.90990122248799e+000

8.22491061324848e+004,-2.68809777588578e+001,-2.95026713335758e+000

8.33972608672892e+004,-2.68812317268515e+001,-2.99118658899174e+000

8.45614432449099e+004,-2.68814922997173e+001,-3.03266695241048e+000

8.57418770029029e+004,-2.68817596356833e+001,-3.07471567765055e+000

8.69387890020841e+004,-2.68820338961006e+001,-3.11734031075855e+000

8.81524092701283e+004,-2.68823152454740e+001,-3.16054849079961e+000

8.93829710457770e+004,-2.68826038514913e+001,-3.20434795087921e+000

9.06307108236633e+004,-2.68828998850516e+001,-3.24874651918259e+000

9.18958683997622e+004,-2.68832035202926e+001,-3.29375212002917e+000

9.31786869174758e+004,-2.68835149346157e+001,-3.33937277494714e+000

9.44794129143618e+004,-2.68838343087113e+001,-3.38561660376384e+000

9.57982963695136e+004,-2.68841618265814e+001,-3.43249182571818e+000

9.71355907516031e+004,-2.68844976755616e+001,-3.48000676059251e+000

9.84915530675926e+004,-2.68848420463413e+001,-3.52816982986705e+000

9.98664439121282e+004,-2.68851951329828e+001,-3.57698955789705e+000

1.01260527517622e+005,-2.68855571329381e+001,-3.62647457311587e+000

1.02674071805032e+005,-2.68859282470656e+001,-3.67663360926083e+000

1.04107348435354e+005,-2.68863086796439e+001,-3.72747550663014e+000

1.05560632861831e+005,-2.68866986383848e+001,-3.77900921336549e+000

1.07034204382888e+005,-2.68870983344447e+001,-3.83124378676623e+000

1.08528346195813e+005,-2.68875079824344e+001,-3.88418839463492e+000

1.10043345451179e+005,-2.68879278004275e+001,-3.93785231665706e+000

1.11579493308032e+005,-2.68883580099674e+001,-3.99224494581469e+000

1.13137084989847e+005,-2.68887988360726e+001,-4.04737578983860e+000

1.14716419841265e+005,-2.68892505072416e+001,-4.10325447269761e+000

1.16317801385624e+005,-2.68897132554552e+001,-4.15989073612994e+000

1.17941537383287e+005,-2.68901873161786e+001,-4.21729444121658e+000

1.19587939890794e+005,-2.68906729283625e+001,-4.27547556999919e+000

1.21257325320831e+005,-2.68911703344428e+001,-4.33444422714499e+000

1.22950014503040e+005,-2.68916797803397e+001,-4.39421064165973e+000

1.24666332745679e+005,-2.68922015154563e+001,-4.45478516865266e+000

1.26406609898139e+005,-2.68927357926767e+001,-4.51617829115309e+000

1.28171180414339e+005,-2.68932828683641e+001,-4.57840062198294e+000

1.29960383416997e+005,-2.68938430023587e+001,-4.64146290568645e+000

1.31774562762811e+005,-2.68944164579757e+001,-4.70537602051906e+000

1.33614067108538e+005,-2.68950035020043e+001,-4.77015098049875e+000

1.35479249978003e+005,-2.68956044047073e+001,-4.83579893751968e+000

1.37370469830040e+005,-2.68962194398218e+001,-4.90233118353397e+000

1.39288090127379e+005,-2.68968488845617e+001,-4.96975915279977e+000

1.41232479406504e+005,-2.68974930196216e+001,-5.03809442420068e+000

1.43204011348474e+005,-2.68981521291840e+001,-5.10734872363664e+000

1.45203064850745e+005,-2.68988265009279e+001,-5.17753392649031e+000

1.47230024099979e+005,-2.68995164260423e+001,-5.24866206016743e+000

1.49285278645888e+005,-2.69002221992414e+001,-5.32074530671776e+000

1.51369223476094e+005,-2.69009441187861e+001,-5.39379600553428e+000

1.53482259092041e+005,-2.69016824865089e+001,-5.46782665613263e+000

1.55624791585964e+005,-2.69024376078448e+001,-5.54284992101545e+000

1.57797232718936e+005,-2.69032097918679e+001,-5.61887862861919e+000

1.59999999999999e+005,-2.69039993513351e+001,-5.69592577634615e+000

1.62233516766403e+005,-2.69048066027364e+001,-5.77400453368300e+000

1.64498212264969e+005,-2.69056318663540e+001,-5.85312824540594e+000

1.66794521734578e+005,-2.69064754663294e+001,-5.93331043487300e+000

1.69122886489819e+005,-2.69073377307405e+001,-6.01456480740393e+000

1.71483754005805e+005,-2.69082189916882e+001,-6.09690525374799e+000

1.73877578004168e+005,-2.69091195853950e+001,-6.18034585363894e+000

1.76304818540256e+005,-2.69100398523149e+001,-6.26490087943729e+000

1.78765942091554e+005,-2.69109801372550e+001,-6.35058479985826e+000

1.81261421647326e+005,-2.69119407895126e+001,-6.43741228378538e+000

1.83791736799524e+005,-2.69129221630242e+001,-6.52539820416712e+000

1.86357373834951e+005,-2.69139246165316e+001,-6.61455764199612e+000

1.88958825828723e+005,-2.69149485137628e+001,-6.70490589036827e+000

1.91596592739027e+005,-2.69159942236300e+001,-6.79645845861817e+000

1.94271181503206e+005,-2.69170621204455e+001,-6.88923107653064e+000

1.96983106135185e+005,-2.69181525841558e+001,-6.98323969862353e+000

1.99732887824256e+005,-2.69192660005951e+001,-7.07850050849755e+000

2.02521055035243e+005,-2.69204027617591e+001,-7.17502992325135e+000

2.05348143610063e+005,-2.69215632660996e+001,-7.27284459795639e+000

2.08214696870707e+005,-2.69227479188409e+001,-7.37196143018615e+000

2.11121265723661e+005,-2.69239571323186e+001,-7.47239756459748e+000

2.14068408765776e+005,-2.69251913263416e+001,-7.57417039755512e+000

2.17056692391625e+005,-2.69264509285781e+001,-7.67729758179706e+000

2.20086690902357e+005,-2.69277363749661e+001,-7.78179703113261e+000

2.23158986616063e+005,-2.69290481101485e+001,-7.88768692516794e+000

2.26274169979693e+005,-2.69303865879351e+001,-7.99498571405169e+000

2.29432839682530e+005,-2.69317522717891e+001,-8.10371212323496e+000

2.32635602771247e+005,-2.69331456353419e+001,-8.21388515823714e+000

2.35883074766574e+005,-2.69345671629337e+001,-8.32552410941130e+000

2.39175879781588e+005,-2.69360173501822e+001,-8.43864855670070e+000

2.42514650641661e+005,-2.69374967045785e+001,-8.55327837438017e+000

2.45900029006080e+005,-2.69390057461107e+001,-8.66943373577187e+000

2.49332665491357e+005,-2.69405450079165e+001,-8.78713511793005e+000

2.52813219796278e+005,-2.69421150369622e+001,-8.90640330628580e+000

2.56342360828676e+005,-2.69437163947511e+001,-9.02725939924188e+000

2.59920766833993e+005,-2.69453496580594e+001,-9.14972481271284e+000

2.63549125525621e+005,-2.69470154196996e+001,-9.27382128459908e+000

2.67228134217075e+005,-2.69487142893119e+001,-9.39957087918897e+000

2.70958499956006e+005,-2.69504468941829e+001,-9.52699599147929e+000

2.74740939660078e+005,-2.69522138800911e+001,-9.65611935140761e+000

2.78576180254757e+005,-2.69540159121791e+001,-9.78696402798789e+000

2.82464958813007e+005,-2.69558536758516e+001,-9.91955343334237e+000

2.86408022696948e+005,-2.69577278776991e+001,-1.00539113266212e+001

2.90406129701488e+005,-2.69596392464471e+001,-1.01900618178053e+001

2.94460048199957e+005,-2.69615885339279e+001,-1.03280293713828e+001

2.98570557291775e+005,-2.69635765160783e+001,-1.04678388098941e+001

3.02738446952187e+005,-2.69656039939578e+001,-1.06095153173403e+001

3.06964518184081e+005,-2.69676717947907e+001,-1.07530844424464e+001

3.11249583171928e+005,-2.69697807730279e+001,-1.08985721017771e+001

3.15594465437872e+005,-2.69719318114300e+001,-1.10460045826987e+001

3.19999999999997e+005,-2.69741258221697e+001,-1.11954085461815e+001

3.24467033532806e+005,-2.69763637479518e+001,-1.13468110294412e+001

3.28996424529938e+005,-2.69786465631526e+001,-1.15002394484121e+001

3.33589043469155e+005,-2.69809752749742e+001,-1.16557216000532e+001

3.38245772979638e+005,-2.69833509246153e+001,-1.18132856644783e+001

3.42967508011610e+005,-2.69857745884575e+001,-1.19729602069143e+001

3.47755156008335e+005,-2.69882473792644e+001,-1.21347741794795e+001

3.52609637080511e+005,-2.69907704473942e+001,-1.22987569227844e+001

3.57531884183106e+005,-2.69933449820249e+001,-1.24649381673517e+001

3.62522843294651e+005,-2.69959722123901e+001,-1.26333480348538e+001

3.67583473599047e+005,-2.69986534090258e+001,-1.28040170391691e+001

3.72714747669902e+005,-2.70013898850268e+001,-1.29769760872545e+001

3.77917651657445e+005,-2.70041829973120e+001,-1.31522564798352e+001

3.83193185478053e+005,-2.70070341478979e+001,-1.33298899119111e+001

3.88542363006410e+005,-2.70099447851802e+001,-1.35099084730807e+001

3.93966212270369e+005,-2.70129164052215e+001,-1.36923446476809e+001

3.99465775648511e+005,-2.70159505530465e+001,-1.38772313147461e+001

4.05042110070485e+005,-2.70190488239425e+001,-1.40646017477847e+001

4.10696287220124e+005,-2.70222128647655e+001,-1.42544896143731e+001

4.16429393741414e+005,-2.70254443752514e+001,-1.44469289755705e+001

4.22242531447321e+005,-2.70287451093321e+001,-1.46419542851525e+001

4.28136817531551e+005,-2.70321168764554e+001,-1.48396003886636e+001

4.34113384783250e+005,-2.70355615429102e+001,-1.50399025222903e+001

4.40173381804713e+005,-2.70390810331540e+001,-1.52428963115547e+001

4.46317973232124e+005,-2.70426773311460e+001,-1.54486177698262e+001

4.52548339959385e+005,-2.70463524816823e+001,-1.56571032966535e+001

4.58865679365059e+005,-2.70501085917352e+001,-1.58683896759150e+001

4.65271205542494e+005,-2.70539478317962e+001,-1.60825140737853e+001

4.71766149533147e+005,-2.70578724372224e+001,-1.62995140365191e+001

4.78351759563174e+005,-2.70618847095851e+001,-1.65194274880477e+001

4.85029301283321e+005,-2.70659870180239e+001,-1.67422927273889e+001

4.91800058012158e+005,-2.70701818006021e+001,-1.69681484258635e+001

4.98665330982714e+005,-2.70744715656667e+001,-1.71970336241210e+001

5.05626439592555e+005,-2.70788588932115e+001,-1.74289877289647e+001

5.12684721657352e+005,-2.70833464362434e+001,-1.76640505099782e+001

5.19841533667984e+005,-2.70879369221520e+001,-1.79022620959430e+001

5.27098251051240e+005,-2.70926331540829e+001,-1.81436629710477e+001

5.34456268434150e+005,-2.70974380123136e+001,-1.83882939708790e+001

5.41916999912011e+005,-2.71023544556332e+001,-1.86361962781913e+001

