Freq.,VOut,OutRef

1.00000000000000e+004,-1.38680803002270e+000,-4.86714982668588e-002

1.01395947979003e+004,-1.38680808624197e+000,-4.93509134926882e-002

1.02811382665607e+004,-1.38680814403830e+000,-5.00398124242063e-002

1.04246576084112e+004,-1.38680820345537e+000,-5.07383274280447e-002

1.05701804056138e+004,-1.38680826453871e+000,-5.14465927123395e-002

1.07177346253629e+004,-1.38680832733501e+000,-5.21647443594550e-002

1.08673486252606e+004,-1.38680839189199e+000,-5.28929203509711e-002

1.10190511587661e+004,-1.38680845825909e+000,-5.36312605916841e-002

1.11728713807222e+004,-1.38680852648666e+000,-5.43799069406782e-002

1.13288388529580e+004,-1.38680859662694e+000,-5.51390032335700e-002

1.14869835499703e+004,-1.38680866873327e+000,-5.59086953139957e-002

1.16473358646846e+004,-1.38680874286064e+000,-5.66891310593239e-002

1.18099266142953e+004,-1.38680881906547e+000,-5.74804604106384e-002

1.19747870461893e+004,-1.38680889740594e+000,-5.82828353988578e-002

1.21419488439505e+004,-1.38680897794151e+000,-5.90964101786090e-002

1.23114441334492e+004,-1.38680906073368e+000,-5.99213410513095e-002

1.24833054890161e+004,-1.38680914584513e+000,-6.07577865029421e-002

1.26575659397028e+004,-1.38680923334108e+000,-6.16059072238622e-002

1.28342589756290e+004,-1.38680932328755e+000,-6.24658661532283e-002

1.30134185544193e+004,-1.38680941575341e+000,-6.33378284955935e-002

1.31950791077289e+004,-1.38680951080851e+000,-6.42219617660149e-002

1.33792755478611e+004,-1.38680960852542e+000,-6.51184358105443e-002

1.35660432744767e+004,-1.38680970897807e+000,-6.60274228484121e-002

1.37554181813974e+004,-1.38680981224307e+000,-6.69490974965886e-002

1.39474366635040e+004,-1.38680991839843e+000,-6.78836368117943e-002

1.41421356237309e+004,-1.38681002752502e+000,-6.88312203154380e-002

1.43395524801583e+004,-1.38681013970529e+000,-6.97920300363194e-002

1.45397251732031e+004,-1.38681025502456e+000,-7.07662505381613e-002

1.47426921729110e+004,-1.38681037357012e+000,-7.17540689606811e-002

1.49484924863494e+004,-1.38681049543186e+000,-7.27556750517755e-002

1.51571656651040e+004,-1.38681062070195e+000,-7.37712612062721e-002

1.53687518128801e+004,-1.38681074947520e+000,-7.48010225011836e-002

1.55832915932100e+004,-1.38681088184932e+000,-7.58451567312274e-002

1.58008262372675e+004,-1.38681101792399e+000,-7.69038644539876e-002

1.60213975517924e+004,-1.38681115780227e+000,-7.79773490184649e-002

1.62450479271247e+004,-1.38681130158991e+000,-7.90658166096154e-002

1.64718203453514e+004,-1.38681144939548e+000,-8.01694762877617e-002

1.67017583885674e+004,-1.38681160133056e+000,-8.12885400269202e-002

1.69349062472505e+004,-1.38681175750974e+000,-8.24232227565814e-002

1.71713087287550e+004,-1.38681191805063e+000,-8.35737424024753e-002

1.74110112659224e+004,-1.38681208307440e+000,-8.47403199263739e-002

1.76540599258131e+004,-1.38681225270535e+000,-8.59231793705917e-002

1.79005014185594e+004,-1.38681242707107e+000,-8.71225479007663e-002

1.81503831063432e+004,-1.38681260630285e+000,-8.83386558475676e-002

1.84037530124975e+004,-1.38681279053542e+000,-8.95717367517608e-002

1.86606598307361e+004,-1.38681297990707e+000,-9.08220274095504e-002

1.89211529345119e+004,-1.38681317456017e+000,-9.20897679158398e-002

1.91852823865052e+004,-1.38681337464061e+000,-9.33752017122832e-002

1.94530989482457e+004,-1.38681358029859e+000,-9.46785756305777e-002

1.97246540898671e+004,-1.38681379168821e+000,-9.60001399431262e-002

1.99999999999999e+004,-1.38681400896757e+000,-9.73401484096622e-002

2.02791895958005e+004,-1.38681423229943e+000,-9.86988583234380e-002

2.05622765331213e+004,-1.38681446185064e+000,-1.00076530563693e-001

2.08493152168224e+004,-1.38681469779286e+000,-1.01473429641578e-001

2.11403608112276e+004,-1.38681494030213e+000,-1.02889823754709e-001

2.14354692507258e+004,-1.38681518955931e+000,-1.04325984835597e-001

2.17346972505211e+004,-1.38681544575015e+000,-1.05782188604075e-001

2.20381023175322e+004,-1.38681570906537e+000,-1.07258714619765e-001

2.23457427614443e+004,-1.38681597970093e+000,-1.08755846335316e-001

2.26576777059159e+004,-1.38681625785779e+000,-1.10273871151228e-001

2.29739670999406e+004,-1.38681654374265e+000,-1.11813080468047e-001

2.32946717293690e+004,-1.38681683756757e+000,-1.13373769744260e-001

2.36198532285905e+004,-1.38681713955010e+000,-1.14956238553195e-001

2.39495740923785e+004,-1.38681744991393e+000,-1.16560790636162e-001

2.42838976879009e+004,-1.38681776888850e+000,-1.18187733964114e-001

2.46228882668982e+004,-1.38681809670941e+000,-1.19837380794001e-001

2.49666109780322e+004,-1.38681843361837e+000,-1.21510047729990e-001

2.53151318794055e+004,-1.38681877986383e+000,-1.23206055779709e-001

2.56685179512580e+004,-1.38681913570062e+000,-1.24925730419806e-001

2.60268371088386e+004,-1.38681950139025e+000,-1.26669401655525e-001

2.63901582154578e+004,-1.38681987720117e+000,-1.28437404083613e-001

2.67585510957221e+004,-1.38682026340901e+000,-1.30230076954954e-001

2.71320865489533e+004,-1.38682066029650e+000,-1.32047764240186e-001

2.75108363627948e+004,-1.38682106815378e+000,-1.33890814695354e-001

2.78948733270080e+004,-1.38682148727868e+000,-1.35759581925350e-001

2.82842712474618e+004,-1.38682191797694e+000,-1.37654424452782e-001

2.86791049603164e+004,-1.38682236056186e+000,-1.39575705787588e-001

2.90794503464061e+004,-1.38682281535517e+000,-1.41523794492177e-001

2.94853843458219e+004,-1.38682328268711e+000,-1.43499064252593e-001

2.98969849726987e+004,-1.38682376289612e+000,-1.45501893951006e-001

3.03143313302078e+004,-1.38682425632938e+000,-1.47532667736067e-001

3.07375036257601e+004,-1.38682476334331e+000,-1.49591775093453e-001

3.11665831864199e+004,-1.38682528430329e+000,-1.51679610922978e-001

3.16016524745350e+004,-1.38682581958411e+000,-1.53796575610578e-001

3.20427951035848e+004,-1.38682636957004e+000,-1.55943075105620e-001

3.24900958542493e+004,-1.38682693465538e+000,-1.58119520995546e-001

3.29436406907028e+004,-1.38682751524396e+000,-1.60326330587108e-001

3.34035167771346e+004,-1.38682811175029e+000,-1.62563926980279e-001

3.38698124945009e+004,-1.38682872459923e+000,-1.64832739150465e-001

3.43426174575100e+004,-1.38682935422615e+000,-1.67133202030609e-001

3.48220225318448e+004,-1.38683000107769e+000,-1.69465756589025e-001

3.53081198516260e+004,-1.38683066561117e+000,-1.71830849918181e-001

3.58010028371187e+004,-1.38683134829542e+000,-1.74228935314304e-001

3.63007662126863e+004,-1.38683204961133e+000,-1.76660472361364e-001

3.68075060249948e+004,-1.38683277005112e+000,-1.79125927023297e-001

3.73213196614721e+004,-1.38683351011936e+000,-1.81625771726023e-001

3.78423058690237e+004,-1.38683427033292e+000,-1.84160485448791e-001

3.83705647730104e+004,-1.38683505122128e+000,-1.86730553813550e-001

3.89061978964912e+004,-1.38683585332682e+000,-1.89336469174868e-001

3.94493081797342e+004,-1.38683667720492e+000,-1.91978730714208e-001

3.99999999999998e+004,-1.38683752342431e+000,-1.94657844532028e-001

4.05583791916010e+004,-1.38683839256748e+000,-1.97374323741933e-001

4.11245530662425e+004,-1.38683928523064e+000,-2.00128688568126e-001

4.16986304336447e+004,-1.38684020202420e+000,-2.02921466441765e-001

4.22807216224550e+004,-1.38684114357292e+000,-2.05753192099396e-001

4.28709385014515e+004,-1.38684211051614e+000,-2.08624407683400e-001

4.34693945010421e+004,-1.38684310350798e+000,-2.11535662843823e-001

4.40762046350642e+004,-1.38684412321803e+000,-2.14487514837235e-001

4.46914855228886e+004,-1.38684517033093e+000,-2.17480528635453e-001

4.53153554118317e+004,-1.38684624554711e+000,-2.20515277027079e-001

4.59479341998812e+004,-1.38684734958276e+000,-2.23592340727042e-001

4.65893434587380e+004,-1.38684848317038e+000,-2.26712308481058e-001

4.72397064571810e+004,-1.38684964705850e+000,-2.29875777179223e-001

4.78991481847569e+004,-1.38685084201278e+000,-2.33083351961664e-001

4.85677953758016e+004,-1.38685206881518e+000,-2.36335646336808e-001

4.92457765337964e+004,-1.38685332826502e+000,-2.39633282290343e-001

4.99332219560642e+004,-1.38685462117872e+000,-2.42976890403714e-001

5.06302637588109e+004,-1.38685594839043e+000,-2.46367109967987e-001

5.13370359025159e+004,-1.38685731075171e+000,-2.49804589105396e-001

5.20536742176771e+004,-1.38685870913228e+000,-2.53289984885999e-001

5.27803164309155e+004,-1.38686014441970e+000,-2.56823963452529e-001

5.35171021914442e+004,-1.38686161751990e+000,-2.60407200140841e-001

5.42641730979066e+004,-1.38686312935739e+000,-2.64040379604199e-001

5.50216727255895e+004,-1.38686468087495e+000,-2.67724195943128e-001

5.57897466540159e+004,-1.38686627303438e+000,-2.71459352829195e-001

5.65685424949235e+004,-1.38686790681615e+000,-2.75246563637185e-001

5.73582099206328e+004,-1.38686958321981e+000,-2.79086551575821e-001

5.81589006928121e+004,-1.38687130326387e+000,-2.82980049820458e-001

5.89707686916437e+004,-1.38687306798609e+000,-2.86927801648227e-001

5.97939699453972e+004,-1.38687487844316e+000,-2.90930560575827e-001

6.06286626604156e+004,-1.38687673571151e+000,-2.94989090493942e-001

6.14750072515201e+004,-1.38687864088628e+000,-2.99104165813082e-001

6.23331663728396e+004,-1.38688059508203e+000,-3.03276571601471e-001

6.32033049490698e+004,-1.38688259943280e+000,-3.07507103728950e-001

6.40855902071694e+004,-1.38688465509139e+000,-3.11796569016617e-001

6.49801917084985e+004,-1.38688676322971e+000,-3.16145785380612e-001

6.58872813814055e+004,-1.38688892503878e+000,-3.20555581983205e-001

6.68070335542691e+004,-1.38689114172828e+000,-3.25026799384637e-001

6.77396249890018e+004,-1.38689341452642e+000,-3.29560289697043e-001

6.86852349150199e+004,-1.38689574467985e+000,-3.34156916739702e-001

6.96440450636895e+004,-1.38689813345324e+000,-3.38817556196976e-001

7.06162397032520e+004,-1.38690058212902e+000,-3.43543095778739e-001

7.16020056742374e+004,-1.38690309200714e+000,-3.48334435381385e-001

7.26015324253724e+004,-1.38690566440453e+000,-3.53192487252977e-001

7.36150120499896e+004,-1.38690830065466e+000,-3.58118176159998e-001

7.46426393229441e+004,-1.38691100210720e+000,-3.63112439555050e-001

7.56846117380472e+004,-1.38691377012729e+000,-3.68176227748249e-001

7.67411295460207e+004,-1.38691660609488e+000,-3.73310504082106e-001

7.78123957929823e+004,-1.38691951140451e+000,-3.78516245103289e-001

7.88986163594682e+004,-1.38692248746397e+000,-3.83794440745894e-001

7.99999999999995e+004,-1.38692553569394e+000,-3.89146094507972e-001

8.11167583832018e+004,-1.38692865752701e+000,-3.94572223636282e-001

8.22491061324848e+004,-1.38693185440673e+000,-4.00073859311772e-001

8.33972608672892e+004,-1.38693512778649e+000,-4.05652046838503e-001

8.45614432449099e+004,-1.38693847912886e+000,-4.11307845831984e-001

8.57418770029029e+004,-1.38694190990392e+000,-4.17042330415432e-001

8.69387890020841e+004,-1.38694542158851e+000,-4.22856589414448e-001

8.81524092701283e+004,-1.38694901566426e+000,-4.28751726558158e-001

8.93829710457770e+004,-1.38695269361700e+000,-4.34728860677188e-001

9.06307108236633e+004,-1.38695645693463e+000,-4.40789125912627e-001

9.18958683997622e+004,-1.38696030710569e+000,-4.46933671921889e-001

9.31786869174758e+004,-1.38696424561781e+000,-4.53163664089623e-001

9.44794129143618e+004,-1.38696827395588e+000,-4.59480283741098e-001

9.57982963695136e+004,-1.38697239359996e+000,-4.65884728360970e-001

9.71355907516031e+004,-1.38697660602333e+000,-4.72378211812856e-001

9.84915530675926e+004,-1.38698091269077e+000,-4.78961964561286e-001

9.98664439121282e+004,-1.38698531505561e+000,-4.85637233902122e-001

1.01260527517622e+005,-1.38698981455812e+000,-4.92405284189454e-001

1.02674071805032e+005,-1.38699441262252e+000,-4.99267397072468e-001

1.04107348435354e+005,-1.38699911065470e+000,-5.06224871730895e-001

1.05560632861831e+005,-1.38700391003941e+000,-5.13279025117968e-001

1.07034204382888e+005,-1.38700881213744e+000,-5.20431192203909e-001

1.08528346195813e+005,-1.38701381828257e+000,-5.27682726227067e-001

1.10043345451179e+005,-1.38701892977883e+000,-5.35034998943775e-001

1.11579493308032e+005,-1.38702414789674e+000,-5.42489400888610e-001

1.13137084989847e+005,-1.38702947387062e+000,-5.50047341632186e-001

1.14716419841265e+005,-1.38703490889445e+000,-5.57710250049852e-001

1.16317801385624e+005,-1.38704045411887e+000,-5.65479574587782e-001

1.17941537383287e+005,-1.38704611064693e+000,-5.73356783540568e-001

1.19587939890794e+005,-1.38705187953066e+000,-5.81343365326955e-001

1.21257325320831e+005,-1.38705776176661e+000,-5.89440828775256e-001

1.22950014503040e+005,-1.38706375829236e+000,-5.97650703409046e-001

1.24666332745679e+005,-1.38706986998143e+000,-6.05974539743529e-001

1.26406609898139e+005,-1.38707609763963e+000,-6.14413909579379e-001

1.28171180414339e+005,-1.38708244200004e+000,-6.22970406309162e-001

1.29960383416997e+005,-1.38708890371876e+000,-6.31645645223030e-001

1.31774562762811e+005,-1.38709548336976e+000,-6.40441263824022e-001

1.33614067108538e+005,-1.38710218144037e+000,-6.49358922145691e-001

1.35479249978003e+005,-1.38710899832607e+000,-6.58400303076976e-001

1.37370469830040e+005,-1.38711593432537e+000,-6.67567112693549e-001

1.39288090127379e+005,-1.38712298963496e+000,-6.76861080590879e-001

1.41232479406504e+005,-1.38713016434389e+000,-6.86283960229858e-001

1.43204011348474e+005,-1.38713745842865e+000,-6.95837529281595e-001

1.45203064850745e+005,-1.38714487174746e+000,-7.05523589983499e-001

1.47230024099979e+005,-1.38715240403488e+000,-7.15343969498062e-001

1.49285278645888e+005,-1.38716005489635e+000,-7.25300520280172e-001

1.51369223476094e+005,-1.38716782380213e+000,-7.35395120451211e-001

1.53482259092041e+005,-1.38717571008192e+000,-7.45629674178199e-001

1.55624791585964e+005,-1.38718371291934e+000,-7.56006112059029e-001

1.57797232718936e+005,-1.38719183134579e+000,-7.66526391518171e-001

1.59999999999999e+005,-1.38720006423496e+000,-7.77192497205627e-001

1.62233516766403e+005,-1.38720841029703e+000,-7.88006441404736e-001

1.64498212264969e+005,-1.38721686807306e+000,-7.98970264446080e-001

1.66794521734578e+005,-1.38722543592912e+000,-8.10086035130601e-001

1.69122886489819e+005,-1.38723411205099e+000,-8.21355851156473e-001

1.71483754005805e+005,-1.38724289443821e+000,-8.32781839558019e-001

1.73877578004168e+005,-1.38725178089882e+000,-8.44366157148677e-001

1.76304818540256e+005,-1.38726076904399e+000,-8.56110990971594e-001

1.78765942091554e+005,-1.38726985628265e+000,-8.68018558760773e-001

1.81261421647326e+005,-1.38727903981642e+000,-8.80091109406091e-001

1.83791736799524e+005,-1.38728831663450e+000,-8.92330923429435e-001

1.86357373834951e+005,-1.38729768350898e+000,-9.04740313466023e-001

1.88958825828723e+005,-1.38730713698996e+000,-9.17321624755822e-001

1.91596592739027e+005,-1.38731667340135e+000,-9.30077235640486e-001

1.94271181503206e+005,-1.38732628883629e+000,-9.43009558070776e-001

1.96983106135185e+005,-1.38733597915329e+000,-9.56121038120051e-001

1.99732887824256e+005,-1.38734573997251e+000,-9.69414156505811e-001

2.02521055035243e+005,-1.38735556667210e+000,-9.82891429119951e-001

2.05348143610063e+005,-1.38736545438485e+000,-9.96555407567096e-001

2.08214696870707e+005,-1.38737539799532e+000,-1.01040867971019e+000

2.11121265723661e+005,-1.38738539213731e+000,-1.02445387022339e+000

2.14068408765776e+005,-1.38739543119096e+000,-1.03869364115579e+000

2.17056692391625e+005,-1.38740550928143e+000,-1.05313069249810e+000

2.20086690902357e+005,-1.38741562027645e+000,-1.06776776276316e+000

2.23158986616063e+005,-1.38742575778548e+000,-1.08260762956810e+000

2.26274169979693e+005,-1.38743591515834e+000,-1.09765311022938e+000

2.29432839682530e+005,-1.38744608548466e+000,-1.11290706236273e+000

2.32635602771247e+005,-1.38745626159362e+000,-1.12837238449079e+000

2.35883074766574e+005,-1.38746643605370e+000,-1.14405201666009e+000

2.39175879781588e+005,-1.38747660117348e+000,-1.15994894106299e+000

2.42514650641661e+005,-1.38748674900194e+000,-1.17606618266999e+000

2.45900029006080e+005,-1.38749687132988e+000,-1.19240680986676e+000

2.49332665491357e+005,-1.38750695969141e+000,-1.20897393509961e+000

2.52813219796278e+005,-1.38751700536538e+000,-1.22577071552991e+000

2.56342360828676e+005,-1.38752699937789e+000,-1.24280035369190e+000

2.59920766833993e+005,-1.38753693250462e+000,-1.26006609816068e+000

2.63549125525621e+005,-1.38754679527360e+000,-1.27757124422723e+000

2.67228134217075e+005,-1.38755657796823e+000,-1.29531913457856e+000

2.70958499956006e+005,-1.38756627063078e+000,-1.31331315998641e+000

2.74740939660078e+005,-1.38757586306570e+000,-1.33155676000299e+000

2.78576180254757e+005,-1.38758534484395e+000,-1.35005342366171e+000

2.82464958813007e+005,-1.38759470530660e+000,-1.36880669018838e+000

2.86408022696948e+005,-1.38760393356941e+000,-1.38782014971550e+000

2.90406129701488e+005,-1.38761301852719e+000,-1.40709744400586e+000

2.94460048199957e+005,-1.38762194885828e+000,-1.42664226718252e+000

2.98570557291775e+005,-1.38763071302939e+000,-1.44645836646575e+000

3.02738446952187e+005,-1.38763929930026e+000,-1.46654954291646e+000

3.06964518184081e+005,-1.38764769572860e+000,-1.48691965218789e+000

3.11249583171928e+005,-1.38765589017489e+000,-1.50757260528264e+000

3.15594465437872e+005,-1.38766387030718e+000,-1.52851236931929e+000

3.19999999999997e+005,-1.38767162360595e+000,-1.54974296830386e+000

3.24467033532806e+005,-1.38767913736882e+000,-1.57126848391085e+000

3.28996424529938e+005,-1.38768639871501e+000,-1.59309305627091e+000

3.33589043469155e+005,-1.38769339459000e+000,-1.61522088476531e+000

3.38245772979638e+005,-1.38770011176953e+000,-1.63765622883120e+000

3.42967508011610e+005,-1.38770653686399e+000,-1.66040340877079e+000

3.47755156008335e+005,-1.38771265632178e+000,-1.68346680657332e+000

3.52609637080511e+005,-1.38771845643315e+000,-1.70685086674227e+000

3.57531884183106e+005,-1.38772392333308e+000,-1.73056009713333e+000

3.62522843294651e+005,-1.38772904300438e+000,-1.75459906979923e+000

3.67583473599047e+005,-1.38773380127991e+000,-1.77897242184679e+000

3.72714747669902e+005,-1.38773818384459e+000,-1.80368485630103e+000

3.77917651657445e+005,-1.38774217623705e+000,-1.82874114298068e+000

3.83193185478053e+005,-1.38774576385070e+000,-1.85414611938249e+000

3.88542363006410e+005,-1.38774893193426e+000,-1.87990469157809e+000

3.93966212270369e+005,-1.38775166559175e+000,-1.90602183511949e+000

3.99465775648511e+005,-1.38775394978222e+000,-1.93250259595678e+000

4.05042110070485e+005,-1.38775576931834e+000,-1.95935209136854e+000

4.10696287220124e+005,-1.38775710886503e+000,-1.98657551090117e+000

4.16429393741414e+005,-1.38775795293709e+000,-2.01417811732355e+000

4.22242531447321e+005,-1.38775828589609e+000,-2.04216524759293e+000

4.28136817531551e+005,-1.38775809194707e+000,-2.07054231383383e+000

4.34113384783250e+005,-1.38775735513436e+000,-2.09931480432981e+000

4.40173381804713e+005,-1.38775605933638e+000,-2.12848828453129e+000

4.46317973232124e+005,-1.38775418826039e+000,-2.15806839807489e+000

4.52548339959385e+005,-1.38775172543604e+000,-2.18806086781887e+000

4.58865679365059e+005,-1.38774865420864e+000,-2.21847149689329e+000

4.65271205542494e+005,-1.38774495773124e+000,-2.24930616976569e+000

4.71766149533147e+005,-1.38774061895655e+000,-2.28057085332183e+000

4.78351759563174e+005,-1.38773562062772e+000,-2.31227159796370e+000

4.85029301283321e+005,-1.38772994526868e+000,-2.34441453872341e+000

4.91800058012158e+005,-1.38772357517373e+000,-2.37700589639423e+000

4.98665330982714e+005,-1.38771649239623e+000,-2.41005197867875e+000

5.05626439592555e+005,-1.38770867873687e+000,-2.44355918135563e+000

5.12684721657352e+005,-1.38770011573105e+000,-2.47753398946343e+000

5.19841533667984e+005,-1.38769078463578e+000,-2.51198297850330e+000

5.27098251051240e+005,-1.38768066641558e+000,-2.54691281566113e+000

5.34456268434150e+005,-1.38766974172794e+000,-2.58233026104841e+000

5.41916999912011e+005,-1.38765799090812e+000,-2.61824216896248e+000

