Freq.,VOut,OutRef

1.00000000000000e+004,-1.39739364639750e+001,-1.62687949178567e-001

1.01395947979003e+004,-1.39739373744190e+001,-1.64958807164975e-001

1.02811382665607e+004,-1.39739383104096e+001,-1.67261357463977e-001

1.04246576084112e+004,-1.39739392726614e+001,-1.69596042161511e-001

1.05701804056138e+004,-1.39739402619103e+001,-1.71963309495173e-001

1.07177346253629e+004,-1.39739412789119e+001,-1.74363613949309e-001

1.08673486252606e+004,-1.39739423244431e+001,-1.76797416335445e-001

1.10190511587661e+004,-1.39739433993025e+001,-1.79265183884235e-001

1.11728713807222e+004,-1.39739445043109e+001,-1.81767390330357e-001

1.13288388529580e+004,-1.39739456403118e+001,-1.84304516006523e-001

1.14869835499703e+004,-1.39739468081725e+001,-1.86877047930684e-001

1.16473358646846e+004,-1.39739480087842e+001,-1.89485479904157e-001

1.18099266142953e+004,-1.39739492430629e+001,-1.92130312599947e-001

1.19747870461893e+004,-1.39739505119504e+001,-1.94812053659728e-001

1.21419488439505e+004,-1.39739518164143e+001,-1.97531217792823e-001

1.23114441334492e+004,-1.39739531574494e+001,-2.00288326871183e-001

1.24833054890161e+004,-1.39739545360779e+001,-2.03083910028636e-001

1.26575659397028e+004,-1.39739559533507e+001,-2.05918503761597e-001

1.28342589756290e+004,-1.39739574103475e+001,-2.08792652033143e-001

1.30134185544193e+004,-1.39739589081785e+001,-2.11706906372030e-001

1.31950791077289e+004,-1.39739604479843e+001,-2.14661825980270e-001

1.33792755478611e+004,-1.39739620309373e+001,-2.17657977839232e-001

1.35660432744767e+004,-1.39739636582424e+001,-2.20695936814469e-001

1.37554181813974e+004,-1.39739653311381e+001,-2.23776285767173e-001

1.39474366635040e+004,-1.39739670508968e+001,-2.26899615663450e-001

1.41421356237309e+004,-1.39739688188266e+001,-2.30066525687120e-001

1.43395524801583e+004,-1.39739706362716e+001,-2.33277623350272e-001

1.45397251732031e+004,-1.39739725046133e+001,-2.36533524610504e-001

1.47426921729110e+004,-1.39739744252712e+001,-2.39834853988594e-001

1.49484924863494e+004,-1.39739763997041e+001,-2.43182244683707e-001

1.51571656651040e+004,-1.39739784294113e+001,-2.46576338692679e-001

1.53687518128801e+004,-1.39739805159335e+001,-2.50017786934532e-001

1.55832915932100e+004,-1.39739826608539e+001,-2.53507249369169e-001

1.58008262372675e+004,-1.39739848657992e+001,-2.57045395125914e-001

1.60213975517924e+004,-1.39739871324413e+001,-2.60632902626715e-001

1.62450479271247e+004,-1.39739894624983e+001,-2.64270459712179e-001

1.64718203453514e+004,-1.39739918577353e+001,-2.67958763777188e-001

1.67017583885674e+004,-1.39739943199661e+001,-2.71698521896390e-001

1.69349062472505e+004,-1.39739968510550e+001,-2.75490450957971e-001

1.71713087287550e+004,-1.39739994529166e+001,-2.79335277802799e-001

1.74110112659224e+004,-1.39740021275190e+001,-2.83233739354335e-001

1.76540599258131e+004,-1.39740048768839e+001,-2.87186582762058e-001

1.79005014185594e+004,-1.39740077030889e+001,-2.91194565537353e-001

1.81503831063432e+004,-1.39740106082684e+001,-2.95258455700776e-001

1.84037530124975e+004,-1.39740135946153e+001,-2.99379031920269e-001

1.86606598307361e+004,-1.39740166643829e+001,-3.03557083659917e-001

1.89211529345119e+004,-1.39740198198858e+001,-3.07793411328186e-001

1.91852823865052e+004,-1.39740230635022e+001,-3.12088826425413e-001

1.94530989482457e+004,-1.39740263976753e+001,-3.16444151695807e-001

1.97246540898671e+004,-1.39740298249152e+001,-3.20860221282002e-001

1.99999999999999e+004,-1.39740333478003e+001,-3.25337880879391e-001

2.02791895958005e+004,-1.39740369689794e+001,-3.29877987895460e-001

2.05622765331213e+004,-1.39740406911736e+001,-3.34481411606059e-001

2.08493152168224e+004,-1.39740445171780e+001,-3.39149033320059e-001

2.11403608112276e+004,-1.39740484498640e+001,-3.43881746541061e-001

2.14354692507258e+004,-1.39740524921806e+001,-3.48680457136396e-001

2.17346972505211e+004,-1.39740566471574e+001,-3.53546083499871e-001

2.20381023175322e+004,-1.39740609179057e+001,-3.58479556727098e-001

2.23457427614443e+004,-1.39740653076216e+001,-3.63481820784122e-001

2.26576777059159e+004,-1.39740698195873e+001,-3.68553832684132e-001

2.29739670999406e+004,-1.39740744571741e+001,-3.73696562663313e-001

2.32946717293690e+004,-1.39740792238444e+001,-3.78910994358783e-001

2.36198532285905e+004,-1.39740841231536e+001,-3.84198124993032e-001

2.39495740923785e+004,-1.39740891587533e+001,-3.89558965553335e-001

2.42838976879009e+004,-1.39740943343933e+001,-3.94994540981334e-001

2.46228882668982e+004,-1.39740996539244e+001,-4.00505890358309e-001

2.49666109780322e+004,-1.39741051213003e+001,-4.06094067098077e-001

2.53151318794055e+004,-1.39741107405813e+001,-4.11760139137943e-001

2.56685179512580e+004,-1.39741165159360e+001,-4.17505189136448e-001

2.60268371088386e+004,-1.39741224516448e+001,-4.23330314668086e-001

2.63901582154578e+004,-1.39741285521020e+001,-4.29236628427437e-001

2.67585510957221e+004,-1.39741348218196e+001,-4.35225258427665e-001

2.71320865489533e+004,-1.39741412654292e+001,-4.41297348208801e-001

2.75108363627948e+004,-1.39741478876856e+001,-4.47454057045525e-001

2.78948733270080e+004,-1.39741546934702e+001,-4.53696560154806e-001

2.82842712474618e+004,-1.39741616877932e+001,-4.60026048911912e-001

2.86791049603164e+004,-1.39741688757976e+001,-4.66443731064109e-001

2.90794503464061e+004,-1.39741762627618e+001,-4.72950830949989e-001

2.94853843458219e+004,-1.39741838541039e+001,-4.79548589717946e-001

2.98969849726987e+004,-1.39741916553839e+001,-4.86238265552803e-001

3.03143313302078e+004,-1.39741996723080e+001,-4.93021133899534e-001

3.07375036257601e+004,-1.39742079107318e+001,-4.99898487692669e-001

3.11665831864199e+004,-1.39742163766641e+001,-5.06871637588975e-001

3.16016524745350e+004,-1.39742250762705e+001,-5.13941912198484e-001

3.20427951035848e+004,-1.39742340158766e+001,-5.21110658326624e-001

3.24900958542493e+004,-1.39742432019727e+001,-5.28379241209885e-001

3.29436406907028e+004,-1.39742526412173e+001,-5.35749044759164e-001

3.34035167771346e+004,-1.39742623404407e+001,-5.43221471807023e-001

3.38698124945009e+004,-1.39742723066494e+001,-5.50797944355143e-001

3.43426174575100e+004,-1.39742825470301e+001,-5.58479903824885e-001

3.48220225318448e+004,-1.39742930689540e+001,-5.66268811311136e-001

3.53081198516260e+004,-1.39743038799804e+001,-5.74166147841872e-001

3.58010028371187e+004,-1.39743149878616e+001,-5.82173414635553e-001

3.63007662126863e+004,-1.39743264005473e+001,-5.90292133364698e-001

3.68075060249948e+004,-1.39743381261883e+001,-5.98523846422414e-001

3.73213196614721e+004,-1.39743501731418e+001,-6.06870117190453e-001

3.78423058690237e+004,-1.39743625499753e+001,-6.15332530311893e-001

3.83705647730104e+004,-1.39743752654717e+001,-6.23912691966096e-001

3.89061978964912e+004,-1.39743883286333e+001,-6.32612230146538e-001

3.94493081797342e+004,-1.39744017486874e+001,-6.41432794940763e-001

3.99999999999998e+004,-1.39744155350903e+001,-6.50376058816671e-001

4.05583791916010e+004,-1.39744296975323e+001,-6.59443716908395e-001

4.11245530662425e+004,-1.39744442459429e+001,-6.68637487306525e-001

4.16986304336447e+004,-1.39744591904955e+001,-6.77959111352553e-001

4.22807216224550e+004,-1.39744745416120e+001,-6.87410353935451e-001

4.28709385014515e+004,-1.39744903099685e+001,-6.96993003791035e-001

4.34693945010421e+004,-1.39745065064998e+001,-7.06708873805607e-001

4.40762046350642e+004,-1.39745231424047e+001,-7.16559801321987e-001

4.46914855228886e+004,-1.39745402291510e+001,-7.26547648448043e-001

4.53153554118317e+004,-1.39745577784806e+001,-7.36674302372657e-001

4.59479341998812e+004,-1.39745758024150e+001,-7.46941675677981e-001

4.65893434587380e+004,-1.39745943132597e+001,-7.57351706661346e-001

4.72397064571810e+004,-1.39746133236104e+001,-7.67906359656652e-001

4.78991481847569e+004,-1.39746328463570e+001,-7.78607625362339e-001

4.85677953758016e+004,-1.39746528946898e+001,-7.89457521167162e-001

4.92457765337964e+004,-1.39746734821040e+001,-8.00458091487111e-001

4.99332219560642e+004,-1.39746946224051e+001,-8.11611408098786e-001

5.06302637588109e+004,-1.39747163297136e+001,-8.22919570480117e-001

5.13370359025159e+004,-1.39747386184711e+001,-8.34384706152268e-001

5.20536742176771e+004,-1.39747615034438e+001,-8.46008971028238e-001

5.27803164309155e+004,-1.39747849997287e+001,-8.57794549760447e-001

5.35171021914442e+004,-1.39748091227580e+001,-8.69743656096562e-001

5.42641730979066e+004,-1.39748338883039e+001,-8.81858533233976e-001

5.50216727255895e+004,-1.39748593124833e+001,-8.94141454183095e-001

5.57897466540159e+004,-1.39748854117627e+001,-9.06594722129714e-001

5.65685424949235e+004,-1.39749122029624e+001,-9.19220670803519e-001

5.73582099206328e+004,-1.39749397032610e+001,-9.32021664850562e-001

5.81589006928121e+004,-1.39749679301996e+001,-9.45000100206632e-001

5.89707686916437e+004,-1.39749969016859e+001,-9.58158404478877e-001

5.97939699453972e+004,-1.39750266359984e+001,-9.71499037326045e-001

6.06286626604156e+004,-1.39750571517894e+001,-9.85024490847967e-001

6.14750072515201e+004,-1.39750884680892e+001,-9.98737289973725e-001

6.23331663728396e+004,-1.39751206043092e+001,-1.01263999285819e+000

6.32033049490698e+004,-1.39751535802446e+001,-1.02673519128064e+000

6.40855902071694e+004,-1.39751874160776e+001,-1.04102551104619e+000

6.49801917084985e+004,-1.39752221323800e+001,-1.05551361239360e+000

6.58872813814055e+004,-1.39752577501146e+001,-1.07020219040769e+000

6.68070335542691e+004,-1.39752942906378e+001,-1.08509397543292e+000

6.77396249890018e+004,-1.39753317757011e+001,-1.10019173349509e+000

6.86852349150199e+004,-1.39753702274515e+001,-1.11549826672514e+000

6.96440450636895e+004,-1.39754096684332e+001,-1.13101641378740e+000

7.06162397032520e+004,-1.39754501215870e+001,-1.14674905031623e+000

7.16020056742374e+004,-1.39754916102508e+001,-1.16269908935196e+000

7.26015324253724e+004,-1.39755341581584e+001,-1.17886948178592e+000

7.36150120499896e+004,-1.39755777894391e+001,-1.19526321680943e+000

7.46426393229441e+004,-1.39756225286150e+001,-1.21188332236803e+000

7.56846117380472e+004,-1.39756684005994e+001,-1.22873286562054e+000

7.67411295460207e+004,-1.39757154306940e+001,-1.24581495340405e+000

7.78123957929823e+004,-1.39757636445849e+001,-1.26313273270639e+000

7.88986163594682e+004,-1.39758130683388e+001,-1.28068939114123e+000

7.99999999999995e+004,-1.39758637283979e+001,-1.29848815743266e+000

8.11167583832018e+004,-1.39759156515744e+001,-1.31653230190384e+000

8.22491061324848e+004,-1.39759688650443e+001,-1.33482513697324e+000

8.33972608672892e+004,-1.39760233963399e+001,-1.35337001765883e+000

8.45614432449099e+004,-1.39760792733416e+001,-1.37217034208714e+000

8.57418770029029e+004,-1.39761365242698e+001,-1.39122955201138e+000

8.69387890020841e+004,-1.39761951776742e+001,-1.41055113333685e+000

8.81524092701283e+004,-1.39762552624235e+001,-1.43013861665492e+000

8.93829710457770e+004,-1.39763168076936e+001,-1.44999557778453e+000

9.06307108236633e+004,-1.39763798429549e+001,-1.47012563832273e+000

9.18958683997622e+004,-1.39764443979584e+001,-1.49053246620487e+000

9.31786869174758e+004,-1.39765105027205e+001,-1.51121977627493e+000

9.44794129143618e+004,-1.39765781875076e+001,-1.53219133086302e+000

9.57982963695136e+004,-1.39766474828185e+001,-1.55345094037634e+000

9.71355907516031e+004,-1.39767184193660e+001,-1.57500246390069e+000

9.84915530675926e+004,-1.39767910280574e+001,-1.59684980981108e+000

9.98664439121282e+004,-1.39768653399739e+001,-1.61899693639638e+000

1.01260527517622e+005,-1.39769413863477e+001,-1.64144785249662e+000

1.02674071805032e+005,-1.39770191985396e+001,-1.66420661815010e+000

1.04107348435354e+005,-1.39770988080131e+001,-1.68727734525987e+000

1.05560632861831e+005,-1.39771802463094e+001,-1.71066419826772e+000

1.07034204382888e+005,-1.39772635450187e+001,-1.73437139484813e+000

1.08528346195813e+005,-1.39773487357524e+001,-1.75840320661607e+000

1.10043345451179e+005,-1.39774358501118e+001,-1.78276395984914e+000

1.11579493308032e+005,-1.39775249196571e+001,-1.80745803623000e+000

1.13137084989847e+005,-1.39776159758735e+001,-1.83248987360470e+000

1.14716419841265e+005,-1.39777090501376e+001,-1.85786396675784e+000

1.16317801385624e+005,-1.39778041736799e+001,-1.88358486821123e+000

1.17941537383287e+005,-1.39779013775490e+001,-1.90965718903689e+000

1.19587939890794e+005,-1.39780006925711e+001,-1.93608559969723e+000

1.21257325320831e+005,-1.39781021493110e+001,-1.96287483090134e+000

1.22950014503040e+005,-1.39782057780296e+001,-1.99002967448701e+000

1.24666332745679e+005,-1.39783116086414e+001,-2.01755498432565e+000

1.26406609898139e+005,-1.39784196706698e+001,-2.04545567725028e+000

1.28171180414339e+005,-1.39785299932017e+001,-2.07373673401223e+000

1.29960383416997e+005,-1.39786426048409e+001,-2.10240320025859e+000

1.31774562762811e+005,-1.39787575336596e+001,-2.13146018754224e+000

1.33614067108538e+005,-1.39788748071497e+001,-2.16091287435696e+000

1.35479249978003e+005,-1.39789944521726e+001,-2.19076650720239e+000

1.37370469830040e+005,-1.39791164949083e+001,-2.22102640167802e+000

1.39288090127379e+005,-1.39792409608032e+001,-2.25169794361052e+000

1.41232479406504e+005,-1.39793678745175e+001,-2.28278659020968e+000

1.43204011348474e+005,-1.39794972598721e+001,-2.31429787126094e+000

1.45203064850745e+005,-1.39796291397946e+001,-2.34623739034703e+000

1.47230024099979e+005,-1.39797635362649e+001,-2.37861082610891e+000

1.49285278645888e+005,-1.39799004702608e+001,-2.41142393353848e+000

1.51369223476094e+005,-1.39800399617035e+001,-2.44468254530935e+000

1.53482259092041e+005,-1.39801820294025e+001,-2.47839257314546e+000

1.55624791585964e+005,-1.39803266910015e+001,-2.51256000922471e+000

1.57797232718936e+005,-1.39804739629242e+001,-2.54719092762413e+000

1.59999999999999e+005,-1.39806238603206e+001,-2.58229148580316e+000

1.62233516766403e+005,-1.39807763970144e+001,-2.61786792612560e+000

1.64498212264969e+005,-1.39809315854508e+001,-2.65392657742440e+000

1.66794521734578e+005,-1.39810894366461e+001,-2.69047385660486e+000

1.69122886489819e+005,-1.39812499601377e+001,-2.72751627029141e+000

1.71483754005805e+005,-1.39814131639367e+001,-2.76506041651343e+000

1.73877578004168e+005,-1.39815790544816e+001,-2.80311298643640e+000

1.76304818540256e+005,-1.39817476365942e+001,-2.84168076613130e+000

1.78765942091554e+005,-1.39819189134381e+001,-2.88077063838912e+000

1.81261421647326e+005,-1.39820928864788e+001,-2.92038958457690e+000

1.83791736799524e+005,-1.39822695554476e+001,-2.96054468653392e+000

1.86357373834951e+005,-1.39824489183077e+001,-3.00124312851274e+000

1.88958825828723e+005,-1.39826309712241e+001,-3.04249219915894e+000

1.91596592739027e+005,-1.39828157085364e+001,-3.08429929353436e+000

1.94271181503206e+005,-1.39830031227356e+001,-3.12667191517940e+000

1.96983106135185e+005,-1.39831932044453e+001,-3.16961767821453e+000

1.99732887824256e+005,-1.39833859424059e+001,-3.21314430948362e+000

2.02521055035243e+005,-1.39835813234645e+001,-3.25725965073302e+000

2.05348143610063e+005,-1.39837793325685e+001,-3.30197166082840e+000

2.08214696870707e+005,-1.39839799527647e+001,-3.34728841800889e+000

2.11121265723661e+005,-1.39841831652028e+001,-3.39321812217525e+000

2.14068408765776e+005,-1.39843889491448e+001,-3.43976909721154e+000

2.17056692391625e+005,-1.39845972819793e+001,-3.48694979333995e+000

2.20086690902357e+005,-1.39848081392415e+001,-3.53476878950460e+000

2.23158986616063e+005,-1.39850214946393e+001,-3.58323479578678e+000

2.26274169979693e+005,-1.39852373200844e+001,-3.63235665584612e+000

2.29432839682530e+005,-1.39854555857302e+001,-3.68214334938767e+000

2.32635602771247e+005,-1.39856762600156e+001,-3.73260399465231e+000

2.35883074766574e+005,-1.39858993097143e+001,-3.78374785093114e+000

2.39175879781588e+005,-1.39861246999908e+001,-3.83558432109679e+000

2.42514650641661e+005,-1.39863523944629e+001,-3.88812295415561e+000

2.45900029006080e+005,-1.39865823552693e+001,-3.94137344781380e+000

2.49332665491357e+005,-1.39868145431448e+001,-3.99534565105874e+000

2.52813219796278e+005,-1.39870489175000e+001,-4.05004956675239e+000

2.56342360828676e+005,-1.39872854365085e+001,-4.10549535423295e+000

2.59920766833993e+005,-1.39875240571993e+001,-4.16169333192701e+000

2.63549125525621e+005,-1.39877647355551e+001,-4.21865397996518e+000

2.67228134217075e+005,-1.39880074266162e+001,-4.27638794280418e+000

2.70958499956006e+005,-1.39882520845901e+001,-4.33490603184872e+000

2.74740939660078e+005,-1.39884986629663e+001,-4.39421922807662e+000

2.78576180254757e+005,-1.39887471146360e+001,-4.45433868466032e+000

2.82464958813007e+005,-1.39889973920171e+001,-4.51527572958685e+000

2.86408022696948e+005,-1.39892494471833e+001,-4.57704186827314e+000

2.90406129701488e+005,-1.39895032319971e+001,-4.63964878617711e+000

2.94460048199957e+005,-1.39897586982481e+001,-4.70310835140010e+000

2.98570557291775e+005,-1.39900157977933e+001,-4.76743261728258e+000

3.02738446952187e+005,-1.39902744827021e+001,-4.83263382499188e+000

3.06964518184081e+005,-1.39905347054032e+001,-4.89872440609943e+000

3.11249583171928e+005,-1.39907964188346e+001,-4.96571698514956e+000

3.15594465437872e+005,-1.39910595765959e+001,-5.03362438221619e+000

3.19999999999997e+005,-1.39913241331017e+001,-5.10245961545199e+000

3.24467033532806e+005,-1.39915900437377e+001,-5.17223590362482e+000

3.28996424529938e+005,-1.39918572650162e+001,-5.24296666864573e+000

3.33589043469155e+005,-1.39921257547338e+001,-5.31466553808698e+000

3.38245772979638e+005,-1.39923954721283e+001,-5.38734634769091e+000

3.42967508011610e+005,-1.39926663780361e+001,-5.46102314387102e+000

3.47755156008335e+005,-1.39929384350484e+001,-5.53571018620668e+000

3.52609637080511e+005,-1.39932116076676e+001,-5.61142194993084e+000

3.57531884183106e+005,-1.39934858624610e+001,-5.68817312841466e+000

3.62522843294651e+005,-1.39937611682146e+001,-5.76597863564804e+000

3.67583473599047e+005,-1.39940374960832e+001,-5.84485360872029e+000

3.72714747669902e+005,-1.39943148197399e+001,-5.92481341030160e+000

3.77917651657445e+005,-1.39945931155219e+001,-6.00587363112664e+000

3.83193185478053e+005,-1.39948723625738e+001,-6.08805009248438e+000

3.88542363006410e+005,-1.39951525429885e+001,-6.17135884871472e+000

3.93966212270369e+005,-1.39954336419436e+001,-6.25581618971583e+000

3.99465775648511e+005,-1.39957156478353e+001,-6.34143864346389e+000

4.05042110070485e+005,-1.39959985524079e+001,-6.42824297854795e+000

4.10696287220124e+005,-1.39962823508803e+001,-6.51624620672291e+000

4.16429393741414e+005,-1.39965670420673e+001,-6.60546558548326e+000

4.22242531447321e+005,-1.39968526284981e+001,-6.69591862066130e+000

4.28136817531551e+005,-1.39971391165296e+001,-6.78762306905110e+000

4.34113384783250e+005,-1.39974265164563e+001,-6.88059694106237e+000

4.40173381804713e+005,-1.39977148426150e+001,-6.97485850340743e+000

4.46317973232124e+005,-1.39980041134866e+001,-7.07042628182262e+000

4.52548339959385e+005,-1.39982943517919e+001,-7.16731906382931e+000

4.58865679365059e+005,-1.39985855845853e+001,-7.26555590153583e+000

4.65271205542494e+005,-1.39988778433425e+001,-7.36515611448298e+000

4.71766149533147e+005,-1.39991711640455e+001,-7.46613929253785e+000

4.78351759563174e+005,-1.39994655872632e+001,-7.56852529883642e+000

4.85029301283321e+005,-1.39997611582285e+001,-7.67233427277962e+000

4.91800058012158e+005,-1.40000579269115e+001,-7.77758663308402e+000

4.98665330982714e+005,-1.40003559480898e+001,-7.88430308089031e+000

5.05626439592555e+005,-1.40006552814154e+001,-7.99250460293205e+000

5.12684721657352e+005,-1.40009559914787e+001,-8.10221247476766e+000

5.19841533667984e+005,-1.40012581478697e+001,-8.21344826407572e+000

5.27098251051240e+005,-1.40015618252368e+001,-8.32623383401947e+000

5.34456268434150e+005,-1.40018671033438e+001,-8.44059134667799e+000

5.41916999912011e+005,-1.40021740671242e+001,-8.55654326655042e+000

