Freq.,VOut,OutRef

1.00000000000000e+004,-1.39497590950625e+001,-1.23370117709795e-001

1.01395947979003e+004,-1.39497616077710e+001,-1.25091775616028e-001

1.02811382665607e+004,-1.39497641909765e+001,-1.26837444717935e-001

1.04246576084112e+004,-1.39497668466528e+001,-1.28607459256713e-001

1.05701804056138e+004,-1.39497695768289e+001,-1.30402158097996e-001

1.07177346253629e+004,-1.39497723835898e+001,-1.32221884798901e-001

1.08673486252606e+004,-1.39497752690790e+001,-1.34066987667168e-001

1.10190511587661e+004,-1.39497782354995e+001,-1.35937819828456e-001

1.11728713807222e+004,-1.39497812851158e+001,-1.37834739290133e-001

1.13288388529580e+004,-1.39497844202553e+001,-1.39758109009369e-001

1.14869835499703e+004,-1.39497876433104e+001,-1.41708296956921e-001

1.16473358646846e+004,-1.39497909567396e+001,-1.43685676190430e-001

1.18099266142953e+004,-1.39497943630704e+001,-1.45690624915252e-001

1.19747870461893e+004,-1.39497978649002e+001,-1.47723526562046e-001

1.21419488439505e+004,-1.39498014648988e+001,-1.49784769851846e-001

1.23114441334492e+004,-1.39498051658100e+001,-1.51874748870704e-001

1.24833054890161e+004,-1.39498089704541e+001,-1.53993863137685e-001

1.26575659397028e+004,-1.39498128817293e+001,-1.56142517684820e-001

1.28342589756290e+004,-1.39498169026147e+001,-1.58321123123526e-001

1.30134185544193e+004,-1.39498210361720e+001,-1.60530095724868e-001

1.31950791077289e+004,-1.39498252855475e+001,-1.62769857494145e-001

1.33792755478611e+004,-1.39498296539754e+001,-1.65040836244563e-001

1.35660432744767e+004,-1.39498341447788e+001,-1.67343465681365e-001

1.37554181813974e+004,-1.39498387613733e+001,-1.69678185474506e-001

1.39474366635040e+004,-1.39498435072694e+001,-1.72045441339588e-001

1.41421356237309e+004,-1.39498483860741e+001,-1.74445685122784e-001

1.43395524801583e+004,-1.39498534014949e+001,-1.76879374875394e-001

1.45397251732031e+004,-1.39498585573414e+001,-1.79346974942097e-001

1.47426921729110e+004,-1.39498638575287e+001,-1.81848956042127e-001

1.49484924863494e+004,-1.39498693060800e+001,-1.84385795354485e-001

1.51571656651040e+004,-1.39498749071302e+001,-1.86957976600395e-001

1.53687518128801e+004,-1.39498806649276e+001,-1.89565990135169e-001

1.55832915932100e+004,-1.39498865838381e+001,-1.92210333032396e-001

1.58008262372675e+004,-1.39498926683480e+001,-1.94891509172099e-001

1.60213975517924e+004,-1.39498989230673e+001,-1.97610029331188e-001

1.62450479271247e+004,-1.39499053527331e+001,-2.00366411274239e-001

1.64718203453514e+004,-1.39499119622127e+001,-2.03161179844623e-001

1.67017583885674e+004,-1.39499187565075e+001,-2.05994867057424e-001

1.69349062472505e+004,-1.39499257407565e+001,-2.08868012192289e-001

1.71713087287550e+004,-1.39499329202398e+001,-2.11781161889694e-001

1.74110112659224e+004,-1.39499403003825e+001,-2.14734870245672e-001

1.76540599258131e+004,-1.39499478867592e+001,-2.17729698904964e-001

1.79005014185594e+004,-1.39499556850967e+001,-2.20766217167755e-001

1.81503831063432e+004,-1.39499637012788e+001,-2.23845002081173e-001

1.84037530124975e+004,-1.39499719413512e+001,-2.26966638539467e-001

1.86606598307361e+004,-1.39499804115243e+001,-2.30131719389357e-001

1.89211529345119e+004,-1.39499891181788e+001,-2.33340845526996e-001

1.91852823865052e+004,-1.39499980678696e+001,-2.36594626006721e-001

1.94530989482457e+004,-1.39500072673307e+001,-2.39893678138967e-001

1.97246540898671e+004,-1.39500167234797e+001,-2.43238627601271e-001

1.99999999999999e+004,-1.39500264434231e+001,-2.46630108538780e-001

2.02791895958005e+004,-1.39500364344605e+001,-2.50068763677369e-001

2.05622765331213e+004,-1.39500467040906e+001,-2.53555244428212e-001

2.08493152168224e+004,-1.39500572600154e+001,-2.57090210999333e-001

2.11403608112276e+004,-1.39500681101469e+001,-2.60674332502453e-001

2.14354692507258e+004,-1.39500792626110e+001,-2.64308287069720e-001

2.17346972505211e+004,-1.39500907257545e+001,-2.67992761962352e-001

2.20381023175322e+004,-1.39501025081496e+001,-2.71728453686672e-001

2.23457427614443e+004,-1.39501146186009e+001,-2.75516068106786e-001

2.26576777059159e+004,-1.39501270661505e+001,-2.79356320560805e-001

2.29739670999406e+004,-1.39501398600849e+001,-2.83249935978507e-001

2.32946717293690e+004,-1.39501530099406e+001,-2.87197648997576e-001

2.36198532285905e+004,-1.39501665255109e+001,-2.91200204083594e-001

2.39495740923785e+004,-1.39501804168527e+001,-2.95258355647940e-001

2.42838976879009e+004,-1.39501946942927e+001,-2.99372868170185e-001

2.46228882668982e+004,-1.39502093684346e+001,-3.03544516319233e-001

2.49666109780322e+004,-1.39502244501663e+001,-3.07774085073244e-001

2.53151318794055e+004,-1.39502399506665e+001,-3.12062369848650e-001

2.56685179512580e+004,-1.39502558814129e+001,-3.16410176617298e-001

2.60268371088386e+004,-1.39502722541888e+001,-3.20818322038725e-001

2.63901582154578e+004,-1.39502890810918e+001,-3.25287633579782e-001

2.67585510957221e+004,-1.39503063745405e+001,-3.29818949647098e-001

2.71320865489533e+004,-1.39503241472834e+001,-3.34413119711267e-001

2.75108363627948e+004,-1.39503424124067e+001,-3.39071004436670e-001

2.78948733270080e+004,-1.39503611833428e+001,-3.43793475810928e-001

2.82842712474618e+004,-1.39503804738788e+001,-3.48581417272934e-001

2.86791049603164e+004,-1.39504002981648e+001,-3.53435723848208e-001

2.90794503464061e+004,-1.39504206707235e+001,-3.58357302275470e-001

2.94853843458219e+004,-1.39504416064586e+001,-3.63347071140966e-001

2.98969849726987e+004,-1.39504631206644e+001,-3.68405961012886e-001

3.03143313302078e+004,-1.39504852290349e+001,-3.73534914571289e-001

3.07375036257601e+004,-1.39505079476737e+001,-3.78734886744316e-001

3.11665831864199e+004,-1.39505312931035e+001,-3.84006844843248e-001

3.16016524745350e+004,-1.39505552822764e+001,-3.89351768693998e-001

3.20427951035848e+004,-1.39505799325832e+001,-3.94770650777230e-001

3.24900958542493e+004,-1.39506052618648e+001,-4.00264496360034e-001

3.29436406907028e+004,-1.39506312884217e+001,-4.05834323635395e-001

3.34035167771346e+004,-1.39506580310255e+001,-4.11481163854632e-001

3.38698124945009e+004,-1.39506855089288e+001,-4.17206061469127e-001

3.43426174575100e+004,-1.39507137418768e+001,-4.23010074263634e-001

3.48220225318448e+004,-1.39507427501186e+001,-4.28894273492734e-001

3.53081198516260e+004,-1.39507725544181e+001,-4.34859744020914e-001

3.58010028371187e+004,-1.39508031760657e+001,-4.40907584457484e-001

3.63007662126863e+004,-1.39508346368899e+001,-4.47038907295601e-001

3.68075060249948e+004,-1.39508669592695e+001,-4.53254839046133e-001

3.73213196614721e+004,-1.39509001661450e+001,-4.59556520378383e-001

3.78423058690237e+004,-1.39509342810311e+001,-4.65945106253108e-001

3.83705647730104e+004,-1.39509693280292e+001,-4.72421766061493e-001

3.89061978964912e+004,-1.39510053318392e+001,-4.78987683760473e-001

3.94493081797342e+004,-1.39510423177728e+001,-4.85644058006431e-001

3.99999999999998e+004,-1.39510803117656e+001,-4.92392102293696e-001

4.05583791916010e+004,-1.39511193403904e+001,-4.99233045084846e-001

4.11245530662425e+004,-1.39511594308697e+001,-5.06168129948148e-001

4.16986304336447e+004,-1.39512006110892e+001,-5.13198615688649e-001

4.22807216224550e+004,-1.39512429096104e+001,-5.20325776479307e-001

4.28709385014515e+004,-1.39512863556843e+001,-5.27550901996030e-001

4.34693945010421e+004,-1.39513309792647e+001,-5.34875297541251e-001

4.40762046350642e+004,-1.39513768110209e+001,-5.42300284181274e-001

4.46914855228886e+004,-1.39514238823517e+001,-5.49827198867111e-001

4.53153554118317e+004,-1.39514722253987e+001,-5.57457394565218e-001

4.59479341998812e+004,-1.39515218730599e+001,-5.65192240379935e-001

4.65893434587380e+004,-1.39515728590027e+001,-5.73033121679074e-001

4.72397064571810e+004,-1.39516252176774e+001,-5.80981440216901e-001

4.78991481847569e+004,-1.39516789843309e+001,-5.89038614251092e-001

4.85677953758016e+004,-1.39517341950201e+001,-5.97206078664379e-001

4.92457765337964e+004,-1.39517908866242e+001,-6.05485285080972e-001

4.99332219560642e+004,-1.39518490968593e+001,-6.13877701978808e-001

5.06302637588109e+004,-1.39519088642897e+001,-6.22384814807533e-001

5.13370359025159e+004,-1.39519702283424e+001,-6.31008126093265e-001

5.20536742176771e+004,-1.39520332293186e+001,-6.39749155550272e-001

5.27803164309155e+004,-1.39520979084064e+001,-6.48609440186678e-001

5.35171021914442e+004,-1.39521643076932e+001,-6.57590534407306e-001

5.42641730979066e+004,-1.39522324701776e+001,-6.66694010114801e-001

5.50216727255895e+004,-1.39523024397808e+001,-6.75921456807531e-001

5.57897466540159e+004,-1.39523742613577e+001,-6.85274481677099e-001

5.65685424949235e+004,-1.39524479807083e+001,-6.94754709698056e-001

5.73582099206328e+004,-1.39525236445873e+001,-7.04363783720969e-001

5.81589006928121e+004,-1.39526013007151e+001,-7.14103364556610e-001

5.89707686916437e+004,-1.39526809977861e+001,-7.23975131062547e-001

5.97939699453972e+004,-1.39527627854782e+001,-7.33980780222255e-001

6.06286626604156e+004,-1.39528467144609e+001,-7.44122027223131e-001

6.14750072515201e+004,-1.39529328364026e+001,-7.54400605533186e-001

6.23331663728396e+004,-1.39530212039777e+001,-7.64818266968018e-001

6.32033049490698e+004,-1.39531118708729e+001,-7.75376781763172e-001

6.40855902071694e+004,-1.39532048917913e+001,-7.86077938637869e-001

6.49801917084985e+004,-1.39533003224579e+001,-7.96923544855555e-001

6.58872813814055e+004,-1.39533982196225e+001,-8.07915426282642e-001

6.68070335542691e+004,-1.39534986410614e+001,-8.19055427446287e-001

6.77396249890018e+004,-1.39536016455793e+001,-8.30345411582451e-001

6.86852349150199e+004,-1.39537072930091e+001,-8.41787260686538e-001

6.96440450636895e+004,-1.39538156442103e+001,-8.53382875561252e-001

7.06162397032520e+004,-1.39539267610667e+001,-8.65134175855679e-001

7.16020056742374e+004,-1.39540407064822e+001,-8.77043100108856e-001

7.26015324253724e+004,-1.39541575443753e+001,-8.89111605785535e-001

7.36150120499896e+004,-1.39542773396721e+001,-9.01341669310385e-001

7.46426393229441e+004,-1.39544001582974e+001,-9.13735286102213e-001

7.56846117380472e+004,-1.39545260671640e+001,-9.26294470604766e-001

7.67411295460207e+004,-1.39546551341607e+001,-9.39021256311714e-001

7.78123957929823e+004,-1.39547874281373e+001,-9.51917695797765e-001

7.88986163594682e+004,-1.39549230188888e+001,-9.64985860742350e-001

7.99999999999995e+004,-1.39550619771367e+001,-9.78227841954453e-001

8.11167583832018e+004,-1.39552043745077e+001,-9.91645749397191e-001

8.22491061324848e+004,-1.39553502835112e+001,-1.00524171221184e+000

8.33972608672892e+004,-1.39554997775134e+001,-1.01901787874079e+000

8.45614432449099e+004,-1.39556529307089e+001,-1.03297641655580e+000

8.57418770029029e+004,-1.39558098180902e+001,-1.04711951248070e+000

8.69387890020841e+004,-1.39559705154138e+001,-1.06144937262400e+000

8.81524092701283e+004,-1.39561350991639e+001,-1.07596822240661e+000

8.93829710457770e+004,-1.39563036465127e+001,-1.09067830659855e+000

9.06307108236633e+004,-1.39564762352779e+001,-1.10558188935593e+000

9.18958683997622e+004,-1.39566529438768e+001,-1.12068125426601e+000

9.31786869174758e+004,-1.39568338512774e+001,-1.13597870439543e+000

9.44794129143618e+004,-1.39570190369453e+001,-1.15147656234661e+000

9.57982963695136e+004,-1.39572085807884e+001,-1.16717717032047e+000

9.71355907516031e+004,-1.39574025630966e+001,-1.18308289018926e+000

9.84915530675926e+004,-1.39576010644787e+001,-1.19919610357827e+000

9.98664439121282e+004,-1.39578041657949e+001,-1.21551921195979e+000

1.01260527517622e+005,-1.39580119480861e+001,-1.23205463675723e+000

1.02674071805032e+005,-1.39582244924984e+001,-1.24880481946411e+000

1.04107348435354e+005,-1.39584418802044e+001,-1.26577222177760e+000

1.05560632861831e+005,-1.39586641923194e+001,-1.28295932574888e+000

1.07034204382888e+005,-1.39588915098142e+001,-1.30036863395065e+000

1.08528346195813e+005,-1.39591239134234e+001,-1.31800266966512e+000

1.10043345451179e+005,-1.39593614835493e+001,-1.33586397709125e+000

1.11579493308032e+005,-1.39596043001616e+001,-1.35395512157550e+000

1.13137084989847e+005,-1.39598524426926e+001,-1.37227868986918e+000

1.14716419841265e+005,-1.39601059899283e+001,-1.39083729040945e+000

1.16317801385624e+005,-1.39603650198945e+001,-1.40963355363007e+000

1.17941537383287e+005,-1.39606296097395e+001,-1.42867013230116e+000

1.19587939890794e+005,-1.39608998356119e+001,-1.44794970190316e+000

1.21257325320831e+005,-1.39611757725336e+001,-1.46747496103368e+000

1.22950014503040e+005,-1.39614574942696e+001,-1.48724863185231e+000

1.24666332745679e+005,-1.39617450731930e+001,-1.50727346056091e+000

1.26406609898139e+005,-1.39620385801464e+001,-1.52755221792934e+000

1.28171180414339e+005,-1.39623380842983e+001,-1.54808769986044e+000

1.29960383416997e+005,-1.39626436529971e+001,-1.56888272800269e+000

1.31774562762811e+005,-1.39629553516206e+001,-1.58994015040912e+000

1.33614067108538e+005,-1.39632732434222e+001,-1.61126284224656e+000

1.35479249978003e+005,-1.39635973893736e+001,-1.63285370655881e+000

1.37370469830040e+005,-1.39639278480050e+001,-1.65471567508041e+000

1.39288090127379e+005,-1.39642646752420e+001,-1.67685170911207e+000

1.41232479406504e+005,-1.39646079242400e+001,-1.69926480045100e+000

1.43204011348474e+005,-1.39649576452170e+001,-1.72195797238537e+000

1.45203064850745e+005,-1.39653138852836e+001,-1.74493428074995e+000

1.47230024099979e+005,-1.39656766882722e+001,-1.76819681504953e+000

1.49285278645888e+005,-1.39660460945645e+001,-1.79174869964676e+000

1.51369223476094e+005,-1.39664221409188e+001,-1.81559309502304e+000

1.53482259092041e+005,-1.39668048602965e+001,-1.83973319910736e+000

1.55624791585964e+005,-1.39671942816889e+001,-1.86417224868100e+000

1.57797232718936e+005,-1.39675904299450e+001,-1.88891352085309e+000

1.59999999999999e+005,-1.39679933255997e+001,-1.91396033461565e+000

1.62233516766403e+005,-1.39684029847044e+001,-1.93931605247328e+000

1.64498212264969e+005,-1.39688194186594e+001,-1.96498408215237e+000

1.66794521734578e+005,-1.39692426340496e+001,-1.99096787838801e+000

1.69122886489819e+005,-1.39696726324829e+001,-2.01727094479198e+000

1.71483754005805e+005,-1.39701094104330e+001,-2.04389683579917e+000

1.73877578004168e+005,-1.39705529590876e+001,-2.07084915869601e+000

1.76304818540256e+005,-1.39710032642003e+001,-2.09813157572782e+000

1.78765942091554e+005,-1.39714603059504e+001,-2.12574780628523e+000

1.81261421647326e+005,-1.39719240588077e+001,-2.15370162917224e+000

1.83791736799524e+005,-1.39723944914059e+001,-2.18199688494954e+000

1.86357373834951e+005,-1.39728715664233e+001,-2.21063747835659e+000

1.88958825828723e+005,-1.39733552404724e+001,-2.23962738080937e+000

1.91596592739027e+005,-1.39738454639994e+001,-2.26897063296929e+000

1.94271181503206e+005,-1.39743421811929e+001,-2.29867134738670e+000

1.96983106135185e+005,-1.39748453299039e+001,-2.32873371121013e+000

1.99732887824256e+005,-1.39753548415773e+001,-2.35916198896359e+000

2.02521055035243e+005,-1.39758706411956e+001,-2.38996052538559e+000

2.05348143610063e+005,-1.39763926472339e+001,-2.42113374832727e+000

2.08214696870707e+005,-1.39769207716304e+001,-2.45268617170597e+000

2.11121265723661e+005,-1.39774549197686e+001,-2.48462239851055e+000

2.14068408765776e+005,-1.39779949904752e+001,-2.51694712385221e+000

2.17056692391625e+005,-1.39785408760321e+001,-2.54966513805774e+000

2.20086690902357e+005,-1.39790924622038e+001,-2.58278132979923e+000

2.23158986616063e+005,-1.39796496282805e+001,-2.61630068925625e+000

2.26274169979693e+005,-1.39802122471373e+001,-2.65022831130190e+000

2.29432839682530e+005,-1.39807801853093e+001,-2.68456939870963e+000

2.32635602771247e+005,-1.39813533030833e+001,-2.71932926537555e+000

2.35883074766574e+005,-1.39819314546066e+001,-2.75451333954547e+000

2.39175879781588e+005,-1.39825144880118e+001,-2.79012716704516e+000

2.42514650641661e+005,-1.39831022455589e+001,-2.82617641450565e+000

2.45900029006080e+005,-1.39836945637938e+001,-2.86266687257559e+000

2.49332665491357e+005,-1.39842912737239e+001,-2.89960445911669e+000

2.52813219796278e+005,-1.39848922010099e+001,-2.93699522237175e+000

2.56342360828676e+005,-1.39854971661731e+001,-2.97484534410486e+000

2.59920766833993e+005,-1.39861059848201e+001,-3.01316114269983e+000

2.63549125525621e+005,-1.39867184678817e+001,-3.05194907621662e+000

2.67228134217075e+005,-1.39873344218669e+001,-3.09121574539505e+000

2.70958499956006e+005,-1.39879536491321e+001,-3.13096789660311e+000

2.74740939660078e+005,-1.39885759481634e+001,-3.17121242472132e+000

2.78576180254757e+005,-1.39892011138722e+001,-3.21195637595893e+000

2.82464958813007e+005,-1.39898289379030e+001,-3.25320695059667e+000

2.86408022696948e+005,-1.39904592089537e+001,-3.29497150564913e+000

2.90406129701488e+005,-1.39910917131049e+001,-3.33725755744613e+000

2.94460048199957e+005,-1.39917262341604e+001,-3.38007278412363e+000

2.98570557291775e+005,-1.39923625539958e+001,-3.42342502802456e+000

3.02738446952187e+005,-1.39930004529146e+001,-3.46732229800536e+000

3.06964518184081e+005,-1.39936397100120e+001,-3.51177277164144e+000

3.11249583171928e+005,-1.39942801035424e+001,-3.55678479733699e+000

3.15594465437872e+005,-1.39949214112933e+001,-3.60236689632915e+000

3.19999999999997e+005,-1.39955634109609e+001,-3.64852776458997e+000

3.24467033532806e+005,-1.39962058805290e+001,-3.69527627462460e+000

3.28996424529938e+005,-1.39968485986473e+001,-3.74262147716442e+000

3.33589043469155e+005,-1.39974913450110e+001,-3.79057260275703e+000

3.38245772979638e+005,-1.39981339007380e+001,-3.83913906325130e+000

3.42967508011610e+005,-1.39987760487433e+001,-3.88833045318350e+000

3.47755156008335e+005,-1.39994175741100e+001,-3.93815655106183e+000

3.52609637080511e+005,-1.40000582644556e+001,-3.98862732055328e+000

3.57531884183106e+005,-1.40006979102914e+001,-4.03975291157903e+000

3.62522843294651e+005,-1.40013363053756e+001,-4.09154366131727e+000

3.67583473599047e+005,-1.40019732470579e+001,-4.14401009511980e+000

3.72714747669902e+005,-1.40026085366151e+001,-4.19716292734802e+000

3.77917651657445e+005,-1.40032419795763e+001,-4.25101306213097e+000

3.83193185478053e+005,-1.40038733860379e+001,-4.30557159405155e+000

3.88542363006410e+005,-1.40045025709665e+001,-4.36084980876806e+000

3.93966212270369e+005,-1.40051293544888e+001,-4.41685918357417e+000

3.99465775648511e+005,-1.40057535621698e+001,-4.47361138790645e+000

4.05042110070485e+005,-1.40063750252755e+001,-4.53111828380569e+000

4.10696287220124e+005,-1.40069935810229e+001,-4.58939192633557e+000

4.16429393741414e+005,-1.40076090728143e+001,-4.64844456397013e+000

4.22242531447321e+005,-1.40082213504567e+001,-4.70828863895530e+000

4.28136817531551e+005,-1.40088302703658e+001,-4.76893678764938e+000

4.34113384783250e+005,-1.40094356957550e+001,-4.83040184085410e+000

4.40173381804713e+005,-1.40100374968071e+001,-4.89269682414020e+000

4.46317973232124e+005,-1.40106355508316e+001,-4.95583495817647e+000

4.52548339959385e+005,-1.40112297424049e+001,-5.01982965906836e+000

4.58865679365059e+005,-1.40118199634958e+001,-5.08469453871390e+000

4.65271205542494e+005,-1.40124061135740e+001,-5.15044340518437e+000

4.71766149533147e+005,-1.40129880997038e+001,-5.21709026313595e+000

4.78351759563174e+005,-1.40135658366225e+001,-5.28464931425891e+000

4.85029301283321e+005,-1.40141392468034e+001,-5.35313495777116e+000

4.91800058012158e+005,-1.40147082605045e+001,-5.42256179096218e+000

4.98665330982714e+005,-1.40152728158026e+001,-5.49294460979478e+000

5.05626439592555e+005,-1.40158328586139e+001,-5.56429840956711e+000

5.12684721657352e+005,-1.40163883427015e+001,-5.63663838564418e+000

5.19841533667984e+005,-1.40169392296696e+001,-5.70997993426100e+000

5.27098251051240e+005,-1.40174854889461e+001,-5.78433865340444e+000

5.34456268434150e+005,-1.40180270977535e+001,-5.85973034377688e+000

5.41916999912011e+005,-1.40185640410688e+001,-5.93617100984619e+000

