Freq.,VOut,OutRef

1.00000000000000e+004,-1.82887292502809e+001,-1.61481926009185e-001

1.01395947979003e+004,-1.82887320487516e+001,-1.63735576171322e-001

1.02811382665607e+004,-1.82887349257455e+001,-1.66020662644543e-001

1.04246576084112e+004,-1.82887378834617e+001,-1.68337623268885e-001

1.05701804056138e+004,-1.82887409241604e+001,-1.70686901954049e-001

1.07177346253629e+004,-1.82887440501650e+001,-1.73068948762546e-001

1.08673486252606e+004,-1.82887472638635e+001,-1.75484219994557e-001

1.10190511587661e+004,-1.82887505677103e+001,-1.77933178273020e-001

1.11728713807222e+004,-1.82887539642286e+001,-1.80416292627309e-001

1.13288388529580e+004,-1.82887574560117e+001,-1.82934038582993e-001

1.14869835499703e+004,-1.82887610457247e+001,-1.85486898252208e-001

1.16473358646846e+004,-1.82887647361077e+001,-1.88075360416848e-001

1.18099266142953e+004,-1.82887685299765e+001,-1.90699920627513e-001

1.19747870461893e+004,-1.82887724302253e+001,-1.93361081288350e-001

1.21419488439505e+004,-1.82887764398292e+001,-1.96059351754382e-001

1.23114441334492e+004,-1.82887805618454e+001,-1.98795248426246e-001

1.24833054890161e+004,-1.82887847994167e+001,-2.01569294841345e-001

1.26575659397028e+004,-1.82887891557729e+001,-2.04382021775440e-001

1.28342589756290e+004,-1.82887936342337e+001,-2.07233967337787e-001

1.30134185544193e+004,-1.82887982382108e+001,-2.10125677072232e-001

1.31950791077289e+004,-1.82888029712108e+001,-2.13057704055794e-001

1.33792755478611e+004,-1.82888078368375e+001,-2.16030609002130e-001

1.35660432744767e+004,-1.82888128387948e+001,-2.19044960363808e-001

1.37554181813974e+004,-1.82888179808893e+001,-2.22101334435211e-001

1.39474366635040e+004,-1.82888232670331e+001,-2.25200315460777e-001

1.41421356237309e+004,-1.82888287012468e+001,-2.28342495740640e-001

1.43395524801583e+004,-1.82888342876622e+001,-2.31528475738637e-001

1.45397251732031e+004,-1.82888400305255e+001,-2.34758864192918e-001

1.47426921729110e+004,-1.82888459342007e+001,-2.38034278224863e-001

1.49484924863494e+004,-1.82888520031723e+001,-2.41355343454625e-001

1.51571656651040e+004,-1.82888582420488e+001,-2.44722694110997e-001

1.53687518128801e+004,-1.82888646555661e+001,-2.48136973150350e-001

1.55832915932100e+004,-1.82888712485911e+001,-2.51598832368613e-001

1.58008262372675e+004,-1.82888780261249e+001,-2.55108932523578e-001

1.60213975517924e+004,-1.82888849933064e+001,-2.58667943453268e-001

1.62450479271247e+004,-1.82888921554170e+001,-2.62276544191169e-001

1.64718203453514e+004,-1.82888995178829e+001,-2.65935423097532e-001

1.67017583885674e+004,-1.82889070862803e+001,-2.69645277975509e-001

1.69349062472505e+004,-1.82889148663386e+001,-2.73406816200177e-001

1.71713087287550e+004,-1.82889228639452e+001,-2.77220754842965e-001

1.74110112659224e+004,-1.82889310851492e+001,-2.81087820800241e-001

1.76540599258131e+004,-1.82889395361662e+001,-2.85008750923137e-001

1.79005014185594e+004,-1.82889482233822e+001,-2.88984292149156e-001

1.81503831063432e+004,-1.82889571533589e+001,-2.93015201631597e-001

1.84037530124975e+004,-1.82889663328377e+001,-2.97102246877713e-001

1.86606598307361e+004,-1.82889757687450e+001,-3.01246205879856e-001

1.89211529345119e+004,-1.82889854681968e+001,-3.05447867257282e-001

1.91852823865052e+004,-1.82889954385041e+001,-3.09708030389396e-001

1.94530989482457e+004,-1.82890056871775e+001,-3.14027505559911e-001

1.97246540898671e+004,-1.82890162219333e+001,-3.18407114095968e-001

1.99999999999999e+004,-1.82890270506982e+001,-3.22847688512733e-001

2.02791895958005e+004,-1.82890381816153e+001,-3.27350072658020e-001

2.05622765331213e+004,-1.82890496230499e+001,-3.31915121856384e-001

2.08493152168224e+004,-1.82890613835949e+001,-3.36543703058538e-001

2.11403608112276e+004,-1.82890734720771e+001,-3.41236694992677e-001

2.14354692507258e+004,-1.82890858975634e+001,-3.45994988310909e-001

2.17346972505211e+004,-1.82890986693670e+001,-3.50819485744660e-001

2.20381023175322e+004,-1.82891117970535e+001,-3.55711102258914e-001

2.23457427614443e+004,-1.82891252904485e+001,-3.60670765204633e-001

2.26576777059159e+004,-1.82891391596427e+001,-3.65699414481523e-001

2.29739670999406e+004,-1.82891534150009e+001,-3.70798002689240e-001

2.32946717293690e+004,-1.82891680671669e+001,-3.75967495294831e-001

2.36198532285905e+004,-1.82891831270725e+001,-3.81208870789682e-001

2.39495740923785e+004,-1.82891986059440e+001,-3.86523120854905e-001

2.42838976879009e+004,-1.82892145153098e+001,-3.91911250525648e-001

2.46228882668982e+004,-1.82892308670087e+001,-3.97374278356789e-001

2.49666109780322e+004,-1.82892476731971e+001,-4.02913236592891e-001

2.53151318794055e+004,-1.82892649463575e+001,-4.08529171336055e-001

2.56685179512580e+004,-1.82892826993072e+001,-4.14223142715524e-001

2.60268371088386e+004,-1.82893009452059e+001,-4.19996225062794e-001

2.63901582154578e+004,-1.82893196975650e+001,-4.25849507085077e-001

2.67585510957221e+004,-1.82893389702560e+001,-4.31784092038448e-001

2.71320865489533e+004,-1.82893587775201e+001,-4.37801097907892e-001

2.75108363627948e+004,-1.82893791339771e+001,-4.43901657581650e-001

2.78948733270080e+004,-1.82894000546348e+001,-4.50086919034120e-001

2.82842712474618e+004,-1.82894215548986e+001,-4.56358045506858e-001

2.86791049603164e+004,-1.82894436505817e+001,-4.62716215687769e-001

2.90794503464061e+004,-1.82894663579147e+001,-4.69162623898958e-001

2.94853843458219e+004,-1.82894896935561e+001,-4.75698480279143e-001

2.98969849726987e+004,-1.82895136746027e+001,-4.82325010970969e-001

3.03143313302078e+004,-1.82895383186003e+001,-4.89043458308252e-001

3.07375036257601e+004,-1.82895636435545e+001,-4.95855081005876e-001

3.11665831864199e+004,-1.82895896679417e+001,-5.02761154348579e-001

3.16016524745350e+004,-1.82896164107204e+001,-5.09762970385028e-001

3.20427951035848e+004,-1.82896438913431e+001,-5.16861838115024e-001

3.24900958542493e+004,-1.82896721297675e+001,-5.24059083689370e-001

3.29436406907028e+004,-1.82897011464685e+001,-5.31356050599990e-001

3.34035167771346e+004,-1.82897309624506e+001,-5.38754099877773e-001

3.38698124945009e+004,-1.82897615992604e+001,-5.46254610287584e-001

3.43426174575100e+004,-1.82897930789982e+001,-5.53858978528253e-001

3.48220225318448e+004,-1.82898254243322e+001,-5.61568619428430e-001

3.53081198516260e+004,-1.82898586585099e+001,-5.69384966148902e-001

3.58010028371187e+004,-1.82898928053730e+001,-5.77309470378822e-001

3.63007662126863e+004,-1.82899278893691e+001,-5.85343602540438e-001

3.68075060249948e+004,-1.82899639355666e+001,-5.93488851988289e-001

3.73213196614721e+004,-1.82900009696676e+001,-6.01746727212917e-001

3.78423058690237e+004,-1.82900390180225e+001,-6.10118756041986e-001

3.83705647730104e+004,-1.82900781076438e+001,-6.18606485844910e-001

3.89061978964912e+004,-1.82901182662205e+001,-6.27211483736486e-001

3.94493081797342e+004,-1.82901595221329e+001,-6.35935336779153e-001

3.99999999999998e+004,-1.82902019044670e+001,-6.44779652189806e-001

4.05583791916010e+004,-1.82902454430292e+001,-6.53746057543218e-001

4.11245530662425e+004,-1.82902901683619e+001,-6.62836200976883e-001

4.16986304336447e+004,-1.82903361117584e+001,-6.72051751395353e-001

4.22807216224550e+004,-1.82903833052779e+001,-6.81394398677223e-001

4.28709385014515e+004,-1.82904317817613e+001,-6.90865853877022e-001

4.34693945010421e+004,-1.82904815748469e+001,-7.00467849431444e-001

4.40762046350642e+004,-1.82905327189857e+001,-7.10202139364155e-001

4.46914855228886e+004,-1.82905852494571e+001,-7.20070499488269e-001

4.53153554118317e+004,-1.82906392023853e+001,-7.30074727611884e-001

4.59479341998812e+004,-1.82906946147545e+001,-7.40216643740302e-001

4.65893434587380e+004,-1.82907515244255e+001,-7.50498090278622e-001

4.72397064571810e+004,-1.82908099701512e+001,-7.60920932234277e-001

4.78991481847569e+004,-1.82908699915929e+001,-7.71487057416774e-001

4.85677953758016e+004,-1.82909316293357e+001,-7.82198376640979e-001

4.92457765337964e+004,-1.82909949249055e+001,-7.93056823923022e-001

4.99332219560642e+004,-1.82910599207837e+001,-8.04064356681437e-001

5.06302637588109e+004,-1.82911266604240e+001,-8.15222955932434e-001

5.13370359025159e+004,-1.82911951882674e+001,-8.26534626488418e-001

5.20536742176771e+004,-1.82912655497582e+001,-8.38001397150221e-001

5.27803164309155e+004,-1.82913377913591e+001,-8.49625320902180e-001

5.35171021914442e+004,-1.82914119605666e+001,-8.61408475103717e-001

5.42641730979066e+004,-1.82914881059261e+001,-8.73352961679434e-001

5.50216727255895e+004,-1.82915662770461e+001,-8.85460907309021e-001

5.57897466540159e+004,-1.82916465246133e+001,-8.97734463612637e-001

5.65685424949235e+004,-1.82917289004062e+001,-9.10175807338042e-001

5.73582099206328e+004,-1.82918134573088e+001,-9.22787140543171e-001

5.81589006928121e+004,-1.82919002493241e+001,-9.35570690778055e-001

5.89707686916437e+004,-1.82919893315868e+001,-9.48528711264471e-001

5.97939699453972e+004,-1.82920807603755e+001,-9.61663481074511e-001

6.06286626604156e+004,-1.82921745931243e+001,-9.74977305305239e-001

6.14750072515201e+004,-1.82922708884344e+001,-9.88472515251908e-001

6.23331663728396e+004,-1.82923697060836e+001,-1.00215146858180e+000

6.32033049490698e+004,-1.82924711070370e+001,-1.01601654950124e+000

6.40855902071694e+004,-1.82925751534549e+001,-1.03007016892513e+000

6.49801917084985e+004,-1.82926819087017e+001,-1.04431476464052e+000

6.58872813814055e+004,-1.82927914373522e+001,-1.05875280147086e+000

6.68070335542691e+004,-1.82929038051981e+001,-1.07338677143788e+000

6.77396249890018e+004,-1.82930190792530e+001,-1.08821919391967e+000

6.86852349150199e+004,-1.82931373277563e+001,-1.10325261580917e+000

6.96440450636895e+004,-1.82932586201758e+001,-1.11848961166972e+000

7.06162397032520e+004,-1.82933830272088e+001,-1.13393278388887e+000

7.16020056742374e+004,-1.82935106207829e+001,-1.14958476283158e+000

7.26015324253724e+004,-1.82936414740535e+001,-1.16544820699131e+000

7.36150120499896e+004,-1.82937756614017e+001,-1.18152580314016e+000

7.46426393229441e+004,-1.82939132584292e+001,-1.19782026647822e+000

7.56846117380472e+004,-1.82940543419519e+001,-1.21433434078159e+000

7.67411295460207e+004,-1.82941989899920e+001,-1.23107079855182e+000

7.78123957929823e+004,-1.82943472817677e+001,-1.24803244116245e+000

7.88986163594682e+004,-1.82944992976810e+001,-1.26522209900892e+000

7.99999999999995e+004,-1.82946551193036e+001,-1.28264263165667e+000

8.11167583832018e+004,-1.82948148293606e+001,-1.30029692799080e+000

8.22491061324848e+004,-1.82949785117113e+001,-1.31818790636879e+000

8.33972608672892e+004,-1.82951462513283e+001,-1.33631851477441e+000

8.45614432449099e+004,-1.82953181342738e+001,-1.35469173097190e+000

8.57418770029029e+004,-1.82954942476727e+001,-1.37331056266753e+000

8.69387890020841e+004,-1.82956746796841e+001,-1.39217804767252e+000

8.81524092701283e+004,-1.82958595194690e+001,-1.41129725407065e+000

8.93829710457770e+004,-1.82960488571553e+001,-1.43067128039040e+000

9.06307108236633e+004,-1.82962427837997e+001,-1.45030325578595e+000

9.18958683997622e+004,-1.82964413913466e+001,-1.47019634022346e+000

9.31786869174758e+004,-1.82966447725834e+001,-1.49035372467342e+000

9.44794129143618e+004,-1.82968530210926e+001,-1.51077863131655e+000

9.57982963695136e+004,-1.82970662312007e+001,-1.53147431375359e+000

9.71355907516031e+004,-1.82972844979226e+001,-1.55244405723308e+000

9.84915530675926e+004,-1.82975079169032e+001,-1.57369117888545e+000

9.98664439121282e+004,-1.82977365843550e+001,-1.59521902797319e+000

1.01260527517622e+005,-1.82979705969914e+001,-1.61703098615759e+000

1.02674071805032e+005,-1.82982100519566e+001,-1.63913046777810e+000

1.04107348435354e+005,-1.82984550467511e+001,-1.66152092015218e+000

1.05560632861831e+005,-1.82987056791534e+001,-1.68420582389288e+000

1.07034204382888e+005,-1.82989620471370e+001,-1.70718869324940e+000

1.08528346195813e+005,-1.82992242487842e+001,-1.73047307646679e+000

1.10043345451179e+005,-1.82994923821944e+001,-1.75406255617359e+000

1.11579493308032e+005,-1.82997665453890e+001,-1.77796074979430e+000

1.13137084989847e+005,-1.83000468362120e+001,-1.80217130998743e+000

1.14716419841265e+005,-1.83003333522255e+001,-1.82669792511855e+000

1.16317801385624e+005,-1.83006261906017e+001,-1.85154431976179e+000

1.17941537383287e+005,-1.83009254480103e+001,-1.87671425523521e+000

1.19587939890794e+005,-1.83012312205020e+001,-1.90221153017559e+000

1.21257325320831e+005,-1.83015436033870e+001,-1.92803998114835e+000

1.22950014503040e+005,-1.83018626911101e+001,-1.95420348330080e+000

1.24666332745679e+005,-1.83021885771220e+001,-1.98070595105650e+000

1.26406609898139e+005,-1.83025213537454e+001,-2.00755133885686e+000

1.28171180414339e+005,-1.83028611120388e+001,-2.03474364194910e+000

1.29960383416997e+005,-1.83032079416561e+001,-2.06228689722462e+000

1.31774562762811e+005,-1.83035619307020e+001,-2.09018518411196e+000

1.33614067108538e+005,-1.83039231655855e+001,-2.11844262552115e+000

1.35479249978003e+005,-1.83042917308693e+001,-2.14706338884980e+000

1.37370469830040e+005,-1.83046677091170e+001,-2.17605168704504e+000

1.39288090127379e+005,-1.83050511807374e+001,-2.20541177973235e+000

1.41232479406504e+005,-1.83054422238269e+001,-2.23514797440381e+000

1.43204011348474e+005,-1.83058409140097e+001,-2.26526462767894e+000

1.45203064850745e+005,-1.83062473242771e+001,-2.29576614663069e+000

1.47230024099979e+005,-1.83066615248247e+001,-2.32665699018532e+000

1.49285278645888e+005,-1.83070835828899e+001,-2.35794167059497e+000

1.51369223476094e+005,-1.83075135625884e+001,-2.38962475498697e+000

1.53482259092041e+005,-1.83079515247514e+001,-2.42171086698958e+000

1.55624791585964e+005,-1.83083975267629e+001,-2.45420468843895e+000

1.57797232718936e+005,-1.83088516223989e+001,-2.48711096116534e+000

1.59999999999999e+005,-1.83093138616678e+001,-2.52043448886336e+000

1.62233516766403e+005,-1.83097842906540e+001,-2.55418013904520e+000

1.64498212264969e+005,-1.83102629513632e+001,-2.58835284508037e+000

1.66794521734578e+005,-1.83107498815721e+001,-2.62295760832000e+000

1.69122886489819e+005,-1.83112451146828e+001,-2.65799950030878e+000

1.71483754005805e+005,-1.83117486795810e+001,-2.69348366508346e+000

1.73877578004168e+005,-1.83122606005004e+001,-2.72941532155905e+000

1.76304818540256e+005,-1.83127808968938e+001,-2.76579976600241e+000

1.78765942091554e+005,-1.83133095833102e+001,-2.80264237459325e+000

1.81261421647326e+005,-1.83138466692808e+001,-2.83994860606892e+000

1.83791736799524e+005,-1.83143921592125e+001,-2.87772400445885e+000

1.86357373834951e+005,-1.83149460522916e+001,-2.91597420189849e+000

1.88958825828723e+005,-1.83155083423965e+001,-2.95470492152897e+000

1.91596592739027e+005,-1.83160790180221e+001,-2.99392198047492e+000

1.94271181503206e+005,-1.83166580622145e+001,-3.03363129290235e+000

1.96983106135185e+005,-1.83172454525195e+001,-3.07383887315029e+000

1.99732887824256e+005,-1.83178411609422e+001,-3.11455083893576e+000

2.02521055035243e+005,-1.83184451539215e+001,-3.15577341462801e+000

2.05348143610063e+005,-1.83190573923184e+001,-3.19751293458677e+000

2.08214696870707e+005,-1.83196778314192e+001,-3.23977584656413e+000

2.11121265723661e+005,-1.83203064209540e+001,-3.28256871516097e+000

2.14068408765776e+005,-1.83209431051321e+001,-3.32589822533647e+000

2.17056692391625e+005,-1.83215878226926e+001,-3.36977118596558e+000

2.20086690902357e+005,-1.83222405069740e+001,-3.41419453343657e+000

2.23158986616063e+005,-1.83229010859996e+001,-3.45917533528600e+000

2.26274169979693e+005,-1.83235694825816e+001,-3.50472079386311e+000

2.29432839682530e+005,-1.83242456144441e+001,-3.55083825001875e+000

2.32635602771247e+005,-1.83249293943630e+001,-3.59753518681199e+000

2.35883074766574e+005,-1.83256207303268e+001,-3.64481923322707e+000

2.39175879781588e+005,-1.83263195257142e+001,-3.69269816789567e+000

2.42514650641661e+005,-1.83270256794919e+001,-3.74117992281677e+000

2.45900029006080e+005,-1.83277390864313e+001,-3.79027258706583e+000

2.49332665491357e+005,-1.83284596373436e+001,-3.83998441048988e+000

2.52813219796278e+005,-1.83291872193337e+001,-3.89032380737631e+000

2.56342360828676e+005,-1.83299217160733e+001,-3.94129936009421e+000

2.59920766833993e+005,-1.83306630080909e+001,-3.99291982269678e+000

2.63549125525621e+005,-1.83314109730808e+001,-4.04519412447961e+000

2.67228134217075e+005,-1.83321654862290e+001,-4.09813137348897e+000

2.70958499956006e+005,-1.83329264205554e+001,-4.15174085997285e+000

2.74740939660078e+005,-1.83336936472732e+001,-4.20603205976714e+000

2.78576180254757e+005,-1.83344670361630e+001,-4.26101463761401e+000

2.82464958813007e+005,-1.83352464559615e+001,-4.31669845040440e+000

2.86408022696948e+005,-1.83360317747655e+001,-4.37309355033898e+000

2.90406129701488e+005,-1.83368228604470e+001,-4.43021018800594e+000

2.94460048199957e+005,-1.83376195810820e+001,-4.48805881536613e+000

2.98570557291775e+005,-1.83384218053896e+001,-4.54665008864572e+000

3.02738446952187e+005,-1.83392294031815e+001,-4.60599487113074e+000

3.06964518184081e+005,-1.83400422458205e+001,-4.66610423586070e+000

3.11249583171928e+005,-1.83408602066869e+001,-4.72698946821760e+000

3.15594465437872e+005,-1.83416831616514e+001,-4.78866206841145e+000

3.19999999999997e+005,-1.83425109895541e+001,-4.85113375385767e+000

3.24467033532806e+005,-1.83433435726876e+001,-4.91441646144591e+000

3.28996424529938e+005,-1.83441807972834e+001,-4.97852234970140e+000

3.33589043469155e+005,-1.83450225540001e+001,-5.04346380083808e+000

3.38245772979638e+005,-1.83458687384133e+001,-5.10925342270442e+000

3.42967508011610e+005,-1.83467192515040e+001,-5.17590405062352e+000

3.47755156008335e+005,-1.83475740001467e+001,-5.24342874912855e+000

3.52609637080511e+005,-1.83484328975939e+001,-5.31184081359785e+000

3.57531884183106e+005,-1.83492958639577e+001,-5.38115377179142e+000

3.62522843294651e+005,-1.83501628266868e+001,-5.45138138529173e+000

3.67583473599047e+005,-1.83510337210363e+001,-5.52253765085584e+000

3.72714747669902e+005,-1.83519084905332e+001,-5.59463680167887e+000

3.77917651657445e+005,-1.83527870874321e+001,-5.66769330857861e+000

3.83193185478053e+005,-1.83536694731639e+001,-5.74172188110291e+000

3.88542363006410e+005,-1.83545556187745e+001,-5.81673746856785e+000

3.93966212270369e+005,-1.83554455053545e+001,-5.89275526103153e+000

3.99465775648511e+005,-1.83563391244572e+001,-5.96979069021024e+000

4.05042110070485e+005,-1.83572364785065e+001,-6.04785943034484e+000

4.10696287220124e+005,-1.83581375811929e+001,-6.12697739902120e+000

4.16429393741414e+005,-1.83590424578577e+001,-6.20716075795539e+000

4.22242531447321e+005,-1.83599511458644e+001,-6.28842591374792e+000

4.28136817531551e+005,-1.83608636949586e+001,-6.37078951861584e+000

4.34113384783250e+005,-1.83617801676141e+001,-6.45426847110956e+000

4.40173381804713e+005,-1.83627006393672e+001,-6.53887991682099e+000

4.46317973232124e+005,-1.83636251991380e+001,-6.62464124909191e+000

4.52548339959385e+005,-1.83645539495384e+001,-6.71157010972723e+000

4.58865679365059e+005,-1.83654870071690e+001,-6.79968438972379e+000

4.65271205542494e+005,-1.83664245029023e+001,-6.88900223001727e+000

4.71766149533147e+005,-1.83673665821549e+001,-6.97954202225757e+000

4.78351759563174e+005,-1.83683134051477e+001,-7.07132240961790e+000

4.85029301283321e+005,-1.83692651471554e+001,-7.16436228764282e+000

4.91800058012158e+005,-1.83702219987442e+001,-7.25868080514357e+000

4.98665330982714e+005,-1.83711841660012e+001,-7.35429736514322e+000

5.05626439592555e+005,-1.83721518707527e+001,-7.45123162588115e+000

5.12684721657352e+005,-1.83731253507741e+001,-7.54950350187819e+000

5.19841533667984e+005,-1.83741048599926e+001,-7.64913316506944e+000

5.27098251051240e+005,-1.83750906686807e+001,-7.75014104600766e+000

5.34456268434150e+005,-1.83760830636447e+001,-7.85254783514301e+000

5.41916999912011e+005,-1.83770823484063e+001,-7.95637448418153e+000

