Freq.,VOut,OutRef

1.00000000000000e+004,-1.42651659280373e+001,-2.10481544234909e-001

1.01395947979003e+004,-1.42651673003362e+001,-2.13419489839490e-001

1.02811382665607e+004,-1.42651687111422e+001,-2.16398436302501e-001

1.04246576084112e+004,-1.42651701615336e+001,-2.19418955495555e-001

1.05701804056138e+004,-1.42651716526191e+001,-2.22481627249743e-001

1.07177346253629e+004,-1.42651731855379e+001,-2.25587039473510e-001

1.08673486252606e+004,-1.42651747614612e+001,-2.28735788256584e-001

1.10190511587661e+004,-1.42651763815929e+001,-2.31928477987856e-001

1.11728713807222e+004,-1.42651780471702e+001,-2.35165721470132e-001

1.13288388529580e+004,-1.42651797594651e+001,-2.38448140034762e-001

1.14869835499703e+004,-1.42651815197847e+001,-2.41776363660992e-001

1.16473358646846e+004,-1.42651833294727e+001,-2.45151031094183e-001

1.18099266142953e+004,-1.42651851899101e+001,-2.48572789969975e-001

1.19747870461893e+004,-1.42651871025166e+001,-2.52042296932388e-001

1.21419488439505e+004,-1.42651890687509e+001,-2.55560217763546e-001

1.23114441334492e+004,-1.42651910901128e+001,-2.59127227507025e-001

1.24833054890161e+004,-1.42651931681433e+001,-2.62744010595683e-001

1.26575659397028e+004,-1.42651953044268e+001,-2.66411260981863e-001

1.28342589756290e+004,-1.42651975005913e+001,-2.70129682269797e-001

1.30134185544193e+004,-1.42651997583101e+001,-2.73899987847787e-001

1.31950791077289e+004,-1.42652020793030e+001,-2.77722901022907e-001

1.33792755478611e+004,-1.42652044653377e+001,-2.81599155158319e-001

1.35660432744767e+004,-1.42652069182308e+001,-2.85529493812316e-001

1.37554181813974e+004,-1.42652094398492e+001,-2.89514670878355e-001

1.39474366635040e+004,-1.42652120321117e+001,-2.93555450727370e-001

1.41421356237309e+004,-1.42652146969903e+001,-2.97652608351473e-001

1.43395524801583e+004,-1.42652174365116e+001,-3.01806929512502e-001

1.45397251732031e+004,-1.42652202527584e+001,-3.06019210887232e-001

1.47426921729110e+004,-1.42652231478710e+001,-3.10290260220514e-001

1.49484924863494e+004,-1.42652261240490e+001,-3.14620896475034e-001

1.51571656651040e+004,-1.42652291835531e+001,-3.19011949985259e-001

1.53687518128801e+004,-1.42652323287059e+001,-3.23464262618563e-001

1.55832915932100e+004,-1.42652355618947e+001,-3.27978687926547e-001

1.58008262372675e+004,-1.42652388855727e+001,-3.32556091309938e-001

1.60213975517924e+004,-1.42652423022605e+001,-3.37197350181839e-001

1.62450479271247e+004,-1.42652458145487e+001,-3.41903354127436e-001

1.64718203453514e+004,-1.42652494250990e+001,-3.46675005077327e-001

1.67017583885674e+004,-1.42652531366465e+001,-3.51513217472010e-001

1.69349062472505e+004,-1.42652569520018e+001,-3.56418918436065e-001

1.71713087287550e+004,-1.42652608740527e+001,-3.61393047948904e-001

1.74110112659224e+004,-1.42652649057666e+001,-3.66436559023401e-001

1.76540599258131e+004,-1.42652690501925e+001,-3.71550417882853e-001

1.79005014185594e+004,-1.42652733104631e+001,-3.76735604141284e-001

1.81503831063432e+004,-1.42652776897969e+001,-3.81993110988439e-001

1.84037530124975e+004,-1.42652821915014e+001,-3.87323945369987e-001

1.86606598307361e+004,-1.42652868189742e+001,-3.92729128181154e-001

1.89211529345119e+004,-1.42652915757062e+001,-3.98209694454284e-001

1.91852823865052e+004,-1.42652964652840e+001,-4.03766693550156e-001

1.94530989482457e+004,-1.42653014913921e+001,-4.09401189355328e-001

1.97246540898671e+004,-1.42653066578162e+001,-4.15114260478235e-001

1.99999999999999e+004,-1.42653119684449e+001,-4.20907000450864e-001

2.02791895958005e+004,-1.42653174272733e+001,-4.26780517929361e-001

2.05622765331213e+004,-1.42653230384054e+001,-4.32735936901326e-001

2.08493152168224e+004,-1.42653288060571e+001,-4.38774396892726e-001

2.11403608112276e+004,-1.42653347345590e+001,-4.44897053179793e-001

2.14354692507258e+004,-1.42653408283595e+001,-4.51105077000493e-001

2.17346972505211e+004,-1.42653470920280e+001,-4.57399655771965e-001

2.20381023175322e+004,-1.42653535302579e+001,-4.63781993308193e-001

2.23457427614443e+004,-1.42653601478700e+001,-4.70253310043538e-001

2.26576777059159e+004,-1.42653669498157e+001,-4.76814843255253e-001

2.29739670999406e+004,-1.42653739411803e+001,-4.83467847290064e-001

2.32946717293690e+004,-1.42653811271868e+001,-4.90213593797312e-001

2.36198532285905e+004,-1.42653885131992e+001,-4.97053371957664e-001

2.39495740923785e+004,-1.42653961047262e+001,-5.03988488723832e-001

2.42838976879009e+004,-1.42654039074248e+001,-5.11020269054074e-001

2.46228882668982e+004,-1.42654119271047e+001,-5.18150056157539e-001

2.49666109780322e+004,-1.42654201697311e+001,-5.25379211738235e-001

2.53151318794055e+004,-1.42654286414299e+001,-5.32709116242211e-001

2.56685179512580e+004,-1.42654373484909e+001,-5.40141169107971e-001

2.60268371088386e+004,-1.42654462973726e+001,-5.47676789020532e-001

2.63901582154578e+004,-1.42654554947057e+001,-5.55317414170037e-001

2.67585510957221e+004,-1.42654649472985e+001,-5.63064502508667e-001

2.71320865489533e+004,-1.42654746621403e+001,-5.70919532016507e-001

2.75108363627948e+004,-1.42654846464065e+001,-5.78884000967444e-001

2.78948733270080e+004,-1.42654949074635e+001,-5.86959428196491e-001

2.82842712474618e+004,-1.42655054528725e+001,-5.95147353376139e-001

2.86791049603164e+004,-1.42655162903956e+001,-6.03449337289010e-001

2.90794503464061e+004,-1.42655274279998e+001,-6.11866962109981e-001

2.94853843458219e+004,-1.42655388738622e+001,-6.20401831686640e-001

2.98969849726987e+004,-1.42655506363756e+001,-6.29055571826431e-001

3.03143313302078e+004,-1.42655627241533e+001,-6.37829830585713e-001

3.07375036257601e+004,-1.42655751460347e+001,-6.46726278561771e-001

3.11665831864199e+004,-1.42655879110904e+001,-6.55746609190759e-001

3.16016524745350e+004,-1.42656010286286e+001,-6.64892539044208e-001

3.20427951035848e+004,-1.42656145081997e+001,-6.74165808134612e-001

3.24900958542493e+004,-1.42656283596027e+001,-6.83568180221307e-001

3.29436406907028e+004,-1.42656425928912e+001,-6.93101443118500e-001

3.34035167771346e+004,-1.42656572183789e+001,-7.02767409010993e-001

3.38698124945009e+004,-1.42656722466461e+001,-7.12567914770529e-001

3.43426174575100e+004,-1.42656876885459e+001,-7.22504822274324e-001

3.48220225318448e+004,-1.42657035552101e+001,-7.32580018732710e-001

3.53081198516260e+004,-1.42657198580560e+001,-7.42795417013198e-001

3.58010028371187e+004,-1.42657366087930e+001,-7.53152955974401e-001

3.63007662126863e+004,-1.42657538194287e+001,-7.63654600798721e-001

3.68075060249948e+004,-1.42657715022761e+001,-7.74302343332629e-001

3.73213196614721e+004,-1.42657896699603e+001,-7.85098202428811e-001

3.78423058690237e+004,-1.42658083354253e+001,-7.96044224290694e-001

3.83705647730104e+004,-1.42658275119411e+001,-8.07142482822448e-001

3.89061978964912e+004,-1.42658472131110e+001,-8.18395079983947e-001

3.94493081797342e+004,-1.42658674528781e+001,-8.29804146146056e-001

3.99999999999998e+004,-1.42658882455337e+001,-8.41371840450738e-001

4.05583791916010e+004,-1.42659096057236e+001,-8.53100351178733e-001

4.11245530662425e+004,-1.42659315484562e+001,-8.64991896115446e-001

4.16986304336447e+004,-1.42659540891098e+001,-8.77048722923204e-001

4.22807216224550e+004,-1.42659772434403e+001,-8.89273109518214e-001

4.28709385014515e+004,-1.42660010275887e+001,-9.01667364449910e-001

4.34693945010421e+004,-1.42660254580891e+001,-9.14233827284585e-001

4.40762046350642e+004,-1.42660505518762e+001,-9.26974868992724e-001

4.46914855228886e+004,-1.42660763262934e+001,-9.39892892341310e-001

4.53153554118317e+004,-1.42661027991005e+001,-9.52990332287871e-001

4.59479341998812e+004,-1.42661299884818e+001,-9.66269656380596e-001

4.65893434587380e+004,-1.42661579130539e+001,-9.79733365161122e-001

4.72397064571810e+004,-1.42661865918737e+001,-9.93383992571770e-001

4.78991481847569e+004,-1.42662160444464e+001,-1.00722410636619e+000

4.85677953758016e+004,-1.42662462907337e+001,-1.02125630852469e+000

4.92457765337964e+004,-1.42662773511614e+001,-1.03548323567339e+000

4.99332219560642e+004,-1.42663092466277e+001,-1.04990755950654e+000

5.06302637588109e+004,-1.42663419985110e+001,-1.06453198721397e+000

5.13370359025159e+004,-1.42663756286777e+001,-1.07935926191264e+000

5.20536742176771e+004,-1.42664101594903e+001,-1.09439216308111e+000

5.27803164309155e+004,-1.42664456138148e+001,-1.10963350699812e+000

5.35171021914442e+004,-1.42664820150286e+001,-1.12508614718829e+000

5.42641730979066e+004,-1.42665193870283e+001,-1.14075297486642e+000

5.50216727255895e+004,-1.42665577542367e+001,-1.15663691939213e+000

5.57897466540159e+004,-1.42665971416105e+001,-1.17274094872389e+000

5.65685424949235e+004,-1.42666375746471e+001,-1.18906806987982e+000

5.73582099206328e+004,-1.42666790793920e+001,-1.20562132940193e+000

5.81589006928121e+004,-1.42667216824455e+001,-1.22240381382512e+000

5.89707686916437e+004,-1.42667654109689e+001,-1.23941865015013e+000

5.97939699453972e+004,-1.42668102926914e+001,-1.25666900632158e+000

6.06286626604156e+004,-1.42668563559160e+001,-1.27415809170843e+000

6.14750072515201e+004,-1.42669036295252e+001,-1.29188915759239e+000

6.23331663728396e+004,-1.42669521429862e+001,-1.30986549765902e+000

6.32033049490698e+004,-1.42670019263568e+001,-1.32809044849213e+000

6.40855902071694e+004,-1.42670530102895e+001,-1.34656739007542e+000

6.49801917084985e+004,-1.42671054260361e+001,-1.36529974629857e+000

6.58872813814055e+004,-1.42671592054517e+001,-1.38429098546607e+000

6.68070335542691e+004,-1.42672143809979e+001,-1.40354462081437e+000

6.77396249890018e+004,-1.42672709857462e+001,-1.42306421103197e+000

6.86852349150199e+004,-1.42673290533799e+001,-1.44285336078460e+000

6.96440450636895e+004,-1.42673886181966e+001,-1.46291572124757e+000

7.06162397032520e+004,-1.42674497151087e+001,-1.48325499064276e+000

7.16020056742374e+004,-1.42675123796446e+001,-1.50387491478030e+000

7.26015324253724e+004,-1.42675766479484e+001,-1.52477928760776e+000

7.36150120499896e+004,-1.42676425567792e+001,-1.54597195176526e+000

7.46426393229441e+004,-1.42677101435092e+001,-1.56745679914558e+000

7.56846117380472e+004,-1.42677794461215e+001,-1.58923777146176e+000

7.67411295460207e+004,-1.42678505032072e+001,-1.61131886082056e+000

7.78123957929823e+004,-1.42679233539603e+001,-1.63370411030557e+000

7.88986163594682e+004,-1.42679980381737e+001,-1.65639761456280e+000

7.99999999999995e+004,-1.42680745962321e+001,-1.67940352039855e+000

8.11167583832018e+004,-1.42681530691053e+001,-1.70272602738191e+000

8.22491061324848e+004,-1.42682334983401e+001,-1.72636938845634e+000

8.33972608672892e+004,-1.42683159260504e+001,-1.75033791056053e+000

8.45614432449099e+004,-1.42684003949066e+001,-1.77463595525805e+000

8.57418770029029e+004,-1.42684869481241e+001,-1.79926793937367e+000

8.69387890020841e+004,-1.42685756294497e+001,-1.82423833564309e+000

8.81524092701283e+004,-1.42686664831474e+001,-1.84955167337038e+000

8.93829710457770e+004,-1.42687595539819e+001,-1.87521253909688e+000

9.06307108236633e+004,-1.42688548872017e+001,-1.90122557728103e+000

9.18958683997622e+004,-1.42689525285199e+001,-1.92759549098937e+000

9.31786869174758e+004,-1.42690525240937e+001,-1.95432704260089e+000

9.44794129143618e+004,-1.42691549205020e+001,-1.98142505452281e+000

9.57982963695136e+004,-1.42692597647222e+001,-2.00889440992119e+000

9.71355907516031e+004,-1.42693671041041e+001,-2.03674005346362e+000

9.84915530675926e+004,-1.42694769863431e+001,-2.06496699207988e+000

9.98664439121282e+004,-1.42695894594508e+001,-2.09358029573386e+000

1.01260527517622e+005,-1.42697045717240e+001,-2.12258509821629e+000

1.02674071805032e+005,-1.42698223717124e+001,-2.15198659795062e+000

1.04107348435354e+005,-1.42699429081834e+001,-2.18179005881976e+000

1.05560632861831e+005,-1.42700662300856e+001,-2.21200081100935e+000

1.07034204382888e+005,-1.42701923865104e+001,-2.24262425187258e+000

1.08528346195813e+005,-1.42703214266509e+001,-2.27366584681469e+000

1.10043345451179e+005,-1.42704533997594e+001,-2.30513113019904e+000

1.11579493308032e+005,-1.42705883551030e+001,-2.33702570627610e+000

1.13137084989847e+005,-1.42707263419165e+001,-2.36935525013681e+000

1.14716419841265e+005,-1.42708674093536e+001,-2.40212550868865e+000

1.16317801385624e+005,-1.42710116064364e+001,-2.43534230166094e+000

1.17941537383287e+005,-1.42711589820019e+001,-2.46901152263414e+000

1.19587939890794e+005,-1.42713095846480e+001,-2.50313914009844e+000

1.21257325320831e+005,-1.42714634626758e+001,-2.53773119854309e+000

1.22950014503040e+005,-1.42716206640311e+001,-2.57279381957507e+000

1.24666332745679e+005,-1.42717812362436e+001,-2.60833320307014e+000

1.26406609898139e+005,-1.42719452263645e+001,-2.64435562835686e+000

1.28171180414339e+005,-1.42721126809017e+001,-2.68086745543633e+000

1.29960383416997e+005,-1.42722836457541e+001,-2.71787512623647e+000

1.31774562762811e+005,-1.42724581661437e+001,-2.75538516590518e+000

1.33614067108538e+005,-1.42726362865460e+001,-2.79340418414069e+000

1.35479249978003e+005,-1.42728180506199e+001,-2.83193887656157e+000

1.37370469830040e+005,-1.42730035011353e+001,-2.87099602612098e+000

1.39288090127379e+005,-1.42731926798999e+001,-2.91058250456023e+000

1.41232479406504e+005,-1.42733856276851e+001,-2.95070527390787e+000

1.43204011348474e+005,-1.42735823841512e+001,-2.99137138802382e+000

1.45203064850745e+005,-1.42737829877710e+001,-3.03258799419090e+000

1.47230024099979e+005,-1.42739874757541e+001,-3.07436233475334e+000

1.49285278645888e+005,-1.42741958839702e+001,-3.11670174880391e+000

1.51369223476094e+005,-1.42744082468725e+001,-3.15961367392331e+000

1.53482259092041e+005,-1.42746245974211e+001,-3.20310564796857e+000

1.55624791585964e+005,-1.42748449670070e+001,-3.24718531091608e+000

1.57797232718936e+005,-1.42750693853764e+001,-3.29186040675647e+000

1.59999999999999e+005,-1.42752978805569e+001,-3.33713878544431e+000

1.62233516766403e+005,-1.42755304787831e+001,-3.38302840490489e+000

1.64498212264969e+005,-1.42757672044259e+001,-3.42953733309294e+000

1.66794521734578e+005,-1.42760080799213e+001,-3.47667375011338e+000

1.69122886489819e+005,-1.42762531257035e+001,-3.52444595039396e+000

1.71483754005805e+005,-1.42765023601389e+001,-3.57286234492010e+000

1.73877578004168e+005,-1.42767557994634e+001,-3.62193146352399e+000

1.76304818540256e+005,-1.42770134577229e+001,-3.67166195723550e+000

1.78765942091554e+005,-1.42772753467175e+001,-3.72206260068792e+000

1.81261421647326e+005,-1.42775414759484e+001,-3.77314229458456e+000

1.83791736799524e+005,-1.42778118525709e+001,-3.82491006822130e+000

1.86357373834951e+005,-1.42780864813501e+001,-3.87737508206848e+000

1.88958825828723e+005,-1.42783653646224e+001,-3.93054663040798e+000

1.91596592739027e+005,-1.42786485022626e+001,-3.98443414402887e+000

1.94271181503206e+005,-1.42789358916556e+001,-4.03904719297575e+000

1.96983106135185e+005,-1.42792275276752e+001,-4.09439548935421e+000

1.99732887824256e+005,-1.42795234026684e+001,-4.15048889018777e+000

2.02521055035243e+005,-1.42798235064471e+001,-4.20733740032720e+000

2.05348143610063e+005,-1.42801278262857e+001,-4.26495117541078e+000

2.08214696870707e+005,-1.42804363469279e+001,-4.32334052487206e+000

2.11121265723661e+005,-1.42807490505991e+001,-4.38251591499512e+000

2.14068408765776e+005,-1.42810659170278e+001,-4.44248797201446e+000

2.17056692391625e+005,-1.42813869234754e+001,-4.50326748525826e+000

2.20086690902357e+005,-1.42817120447733e+001,-4.56486541032966e+000

2.23158986616063e+005,-1.42820412533703e+001,-4.62729287232901e+000

2.26274169979693e+005,-1.42823745193869e+001,-4.69056116910852e+000

2.29432839682530e+005,-1.42827118106805e+001,-4.75468177456136e+000

2.32635602771247e+005,-1.42830530929182e+001,-4.81966634194038e+000

2.35883074766574e+005,-1.42833983296600e+001,-4.88552670720193e+000

2.39175879781588e+005,-1.42837474824503e+001,-4.95227489237694e+000

2.42514650641661e+005,-1.42841005109200e+001,-5.01992310895933e+000

2.45900029006080e+005,-1.42844573728964e+001,-5.08848376131548e+000

2.49332665491357e+005,-1.42848180245243e+001,-5.15796945010572e+000

2.52813219796278e+005,-1.42851824203946e+001,-5.22839297572058e+000

2.56342360828676e+005,-1.42855505136833e+001,-5.29976734172264e+000

2.59920766833993e+005,-1.42859222562989e+001,-5.37210575829675e+000

2.63549125525621e+005,-1.42862975990392e+001,-5.44542164570053e+000

2.67228134217075e+005,-1.42866764917559e+001,-5.51972863771683e+000

2.70958499956006e+005,-1.42870588835288e+001,-5.59504058510134e+000

2.74740939660078e+005,-1.42874447228468e+001,-5.67137155902578e+000

2.78576180254757e+005,-1.42878339577975e+001,-5.74873585451149e+000

2.82464958813007e+005,-1.42882265362645e+001,-5.82714799385351e+000

2.86408022696948e+005,-1.42886224061305e+001,-5.90662273003067e+000

2.90406129701488e+005,-1.42890215154885e+001,-5.98717505010149e+000

2.94460048199957e+005,-1.42894238128583e+001,-6.06882017858232e+000

2.98570557291775e+005,-1.42898292474088e+001,-6.15157358080700e+000

3.02738446952187e+005,-1.42902377691859e+001,-6.23545096626791e+000

3.06964518184081e+005,-1.42906493293449e+001,-6.32046829193385e+000

3.11249583171928e+005,-1.42910638803869e+001,-6.40664176554715e+000

3.15594465437872e+005,-1.42914813763991e+001,-6.49398784889868e+000

3.19999999999997e+005,-1.42919017732985e+001,-6.58252326107768e+000

3.24467033532806e+005,-1.42923250290771e+001,-6.67226498170150e+000

3.28996424529938e+005,-1.42927511040503e+001,-6.76323025411998e+000

3.33589043469155e+005,-1.42931799611062e+001,-6.85543658859857e+000

3.38245772979638e+005,-1.42936115659552e+001,-6.94890176548043e+000

3.42967508011610e+005,-1.42940458873811e+001,-7.04364383832664e+000

3.47755156008335e+005,-1.42944828974907e+001,-7.13968113703858e+000

3.52609637080511e+005,-1.42949225719631e+001,-7.23703227096256e+000

3.57531884183106e+005,-1.42953648902986e+001,-7.33571613197758e+000

3.62522843294651e+005,-1.42958098360640e+001,-7.43575189757247e+000

3.67583473599047e+005,-1.42962573971371e+001,-7.53715903390852e+000

3.72714747669902e+005,-1.42967075659479e+001,-7.63995729887663e+000

3.77917651657445e+005,-1.42971603397167e+001,-7.74416674514742e+000

3.83193185478053e+005,-1.42976157206884e+001,-7.84980772321940e+000

3.88542363006410e+005,-1.42980737163640e+001,-7.95690088446766e+000

3.93966212270369e+005,-1.42985343397259e+001,-8.06546718419700e+000

3.99465775648511e+005,-1.42989976094609e+001,-8.17552788470279e+000

4.05042110070485e+005,-1.42994635501767e+001,-8.28710455834339e+000

4.10696287220124e+005,-1.42999321926144e+001,-8.40021909062770e+000

4.16429393741414e+005,-1.43004035738554e+001,-8.51489368332193e+000

4.22242531447321e+005,-1.43008777375230e+001,-8.63115085757996e+000

4.28136817531551e+005,-1.43013547339793e+001,-8.74901345709976e+000

4.34113384783250e+005,-1.43018346205152e+001,-8.86850465131276e+000

4.40173381804713e+005,-1.43023174615367e+001,-8.98964793860726e+000

4.46317973232124e+005,-1.43028033287441e+001,-9.11246714959153e+000

4.52548339959385e+005,-1.43032923013073e+001,-9.23698645040042e+000

4.58865679365059e+005,-1.43037844660345e+001,-9.36323034604944e+000

4.65271205542494e+005,-1.43042799175365e+001,-9.49122368383997e+000

4.71766149533147e+005,-1.43047787583863e+001,-9.62099165681928e+000

4.78351759563174e+005,-1.43052810992727e+001,-9.75255980730075e+000

4.85029301283321e+005,-1.43057870591509e+001,-9.88595403044450e+000

4.91800058012158e+005,-1.43062967653876e+001,-1.00212005779062e+001

4.98665330982714e+005,-1.43068103539028e+001,-1.01583260615536e+001

5.05626439592555e+005,-1.43073279693076e+001,-1.02973574572571e+001

5.12684721657352e+005,-1.43078497650389e+001,-1.04383221087547e+001

5.19841533667984e+005,-1.43083759034910e+001,-1.05812477315970e+001

5.27098251051240e+005,-1.43089065561450e+001,-1.07261624171725e+001

5.34456268434150e+005,-1.43094419036954e+001,-1.08730946368175e+001

5.41916999912011e+005,-1.43099821361756e+001,-1.10220732460122e+001

