Freq.,VOut,OutRef

1.00000000000000e+004,-1.46751570767177e+001,-1.80680978271378e-001

1.01395947979003e+004,-1.46751584245079e+001,-1.83202927339941e-001

1.02811382665607e+004,-1.46751598101173e+001,-1.85760070335044e-001

1.04246576084112e+004,-1.46751612346048e+001,-1.88352898073632e-001

1.05701804056138e+004,-1.46751626990592e+001,-1.90981908202864e-001

1.07177346253629e+004,-1.46751642045996e+001,-1.93647605294069e-001

1.08673486252606e+004,-1.46751657523761e+001,-1.96350500944639e-001

1.10190511587661e+004,-1.46751673435712e+001,-1.99091113866763e-001

1.11728713807222e+004,-1.46751689793997e+001,-2.01869969993530e-001

1.13288388529580e+004,-1.46751706611111e+001,-2.04687602571560e-001

1.14869835499703e+004,-1.46751723899890e+001,-2.07544552269578e-001

1.16473358646846e+004,-1.46751741673530e+001,-2.10441367274330e-001

1.18099266142953e+004,-1.46751759945598e+001,-2.13378603396520e-001

1.19747870461893e+004,-1.46751778730031e+001,-2.16356824179473e-001

1.21419488439505e+004,-1.46751798041161e+001,-2.19376601000391e-001

1.23114441334492e+004,-1.46751817893712e+001,-2.22438513183660e-001

1.24833054890161e+004,-1.46751838302824e+001,-2.25543148104773e-001

1.26575659397028e+004,-1.46751859284054e+001,-2.28691101306614e-001

1.28342589756290e+004,-1.46751880853390e+001,-2.31882976610884e-001

1.30134185544193e+004,-1.46751903027269e+001,-2.35119386227373e-001

1.31950791077289e+004,-1.46751925822577e+001,-2.38400950877702e-001

1.33792755478611e+004,-1.46751949256679e+001,-2.41728299903586e-001

1.35660432744767e+004,-1.46751973347412e+001,-2.45102071394486e-001

1.37554181813974e+004,-1.46751998113113e+001,-2.48522912300111e-001

1.39474366635040e+004,-1.46752023572627e+001,-2.51991478556786e-001

1.41421356237309e+004,-1.46752049745321e+001,-2.55508435209392e-001

1.43395524801583e+004,-1.46752076651097e+001,-2.59074456538199e-001

1.45397251732031e+004,-1.46752104310409e+001,-2.62690226183808e-001

1.47426921729110e+004,-1.46752132744279e+001,-2.66356437274500e-001

1.49484924863494e+004,-1.46752161974310e+001,-2.70073792560763e-001

1.51571656651040e+004,-1.46752192022699e+001,-2.73843004543531e-001

1.53687518128801e+004,-1.46752222912263e+001,-2.77664795607984e-001

1.55832915932100e+004,-1.46752254666443e+001,-2.81539898162583e-001

1.58008262372675e+004,-1.46752287309332e+001,-2.85469054771977e-001

1.60213975517924e+004,-1.46752320865687e+001,-2.89453018297308e-001

1.62450479271247e+004,-1.46752355360946e+001,-2.93492552039445e-001

1.64718203453514e+004,-1.46752390821250e+001,-2.97588429878111e-001

1.67017583885674e+004,-1.46752427273462e+001,-3.01741436419274e-001

1.69349062472505e+004,-1.46752464745184e+001,-3.05952367138661e-001

1.71713087287550e+004,-1.46752503264774e+001,-3.10222028535108e-001

1.74110112659224e+004,-1.46752542861377e+001,-3.14551238275223e-001

1.76540599258131e+004,-1.46752583564934e+001,-3.18940825348552e-001

1.79005014185594e+004,-1.46752625406211e+001,-3.23391630222554e-001

1.81503831063432e+004,-1.46752668416818e+001,-3.27904504996707e-001

1.84037530124975e+004,-1.46752712629234e+001,-3.32480313562085e-001

1.86606598307361e+004,-1.46752758076826e+001,-3.37119931761264e-001

1.89211529345119e+004,-1.46752804793878e+001,-3.41824247550668e-001

1.91852823865052e+004,-1.46752852815611e+001,-3.46594161165469e-001

1.94530989482457e+004,-1.46752902178212e+001,-3.51430585284930e-001

1.97246540898671e+004,-1.46752952918854e+001,-3.56334445203576e-001

1.99999999999999e+004,-1.46753005075728e+001,-3.61306678998131e-001

2.02791895958005e+004,-1.46753058688069e+001,-3.66348237702993e-001

2.05622765331213e+004,-1.46753113796177e+001,-3.71460085487406e-001

2.08493152168224e+004,-1.46753170441454e+001,-3.76643199827833e-001

2.11403608112276e+004,-1.46753228666431e+001,-3.81898571691300e-001

2.14354692507258e+004,-1.46753288514791e+001,-3.87227205716704e-001

2.17346972505211e+004,-1.46753350031408e+001,-3.92630120397850e-001

2.20381023175322e+004,-1.46753413262372e+001,-3.98108348270945e-001

2.23457427614443e+004,-1.46753478255024e+001,-4.03662936102835e-001

2.26576777059159e+004,-1.46753545057988e+001,-4.09294945081829e-001

2.29739670999406e+004,-1.46753613721205e+001,-4.15005451012456e-001

2.32946717293690e+004,-1.46753684295962e+001,-4.20795544510798e-001

2.36198532285905e+004,-1.46753756834936e+001,-4.26666331200624e-001

2.39495740923785e+004,-1.46753831392223e+001,-4.32618931918381e-001

2.42838976879009e+004,-1.46753908023376e+001,-4.38654482912211e-001

2.46228882668982e+004,-1.46753986785445e+001,-4.44774136049607e-001

2.49666109780322e+004,-1.46754067737007e+001,-4.50979059027165e-001

2.53151318794055e+004,-1.46754150938219e+001,-4.57270435575916e-001

2.56685179512580e+004,-1.46754236450849e+001,-4.63649465679683e-001

2.60268371088386e+004,-1.46754324338313e+001,-4.70117365789636e-001

2.63901582154578e+004,-1.46754414665726e+001,-4.76675369041514e-001

2.67585510957221e+004,-1.46754507499943e+001,-4.83324725475126e-001

2.71320865489533e+004,-1.46754602909597e+001,-4.90066702261098e-001

2.75108363627948e+004,-1.46754700965148e+001,-4.96902583926013e-001

2.78948733270080e+004,-1.46754801738929e+001,-5.03833672579348e-001

2.82842712474618e+004,-1.46754905305190e+001,-5.10861288146647e-001

2.86791049603164e+004,-1.46755011740151e+001,-5.17986768602118e-001

2.90794503464061e+004,-1.46755121122040e+001,-5.25211470208294e-001

2.94853843458219e+004,-1.46755233531153e+001,-5.32536767752543e-001

2.98969849726987e+004,-1.46755349049902e+001,-5.39964054789948e-001

3.03143313302078e+004,-1.46755467762861e+001,-5.47494743889372e-001

3.07375036257601e+004,-1.46755589756827e+001,-5.55130266880328e-001

3.11665831864199e+004,-1.46755715120865e+001,-5.62872075104688e-001

3.16016524745350e+004,-1.46755843946371e+001,-5.70721639667435e-001

3.20427951035848e+004,-1.46755976327120e+001,-5.78680451695927e-001

3.24900958542493e+004,-1.46756112359329e+001,-5.86750022597314e-001

3.29436406907028e+004,-1.46756252141711e+001,-5.94931884319314e-001

3.34035167771346e+004,-1.46756395775534e+001,-6.03227589616901e-001

3.38698124945009e+004,-1.46756543364681e+001,-6.11638712319788e-001

3.43426174575100e+004,-1.46756695015714e+001,-6.20166847599696e-001

3.48220225318448e+004,-1.46756850837931e+001,-6.28813612248007e-001

3.53081198516260e+004,-1.46757010943432e+001,-6.37580644948912e-001

3.58010028371187e+004,-1.46757175447182e+001,-6.46469606559317e-001

3.63007662126863e+004,-1.46757344467074e+001,-6.55482180391534e-001

3.68075060249948e+004,-1.46757518124000e+001,-6.64620072497370e-001

3.73213196614721e+004,-1.46757696541912e+001,-6.73885011956021e-001

3.78423058690237e+004,-1.46757879847892e+001,-6.83278751165637e-001

3.83705647730104e+004,-1.46758068172223e+001,-6.92803066136714e-001

3.89061978964912e+004,-1.46758261648457e+001,-7.02459756787546e-001

3.94493081797342e+004,-1.46758460413485e+001,-7.12250647245617e-001

3.99999999999998e+004,-1.46758664607606e+001,-7.22177586150784e-001

4.05583791916010e+004,-1.46758874374607e+001,-7.32242446958140e-001

4.11245530662425e+004,-1.46759089861826e+001,-7.42447128249601e-001

4.16986304336447e+004,-1.46759311220233e+001,-7.52793554043919e-001

4.22807216224550e+004,-1.46759538604504e+001,-7.63283674110706e-001

4.28709385014515e+004,-1.46759772173093e+001,-7.73919464289808e-001

4.34693945010421e+004,-1.46760012088307e+001,-7.84702926811122e-001

4.40762046350642e+004,-1.46760258516389e+001,-7.95636090617222e-001

4.46914855228886e+004,-1.46760511627586e+001,-8.06721011691890e-001

4.53153554118317e+004,-1.46760771596234e+001,-8.17959773387567e-001

4.59479341998812e+004,-1.46761038600829e+001,-8.29354486759941e-001

4.65893434587380e+004,-1.46761312824111e+001,-8.40907290901800e-001

4.72397064571810e+004,-1.46761594453136e+001,-8.52620353283798e-001

4.78991481847569e+004,-1.46761883679361e+001,-8.64495870093223e-001

4.85677953758016e+004,-1.46762180698715e+001,-8.76536066581879e-001

4.92457765337964e+004,-1.46762485711681e+001,-8.88743197412294e-001

4.99332219560642e+004,-1.46762798923376e+001,-9.01119547007679e-001

5.06302637588109e+004,-1.46763120543621e+001,-9.13667429908020e-001

5.13370359025159e+004,-1.46763450787030e+001,-9.26389191123506e-001

5.20536742176771e+004,-1.46763789873072e+001,-9.39287206499053e-001

5.27803164309155e+004,-1.46764138026160e+001,-9.52363883072965e-001

5.35171021914442e+004,-1.46764495475717e+001,-9.65621659446479e-001

5.42641730979066e+004,-1.46764862456255e+001,-9.79063006150230e-001

5.50216727255895e+004,-1.46765239207446e+001,-9.92690426018711e-001

5.57897466540159e+004,-1.46765625974192e+001,-1.00650645456421e+000

5.65685424949235e+004,-1.46766023006701e+001,-1.02051366035593e+000

5.73582099206328e+004,-1.46766430560543e+001,-1.03471464540329e+000

5.81589006928121e+004,-1.46766848896731e+001,-1.04911204553763e+000

5.89707686916437e+004,-1.46767278281774e+001,-1.06370853080350e+000

5.97939699453972e+004,-1.46767718987743e+001,-1.07850680584923e+000

6.06286626604156e+004,-1.46768171292330e+001,-1.09350961032059e+000

6.14750072515201e+004,-1.46768635478902e+001,-1.10871971926114e+000

6.23331663728396e+004,-1.46769111836559e+001,-1.12413994351167e+000

6.32033049490698e+004,-1.46769600660176e+001,-1.13977313011719e+000

6.40855902071694e+004,-1.46770102250458e+001,-1.15562216273375e+000

6.49801917084985e+004,-1.46770616913973e+001,-1.17168996204184e+000

6.58872813814055e+004,-1.46771144963196e+001,-1.18797948616162e+000

6.68070335542691e+004,-1.46771686716539e+001,-1.20449373107346e+000

6.77396249890018e+004,-1.46772242498380e+001,-1.22123573104018e+000

6.86852349150199e+004,-1.46772812639086e+001,-1.23820855903541e+000

6.96440450636895e+004,-1.46773397475031e+001,-1.25541532717393e+000

7.06162397032520e+004,-1.46773997348603e+001,-1.27285918714967e+000

7.16020056742374e+004,-1.46774612608213e+001,-1.29054333067327e+000

7.26015324253724e+004,-1.46775243608292e+001,-1.30847098991764e+000

7.36150120499896e+004,-1.46775890709281e+001,-1.32664543796731e+000

7.46426393229441e+004,-1.46776554277611e+001,-1.34506998927254e+000

7.56846117380472e+004,-1.46777234685685e+001,-1.36374800010738e+000

7.67411295460207e+004,-1.46777932311836e+001,-1.38268286903540e+000

7.78123957929823e+004,-1.46778647540291e+001,-1.40187803737712e+000

7.88986163594682e+004,-1.46779380761117e+001,-1.42133698968706e+000

7.99999999999995e+004,-1.46780132370156e+001,-1.44106325423537e+000

8.11167583832018e+004,-1.46780902768955e+001,-1.46106040349412e+000

8.22491061324848e+004,-1.46781692364684e+001,-1.48133205463071e+000

8.33972608672892e+004,-1.46782501570038e+001,-1.50188187001162e+000

8.45614432449099e+004,-1.46783330803133e+001,-1.52271355770657e+000

8.57418770029029e+004,-1.46784180487384e+001,-1.54383087200764e+000

8.69387890020841e+004,-1.46785051051378e+001,-1.56523761394995e+000

8.81524092701283e+004,-1.46785942928722e+001,-1.58693763184602e+000

8.93829710457770e+004,-1.46786856557889e+001,-1.60893482182456e+000

9.06307108236633e+004,-1.46787792382039e+001,-1.63123312838166e+000

9.18958683997622e+004,-1.46788750848835e+001,-1.65383654493960e+000

9.31786869174758e+004,-1.46789732410237e+001,-1.67674911441784e+000

9.44794129143618e+004,-1.46790737522278e+001,-1.69997492981417e+000

9.57982963695136e+004,-1.46791766644832e+001,-1.72351813479600e+000

9.71355907516031e+004,-1.46792820241358e+001,-1.74738292430614e+000

9.84915530675926e+004,-1.46793898778629e+001,-1.77157354517894e+000

9.98664439121282e+004,-1.46795002726442e+001,-1.79609429677303e+000

1.01260527517622e+005,-1.46796132557312e+001,-1.82094953161423e+000

1.02674071805032e+005,-1.46797288746146e+001,-1.84614365605692e+000

1.04107348435354e+005,-1.46798471769897e+001,-1.87168113095945e+000

1.05560632861831e+005,-1.46799682107202e+001,-1.89756647237618e+000

1.07034204382888e+005,-1.46800920237994e+001,-1.92380425226729e+000

1.08528346195813e+005,-1.46802186643105e+001,-1.95039909922741e+000

1.10043345451179e+005,-1.46803481803836e+001,-1.97735569923323e+000

1.11579493308032e+005,-1.46804806201515e+001,-2.00467879641018e+000

1.13137084989847e+005,-1.46806160317037e+001,-2.03237319382280e+000

1.14716419841265e+005,-1.46807544630373e+001,-2.06044375428626e+000

1.16317801385624e+005,-1.46808959620071e+001,-2.08889540119965e+000

1.17941537383287e+005,-1.46810405762729e+001,-2.11773311940713e+000

1.19587939890794e+005,-1.46811883532449e+001,-2.14696195608280e+000

1.21257325320831e+005,-1.46813393400276e+001,-2.17658702164193e+000

1.22950014503040e+005,-1.46814935833610e+001,-2.20661349068181e+000

1.24666332745679e+005,-1.46816511295608e+001,-2.23704660295087e+000

1.26406609898139e+005,-1.46818120244559e+001,-2.26789166434850e+000

1.28171180414339e+005,-1.46819763133246e+001,-2.29915404795639e+000

1.29960383416997e+005,-1.46821440408292e+001,-2.33083919510434e+000

1.31774562762811e+005,-1.46823152509486e+001,-2.36295261646809e+000

1.33614067108538e+005,-1.46824899869095e+001,-2.39549989320474e+000

1.35479249978003e+005,-1.46826682911164e+001,-2.42848667812457e+000

1.37370469830040e+005,-1.46828502050800e+001,-2.46191869690038e+000

1.39288090127379e+005,-1.46830357693448e+001,-2.49580174931642e+000

1.41232479406504e+005,-1.46832250234150e+001,-2.53014171056049e+000

1.43204011348474e+005,-1.46834180056806e+001,-2.56494453255461e+000

1.45203064850745e+005,-1.46836147533416e+001,-2.60021624533038e+000

1.47230024099979e+005,-1.46838153023328e+001,-2.63596295845041e+000

1.49285278645888e+005,-1.46840196872471e+001,-2.67219086247331e+000

1.51369223476094e+005,-1.46842279412601e+001,-2.70890623046578e+000

1.53482259092041e+005,-1.46844400960538e+001,-2.74611541956398e+000

1.55624791585964e+005,-1.46846561817407e+001,-2.78382487258174e+000

1.57797232718936e+005,-1.46848762267892e+001,-2.82204111967071e+000

1.59999999999999e+005,-1.46851002579493e+001,-2.86077078002929e+000

1.62233516766403e+005,-1.46853283001795e+001,-2.90002056366527e+000

1.64498212264969e+005,-1.46855603765756e+001,-2.93979727320750e+000

1.66794521734578e+005,-1.46857965083004e+001,-2.98010780577398e+000

1.69122886489819e+005,-1.46860367145167e+001,-3.02095915489035e+000

1.71483754005805e+005,-1.46862810123214e+001,-3.06235841246454e+000

1.73877578004168e+005,-1.46865294166832e+001,-3.10431277081298e+000

1.76304818540256e+005,-1.46867819403829e+001,-3.14682952474256e+000

1.78765942091554e+005,-1.46870385939573e+001,-3.18991607368712e+000

1.81261421647326e+005,-1.46872993856469e+001,-3.23357992389653e+000

1.83791736799524e+005,-1.46875643213473e+001,-3.27782869067926e+000

1.86357373834951e+005,-1.46878334045659e+001,-3.32267010070152e+000

1.88958825828723e+005,-1.46881066363822e+001,-3.36811199433491e+000

1.91596592739027e+005,-1.46883840154146e+001,-3.41416232805874e+000

1.94271181503206e+005,-1.46886655377916e+001,-3.46082917691288e+000

1.96983106135185e+005,-1.46889511971298e+001,-3.50812073700051e+000

1.99732887824256e+005,-1.46892409845172e+001,-3.55604532803940e+000

2.02521055035243e+005,-1.46895348885039e+001,-3.60461139596117e+000

2.05348143610063e+005,-1.46898328950992e+001,-3.65382751555680e+000

2.08214696870707e+005,-1.46901349877760e+001,-3.70370239316477e+000

2.11121265723661e+005,-1.46904411474826e+001,-3.75424486940264e+000

2.14068408765776e+005,-1.46907513526626e+001,-3.80546392193911e+000

2.17056692391625e+005,-1.46910655792824e+001,-3.85736866830269e+000

2.20086690902357e+005,-1.46913838008672e+001,-3.90996836872784e+000

2.23158986616063e+005,-1.46917059885454e+001,-3.96327242903293e+000

2.26274169979693e+005,-1.46920321111018e+001,-4.01729040352933e+000

2.29432839682530e+005,-1.46923621350393e+001,-4.07203199795881e+000

2.32635602771247e+005,-1.46926960246500e+001,-4.12750707245543e+000

2.35883074766574e+005,-1.46930337420952e+001,-4.18372564453009e+000

2.39175879781588e+005,-1.46933752474945e+001,-4.24069789207415e+000

2.42514650641661e+005,-1.46937204990240e+001,-4.29843415637921e+000

2.45900029006080e+005,-1.46940694530238e+001,-4.35694494517050e+000

2.49332665491357e+005,-1.46944220641149e+001,-4.41624093564969e+000

2.52813219796278e+005,-1.46947782853247e+001,-4.47633297754514e+000

2.56342360828676e+005,-1.46951380682219e+001,-4.53723209616609e+000

2.59920766833993e+005,-1.46955013630599e+001,-4.59894949545690e+000

2.63549125525621e+005,-1.46958681189295e+001,-4.66149656105030e+000

2.67228134217075e+005,-1.46962382839190e+001,-4.72488486331484e+000

2.70958499956006e+005,-1.46966118052838e+001,-4.78912616039383e+000

2.74740939660078e+005,-1.46969886296231e+001,-4.85423240123512e+000

2.78576180254757e+005,-1.46973687030640e+001,-4.92021572860558e+000

2.82464958813007e+005,-1.46977519714538e+001,-4.98708848209223e+000

2.86408022696948e+005,-1.46981383805583e+001,-5.05486320108272e+000

2.90406129701488e+005,-1.46985278762671e+001,-5.12355262772751e+000

2.94460048199957e+005,-1.46989204048048e+001,-5.19316970987987e+000

2.98570557291775e+005,-1.46993159129472e+001,-5.26372760401072e+000

3.02738446952187e+005,-1.46997143482438e+001,-5.33523967809995e+000

3.06964518184081e+005,-1.47001156592438e+001,-5.40771951450035e+000

3.11249583171928e+005,-1.47005197957261e+001,-5.48118091277462e+000

3.15594465437872e+005,-1.47009267089343e+001,-5.55563789250371e+000

3.19999999999997e+005,-1.47013363518123e+001,-5.63110469606786e+000

3.24467033532806e+005,-1.47017486792447e+001,-5.70759579139668e+000

3.28996424529938e+005,-1.47021636482970e+001,-5.78512587469459e+000

3.33589043469155e+005,-1.47025812184591e+001,-5.86370987313327e+000

3.38245772979638e+005,-1.47030013518872e+001,-5.94336294752078e+000

3.42967508011610e+005,-1.47034240136484e+001,-6.02410049494208e+000

3.47755156008335e+005,-1.47038491719629e+001,-6.10593815137523e+000

3.52609637080511e+005,-1.47042767984463e+001,-6.18889179428326e+000

3.57531884183106e+005,-1.47047068683504e+001,-6.27297754518497e+000

3.62522843294651e+005,-1.47051393608021e+001,-6.35821177220497e+000

3.67583473599047e+005,-1.47055742590397e+001,-6.44461109260677e+000

3.72714747669902e+005,-1.47060115506464e+001,-6.53219237531073e+000

3.77917651657445e+005,-1.47064512277809e+001,-6.62097274340007e+000

3.83193185478053e+005,-1.47068932874046e+001,-6.71096957661564e+000

3.88542363006410e+005,-1.47073377315032e+001,-6.80220051384740e+000

3.93966212270369e+005,-1.47077845673066e+001,-6.89468345561994e+000

3.99465775648511e+005,-1.47082338075016e+001,-6.98843656658030e+000

4.05042110070485e+005,-1.47086854704415e+001,-7.08347827798916e+000

4.10696287220124e+005,-1.47091395803501e+001,-7.17982729021893e+000

4.16429393741414e+005,-1.47095961675200e+001,-7.27750257526479e+000

4.22242531447321e+005,-1.47100552685061e+001,-7.37652337926892e+000

4.28136817531551e+005,-1.47105169263134e+001,-7.47690922506572e+000

4.34113384783250e+005,-1.47109811905790e+001,-7.57867991474812e+000

4.40173381804713e+005,-1.47114481177489e+001,-7.68185553226227e+000

4.46317973232124e+005,-1.47119177712489e+001,-7.78645644603190e+000

4.52548339959385e+005,-1.47123902216503e+001,-7.89250331161754e+000

4.58865679365059e+005,-1.47128655468300e+001,-8.00001707441444e+000

4.65271205542494e+005,-1.47133438321249e+001,-8.10901897239240e+000

4.71766149533147e+005,-1.47138251704820e+001,-8.21953053888102e+000

4.78351759563174e+005,-1.47143096626028e+001,-8.33157360540491e+000

4.85029301283321e+005,-1.47147974170832e+001,-8.44517030457201e+000

4.91800058012158e+005,-1.47152885505494e+001,-8.56034307301681e+000

4.98665330982714e+005,-1.47157831877885e+001,-8.67711465440471e+000

5.05626439592555e+005,-1.47162814618765e+001,-8.79550810249796e+000

5.12684721657352e+005,-1.47167835143015e+001,-8.91554678428663e+000

5.19841533667984e+005,-1.47172894950849e+001,-9.03725438318911e+000

5.27098251051240e+005,-1.47177995628988e+001,-9.16065490232200e+000

5.34456268434150e+005,-1.47183138851814e+001,-9.28577266784414e+000

5.41916999912011e+005,-1.47188326382502e+001,-9.41263233237660e+000

