Freq.,VOut,OutRef

1.00000000000000e+004,-1.68781950639032e+001,-8.78431887346979e-002

1.01395947979003e+004,-1.68781970196101e+001,-8.90690300376708e-002

1.02811382665607e+004,-1.68781990301880e+001,-9.03119663204202e-002

1.04246576084112e+004,-1.68782010971734e+001,-9.15722354924090e-002

1.05701804056138e+004,-1.68782032221451e+001,-9.28500787565736e-002

1.07177346253629e+004,-1.68782054067268e+001,-9.41457406478504e-002

1.08673486252606e+004,-1.68782076525864e+001,-9.54594690846209e-002

1.10190511587661e+004,-1.68782099614393e+001,-9.67915154085446e-002

1.11728713807222e+004,-1.68782123350474e+001,-9.81421344378915e-002

1.13288388529580e+004,-1.68782147752230e+001,-9.95115845050226e-002

1.14869835499703e+004,-1.68782172838280e+001,-1.00900127512072e-001

1.16473358646846e+004,-1.68782198627764e+001,-1.02308028976604e-001

1.18099266142953e+004,-1.68782225140352e+001,-1.03735558080337e-001

1.19747870461893e+004,-1.68782252396267e+001,-1.05182987713718e-001

1.21419488439505e+004,-1.68782280416286e+001,-1.06650594536825e-001

1.23114441334492e+004,-1.68782309221772e+001,-1.08138659017853e-001

1.24833054890161e+004,-1.68782338834674e+001,-1.09647465493618e-001

1.26575659397028e+004,-1.68782369277557e+001,-1.11177302214916e-001

1.28342589756290e+004,-1.68782400573607e+001,-1.12728461403471e-001

1.30134185544193e+004,-1.68782432746661e+001,-1.14301239301507e-001

1.31950791077289e+004,-1.68782465821207e+001,-1.15895936230447e-001

1.33792755478611e+004,-1.68782499822422e+001,-1.17512856638972e-001

1.35660432744767e+004,-1.68782534776177e+001,-1.19152309161973e-001

1.37554181813974e+004,-1.68782570709057e+001,-1.20814606677177e-001

1.39474366635040e+004,-1.68782607648390e+001,-1.22500066357401e-001

1.41421356237309e+004,-1.68782645622254e+001,-1.24209009733259e-001

1.43395524801583e+004,-1.68782684659514e+001,-1.25941762742413e-001

1.45397251732031e+004,-1.68782724789822e+001,-1.27698655799560e-001

1.47426921729110e+004,-1.68782766043656e+001,-1.29480023846518e-001

1.49484924863494e+004,-1.68782808452339e+001,-1.31286206412881e-001

1.51571656651040e+004,-1.68782852048055e+001,-1.33117547680472e-001

1.53687518128801e+004,-1.68782896863877e+001,-1.34974396543175e-001

1.55832915932100e+004,-1.68782942933796e+001,-1.36857106664987e-001

1.58008262372675e+004,-1.68782990292733e+001,-1.38766036549695e-001

1.60213975517924e+004,-1.68783038976579e+001,-1.40701549595712e-001

1.62450479271247e+004,-1.68783089022211e+001,-1.42664014166483e-001

1.64718203453514e+004,-1.68783140467520e+001,-1.44653803654705e-001

1.67017583885674e+004,-1.68783193351443e+001,-1.46671296543112e-001

1.69349062472505e+004,-1.68783247713988e+001,-1.48716876474550e-001

1.71713087287550e+004,-1.68783303596261e+001,-1.50790932318632e-001

1.74110112659224e+004,-1.68783361040499e+001,-1.52893858238009e-001

1.76540599258131e+004,-1.68783420090100e+001,-1.55026053755965e-001

1.79005014185594e+004,-1.68783480789648e+001,-1.57187923828552e-001

1.81503831063432e+004,-1.68783543184954e+001,-1.59379878911294e-001

1.84037530124975e+004,-1.68783607323083e+001,-1.61602335030639e-001

1.86606598307361e+004,-1.68783673252390e+001,-1.63855713853518e-001

1.89211529345119e+004,-1.68783741022550e+001,-1.66140442764450e-001

1.91852823865052e+004,-1.68783810684599e+001,-1.68456954931019e-001

1.94530989482457e+004,-1.68783882290966e+001,-1.70805689382684e-001

1.97246540898671e+004,-1.68783955895508e+001,-1.73187091083069e-001

1.99999999999999e+004,-1.68784031553559e+001,-1.75601611001253e-001

2.02791895958005e+004,-1.68784109321952e+001,-1.78049706194617e-001

2.05622765331213e+004,-1.68784189259071e+001,-1.80531839878668e-001

2.08493152168224e+004,-1.68784271424889e+001,-1.83048481506572e-001

2.11403608112276e+004,-1.68784355881007e+001,-1.85600106845836e-001

2.14354692507258e+004,-1.68784442690698e+001,-1.88187198058131e-001

2.17346972505211e+004,-1.68784531918952e+001,-1.90810243776885e-001

2.20381023175322e+004,-1.68784623632518e+001,-1.93469739186698e-001

2.23457427614443e+004,-1.68784717899956e+001,-1.96166186103268e-001

2.26576777059159e+004,-1.68784814791671e+001,-1.98900093059480e-001

2.29739670999406e+004,-1.68784914379976e+001,-2.01671975379089e-001

2.32946717293690e+004,-1.68785016739134e+001,-2.04482355264481e-001

2.36198532285905e+004,-1.68785121945404e+001,-2.07331761878160e-001

2.39495740923785e+004,-1.68785230077100e+001,-2.10220731427021e-001

2.42838976879009e+004,-1.68785341214642e+001,-2.13149807244803e-001

2.46228882668982e+004,-1.68785455440602e+001,-2.16119539881028e-001

2.49666109780322e+004,-1.68785572839770e+001,-2.19130487180555e-001

2.53151318794055e+004,-1.68785693499205e+001,-2.22183214374232e-001

2.56685179512580e+004,-1.68785817508291e+001,-2.25278294163659e-001

2.60268371088386e+004,-1.68785944958795e+001,-2.28416306810671e-001

2.63901582154578e+004,-1.68786075944934e+001,-2.31597840220566e-001

2.67585510957221e+004,-1.68786210563428e+001,-2.34823490034169e-001

2.71320865489533e+004,-1.68786348913566e+001,-2.38093859717229e-001

2.75108363627948e+004,-1.68786491097272e+001,-2.41409560644638e-001

2.78948733270080e+004,-1.68786637219165e+001,-2.44771212196397e-001

2.82842712474618e+004,-1.68786787386630e+001,-2.48179441843693e-001

2.86791049603164e+004,-1.68786941709884e+001,-2.51634885239773e-001

2.90794503464061e+004,-1.68787100302045e+001,-2.55138186314274e-001

2.94853843458219e+004,-1.68787263279204e+001,-2.58689997359601e-001

2.98969849726987e+004,-1.68787430760496e+001,-2.62290979126124e-001

3.03143313302078e+004,-1.68787602868174e+001,-2.65941800913156e-001

3.07375036257601e+004,-1.68787779727685e+001,-2.69643140660022e-001

3.11665831864199e+004,-1.68787961467741e+001,-2.73395685042606e-001

3.16016524745350e+004,-1.68788148220404e+001,-2.77200129560601e-001

3.20427951035848e+004,-1.68788340121159e+001,-2.81057178633562e-001

3.24900958542493e+004,-1.68788537309000e+001,-2.84967545694682e-001

3.29436406907028e+004,-1.68788739926505e+001,-2.88931953281807e-001

3.34035167771346e+004,-1.68788948119928e+001,-2.92951133130936e-001

3.38698124945009e+004,-1.68789162039276e+001,-2.97025826271418e-001

3.43426174575100e+004,-1.68789381838399e+001,-3.01156783117208e-001

3.48220225318448e+004,-1.68789607675073e+001,-3.05344763562451e-001

3.53081198516260e+004,-1.68789839711098e+001,-3.09590537070691e-001

3.58010028371187e+004,-1.68790078112379e+001,-3.13894882771313e-001

3.63007662126863e+004,-1.68790323049020e+001,-3.18258589551321e-001

3.68075060249948e+004,-1.68790574695419e+001,-3.22682456147060e-001

3.73213196614721e+004,-1.68790833230363e+001,-3.27167291236217e-001

3.78423058690237e+004,-1.68791098837116e+001,-3.31713913531743e-001

3.83705647730104e+004,-1.68791371703523e+001,-3.36323151870994e-001

3.89061978964912e+004,-1.68791652022104e+001,-3.40995845308317e-001

3.94493081797342e+004,-1.68791939990154e+001,-3.45732843203475e-001

3.99999999999998e+004,-1.68792235809840e+001,-3.50535005313478e-001

4.05583791916010e+004,-1.68792539688309e+001,-3.55403201880314e-001

4.11245530662425e+004,-1.68792851837776e+001,-3.60338313721594e-001

4.16986304336447e+004,-1.68793172475644e+001,-3.65341232314207e-001

4.22807216224550e+004,-1.68793501824593e+001,-3.70412859884281e-001

4.28709385014515e+004,-1.68793840112687e+001,-3.75554109493802e-001

4.34693945010421e+004,-1.68794187573488e+001,-3.80765905121475e-001

4.40762046350642e+004,-1.68794544446146e+001,-3.86049181750750e-001

4.46914855228886e+004,-1.68794910975517e+001,-3.91404885449776e-001

4.53153554118317e+004,-1.68795287412262e+001,-3.96833973454153e-001

4.59479341998812e+004,-1.68795674012957e+001,-4.02337414246006e-001

4.65893434587380e+004,-1.68796071040194e+001,-4.07916187633846e-001

4.72397064571810e+004,-1.68796478762693e+001,-4.13571284829781e-001

4.78991481847569e+004,-1.68796897455404e+001,-4.19303708523970e-001

4.85677953758016e+004,-1.68797327399612e+001,-4.25114472960534e-001

4.92457765337964e+004,-1.68797768883044e+001,-4.31004604008538e-001

4.99332219560642e+004,-1.68798222199971e+001,-4.36975139234945e-001

5.06302637588109e+004,-1.68798687651312e+001,-4.43027127970959e-001

5.13370359025159e+004,-1.68799165544739e+001,-4.49161631379788e-001

5.20536742176771e+004,-1.68799656194771e+001,-4.55379722522633e-001

5.27803164309155e+004,-1.68800159922880e+001,-4.61682486420222e-001

5.35171021914442e+004,-1.68800677057581e+001,-4.68071020115400e-001

5.42641730979066e+004,-1.68801207934534e+001,-4.74546432730138e-001

5.50216727255895e+004,-1.68801752896637e+001,-4.81109845520127e-001

5.57897466540159e+004,-1.68802312294107e+001,-4.87762391933007e-001

5.65685424949235e+004,-1.68802886484579e+001,-4.94505217657133e-001

5.73582099206328e+004,-1.68803475833185e+001,-5.01339480668251e-001

5.81589006928121e+004,-1.68804080712630e+001,-5.08266351281522e-001

5.89707686916437e+004,-1.68804701503277e+001,-5.15287012190208e-001

5.97939699453972e+004,-1.68805338593216e+001,-5.22402658508576e-001

6.06286626604156e+004,-1.68805992378328e+001,-5.29614497811259e-001

6.14750072515201e+004,-1.68806663262356e+001,-5.36923750166810e-001

6.23331663728396e+004,-1.68807351656951e+001,-5.44331648172382e-001

6.32033049490698e+004,-1.68808057981735e+001,-5.51839436982785e-001

6.40855902071694e+004,-1.68808782664338e+001,-5.59448374337233e-001

6.49801917084985e+004,-1.68809526140437e+001,-5.67159730585444e-001

6.58872813814055e+004,-1.68810288853792e+001,-5.74974788707702e-001

6.68070335542691e+004,-1.68811071256262e+001,-5.82894844333607e-001

6.77396249890018e+004,-1.68811873807825e+001,-5.90921205758764e-001

6.86852349150199e+004,-1.68812696976578e+001,-5.99055193957666e-001

6.96440450636895e+004,-1.68813541238741e+001,-6.07298142593847e-001

7.06162397032520e+004,-1.68814407078633e+001,-6.15651398029378e-001

7.16020056742374e+004,-1.68815294988656e+001,-6.24116319327815e-001

7.26015324253724e+004,-1.68816205469253e+001,-6.32694278257983e-001

7.36150120499896e+004,-1.68817139028864e+001,-6.41386659295368e-001

7.46426393229441e+004,-1.68818096183863e+001,-6.50194859619768e-001

7.56846117380472e+004,-1.68819077458479e+001,-6.59120289113139e-001

7.67411295460207e+004,-1.68820083384721e+001,-6.68164370349903e-001

7.78123957929823e+004,-1.68821114502258e+001,-6.77328538595683e-001

7.88986163594682e+004,-1.68822171358313e+001,-6.86614241794812e-001

7.99999999999995e+004,-1.68823254507524e+001,-6.96022940560703e-001

8.11167583832018e+004,-1.68824364511785e+001,-7.05556108169380e-001

8.22491061324848e+004,-1.68825501940090e+001,-7.15215230542358e-001

8.33972608672892e+004,-1.68826667368330e+001,-7.25001806241161e-001

8.45614432449099e+004,-1.68827861379094e+001,-7.34917346451748e-001

8.57418770029029e+004,-1.68829084561435e+001,-7.44963374978443e-001

8.69387890020841e+004,-1.68830337510625e+001,-7.55141428230080e-001

8.81524092701283e+004,-1.68831620827879e+001,-7.65453055216224e-001

8.93829710457770e+004,-1.68832935120061e+001,-7.75899817539404e-001

9.06307108236633e+004,-1.68834280999369e+001,-7.86483289392599e-001

9.18958683997622e+004,-1.68835659082989e+001,-7.97205057559068e-001

9.31786869174758e+004,-1.68837069992730e+001,-8.08066721417373e-001

9.44794129143618e+004,-1.68838514354626e+001,-8.19069892949740e-001

9.57982963695136e+004,-1.68839992798520e+001,-8.30216196756318e-001

9.71355907516031e+004,-1.68841505957615e+001,-8.41507270075541e-001

9.84915530675926e+004,-1.68843054467992e+001,-8.52944762811744e-001

9.98664439121282e+004,-1.68844638968113e+001,-8.64530337569703e-001

1.01260527517622e+005,-1.68846260098279e+001,-8.76265669699749e-001

1.02674071805032e+005,-1.68847918500065e+001,-8.88152447352099e-001

1.04107348435354e+005,-1.68849614815729e+001,-9.00192371540534e-001

1.05560632861831e+005,-1.68851349687576e+001,-9.12387156220055e-001

1.07034204382888e+005,-1.68853123757303e+001,-9.24738528378070e-001

1.08528346195813e+005,-1.68854937665306e+001,-9.37248228135998e-001

1.10043345451179e+005,-1.68856792049955e+001,-9.49918008871999e-001

1.11579493308032e+005,-1.68858687546832e+001,-9.62749637358457e-001

1.13137084989847e+005,-1.68860624787945e+001,-9.75744893914443e-001

1.14716419841265e+005,-1.68862604400900e+001,-9.88905572583234e-001

1.16317801385624e+005,-1.68864627008046e+001,-1.00223348132777e+000

1.17941537383287e+005,-1.68866693225578e+001,-1.01573044225012e+000

1.19587939890794e+005,-1.68868803662620e+001,-1.02939829183308e+000

1.21257325320831e+005,-1.68870958920262e+001,-1.04323888121150e+000

1.22950014503040e+005,-1.68873159590575e+001,-1.05725407646636e+000

1.24666332745679e+005,-1.68875406255589e+001,-1.07144575895101e+000

1.26406609898139e+005,-1.68877699486238e+001,-1.08581582564919e+000

1.28171180414339e+005,-1.68880039841288e+001,-1.10036618956047e+000

1.29960383416997e+005,-1.68882427866213e+001,-1.11509878012703e+000

1.31774562762811e+005,-1.68884864092068e+001,-1.13001554368857e+000

1.33614067108538e+005,-1.68887349034320e+001,-1.14511844398263e+000

1.35479249978003e+005,-1.68889883191658e+001,-1.16040946267873e+000

1.37370469830040e+005,-1.68892467044782e+001,-1.17589059995696e+000

1.39288090127379e+005,-1.68895101055169e+001,-1.19156387512823e+000

1.41232479406504e+005,-1.68897785663823e+001,-1.20743132729785e+000

1.43204011348474e+005,-1.68900521290003e+001,-1.22349501607954e+000

1.45203064850745e+005,-1.68903308329939e+001,-1.23975702235432e+000

1.47230024099979e+005,-1.68906147155545e+001,-1.25621944907874e+000

1.49285278645888e+005,-1.68909038113109e+001,-1.27288442214653e+000

1.51369223476094e+005,-1.68911981521986e+001,-1.28975409130136e+000

1.53482259092041e+005,-1.68914977673293e+001,-1.30683063110391e+000

1.55624791585964e+005,-1.68918026828598e+001,-1.32411624195395e+000

1.57797232718936e+005,-1.68921129218615e+001,-1.34161315117111e+000

1.59999999999999e+005,-1.68924285041919e+001,-1.35932361412895e+000

1.62233516766403e+005,-1.68927494463655e+001,-1.37724991545238e+000

1.64498212264969e+005,-1.68930757614289e+001,-1.39539437027023e+000

1.66794521734578e+005,-1.68934074588361e+001,-1.41375932553132e+000

1.69122886489819e+005,-1.68937445443273e+001,-1.43234716137870e+000

1.71483754005805e+005,-1.68940870198115e+001,-1.45116029258549e+000

1.73877578004168e+005,-1.68944348832513e+001,-1.47020117005167e+000

1.76304818540256e+005,-1.68947881285536e+001,-1.48947228236147e+000

1.78765942091554e+005,-1.68951467454636e+001,-1.50897615740108e+000

1.81261421647326e+005,-1.68955107194648e+001,-1.52871536403817e+000

1.83791736799524e+005,-1.68958800316846e+001,-1.54869251385729e+000

1.86357373834951e+005,-1.68962546588059e+001,-1.56891026295821e+000

1.88958825828723e+005,-1.68966345729858e+001,-1.58937131380616e+000

1.91596592739027e+005,-1.68970197417818e+001,-1.61007841714365e+000

1.94271181503206e+005,-1.68974101280854e+001,-1.63103437395001e+000

1.96983106135185e+005,-1.68978056900643e+001,-1.65224203745948e+000

1.99732887824256e+005,-1.68982063811138e+001,-1.67370431522291e+000

2.02521055035243e+005,-1.68986121498171e+001,-1.69542417122192e+000

2.05348143610063e+005,-1.68990229399157e+001,-1.71740462802461e+000

2.08214696870707e+005,-1.68994386902905e+001,-1.73964876898323e+000

2.11121265723661e+005,-1.68998593349525e+001,-1.76215974047242e+000

2.14068408765776e+005,-1.69002848030462e+001,-1.78494075416012e+000

2.17056692391625e+005,-1.69007150188634e+001,-1.80799508930946e+000

2.20086690902357e+005,-1.69011499018690e+001,-1.83132609511011e+000

2.23158986616063e+005,-1.69015893667402e+001,-1.85493719303074e+000

2.26274169979693e+005,-1.69020333234160e+001,-1.87883187919191e+000

2.29432839682530e+005,-1.69024816771615e+001,-1.90301372675129e+000

2.32635602771247e+005,-1.69029343286436e+001,-1.92748638830055e+000

2.35883074766574e+005,-1.69033911740206e+001,-1.95225359826594e+000

2.39175879781588e+005,-1.69038521050444e+001,-1.97731917530847e+000

2.42514650641661e+005,-1.69043170091760e+001,-2.00268702472038e+000

2.45900029006080e+005,-1.69047857697139e+001,-2.02836114080947e+000

2.49332665491357e+005,-1.69052582659360e+001,-2.05434560926995e+000

2.52813219796278e+005,-1.69057343732537e+001,-2.08064460953165e+000

2.56342360828676e+005,-1.69062139633791e+001,-2.10726241708388e+000

2.59920766833993e+005,-1.69066969045049e+001,-2.13420340576897e+000

2.63549125525621e+005,-1.69071830614960e+001,-2.16147205003951e+000

2.67228134217075e+005,-1.69076722960927e+001,-2.18907292717623e+000

2.70958499956006e+005,-1.69081644671261e+001,-2.21701071945856e+000

2.74740939660078e+005,-1.69086594307438e+001,-2.24529021628809e+000

2.78576180254757e+005,-1.69091570406459e+001,-2.27391631625440e+000

2.82464958813007e+005,-1.69096571483311e+001,-2.30289402914543e+000

2.86408022696948e+005,-1.69101596033519e+001,-2.33222847789404e+000

2.90406129701488e+005,-1.69106642535783e+001,-2.36192490045850e+000

2.94460048199957e+005,-1.69111709454695e+001,-2.39198865163360e+000

2.98570557291775e+005,-1.69116795243519e+001,-2.42242520479117e+000

3.02738446952187e+005,-1.69121898347043e+001,-2.45324015354260e+000

3.06964518184081e+005,-1.69127017204482e+001,-2.48443921332681e+000

3.11249583171928e+005,-1.69132150252422e+001,-2.51602822291803e+000

3.15594465437872e+005,-1.69137295927811e+001,-2.54801314585265e+000

3.19999999999997e+005,-1.69142452670969e+001,-2.58040007177427e+000

3.24467033532806e+005,-1.69147618928625e+001,-2.61319521769873e+000

3.28996424529938e+005,-1.69152793156958e+001,-2.64640492919289e+000

3.33589043469155e+005,-1.69157973824646e+001,-2.68003568147315e+000

3.38245772979638e+005,-1.69163159415898e+001,-2.71409408042348e+000

3.42967508011610e+005,-1.69168348433484e+001,-2.74858686352966e+000

3.47755156008335e+005,-1.69173539401723e+001,-2.78352090073731e+000

3.52609637080511e+005,-1.69178730869450e+001,-2.81890319523052e+000

3.57531884183106e+005,-1.69183921412933e+001,-2.85474088413709e+000

3.62522843294651e+005,-1.69189109638745e+001,-2.89104123916036e+000

3.67583473599047e+005,-1.69194294186569e+001,-2.92781166714326e+000

3.72714747669902e+005,-1.69199473731951e+001,-2.96505971056462e+000

3.77917651657445e+005,-1.69204646988965e+001,-3.00279304797473e+000

3.83193185478053e+005,-1.69209812712811e+001,-3.04101949437316e+000

3.88542363006410e+005,-1.69214969702318e+001,-3.07974700153204e+000

3.93966212270369e+005,-1.69220116802365e+001,-3.11898365826980e+000

3.99465775648511e+005,-1.69225252906197e+001,-3.15873769068335e+000

4.05042110070485e+005,-1.69230376957645e+001,-3.19901746233658e+000

4.10696287220124e+005,-1.69235487953244e+001,-3.23983147441881e+000

4.16429393741414e+005,-1.69240584944231e+001,-3.28118836587247e+000

4.22242531447321e+005,-1.69245667038449e+001,-3.32309691349638e+000

4.28136817531551e+005,-1.69250733402123e+001,-3.36556603203449e+000

4.34113384783250e+005,-1.69255783261527e+001,-3.40860477424764e+000

4.40173381804713e+005,-1.69260815904536e+001,-3.45222233098282e+000

4.46317973232124e+005,-1.69265830682057e+001,-3.49642803123804e+000

4.52548339959385e+005,-1.69270827009347e+001,-3.54123134223240e+000

4.58865679365059e+005,-1.69275804367212e+001,-3.58664186948634e+000

4.65271205542494e+005,-1.69280762303095e+001,-3.63266935691592e+000

4.71766149533147e+005,-1.69285700432044e+001,-3.67932368694684e+000

4.78351759563174e+005,-1.69290618437573e+001,-3.72661488065586e+000

4.85029301283321e+005,-1.69295516072414e+001,-3.77455309793937e+000

4.91800058012158e+005,-1.69300393159161e+001,-3.82314863771862e+000

4.98665330982714e+005,-1.69305249590813e+001,-3.87241193818433e+000

5.05626439592555e+005,-1.69310085331215e+001,-3.92235357708454e+000

5.12684721657352e+005,-1.69314900415412e+001,-3.97298427205946e+000

5.19841533667984e+005,-1.69319694949899e+001,-4.02431488103008e+000

5.27098251051240e+005,-1.69324469112800e+001,-4.07635640264075e+000

5.34456268434150e+005,-1.69329223153956e+001,-4.12911997675998e+000

5.41916999912011e+005,-1.69333957394941e+001,-4.18261688504472e+000

