Freq.,VOut,OutRef

1.00000000000000e+004,-2.28125367676341e+001,-4.84102093293948e-001

1.01395947979003e+004,-2.28125430320243e+001,-4.90859077120414e-001

1.02811382665607e+004,-2.28125494723140e+001,-4.97710349744617e-001

1.04246576084112e+004,-2.28125560934361e+001,-5.04657225897569e-001

1.05701804056138e+004,-2.28125629004615e+001,-5.11701038601155e-001

1.07177346253629e+004,-2.28125698986028e+001,-5.18843139419751e-001

1.08673486252606e+004,-2.28125770932185e+001,-5.26084898716917e-001

1.10190511587661e+004,-2.28125844898169e+001,-5.33427705912799e-001

1.11728713807222e+004,-2.28125920940603e+001,-5.40872969749776e-001

1.13288388529580e+004,-2.28125999117692e+001,-5.48422118558114e-001

1.14869835499703e+004,-2.28126079489266e+001,-5.56076600526584e-001

1.16473358646846e+004,-2.28126162116831e+001,-5.63837883973863e-001

1.18099266142953e+004,-2.28126247063608e+001,-5.71707457628901e-001

1.19747870461893e+004,-2.28126334394585e+001,-5.79686830911219e-001

1.21419488439505e+004,-2.28126424176564e+001,-5.87777534215556e-001

1.23114441334492e+004,-2.28126516478212e+001,-5.95981119201346e-001

1.24833054890161e+004,-2.28126611370116e+001,-6.04299159083503e-001

1.26575659397028e+004,-2.28126708924828e+001,-6.12733248931940e-001

1.28342589756290e+004,-2.28126809216928e+001,-6.21285005969754e-001

1.30134185544193e+004,-2.28126912323078e+001,-6.29956069877683e-001

1.31950791077289e+004,-2.28127018322075e+001,-6.38748103104679e-001

1.33792755478611e+004,-2.28127127294915e+001,-6.47662791179328e-001

1.35660432744767e+004,-2.28127239324850e+001,-6.56701843026351e-001

1.37554181813974e+004,-2.28127354497456e+001,-6.65866991288532e-001

1.39474366635040e+004,-2.28127472900693e+001,-6.75159992650514e-001

1.41421356237309e+004,-2.28127594624969e+001,-6.84582628170564e-001

1.43395524801583e+004,-2.28127719763212e+001,-6.94136703612897e-001

1.45397251732031e+004,-2.28127848410938e+001,-7.03824049785786e-001

1.47426921729110e+004,-2.28127980666321e+001,-7.13646522886488e-001

1.49484924863494e+004,-2.28128116630268e+001,-7.23606004845715e-001

1.51571656651040e+004,-2.28128256406492e+001,-7.33704403681012e-001

1.53687518128801e+004,-2.28128400101592e+001,-7.43943653853944e-001

1.55832915932100e+004,-2.28128547825133e+001,-7.54325716628532e-001

1.58008262372675e+004,-2.28128699689721e+001,-7.64852580439858e-001

1.60213975517924e+004,-2.28128855811093e+001,-7.75526261264017e-001

1.62450479271247e+004,-2.28129016308203e+001,-7.86348802991453e-001

1.64718203453514e+004,-2.28129181303308e+001,-7.97322277809572e-001

1.67017583885674e+004,-2.28129350922055e+001,-8.08448786587310e-001

1.69349062472505e+004,-2.28129525293583e+001,-8.19730459264269e-001

1.71713087287550e+004,-2.28129704550609e+001,-8.31169455247419e-001

1.74110112659224e+004,-2.28129888829533e+001,-8.42767963809190e-001

1.76540599258131e+004,-2.28130078270536e+001,-8.54528204494760e-001

1.79005014185594e+004,-2.28130273017680e+001,-8.66452427532361e-001

1.81503831063432e+004,-2.28130473219020e+001,-8.78542914247946e-001

1.84037530124975e+004,-2.28130679026710e+001,-8.90801977486758e-001

1.86606598307361e+004,-2.28130890597112e+001,-9.03231962040306e-001

1.89211529345119e+004,-2.28131108090916e+001,-9.15835245077016e-001

1.91852823865052e+004,-2.28131331673253e+001,-9.28614236580496e-001

1.94530989482457e+004,-2.28131561513817e+001,-9.41571379792346e-001

1.97246540898671e+004,-2.28131797786991e+001,-9.54709151658970e-001

1.99999999999999e+004,-2.28132040671971e+001,-9.68030063286487e-001

2.02791895958005e+004,-2.28132290352898e+001,-9.81536660400599e-001

2.05622765331213e+004,-2.28132547018991e+001,-9.95231523811856e-001

2.08493152168224e+004,-2.28132810864687e+001,-1.00911726988525e+000

2.11403608112276e+004,-2.28133082089776e+001,-1.02319655101797e+000

2.14354692507258e+004,-2.28133360899552e+001,-1.03747205612336e+000

2.17346972505211e+004,-2.28133647504956e+001,-1.05194651111716e+000

2.20381023175322e+004,-2.28133942122731e+001,-1.06662267941302e+000

2.23457427614443e+004,-2.28134244975577e+001,-1.08150336242413e+000

2.26576777059159e+004,-2.28134556292310e+001,-1.09659140006815e+000

2.29739670999406e+004,-2.28134876308028e+001,-1.11188967128007e+000

2.32946717293690e+004,-2.28135205264275e+001,-1.12740109453363e+000

2.36198532285905e+004,-2.28135543409218e+001,-1.14312862836262e+000

2.39495740923785e+004,-2.28135890997821e+001,-1.15907527189475e+000

2.42838976879009e+004,-2.28136248292026e+001,-1.17524406538895e+000

2.46228882668982e+004,-2.28136615560939e+001,-1.19163809077892e+000

2.49666109780322e+004,-2.28136993081022e+001,-1.20826047222284e+000

2.53151318794055e+004,-2.28137381136284e+001,-1.22511437666166e+000

2.56685179512580e+004,-2.28137780018485e+001,-1.24220301438192e+000

2.60268371088386e+004,-2.28138190027338e+001,-1.25952963958407e+000

2.63901582154578e+004,-2.28138611470719e+001,-1.27709755096134e+000

2.67585510957221e+004,-2.28139044664884e+001,-1.29491009228025e+000

2.71320865489533e+004,-2.28139489934688e+001,-1.31297065297089e+000

2.75108363627948e+004,-2.28139947613806e+001,-1.33128266872542e+000

2.78948733270080e+004,-2.28140418044973e+001,-1.34984962209631e+000

2.82842712474618e+004,-2.28140901580212e+001,-1.36867504311080e+000

2.86791049603164e+004,-2.28141398581081e+001,-1.38776250988355e+000

2.90794503464061e+004,-2.28141909418921e+001,-1.40711564924220e+000

2.94853843458219e+004,-2.28142434475104e+001,-1.42673813735657e+000

2.98969849726987e+004,-2.28142974141300e+001,-1.44663370037538e+000

3.03143313302078e+004,-2.28143528819739e+001,-1.46680611506942e+000

3.07375036257601e+004,-2.28144098923483e+001,-1.48725920948388e+000

3.11665831864199e+004,-2.28144684876705e+001,-1.50799686359449e+000

3.16016524745350e+004,-2.28145287114976e+001,-1.52902300997208e+000

3.20427951035848e+004,-2.28145906085549e+001,-1.55034163445461e+000

3.24900958542493e+004,-2.28146542247666e+001,-1.57195677682507e+000

3.29436406907028e+004,-2.28147196072855e+001,-1.59387253149690e+000

3.34035167771346e+004,-2.28147868045245e+001,-1.61609304820679e+000

3.38698124945009e+004,-2.28148558661885e+001,-1.63862253271353e+000

3.43426174575100e+004,-2.28149268433066e+001,-1.66146524750450e+000

3.48220225318448e+004,-2.28149997882654e+001,-1.68462551250953e+000

3.53081198516260e+004,-2.28150747548433e+001,-1.70810770582048e+000

3.58010028371187e+004,-2.28151517982448e+001,-1.73191626441901e+000

3.63007662126863e+004,-2.28152309751359e+001,-1.75605568491153e+000

3.68075060249948e+004,-2.28153123436806e+001,-1.78053052426970e+000

3.73213196614721e+004,-2.28153959635775e+001,-1.80534540057982e+000

3.78423058690237e+004,-2.28154818960976e+001,-1.83050499379750e+000

3.83705647730104e+004,-2.28155702041227e+001,-1.85601404650973e+000

3.89061978964912e+004,-2.28156609521848e+001,-1.88187736470561e+000

3.94493081797342e+004,-2.28157542065058e+001,-1.90809981855116e+000

3.99999999999998e+004,-2.28158500350385e+001,-1.93468634317288e+000

4.05583791916010e+004,-2.28159485075081e+001,-1.96164193944885e+000

4.11245530662425e+004,-2.28160496954547e+001,-1.98897167480381e+000

4.16986304336447e+004,-2.28161536722764e+001,-2.01668068401476e+000

4.22807216224550e+004,-2.28162605132732e+001,-2.04477417001997e+000

4.28709385014515e+004,-2.28163702956921e+001,-2.07325740473726e+000

4.34693945010421e+004,-2.28164830987724e+001,-2.10213572988816e+000

4.40762046350642e+004,-2.28165990037923e+001,-2.13141455782823e+000

4.46914855228886e+004,-2.28167180941158e+001,-2.16109937238483e+000

4.53153554118317e+004,-2.28168404552413e+001,-2.19119572970097e+000

4.59479341998812e+004,-2.28169661748503e+001,-2.22170925908572e+000

4.65893434587380e+004,-2.28170953428564e+001,-2.25264566387246e+000

4.72397064571810e+004,-2.28172280514566e+001,-2.28401072228131e+000

4.78991481847569e+004,-2.28173643951823e+001,-2.31581028828985e+000

4.85677953758016e+004,-2.28175044709510e+001,-2.34805029250950e+000

4.92457765337964e+004,-2.28176483781193e+001,-2.38073674306917e+000

4.99332219560642e+004,-2.28177962185368e+001,-2.41387572650310e+000

5.06302637588109e+004,-2.28179480965999e+001,-2.44747340864763e+000

5.13370359025159e+004,-2.28181041193072e+001,-2.48153603554206e+000

5.20536742176771e+004,-2.28182643963151e+001,-2.51606993433663e+000

5.27803164309155e+004,-2.28184290399946e+001,-2.55108151420727e+000

5.35171021914442e+004,-2.28185981654882e+001,-2.58657726727454e+000

5.42641730979066e+004,-2.28187718907679e+001,-2.62256376953165e+000

5.50216727255895e+004,-2.28189503366940e+001,-2.65904768177417e+000

5.57897466540159e+004,-2.28191336270735e+001,-2.69603575054091e+000

5.65685424949235e+004,-2.28193218887208e+001,-2.73353480905642e+000

5.73582099206328e+004,-2.28195152515173e+001,-2.77155177818180e+000

5.81589006928121e+004,-2.28197138484727e+001,-2.81009366737138e+000

5.89707686916437e+004,-2.28199178157862e+001,-2.84916757563404e+000

5.97939699453972e+004,-2.28201272929081e+001,-2.88878069250252e+000

6.06286626604156e+004,-2.28203424226027e+001,-2.92894029900635e+000

6.14750072515201e+004,-2.28205633510103e+001,-2.96965376865364e+000

6.23331663728396e+004,-2.28207902277108e+001,-3.01092856841578e+000

6.32033049490698e+004,-2.28210232057865e+001,-3.05277225972141e+000

6.40855902071694e+004,-2.28212624418861e+001,-3.09519249945409e+000

6.49801917084985e+004,-2.28215080962883e+001,-3.13819704095853e+000

6.58872813814055e+004,-2.28217603329656e+001,-3.18179373505063e+000

6.68070335542691e+004,-2.28220193196487e+001,-3.22599053103695e+000

6.77396249890018e+004,-2.28222852278903e+001,-3.27079547773832e+000

6.86852349150199e+004,-2.28225582331291e+001,-3.31621672452240e+000

6.96440450636895e+004,-2.28228385147540e+001,-3.36226252234182e+000

7.06162397032520e+004,-2.28231262561676e+001,-3.40894122478069e+000

7.16020056742374e+004,-2.28234216448500e+001,-3.45626128910778e+000

7.26015324253724e+004,-2.28237248724219e+001,-3.50423127733858e+000

7.36150120499896e+004,-2.28240361347078e+001,-3.55285985730439e+000

7.46426393229441e+004,-2.28243556317980e+001,-3.60215580373101e+000

7.56846117380472e+004,-2.28246835681107e+001,-3.65212799932594e+000

7.67411295460207e+004,-2.28250201524535e+001,-3.70278543587448e+000

7.78123957929823e+004,-2.28253655980837e+001,-3.75413721534682e+000

7.88986163594682e+004,-2.28257201227684e+001,-3.80619255101417e+000

7.99999999999995e+004,-2.28260839488433e+001,-3.85896076857744e+000

8.11167583832018e+004,-2.28264573032706e+001,-3.91245130730555e+000

8.22491061324848e+004,-2.28268404176964e+001,-3.96667372118836e+000

8.33972608672892e+004,-2.28272335285059e+001,-4.02163768009999e+000

8.45614432449099e+004,-2.28276368768786e+001,-4.07735297097867e+000

8.57418770029029e+004,-2.28280507088416e+001,-4.13382949901867e+000

8.69387890020841e+004,-2.28284752753209e+001,-4.19107728888041e+000

8.81524092701283e+004,-2.28289108321926e+001,-4.24910648591445e+000

8.93829710457770e+004,-2.28293576403314e+001,-4.30792735740567e+000

9.06307108236633e+004,-2.28298159656577e+001,-4.36755029383419e+000

9.18958683997622e+004,-2.28302860791837e+001,-4.42798581015790e+000

9.31786869174758e+004,-2.28307682570564e+001,-4.48924454711482e+000

9.44794129143618e+004,-2.28312627805998e+001,-4.55133727254955e+000

9.57982963695136e+004,-2.28317699363549e+001,-4.61427488276282e+000

9.71355907516031e+004,-2.28322900161171e+001,-4.67806840388668e+000

9.84915530675926e+004,-2.28328233169728e+001,-4.74272899328755e+000

9.98664439121282e+004,-2.28333701413324e+001,-4.80826794099822e+000

1.01260527517622e+005,-2.28339307969622e+001,-4.87469667117962e+000

1.02674071805032e+005,-2.28345055970140e+001,-4.94202674361632e+000

1.04107348435354e+005,-2.28350948600521e+001,-5.01026985524671e+000

1.05560632861831e+005,-2.28356989100784e+001,-5.07943784172840e+000

1.07034204382888e+005,-2.28363180765554e+001,-5.14954267904457e+000

1.08528346195813e+005,-2.28369526944270e+001,-5.22059648514957e+000

1.10043345451179e+005,-2.28376031041368e+001,-5.29261152165956e+000

1.11579493308032e+005,-2.28382696516450e+001,-5.36560019558747e+000

1.13137084989847e+005,-2.28389526884432e+001,-5.43957506112701e+000

1.14716419841265e+005,-2.28396525715663e+001,-5.51454882148815e+000

1.16317801385624e+005,-2.28403696636043e+001,-5.59053433078546e+000

1.17941537383287e+005,-2.28411043327112e+001,-5.66754459598286e+000

1.19587939890794e+005,-2.28418569526130e+001,-5.74559277889767e+000

1.21257325320831e+005,-2.28426279026142e+001,-5.82469219826690e+000

1.22950014503040e+005,-2.28434175676034e+001,-5.90485633187759e+000

1.24666332745679e+005,-2.28442263380580e+001,-5.98609881876641e+000

1.26406609898139e+005,-2.28450546100485e+001,-6.06843346148844e+000

1.28171180414339e+005,-2.28459027852426e+001,-6.15187422846121e+000

1.29960383416997e+005,-2.28467712709087e+001,-6.23643525638539e+000

1.31774562762811e+005,-2.28476604799215e+001,-6.32213085274442e+000

1.33614067108538e+005,-2.28485708307669e+001,-6.40897549838873e+000

1.35479249978003e+005,-2.28495027475489e+001,-6.49698385020461e+000

1.37370469830040e+005,-2.28504566599990e+001,-6.58617074387300e+000

1.39288090127379e+005,-2.28514330034866e+001,-6.67655119671993e+000

1.41232479406504e+005,-2.28524322190338e+001,-6.76814041066126e+000

1.43204011348474e+005,-2.28534547533327e+001,-6.86095377524562e+000

1.45203064850745e+005,-2.28545010587679e+001,-6.95500687079695e+000

1.47230024099979e+005,-2.28555715934427e+001,-7.05031547166054e+000

1.49285278645888e+005,-2.28566668212124e+001,-7.14689554955305e+000

1.51369223476094e+005,-2.28577872117228e+001,-7.24476327702063e+000

1.53482259092041e+005,-2.28589332404568e+001,-7.34393503100624e+000

1.55624791585964e+005,-2.28601053887889e+001,-7.44442739652731e+000

1.57797232718936e+005,-2.28613041440484e+001,-7.54625717046722e+000

1.59999999999999e+005,-2.28625299995934e+001,-7.64944136547976e+000

1.62233516766403e+005,-2.28637834548948e+001,-7.75399721400860e+000

1.64498212264969e+005,-2.28650650156335e+001,-7.85994217242245e+000

1.66794521734578e+005,-2.28663751938091e+001,-7.96729392526681e+000

1.69122886489819e+005,-2.28677145078646e+001,-8.07607038963008e+000

1.71483754005805e+005,-2.28690834828251e+001,-8.18628971962644e+000

1.73877578004168e+005,-2.28704826504532e+001,-8.29797031099301e+000

1.76304818540256e+005,-2.28719125494223e+001,-8.41113080580010e+000

1.78765942091554e+005,-2.28733737255087e+001,-8.52579009727323e+000

1.81261421647326e+005,-2.28748667318038e+001,-8.64196733472481e+000

1.83791736799524e+005,-2.28763921289469e+001,-8.75968192859285e+000

1.86357373834951e+005,-2.28779504853815e+001,-8.87895355558215e+000

1.88958825828723e+005,-2.28795423776348e+001,-8.99980216390636e+000

1.91596592739027e+005,-2.28811683906222e+001,-9.12224797862530e+000

1.94271181503206e+005,-2.28828291179782e+001,-9.24631150707281e+000

1.96983106135185e+005,-2.28845251624146e+001,-9.37201354436991e+000

1.99732887824256e+005,-2.28862571361074e+001,-9.49937517901765e+000

2.02521055035243e+005,-2.28880256611137e+001,-9.62841779856235e+000

2.05348143610063e+005,-2.28898313698189e+001,-9.75916309532703e+000

2.08214696870707e+005,-2.28916749054170e+001,-9.89163307220008e+000

2.11121265723661e+005,-2.28935569224232e+001,-1.00258500484750e+001

2.14068408765776e+005,-2.28954780872206e+001,-1.01618366657297e+001

2.17056692391625e+005,-2.28974390786429e+001,-1.02996158937388e+001

2.20086690902357e+005,-2.28994405885917e+001,-1.04392110364070e+001

2.23158986616063e+005,-2.29014833226920e+001,-1.05806457377143e+001

2.26274169979693e+005,-2.29035680009839e+001,-1.07239439876621e+001

2.29432839682530e+005,-2.29056953586538e+001,-1.08691301282085e+001

2.32635602771247e+005,-2.29078661468029e+001,-1.10162288591822e+001

2.35883074766574e+005,-2.29100811332564e+001,-1.11652652441612e+001

2.39175879781588e+005,-2.29123411034112e+001,-1.13162647163065e+001

2.42514650641661e+005,-2.29146468611240e+001,-1.14692530841351e+001

2.45900029006080e+005,-2.29169992296396e+001,-1.16242565372224e+001

2.49332665491357e+005,-2.29193990525583e+001,-1.17813016518197e+001

2.52813219796278e+005,-2.29218471948455e+001,-1.19404153963718e+001

2.56342360828676e+005,-2.29243445438784e+001,-1.21016251369255e+001

2.59920766833993e+005,-2.29268920105348e+001,-1.22649586424115e+001

2.63549125525621e+005,-2.29294905303199e+001,-1.24304440897892e+001

2.67228134217075e+005,-2.29321410645320e+001,-1.25981100690392e+001

2.70958499956006e+005,-2.29348446014662e+001,-1.27679855879926e+001

2.74740939660078e+005,-2.29376021576560e+001,-1.29401000769818e+001

2.78576180254757e+005,-2.29404147791512e+001,-1.31144833933011e+001

2.82464958813007e+005,-2.29432835428307e+001,-1.32911658254660e+001

2.86408022696948e+005,-2.29462095577509e+001,-1.34701780972564e+001

2.90406129701488e+005,-2.29491939665267e+001,-1.36515513715343e+001

2.94460048199957e+005,-2.29522379467451e+001,-1.38353172538231e+001

2.98570557291775e+005,-2.29553427124090e+001,-1.40215077956394e+001

3.02738446952187e+005,-2.29585095154106e+001,-1.42101554975651e+001

3.06964518184081e+005,-2.29617396470334e+001,-1.44012933120515e+001

3.11249583171928e+005,-2.29650344394789e+001,-1.45949546459455e+001

3.15594465437872e+005,-2.29683952674194e+001,-1.47911733627289e+001

3.19999999999997e+005,-2.29718235495729e+001,-1.49899837844644e+001

3.24467033532806e+005,-2.29753207503001e+001,-1.51914206934382e+001

3.28996424529938e+005,-2.29788883812195e+001,-1.53955193334957e+001

3.33589043469155e+005,-2.29825280028419e+001,-1.56023154110617e+001

3.38245772979638e+005,-2.29862412262191e+001,-1.58118450958402e+001

3.42967508011610e+005,-2.29900297146085e+001,-1.60241450211895e+001

3.47755156008335e+005,-2.29938951851478e+001,-1.62392522841684e+001

3.52609637080511e+005,-2.29978394105422e+001,-1.64572044452489e+001

3.57531884183106e+005,-2.30018642207586e+001,-1.66780395276928e+001

3.62522843294651e+005,-2.30059715047275e+001,-1.69017960165904e+001

3.67583473599047e+005,-2.30101632120498e+001,-1.71285128575577e+001

3.72714747669902e+005,-2.30144413547066e+001,-1.73582294550923e+001

3.77917651657445e+005,-2.30188080087703e+001,-1.75909856705852e+001

3.83193185478053e+005,-2.30232653161170e+001,-1.78268218199888e+001

3.88542363006410e+005,-2.30278154861353e+001,-1.80657786711409e+001

3.93966212270369e+005,-2.30324607974330e+001,-1.83078974407430e+001

3.99465775648511e+005,-2.30372035995388e+001,-1.85532197909950e+001

4.05042110070485e+005,-2.30420463145971e+001,-1.88017878258854e+001

4.10696287220124e+005,-2.30469914390557e+001,-1.90536440871382e+001

4.16429393741414e+005,-2.30520415453434e+001,-1.93088315498155e+001

4.22242531447321e+005,-2.30571992835381e+001,-1.95673936175791e+001

4.28136817531551e+005,-2.30624673830225e+001,-1.98293741176092e+001

4.34113384783250e+005,-2.30678486541260e+001,-2.00948172951815e+001

4.40173381804713e+005,-2.30733459897534e+001,-2.03637678079042e+001

4.46317973232124e+005,-2.30789623669973e+001,-2.06362707196133e+001

4.52548339959385e+005,-2.30847008487336e+001,-2.09123714939281e+001

4.58865679365059e+005,-2.30905645851994e+001,-2.11921159874653e+001

4.65271205542494e+005,-2.30965568155512e+001,-2.14755504427129e+001

4.71766149533147e+005,-2.31026808694039e+001,-2.17627214805613e+001

4.78351759563174e+005,-2.31089401683467e+001,-2.20536760924930e+001

4.85029301283321e+005,-2.31153382274380e+001,-2.23484616324277e+001

4.91800058012158e+005,-2.31218786566754e+001,-2.26471258082221e+001

4.98665330982714e+005,-2.31285651624409e+001,-2.29497166728226e+001

5.05626439592555e+005,-2.31354015489201e+001,-2.32562826150682e+001

5.12684721657352e+005,-2.31423917194934e+001,-2.35668723501420e+001

5.19841533667984e+005,-2.31495396780980e+001,-2.38815349096670e+001

5.27098251051240e+005,-2.31568495305601e+001,-2.42003196314444e+001

5.34456268434150e+005,-2.31643254858945e+001,-2.45232761488304e+001

5.41916999912011e+005,-2.31719718575708e+001,-2.48504543797474e+001

