Freq.,VOut,OutRef

1.00000000000000e+004,-7.79307073683331e+000,-1.17224869613407e-001

1.01395947979003e+004,-7.79307117690960e+000,-1.18861151495627e-001

1.02811382665607e+004,-7.79307162932588e+000,-1.20520270089332e-001

1.04246576084112e+004,-7.79307209442721e+000,-1.22202543974312e-001

1.05701804056138e+004,-7.79307257256826e+000,-1.23908296168787e-001

1.07177346253629e+004,-7.79307306411376e+000,-1.25637854189492e-001

1.08673486252606e+004,-7.79307356943831e+000,-1.27391550117225e-001

1.10190511587661e+004,-7.79307408892707e+000,-1.29169720657649e-001

1.11728713807222e+004,-7.79307462297549e+000,-1.30972707208803e-001

1.13288388529580e+004,-7.79307517199087e+000,-1.32800855918053e-001

1.14869835499703e+004,-7.79307573639079e+000,-1.34654517759868e-001

1.16473358646846e+004,-7.79307631660540e+000,-1.36534048589913e-001

1.18099266142953e+004,-7.79307691307582e+000,-1.38439809225862e-001

1.19747870461893e+004,-7.79307752625613e+000,-1.40372165504355e-001

1.21419488439505e+004,-7.79307815661265e+000,-1.42331488357667e-001

1.23114441334492e+004,-7.79307880462502e+000,-1.44318153879587e-001

1.24833054890161e+004,-7.79307947078532e+000,-1.46332543405308e-001

1.26575659397028e+004,-7.79308015560017e+000,-1.48375043571824e-001

1.28342589756290e+004,-7.79308085958974e+000,-1.50446046400570e-001

1.30134185544193e+004,-7.79308158328853e+000,-1.52545949369815e-001

1.31950791077289e+004,-7.79308232724599e+000,-1.54675155487859e-001

1.33792755478611e+004,-7.79308309202687e+000,-1.56834073370033e-001

1.35660432744767e+004,-7.79308387821121e+000,-1.59023117319572e-001

1.37554181813974e+004,-7.79308468639536e+000,-1.61242707401480e-001

1.39474366635040e+004,-7.79308551719164e+000,-1.63493269527891e-001

1.41421356237309e+004,-7.79308637122991e+000,-1.65775235530953e-001

1.43395524801583e+004,-7.79308724915698e+000,-1.68089043251991e-001

1.45397251732031e+004,-7.79308815163740e+000,-1.70435136621666e-001

1.47426921729110e+004,-7.79308907935417e+000,-1.72813965743357e-001

1.49484924863494e+004,-7.79309003300930e+000,-1.75225986976735e-001

1.51571656651040e+004,-7.79309101332362e+000,-1.77671663030178e-001

1.53687518128801e+004,-7.79309202103818e+000,-1.80151463041177e-001

1.55832915932100e+004,-7.79309305691399e+000,-1.82665862670423e-001

1.58008262372675e+004,-7.79309412173331e+000,-1.85215344187645e-001

1.60213975517924e+004,-7.79309521629984e+000,-1.87800396563961e-001

1.62450479271247e+004,-7.79309634143886e+000,-1.90421515567668e-001

1.64718203453514e+004,-7.79309749799853e+000,-1.93079203852465e-001

1.67017583885674e+004,-7.79309868685032e+000,-1.95773971054539e-001

1.69349062472505e+004,-7.79309990888956e+000,-1.98506333887696e-001

1.71713087287550e+004,-7.79310116503554e+000,-2.01276816244893e-001

1.74110112659224e+004,-7.79310245623326e+000,-2.04085949289248e-001

1.76540599258131e+004,-7.79310378345319e+000,-2.06934271560543e-001

1.79005014185594e+004,-7.79310514769212e+000,-2.09822329074498e-001

1.81503831063432e+004,-7.79310654997415e+000,-2.12750675423872e-001

1.84037530124975e+004,-7.79310799135120e+000,-2.15719871884058e-001

1.86606598307361e+004,-7.79310947290376e+000,-2.18730487517809e-001

1.89211529345119e+004,-7.79311099574158e+000,-2.21783099282013e-001

1.91852823865052e+004,-7.79311256100463e+000,-2.24878292135729e-001

1.94530989482457e+004,-7.79311416986345e+000,-2.28016659151541e-001

1.97246540898671e+004,-7.79311582352083e+000,-2.31198801621274e-001

1.99999999999999e+004,-7.79311752321125e+000,-2.34425329176972e-001

2.02791895958005e+004,-7.79311927020334e+000,-2.37696859895380e-001

2.05622765331213e+004,-7.79312106579935e+000,-2.41014020420847e-001

2.08493152168224e+004,-7.79312291133693e+000,-2.44377446077975e-001

2.11403608112276e+004,-7.79312480818932e+000,-2.47787780993557e-001

2.14354692507258e+004,-7.79312675776719e+000,-2.51245678211128e-001

2.17346972505211e+004,-7.79312876151842e+000,-2.54751799819953e-001

2.20381023175322e+004,-7.79313082093010e+000,-2.58306817071269e-001

2.23457427614443e+004,-7.79313293752921e+000,-2.61911410505713e-001

2.26576777059159e+004,-7.79313511288289e+000,-2.65566270082953e-001

2.29739670999406e+004,-7.79313734860087e+000,-2.69272095302269e-001

2.32946717293690e+004,-7.79313964633511e+000,-2.73029595340395e-001

2.36198532285905e+004,-7.79314200778170e+000,-2.76839489176972e-001

2.39495740923785e+004,-7.79314443468179e+000,-2.80702505730234e-001

2.42838976879009e+004,-7.79314692882270e+000,-2.84619383989797e-001

2.46228882668982e+004,-7.79314949203906e+000,-2.88590873154342e-001

2.49666109780322e+004,-7.79315212621358e+000,-2.92617732771573e-001

2.53151318794055e+004,-7.79315483327886e+000,-2.96700732874605e-001

2.56685179512580e+004,-7.79315761521840e+000,-3.00840654125188e-001

2.60268371088386e+004,-7.79316047406757e+000,-3.05038287957265e-001

2.63901582154578e+004,-7.79316341191529e+000,-3.09294436721532e-001

2.67585510957221e+004,-7.79316643090474e+000,-3.13609913834807e-001

2.71320865489533e+004,-7.79316953323538e+000,-3.17985543924912e-001

2.75108363627948e+004,-7.79317272116370e+000,-3.22422162985374e-001

2.78948733270080e+004,-7.79317599700474e+000,-3.26920618526297e-001

2.82842712474618e+004,-7.79317936313370e+000,-3.31481769728175e-001

2.86791049603164e+004,-7.79318282198690e+000,-3.36106487600890e-001

2.90794503464061e+004,-7.79318637606363e+000,-3.40795655139399e-001

2.94853843458219e+004,-7.79319002792729e+000,-3.45550167486366e-001

2.98969849726987e+004,-7.79319378020717e+000,-3.50370932091609e-001

3.03143313302078e+004,-7.79319763559968e+000,-3.55258868879851e-001

3.07375036257601e+004,-7.79320159686993e+000,-3.60214910414711e-001

3.11665831864199e+004,-7.79320566685333e+000,-3.65240002068021e-001

3.16016524745350e+004,-7.79320984845711e+000,-3.70335102190147e-001

3.20427951035848e+004,-7.79321414466192e+000,-3.75501182281894e-001

3.24900958542493e+004,-7.79321855852351e+000,-3.80739227169202e-001

3.29436406907028e+004,-7.79322309317406e+000,-3.86050235181686e-001

3.34035167771346e+004,-7.79322775182446e+000,-3.91435218326176e-001

3.38698124945009e+004,-7.79323253776522e+000,-3.96895202474220e-001

3.43426174575100e+004,-7.79323745436851e+000,-4.02431227541381e-001

3.48220225318448e+004,-7.79324250508987e+000,-4.08044347672838e-001

3.53081198516260e+004,-7.79324769347013e+000,-4.13735631429441e-001

3.58010028371187e+004,-7.79325302313670e+000,-4.19506161980144e-001

3.63007662126863e+004,-7.79325849780553e+000,-4.25357037292194e-001

3.68075060249948e+004,-7.79326412128276e+000,-4.31289370326003e-001

3.73213196614721e+004,-7.79326989746690e+000,-4.37304289228634e-001

3.78423058690237e+004,-7.79327583035008e+000,-4.43402937535498e-001

3.83705647730104e+004,-7.79328192401999e+000,-4.49586474370775e-001

3.89061978964912e+004,-7.79328818266178e+000,-4.55856074648977e-001

3.94493081797342e+004,-7.79329461055997e+000,-4.62212929280071e-001

3.99999999999998e+004,-7.79330121209973e+000,-4.68658245380289e-001

4.05583791916010e+004,-7.79330799176921e+000,-4.75193246479032e-001

4.11245530662425e+004,-7.79331495416100e+000,-4.81819172732989e-001

4.16986304336447e+004,-7.79332210397408e+000,-4.88537281140086e-001

4.22807216224550e+004,-7.79332944601537e+000,-4.95348845758320e-001

4.28709385014515e+004,-7.79333698520202e+000,-5.02255157921740e-001

4.34693945010421e+004,-7.79334472656211e+000,-5.09257526468704e-001

4.40762046350642e+004,-7.79335267523743e+000,-5.16357277960472e-001

4.46914855228886e+004,-7.79336083648473e+000,-5.23555756910472e-001

4.53153554118317e+004,-7.79336921567711e+000,-5.30854326015842e-001

4.59479341998812e+004,-7.79337781830599e+000,-5.38254366386391e-001

4.65893434587380e+004,-7.79338664998278e+000,-5.45757277779889e-001

4.72397064571810e+004,-7.79339571643997e+000,-5.53364478841130e-001

4.78991481847569e+004,-7.79340502353311e+000,-5.61077407338757e-001

4.85677953758016e+004,-7.79341457724177e+000,-5.68897520409849e-001

4.92457765337964e+004,-7.79342438367143e+000,-5.76826294802716e-001

4.99332219560642e+004,-7.79343444905416e+000,-5.84865227127142e-001

5.06302637588109e+004,-7.79344477975047e+000,-5.93015834101038e-001

5.13370359025159e+004,-7.79345538225003e+000,-6.01279652806105e-001

5.20536742176771e+004,-7.79346626317294e+000,-6.09658240941477e-001

5.27803164309155e+004,-7.79347742927057e+000,-6.18153177082836e-001

5.35171021914442e+004,-7.79348888742636e+000,-6.26766060943581e-001

5.42641730979066e+004,-7.79350064465677e+000,-6.35498513637384e-001

5.50216727255895e+004,-7.79351270811171e+000,-6.44352177945810e-001

5.57897466540159e+004,-7.79352508507520e+000,-6.53328718585381e-001

5.65685424949235e+004,-7.79353778296531e+000,-6.62429822483900e-001

5.73582099206328e+004,-7.79355080933487e+000,-6.71657199051041e-001

5.81589006928121e+004,-7.79356417187088e+000,-6.81012580459645e-001

5.89707686916437e+004,-7.79357787839509e+000,-6.90497721923090e-001

5.97939699453972e+004,-7.79359193686285e+000,-7.00114401983146e-001

6.06286626604156e+004,-7.79360635536316e+000,-7.09864422793492e-001

6.14750072515201e+004,-7.79362114211750e+000,-7.19749610411850e-001

6.23331663728396e+004,-7.79363630547890e+000,-7.29771815092256e-001

6.32033049490698e+004,-7.79365185393094e+000,-7.39932911580558e-001

6.40855902071694e+004,-7.79366779608583e+000,-7.50234799415306e-001

6.49801917084985e+004,-7.79368414068299e+000,-7.60679403228459e-001

6.58872813814055e+004,-7.79370089658658e+000,-7.71268673054364e-001

6.68070335542691e+004,-7.79371807278344e+000,-7.82004584636040e-001

6.77396249890018e+004,-7.79373567838014e+000,-7.92889139740193e-001

6.86852349150199e+004,-7.79375372259990e+000,-8.03924366472574e-001

6.96440450636895e+004,-7.79377221477923e+000,-8.15112319598813e-001

7.06162397032520e+004,-7.79379116436410e+000,-8.26455080867262e-001

7.16020056742374e+004,-7.79381058090567e+000,-8.37954759336367e-001

7.26015324253724e+004,-7.79383047405546e+000,-8.49613491707485e-001

7.36150120499896e+004,-7.79385085356053e+000,-8.61433442657909e-001

7.46426393229441e+004,-7.79387172925761e+000,-8.73416805182609e-001

7.56846117380472e+004,-7.79389311106722e+000,-8.85565800935823e-001

7.67411295460207e+004,-7.79391500898675e+000,-8.97882680580776e-001

7.78123957929823e+004,-7.79393743308367e+000,-9.10369724140154e-001

7.88986163594682e+004,-7.79396039348755e+000,-9.23029241354343e-001

7.99999999999995e+004,-7.79398390038195e+000,-9.35863572041603e-001

8.11167583832018e+004,-7.79400796399517e+000,-9.48875086466987e-001

8.22491061324848e+004,-7.79403259459096e+000,-9.62066185710800e-001

8.33972608672892e+004,-7.79405780245805e+000,-9.75439302048290e-001

8.45614432449099e+004,-7.79408359789945e+000,-9.88996899328888e-001

8.57418770029029e+004,-7.79410999122043e+000,-1.00274147336646e+000

8.69387890020841e+004,-7.79413699271630e+000,-1.01667555233167e+000

8.81524092701283e+004,-7.79416461265901e+000,-1.03080169715201e+000

8.93829710457770e+004,-7.79419286128346e+000,-1.04512250191612e+000

9.06307108236633e+004,-7.79422174877214e+000,-1.05964059428845e+000

9.18958683997622e+004,-7.79425128523974e+000,-1.07435863592699e+000

9.31786869174758e+004,-7.79428148071634e+000,-1.08927932290962e+000

9.44794129143618e+004,-7.79431234512981e+000,-1.10440538616800e+000

9.57982963695136e+004,-7.79434388828756e+000,-1.11973959192784e+000

9.71355907516031e+004,-7.79437611985666e+000,-1.13528474215877e+000

9.84915530675926e+004,-7.79440904934354e+000,-1.15104367503187e+000

9.98664439121282e+004,-7.79444268607250e+000,-1.16701926538473e+000

1.01260527517622e+005,-7.79447703916305e+000,-1.18321442519683e+000

1.02674071805032e+005,-7.79451211750611e+000,-1.19963210407526e+000

1.04107348435354e+005,-7.79454792973949e+000,-1.21627528974627e+000

1.05560632861831e+005,-7.79458448422171e+000,-1.23314700856260e+000

1.07034204382888e+005,-7.79462178900537e+000,-1.25025032601533e+000

1.08528346195813e+005,-7.79465985180843e+000,-1.26758834726304e+000

1.10043345451179e+005,-7.79469867998507e+000,-1.28516421766776e+000

1.11579493308032e+005,-7.79473828049520e+000,-1.30298112334470e+000

1.13137084989847e+005,-7.79477865987258e+000,-1.32104229172506e+000

1.14716419841265e+005,-7.79481982419171e+000,-1.33935099213044e+000

1.16317801385624e+005,-7.79486177903380e+000,-1.35791053636277e+000

1.17941537383287e+005,-7.79490452945116e+000,-1.37672427930605e+000

1.19587939890794e+005,-7.79494807993051e+000,-1.39579561954534e+000

1.21257325320831e+005,-7.79499243435514e+000,-1.41512799999846e+000

1.22950014503040e+005,-7.79503759596572e+000,-1.43472490856502e+000

1.24666332745679e+005,-7.79508356731993e+000,-1.45458987879242e+000

1.26406609898139e+005,-7.79513035025105e+000,-1.47472649055622e+000

1.28171180414339e+005,-7.79517794582488e+000,-1.49513837076267e+000

1.29960383416997e+005,-7.79522635429628e+000,-1.51582919406436e+000

1.31774562762811e+005,-7.79527557506376e+000,-1.53680268359866e+000

1.33614067108538e+005,-7.79532560662346e+000,-1.55806261174476e+000

1.35479249978003e+005,-7.79537644652203e+000,-1.57961280089952e+000

1.37370469830040e+005,-7.79542809130823e+000,-1.60145712427599e+000

1.39288090127379e+005,-7.79548053648386e+000,-1.62359950672187e+000

1.41232479406504e+005,-7.79553377645344e+000,-1.64604392556194e+000

1.43204011348474e+005,-7.79558780447326e+000,-1.66879441146144e+000

1.45203064850745e+005,-7.79564261259956e+000,-1.69185504931399e+000

1.47230024099979e+005,-7.79569819163594e+000,-1.71522997915240e+000

1.49285278645888e+005,-7.79575453108002e+000,-1.73892339708523e+000

1.51369223476094e+005,-7.79581161906958e+000,-1.76293955625884e+000

1.53482259092041e+005,-7.79586944232845e+000,-1.78728276784221e+000

1.55624791585964e+005,-7.79592798611137e+000,-1.81195740204213e+000

1.57797232718936e+005,-7.79598723414932e+000,-1.83696788914160e+000

1.59999999999999e+005,-7.79604716859371e+000,-1.86231872056875e+000

1.62233516766403e+005,-7.79610776996154e+000,-1.88801444998923e+000

1.64498212264969e+005,-7.79616901707953e+000,-1.91405969443119e+000

1.66794521734578e+005,-7.79623088702906e+000,-1.94045913543532e+000

1.69122886489819e+005,-7.79629335509103e+000,-1.96721752023539e+000

1.71483754005805e+005,-7.79635639469129e+000,-1.99433966296686e+000

1.73877578004168e+005,-7.79641997734627e+000,-2.02183044590489e+000

1.76304818540256e+005,-7.79648407260957e+000,-2.04969482073284e+000

1.78765942091554e+005,-7.79654864801903e+000,-2.07793780983801e+000

1.81261421647326e+005,-7.79661366904486e+000,-2.10656450763923e+000

1.83791736799524e+005,-7.79667909903866e+000,-2.13558008194280e+000

1.86357373834951e+005,-7.79674489918381e+000,-2.16498977532717e+000

1.88958825828723e+005,-7.79681102844691e+000,-2.19479890655885e+000

1.91596592739027e+005,-7.79687744353086e+000,-2.22501287203565e+000

1.94271181503206e+005,-7.79694409882938e+000,-2.25563714725904e+000

1.96983106135185e+005,-7.79701094638331e+000,-2.28667728833603e+000

1.99732887824256e+005,-7.79707793583870e+000,-2.31813893350733e+000

2.02521055035243e+005,-7.79714501440685e+000,-2.35002780470426e+000

2.05348143610063e+005,-7.79721212682647e+000,-2.38234970913252e+000

2.08214696870707e+005,-7.79727921532791e+000,-2.41511054088105e+000

2.11121265723661e+005,-7.79734621959979e+000,-2.44831628255857e+000

2.14068408765776e+005,-7.79741307675803e+000,-2.48197300695217e+000

2.17056692391625e+005,-7.79747972131719e+000,-2.51608687871273e+000

2.20086690902357e+005,-7.79754608516460e+000,-2.55066415606102e+000

2.23158986616063e+005,-7.79761209753660e+000,-2.58571119251846e+000

2.26274169979693e+005,-7.79767768499836e+000,-2.62123443865500e+000

2.29432839682530e+005,-7.79774277142531e+000,-2.65724044386215e+000

2.32635602771247e+005,-7.79780727798820e+000,-2.69373585814067e+000

2.35883074766574e+005,-7.79787112314016e+000,-2.73072743390913e+000

2.39175879781588e+005,-7.79793422260732e+000,-2.76822202782617e+000

2.42514650641661e+005,-7.79799648938141e+000,-2.80622660263143e+000

2.45900029006080e+005,-7.79805783371538e+000,-2.84474822899839e+000

2.49332665491357e+005,-7.79811816312160e+000,-2.88379408740199e+000

2.52813219796278e+005,-7.79817738237277e+000,-2.92337146999665e+000

2.56342360828676e+005,-7.79823539350500e+000,-2.96348778250622e+000

2.59920766833993e+005,-7.79829209582353e+000,-3.00415054612338e+000

2.63549125525621e+005,-7.79834738591069e+000,-3.04536739941585e+000

2.67228134217075e+005,-7.79840115763570e+000,-3.08714610024279e+000

2.70958499956006e+005,-7.79845330216693e+000,-3.12949452767447e+000

2.74740939660078e+005,-7.79850370798523e+000,-3.17242068392037e+000

2.78576180254757e+005,-7.79855226089972e+000,-3.21593269625792e+000

2.82464958813007e+005,-7.79859884406417e+000,-3.26003881896832e+000

2.86408022696948e+005,-7.79864333799524e+000,-3.30474743527163e+000

2.90406129701488e+005,-7.79868562059093e+000,-3.35006705926797e+000

2.94460048199957e+005,-7.79872556715050e+000,-3.39600633787522e+000

2.98570557291775e+005,-7.79876305039417e+000,-3.44257405277228e+000

3.02738446952187e+005,-7.79879794048334e+000,-3.48977912233944e+000

3.06964518184081e+005,-7.79883010504054e+000,-3.53763060360087e+000

3.11249583171928e+005,-7.79885940916908e+000,-3.58613769416621e+000

3.15594465437872e+005,-7.79888571547167e+000,-3.63530973417401e+000

3.19999999999997e+005,-7.79890888406851e+000,-3.68515620823223e+000

3.24467033532806e+005,-7.79892877261357e+000,-3.73568674736254e+000

3.28996424529938e+005,-7.79894523630947e+000,-3.78691113094384e+000

3.33589043469155e+005,-7.79895812792036e+000,-3.83883928865675e+000

3.38245772979638e+005,-7.79896729778247e+000,-3.89148130243085e+000

3.42967508011610e+005,-7.79897259381194e+000,-3.94484740839549e+000

3.47755156008335e+005,-7.79897386151004e+000,-3.99894799883228e+000

3.52609637080511e+005,-7.79897094396483e+000,-4.05379362413470e+000

3.57531884183106e+005,-7.79896368184948e+000,-4.10939499477171e+000

3.62522843294651e+005,-7.79895191341674e+000,-4.16576298325998e+000

3.67583473599047e+005,-7.79893547448911e+000,-4.22290862614458e+000

3.72714747669902e+005,-7.79891419844490e+000,-4.28084312598978e+000

3.77917651657445e+005,-7.79888791619926e+000,-4.33957785338211e+000

3.83193185478053e+005,-7.79885645618053e+000,-4.39912434894697e+000

3.88542363006410e+005,-7.79881964430127e+000,-4.45949432538127e+000

3.93966212270369e+005,-7.79877730392400e+000,-4.52069966950263e+000

3.99465775648511e+005,-7.79872925582096e+000,-4.58275244431983e+000

4.05042110070485e+005,-7.79867531812840e+000,-4.64566489112408e+000

4.10696287220124e+005,-7.79861530629452e+000,-4.70944943160422e+000

4.16429393741414e+005,-7.79854903302129e+000,-4.77411866998808e+000

4.22242531447321e+005,-7.79847630819974e+000,-4.83968539521384e+000

4.28136817531551e+005,-7.79839693883904e+000,-4.90616258312907e+000

4.34113384783250e+005,-7.79831072898822e+000,-4.97356339872737e+000

4.40173381804713e+005,-7.79821747965175e+000,-5.04190119841651e+000

4.46317973232124e+005,-7.79811698869788e+000,-5.11118953232721e+000

4.52548339959385e+005,-7.79800905075984e+000,-5.18144214666214e+000

4.58865679365059e+005,-7.79789345713009e+000,-5.25267298608689e+000

4.65271205542494e+005,-7.79776999564750e+000,-5.32489619616773e+000

4.71766149533147e+005,-7.79763845057702e+000,-5.39812612585586e+000

4.78351759563174e+005,-7.79749860248238e+000,-5.47237733002293e+000

4.85029301283321e+005,-7.79735022809130e+000,-5.54766457204939e+000

4.91800058012158e+005,-7.79719310015336e+000,-5.62400282646691e+000

4.98665330982714e+005,-7.79702698729071e+000,-5.70140728165976e+000

5.05626439592555e+005,-7.79685165384125e+000,-5.77989334262432e+000

5.12684721657352e+005,-7.79666685969473e+000,-5.85947663379200e+000

5.19841533667984e+005,-7.79647236012124e+000,-5.94017300191559e+000

5.27098251051240e+005,-7.79626790559247e+000,-6.02199851902334e+000

5.34456268434150e+005,-7.79605324159594e+000,-6.10496948544094e+000

5.41916999912011e+005,-7.79582810844159e+000,-6.18910243288412e+000

