Freq.,VOut,OutRef

1.00000000000000e+004,-1.87779571251316e+001,-2.03752705521041e-001

1.01395947979003e+004,-1.87779600585614e+001,-2.06596433172180e-001

1.02811382665607e+004,-1.87779630743090e+001,-2.09479834283624e-001

1.04246576084112e+004,-1.87779661746799e+001,-2.12403461680848e-001

1.05701804056138e+004,-1.87779693620443e+001,-2.15367875862633e-001

1.07177346253629e+004,-1.87779726388380e+001,-2.18373645111120e-001

1.08673486252606e+004,-1.87779760075651e+001,-2.21421345593805e-001

1.10190511587661e+004,-1.87779794707992e+001,-2.24511561474400e-001

1.11728713807222e+004,-1.87779830311861e+001,-2.27644885020069e-001

1.13288388529580e+004,-1.87779866914448e+001,-2.30821916715814e-001

1.14869835499703e+004,-1.87779904543706e+001,-2.34043265373592e-001

1.16473358646846e+004,-1.87779943228362e+001,-2.37309548249219e-001

1.18099266142953e+004,-1.87779982997945e+001,-2.40621391155993e-001

1.19747870461893e+004,-1.87780023882806e+001,-2.43979428581655e-001

1.21419488439505e+004,-1.87780065914141e+001,-2.47384303807750e-001

1.23114441334492e+004,-1.87780109124014e+001,-2.50836669028642e-001

1.24833054890161e+004,-1.87780153545379e+001,-2.54337185476013e-001

1.26575659397028e+004,-1.87780199212109e+001,-2.57886523537983e-001

1.28342589756290e+004,-1.87780246159015e+001,-2.61485362887520e-001

1.30134185544193e+004,-1.87780294421883e+001,-2.65134392604099e-001

1.31950791077289e+004,-1.87780344037483e+001,-2.68834311309763e-001

1.33792755478611e+004,-1.87780395043615e+001,-2.72585827289270e-001

1.35660432744767e+004,-1.87780447479120e+001,-2.76389658630235e-001

1.37554181813974e+004,-1.87780501383927e+001,-2.80246533348597e-001

1.39474366635040e+004,-1.87780556799062e+001,-2.84157189530640e-001

1.41421356237309e+004,-1.87780613766698e+001,-2.88122375462178e-001

1.43395524801583e+004,-1.87780672330171e+001,-2.92142849772822e-001

1.45397251732031e+004,-1.87780732534019e+001,-2.96219381573538e-001

1.47426921729110e+004,-1.87780794424015e+001,-3.00352750597384e-001

1.49484924863494e+004,-1.87780858047201e+001,-3.04543747344039e-001

1.51571656651040e+004,-1.87780923451915e+001,-3.08793173227187e-001

1.53687518128801e+004,-1.87780990687837e+001,-3.13101840717779e-001

1.55832915932100e+004,-1.87781059806020e+001,-3.17470573494953e-001

1.58008262372675e+004,-1.87781130858926e+001,-3.21900206599458e-001

1.60213975517924e+004,-1.87781203900469e+001,-3.26391586580090e-001

1.62450479271247e+004,-1.87781278986048e+001,-3.30945571655944e-001

1.64718203453514e+004,-1.87781356172593e+001,-3.35563031866989e-001

1.67017583885674e+004,-1.87781435518604e+001,-3.40244849235837e-001

1.69349062472505e+004,-1.87781517084192e+001,-3.44991917926505e-001

1.71713087287550e+004,-1.87781600931128e+001,-3.49805144406267e-001

1.74110112659224e+004,-1.87781687122878e+001,-3.54685447614765e-001

1.76540599258131e+004,-1.87781775724660e+001,-3.59633759122256e-001

1.79005014185594e+004,-1.87781866803480e+001,-3.64651023305686e-001

1.81503831063432e+004,-1.87781960428192e+001,-3.69738197513941e-001

1.84037530124975e+004,-1.87782056669535e+001,-3.74896252243547e-001

1.86606598307361e+004,-1.87782155600195e+001,-3.80126171309257e-001

1.89211529345119e+004,-1.87782257294845e+001,-3.85428952026585e-001

1.91852823865052e+004,-1.87782361830212e+001,-3.90805605383241e-001

1.94530989482457e+004,-1.87782469285120e+001,-3.96257156224846e-001

1.97246540898671e+004,-1.87782579740551e+001,-4.01784643437085e-001

1.99999999999999e+004,-1.87782693279704e+001,-4.07389120127726e-001

2.02791895958005e+004,-1.87782809988048e+001,-4.13071653817481e-001

2.05622765331213e+004,-1.87782929953389e+001,-4.18833326626294e-001

2.08493152168224e+004,-1.87783053265926e+001,-4.24675235465883e-001

2.11403608112276e+004,-1.87783180018318e+001,-4.30598492232933e-001

2.14354692507258e+004,-1.87783310305746e+001,-4.36604224005904e-001

2.17346972505211e+004,-1.87783444225985e+001,-4.42693573240373e-001

2.20381023175322e+004,-1.87783581879462e+001,-4.48867697971232e-001

2.23457427614443e+004,-1.87783723369334e+001,-4.55127772014984e-001

2.26576777059159e+004,-1.87783868801559e+001,-4.61474985171920e-001

2.29739670999406e+004,-1.87784018284965e+001,-4.67910543435011e-001

2.32946717293690e+004,-1.87784171931325e+001,-4.74435669198448e-001

2.36198532285905e+004,-1.87784329855436e+001,-4.81051601468348e-001

2.39495740923785e+004,-1.87784492175198e+001,-4.87759596075234e-001

2.42838976879009e+004,-1.87784659011689e+001,-4.94560925892280e-001

2.46228882668982e+004,-1.87784830489255e+001,-5.01456881048782e-001

2.49666109780322e+004,-1.87785006735584e+001,-5.08448769155828e-001

2.53151318794055e+004,-1.87785187881801e+001,-5.15537915522734e-001

2.56685179512580e+004,-1.87785374062552e+001,-5.22725663386262e-001

2.60268371088386e+004,-1.87785565416090e+001,-5.30013374135242e-001

2.63901582154578e+004,-1.87785762084373e+001,-5.37402427538972e-001

2.67585510957221e+004,-1.87785964213158e+001,-5.44894221980414e-001

2.71320865489533e+004,-1.87786171952088e+001,-5.52490174687978e-001

2.75108363627948e+004,-1.87786385454801e+001,-5.60191721972176e-001

2.78948733270080e+004,-1.87786604879023e+001,-5.68000319463434e-001

2.82842712474618e+004,-1.87786830386673e+001,-5.75917442352317e-001

2.86791049603164e+004,-1.87787062143966e+001,-5.83944585630851e-001

2.90794503464061e+004,-1.87787300321523e+001,-5.92083264337349e-001

2.94853843458219e+004,-1.87787545094474e+001,-6.00335013805554e-001

2.98969849726987e+004,-1.87787796642576e+001,-6.08701389908844e-001

3.03143313302078e+004,-1.87788055150321e+001,-6.17183969316025e-001

3.07375036257601e+004,-1.87788320807054e+001,-6.25784349740778e-001

3.11665831864199e+004,-1.87788593807089e+001,-6.34504150199142e-001

3.16016524745350e+004,-1.87788874349834e+001,-6.43345011265908e-001

3.20427951035848e+004,-1.87789162639908e+001,-6.52308595333956e-001

3.24900958542493e+004,-1.87789458887270e+001,-6.61396586875411e-001

3.29436406907028e+004,-1.87789763307342e+001,-6.70610692706391e-001

3.34035167771346e+004,-1.87790076121145e+001,-6.79952642250861e-001

3.38698124945009e+004,-1.87790397555423e+001,-6.89424187809173e-001

3.43426174575100e+004,-1.87790727842786e+001,-6.99027104826391e-001

3.48220225318448e+004,-1.87791067221837e+001,-7.08763192164324e-001

3.53081198516260e+004,-1.87791415937323e+001,-7.18634272373410e-001

3.58010028371187e+004,-1.87791774240263e+001,-7.28642191969451e-001

3.63007662126863e+004,-1.87792142388102e+001,-7.38788821707898e-001

3.68075060249948e+004,-1.87792520644852e+001,-7.49076056865217e-001

3.73213196614721e+004,-1.87792909281241e+001,-7.59505817515443e-001

3.78423058690237e+004,-1.87793308574864e+001,-7.70080048814546e-001

3.83705647730104e+004,-1.87793718810337e+001,-7.80800721282384e-001

3.89061978964912e+004,-1.87794140279445e+001,-7.91669831089411e-001

3.94493081797342e+004,-1.87794573281310e+001,-8.02689400339402e-001

3.99999999999998e+004,-1.87795018122539e+001,-8.13861477362155e-001

4.05583791916010e+004,-1.87795475117392e+001,-8.25188136998412e-001

4.11245530662425e+004,-1.87795944587943e+001,-8.36671480892277e-001

4.16986304336447e+004,-1.87796426864242e+001,-8.48313637783444e-001

4.22807216224550e+004,-1.87796922284484e+001,-8.60116763799191e-001

4.28709385014515e+004,-1.87797431195177e+001,-8.72083042749772e-001

4.34693945010421e+004,-1.87797953951311e+001,-8.84214686422529e-001

4.40762046350642e+004,-1.87798490916531e+001,-8.96513934877706e-001

4.46914855228886e+004,-1.87799042463305e+001,-9.08983056748336e-001

4.53153554118317e+004,-1.87799608973100e+001,-9.21624349536072e-001

4.59479341998812e+004,-1.87800190836561e+001,-9.34440139909799e-001

4.65893434587380e+004,-1.87800788453679e+001,-9.47432784007823e-001

4.72397064571810e+004,-1.87801402233973e+001,-9.60604667735713e-001

4.78991481847569e+004,-1.87802032596664e+001,-9.73958207069220e-001

4.85677953758016e+004,-1.87802679970854e+001,-9.87495848354146e-001

4.92457765337964e+004,-1.87803344795701e+001,-1.00122006861012e+000

4.99332219560642e+004,-1.87804027520602e+001,-1.01513337583096e+000

5.06302637588109e+004,-1.87804728605363e+001,-1.02923830929018e+000

5.13370359025159e+004,-1.87805448520381e+001,-1.04353743984075e+000

5.20536742176771e+004,-1.87806187746818e+001,-1.05803337022029e+000

5.27803164309155e+004,-1.87806946776773e+001,-1.07272873535554e+000

5.35171021914442e+004,-1.87807726113464e+001,-1.08762620266168e+000

5.42641730979066e+004,-1.87808526271390e+001,-1.10272847234997e+000

5.50216727255895e+004,-1.87809347776505e+001,-1.11803827772884e+000

5.57897466540159e+004,-1.87810191166385e+001,-1.13355838550816e+000

5.65685424949235e+004,-1.87811056990395e+001,-1.14929159610028e+000

5.73582099206328e+004,-1.87811945809847e+001,-1.16524074392548e+000

5.81589006928121e+004,-1.87812858198160e+001,-1.18140869771350e+000

5.89707686916437e+004,-1.87813794741011e+001,-1.19779836080492e+000

5.97939699453972e+004,-1.87814756036490e+001,-1.21441267145502e+000

6.06286626604156e+004,-1.87815742695238e+001,-1.23125460313346e+000

6.14750072515201e+004,-1.87816755340592e+001,-1.24832716482802e+000

6.23331663728396e+004,-1.87817794608715e+001,-1.26563340134290e+000

6.32033049490698e+004,-1.87818861148720e+001,-1.28317639360234e+000

6.40855902071694e+004,-1.87819955622797e+001,-1.30095925894919e+000

6.49801917084985e+004,-1.87821078706318e+001,-1.31898515144499e+000

6.58872813814055e+004,-1.87822231087942e+001,-1.33725726217147e+000

6.68070335542691e+004,-1.87823413469712e+001,-1.35577881952951e+000

6.77396249890018e+004,-1.87824626567136e+001,-1.37455308953957e+000

6.86852349150199e+004,-1.87825871109265e+001,-1.39358337614022e+000

6.96440450636895e+004,-1.87827147838753e+001,-1.41287302149031e+000

7.06162397032520e+004,-1.87828457511909e+001,-1.43242540626799e+000

7.16020056742374e+004,-1.87829800898738e+001,-1.45224394997187e+000

7.26015324253724e+004,-1.87831178782963e+001,-1.47233211122298e+000

7.36150120499896e+004,-1.87832591962038e+001,-1.49269338806755e+000

7.46426393229441e+004,-1.87834041247142e+001,-1.51333131828007e+000

7.56846117380472e+004,-1.87835527463161e+001,-1.53424947966817e+000

7.67411295460207e+004,-1.87837051448646e+001,-1.55545149038054e+000

7.78123957929823e+004,-1.87838614055763e+001,-1.57694100921542e+000

7.88986163594682e+004,-1.87840216150214e+001,-1.59872173593155e+000

7.99999999999995e+004,-1.87841858611147e+001,-1.62079741156198e+000

8.11167583832018e+004,-1.87843542331040e+001,-1.64317181873274e+000

8.22491061324848e+004,-1.87845268215560e+001,-1.66584878198374e+000

8.33972608672892e+004,-1.87847037183410e+001,-1.68883216809392e+000

8.45614432449099e+004,-1.87848850166142e+001,-1.71212588641207e+000

8.57418770029029e+004,-1.87850708107950e+001,-1.73573388919238e+000

8.69387890020841e+004,-1.87852611965433e+001,-1.75966017193838e+000

8.81524092701283e+004,-1.87854562707337e+001,-1.78390877374979e+000

8.93829710457770e+004,-1.87856561314263e+001,-1.80848377768142e+000

9.06307108236633e+004,-1.87858608778353e+001,-1.83338931110746e+000

9.18958683997622e+004,-1.87860706102935e+001,-1.85862954609807e+000

9.31786869174758e+004,-1.87862854302151e+001,-1.88420869980207e+000

9.44794129143618e+004,-1.87865054400537e+001,-1.91013103484698e+000

9.57982963695136e+004,-1.87867307432586e+001,-1.93640085974630e+000

9.71355907516031e+004,-1.87869614442264e+001,-1.96302252932385e+000

9.84915530675926e+004,-1.87871976482500e+001,-1.99000044515043e+000

9.98664439121282e+004,-1.87874394614634e+001,-2.01733905599988e+000

1.01260527517622e+005,-1.87876869907831e+001,-2.04504285831948e+000

1.02674071805032e+005,-1.87879403438460e+001,-2.07311639672128e+000

1.04107348435354e+005,-1.87881996289430e+001,-2.10156426449372e+000

1.05560632861831e+005,-1.87884649549493e+001,-2.13039110413354e+000

1.07034204382888e+005,-1.87887364312500e+001,-2.15960160790496e+000

1.08528346195813e+005,-1.87890141676629e+001,-2.18920051842036e+000

1.10043345451179e+005,-1.87892982743558e+001,-2.21919262925084e+000

1.11579493308032e+005,-1.87895888617615e+001,-2.24958278556405e+000

1.13137084989847e+005,-1.87898860404870e+001,-2.28037588479519e+000

1.14716419841265e+005,-1.87901899212202e+001,-2.31157687734882e+000

1.16317801385624e+005,-1.87905006146315e+001,-2.34319076733627e+000

1.17941537383287e+005,-1.87908182312721e+001,-2.37522261335151e+000

1.19587939890794e+005,-1.87911428814677e+001,-2.40767752928442e+000

1.21257325320831e+005,-1.87914746752089e+001,-2.44056068517764e+000

1.22950014503040e+005,-1.87918137220380e+001,-2.47387730812479e+000

1.24666332745679e+005,-1.87921601309307e+001,-2.50763268321820e+000

1.26406609898139e+005,-1.87925140101760e+001,-2.54183215454133e+000

1.28171180414339e+005,-1.87928754672516e+001,-2.57648112621610e+000

1.29960383416997e+005,-1.87932446086960e+001,-2.61158506350124e+000

1.31774562762811e+005,-1.87936215399781e+001,-2.64714949394597e+000

1.33614067108538e+005,-1.87940063653633e+001,-2.68318000860491e+000

1.35479249978003e+005,-1.87943991877774e+001,-2.71968226331081e+000

1.37370469830040e+005,-1.87948001086674e+001,-2.75666198001246e+000

1.39288090127379e+005,-1.87952092278613e+001,-2.79412494817737e+000

1.41232479406504e+005,-1.87956266434251e+001,-2.83207702626323e+000

1.43204011348474e+005,-1.87960524515188e+001,-2.87052414325885e+000

1.45203064850745e+005,-1.87964867462510e+001,-2.90947230030023e+000

1.47230024099979e+005,-1.87969296195337e+001,-2.94892757235763e+000

1.49285278645888e+005,-1.87973811609351e+001,-2.98889611000516e+000

1.51369223476094e+005,-1.87978414575345e+001,-3.02938414126423e+000

1.53482259092041e+005,-1.87983105937768e+001,-3.07039797353326e+000

1.55624791585964e+005,-1.87987886513281e+001,-3.11194399559643e+000

1.57797232718936e+005,-1.87992757089336e+001,-3.15402867971928e+000

1.59999999999999e+005,-1.87997718422776e+001,-3.19665858383043e+000

1.62233516766403e+005,-1.88002771238460e+001,-3.23984035379097e+000

1.64498212264969e+005,-1.88007916227926e+001,-3.28358072575102e+000

1.66794521734578e+005,-1.88013154048100e+001,-3.32788652859879e+000

1.69122886489819e+005,-1.88018485320043e+001,-3.37276468649748e+000

1.71483754005805e+005,-1.88023910627760e+001,-3.41822222151547e+000

1.73877578004168e+005,-1.88029430517070e+001,-3.46426625634476e+000

1.76304818540256e+005,-1.88035045494546e+001,-3.51090401711332e+000

1.78765942091554e+005,-1.88040756026528e+001,-3.55814283628664e+000

1.81261421647326e+005,-1.88046562538222e+001,-3.60599015565961e+000

1.83791736799524e+005,-1.88052465412892e+001,-3.65445352943756e+000

1.86357373834951e+005,-1.88058464991149e+001,-3.70354062740599e+000

1.88958825828723e+005,-1.88064561570349e+001,-3.75325923818471e+000

1.91596592739027e+005,-1.88070755404102e+001,-3.80361727256826e+000

1.94271181503206e+005,-1.88077046701905e+001,-3.85462276694775e+000

1.96983106135185e+005,-1.88083435628906e+001,-3.90628388681076e+000

1.99732887824256e+005,-1.88089922305802e+001,-3.95860893032021e+000

2.02521055035243e+005,-1.88096506808879e+001,-4.01160633196388e+000

2.05348143610063e+005,-1.88103189170211e+001,-4.06528466627423e+000

2.08214696870707e+005,-1.88109969378003e+001,-4.11965265161418e+000

2.11121265723661e+005,-1.88116847377112e+001,-4.17471915402200e+000

2.14068408765776e+005,-1.88123823069726e+001,-4.23049319111459e+000

2.17056692391625e+005,-1.88130896316227e+001,-4.28698393603942e+000

2.20086690902357e+005,-1.88138066936225e+001,-4.34420072147459e+000

2.23158986616063e+005,-1.88145334709789e+001,-4.40215304366736e+000

2.26274169979693e+005,-1.88152699378854e+001,-4.46085056650728e+000

2.29432839682530e+005,-1.88160160648830e+001,-4.52030312562766e+000

2.32635602771247e+005,-1.88167718190404e+001,-4.58052073252863e+000

2.35883074766574e+005,-1.88175371641538e+001,-4.64151357871496e+000

2.39175879781588e+005,-1.88183120609669e+001,-4.70329203984289e+000

2.42514650641661e+005,-1.88190964674108e+001,-4.76586667986762e+000

2.45900029006080e+005,-1.88198903388640e+001,-4.82924825518612e+000

2.49332665491357e+005,-1.88206936284329e+001,-4.89344771876675e+000

2.52813219796278e+005,-1.88215062872511e+001,-4.95847622426075e+000

2.56342360828676e+005,-1.88223282647995e+001,-5.02434513008545e+000

2.59920766833993e+005,-1.88231595092455e+001,-5.09106600347502e+000

2.63549125525621e+005,-1.88239999678009e+001,-5.15865062449103e+000

2.67228134217075e+005,-1.88248495870992e+001,-5.22711098998571e+000

2.70958499956006e+005,-1.88257083135901e+001,-5.29645931751141e+000

2.74740939660078e+005,-1.88265760939524e+001,-5.36670804917001e+000

2.78576180254757e+005,-1.88274528755236e+001,-5.43786985539778e+000

2.82464958813007e+005,-1.88283386067454e+001,-5.50995763867616e+000

2.86408022696948e+005,-1.88292332376248e+001,-5.58298453716742e+000

2.90406129701488e+005,-1.88301367202103e+001,-5.65696392826735e+000

2.94460048199957e+005,-1.88310490090808e+001,-5.73190943207090e+000

2.98570557291775e+005,-1.88319700618482e+001,-5.80783491474718e+000

3.02738446952187e+005,-1.88328998396713e+001,-5.88475449181966e+000

3.06964518184081e+005,-1.88338383077801e+001,-5.96268253134800e+000

3.11249583171928e+005,-1.88347854360108e+001,-6.04163365700970e+000

3.15594465437872e+005,-1.88357411993482e+001,-6.12162275107794e+000

3.19999999999997e+005,-1.88367055784762e+001,-6.20266495729687e+000

3.24467033532806e+005,-1.88376785603345e+001,-6.28477568364828e+000

3.28996424529938e+005,-1.88386601386802e+001,-6.36797060501471e+000

3.33589043469155e+005,-1.88396503146540e+001,-6.45226566573506e+000

3.38245772979638e+005,-1.88406490973485e+001,-6.53767708205579e+000

3.42967508011610e+005,-1.88416565043791e+001,-6.62422134447657e+000

3.47755156008335e+005,-1.88426725624549e+001,-6.71191521999449e+000

3.52609637080511e+005,-1.88436973079495e+001,-6.80077575424785e+000

3.57531884183106e+005,-1.88447307874707e+001,-6.89082027356248e+000

3.62522843294651e+005,-1.88457730584266e+001,-6.98206638690371e+000

3.67583473599047e+005,-1.88468241895901e+001,-7.07453198773861e+000

3.72714747669902e+005,-1.88478842616571e+001,-7.16823525581185e+000

3.77917651657445e+005,-1.88489533678015e+001,-7.26319465884097e+000

3.83193185478053e+005,-1.88500316142226e+001,-7.35942895413414e+000

3.88542363006410e+005,-1.88511191206869e+001,-7.45695719013858e+000

3.93966212270369e+005,-1.88522160210624e+001,-7.55579870792312e+000

3.99465775648511e+005,-1.88533224638449e+001,-7.65597314260165e+000

4.05042110070485e+005,-1.88544386126759e+001,-7.75750042470453e+000

4.10696287220124e+005,-1.88555646468521e+001,-7.86040078150234e+000

4.16429393741414e+005,-1.88567007618251e+001,-7.96469473829258e+000

4.22242531447321e+005,-1.88578471696926e+001,-8.07040311964979e+000

4.28136817531551e+005,-1.88590040996795e+001,-8.17754705065251e+000

4.34113384783250e+005,-1.88601717986093e+001,-8.28614795808901e+000

4.40173381804713e+005,-1.88613505313661e+001,-8.39622757165199e+000

4.46317973232124e+005,-1.88625405813470e+001,-8.50780792512528e+000

4.52548339959385e+005,-1.88637422509049e+001,-8.62091135757370e+000

4.58865679365059e+005,-1.88649558617821e+001,-8.73556051453834e+000

4.65271205542494e+005,-1.88661817555349e+001,-8.85177834924636e+000

4.71766149533147e+005,-1.88674202939500e+001,-8.96958812383989e+000

4.78351759563174e+005,-1.88686718594522e+001,-9.08901341063122e+000

4.85029301283321e+005,-1.88699368555045e+001,-9.21007809338860e+000

4.91800058012158e+005,-1.88712157070018e+001,-9.33280636865850e+000

4.98665330982714e+005,-1.88725088606571e+001,-9.45722274712998e+000

5.05626439592555e+005,-1.88738167853826e+001,-9.58335205504468e+000

5.12684721657352e+005,-1.88751399726651e+001,-9.71121943565731e+000

5.19841533667984e+005,-1.88764789369377e+001,-9.84085035075047e+000

5.27098251051240e+005,-1.88778342159470e+001,-9.97227058220776e+000

5.34456268434150e+005,-1.88792063711188e+001,-1.01055062336474e+001

5.41916999912011e+005,-1.88805959879202e+001,-1.02405837321202e+001

