Freq.,VOut,OutRef

1.00000000000000e+004,-1.87163290177306e+001,-1.81395501359214e-001

1.01395947979003e+004,-1.87163322284861e+001,-1.83927059167882e-001

1.02811382665607e+004,-1.87163355293350e+001,-1.86493929531644e-001

1.04246576084112e+004,-1.87163389228006e+001,-1.89096604265120e-001

1.05701804056138e+004,-1.87163424114759e+001,-1.91735582001731e-001

1.07177346253629e+004,-1.87163459980270e+001,-1.94411368282926e-001

1.08673486252606e+004,-1.87163496851939e+001,-1.97124475657713e-001

1.10190511587661e+004,-1.87163534757927e+001,-1.99875423776405e-001

1.11728713807222e+004,-1.87163573727186e+001,-2.02664739485101e-001

1.13288388529580e+004,-1.87163613789470e+001,-2.05492956926273e-001

1.14869835499703e+004,-1.87163654975362e+001,-2.08360617638150e-001

1.16473358646846e+004,-1.87163697316299e+001,-2.11268270654477e-001

1.18099266142953e+004,-1.87163740844591e+001,-2.14216472606355e-001

1.19747870461893e+004,-1.87163785593449e+001,-2.17205787824946e-001

1.21419488439505e+004,-1.87163831597003e+001,-2.20236788450164e-001

1.23114441334492e+004,-1.87163878890342e+001,-2.23310054528545e-001

1.24833054890161e+004,-1.87163927509520e+001,-2.26426174130435e-001

1.26575659397028e+004,-1.87163977491598e+001,-2.29585743450681e-001

1.28342589756290e+004,-1.87164028874670e+001,-2.32789366920834e-001

1.30134185544193e+004,-1.87164081697880e+001,-2.36037657324422e-001

1.31950791077289e+004,-1.87164136001466e+001,-2.39331235903023e-001

1.33792755478611e+004,-1.87164191826780e+001,-2.42670732476878e-001

1.35660432744767e+004,-1.87164249216323e+001,-2.46056785555904e-001

1.37554181813974e+004,-1.87164308213774e+001,-2.49490042459072e-001

1.39474366635040e+004,-1.87164368864021e+001,-2.52971159433784e-001

1.41421356237309e+004,-1.87164431213199e+001,-2.56500801773058e-001

1.43395524801583e+004,-1.87164495308719e+001,-2.60079643939805e-001

1.45397251732031e+004,-1.87164561199309e+001,-2.63708369687926e-001

1.47426921729110e+004,-1.87164628935039e+001,-2.67387672188471e-001

1.49484924863494e+004,-1.87164698567373e+001,-2.71118254153432e-001

1.51571656651040e+004,-1.87164770149190e+001,-2.74900827967693e-001

1.53687518128801e+004,-1.87164843734837e+001,-2.78736115811700e-001

1.55832915932100e+004,-1.87164919380157e+001,-2.82624849798914e-001

1.58008262372675e+004,-1.87164997142541e+001,-2.86567772102072e-001

1.60213975517924e+004,-1.87165077080962e+001,-2.90565635092277e-001

1.62450479271247e+004,-1.87165159256017e+001,-2.94619201471260e-001

1.64718203453514e+004,-1.87165243729978e+001,-2.98729244408644e-001

1.67017583885674e+004,-1.87165330566833e+001,-3.02896547681231e-001

1.69349062472505e+004,-1.87165419832327e+001,-3.07121905815957e-001

1.71713087287550e+004,-1.87165511594022e+001,-3.11406124225159e-001

1.74110112659224e+004,-1.87165605921335e+001,-3.15750019356283e-001

1.76540599258131e+004,-1.87165702885592e+001,-3.20154418835153e-001

1.79005014185594e+004,-1.87165802560077e+001,-3.24620161614123e-001

1.81503831063432e+004,-1.87165905020091e+001,-3.29148098115605e-001

1.84037530124975e+004,-1.87166010342994e+001,-3.33739090390468e-001

1.86606598307361e+004,-1.87166118608276e+001,-3.38394012262158e-001

1.89211529345119e+004,-1.87166229897597e+001,-3.43113749486495e-001

1.91852823865052e+004,-1.87166344294857e+001,-3.47899199902840e-001

1.94530989482457e+004,-1.87166461886253e+001,-3.52751273593249e-001

1.97246540898671e+004,-1.87166582760335e+001,-3.57670893041118e-001

1.99999999999999e+004,-1.87166707008074e+001,-3.62658993290656e-001

2.02791895958005e+004,-1.87166834722923e+001,-3.67716522111649e-001

2.05622765331213e+004,-1.87166966000885e+001,-3.72844440159453e-001

2.08493152168224e+004,-1.87167100940577e+001,-3.78043721144307e-001

2.11403608112276e+004,-1.87167239643303e+001,-3.83315351997754e-001

2.14354692507258e+004,-1.87167382213120e+001,-3.88660333040907e-001

2.17346972505211e+004,-1.87167528756915e+001,-3.94079678156164e-001

2.20381023175322e+004,-1.87167679384475e+001,-3.99574414960116e-001

2.23457427614443e+004,-1.87167834208562e+001,-4.05145584978823e-001

2.26576777059159e+004,-1.87167993344999e+001,-4.10794243819517e-001

2.29739670999406e+004,-1.87168156912737e+001,-4.16521461355762e-001

2.32946717293690e+004,-1.87168325033946e+001,-4.22328321901091e-001

2.36198532285905e+004,-1.87168497834095e+001,-4.28215924392339e-001

2.39495740923785e+004,-1.87168675442036e+001,-4.34185382572967e-001

2.42838976879009e+004,-1.87168857990091e+001,-4.40237825178386e-001

2.46228882668982e+004,-1.87169045614144e+001,-4.46374396121071e-001

2.49666109780322e+004,-1.87169238453729e+001,-4.52596254680337e-001

2.53151318794055e+004,-1.87169436652127e+001,-4.58904575690024e-001

2.56685179512580e+004,-1.87169640356455e+001,-4.65300549732625e-001

2.60268371088386e+004,-1.87169849717769e+001,-4.71785383330720e-001

2.63901582154578e+004,-1.87170064891165e+001,-4.78360299141515e-001

2.67585510957221e+004,-1.87170286035872e+001,-4.85026536156077e-001

2.71320865489533e+004,-1.87170513315367e+001,-4.91785349893127e-001

2.75108363627948e+004,-1.87170746897472e+001,-4.98638012603388e-001

2.78948733270080e+004,-1.87170986954470e+001,-5.05585813466943e-001

2.82842712474618e+004,-1.87171233663210e+001,-5.12630058798106e-001

2.86791049603164e+004,-1.87171487205223e+001,-5.19772072249188e-001

2.90794503464061e+004,-1.87171747766838e+001,-5.27013195016840e-001

2.94853843458219e+004,-1.87172015539298e+001,-5.34354786047795e-001

2.98969849726987e+004,-1.87172290718882e+001,-5.41798222249849e-001

3.03143313302078e+004,-1.87172573507026e+001,-5.49344898700774e-001

3.07375036257601e+004,-1.87172864110450e+001,-5.56996228857862e-001

3.11665831864199e+004,-1.87173162741283e+001,-5.64753644775448e-001

3.16016524745350e+004,-1.87173469617198e+001,-5.72618597313696e-001

3.20427951035848e+004,-1.87173784961536e+001,-5.80592556358995e-001

3.24900958542493e+004,-1.87174109003447e+001,-5.88677011036989e-001

3.29436406907028e+004,-1.87174441978031e+001,-5.96873469930086e-001

3.34035167771346e+004,-1.87174784126467e+001,-6.05183461300449e-001

3.38698124945009e+004,-1.87175135696163e+001,-6.13608533305242e-001

3.43426174575100e+004,-1.87175496940900e+001,-6.22150254220679e-001

3.48220225318448e+004,-1.87175868120977e+001,-6.30810212661674e-001

3.53081198516260e+004,-1.87176249503362e+001,-6.39590017807038e-001

3.58010028371187e+004,-1.87176641361843e+001,-6.48491299621454e-001

3.63007662126863e+004,-1.87177043977185e+001,-6.57515709080674e-001

3.68075060249948e+004,-1.87177457637281e+001,-6.66664918396436e-001

3.73213196614721e+004,-1.87177882637317e+001,-6.75940621242963e-001

3.78423058690237e+004,-1.87178319279931e+001,-6.85344532982312e-001

3.83705647730104e+004,-1.87178767875375e+001,-6.94878390892485e-001

3.89061978964912e+004,-1.87179228741684e+001,-7.04543954393784e-001

3.94493081797342e+004,-1.87179702204840e+001,-7.14343005277785e-001

3.99999999999998e+004,-1.87180188598943e+001,-7.24277347934831e-001

4.05583791916010e+004,-1.87180688266386e+001,-7.34348809581586e-001

4.11245530662425e+004,-1.87181201558022e+001,-7.44559240490825e-001

4.16986304336447e+004,-1.87181728833348e+001,-7.54910514218453e-001

4.22807216224550e+004,-1.87182270460672e+001,-7.65404527833268e-001

4.28709385014515e+004,-1.87182826817302e+001,-7.76043202144435e-001

4.34693945010421e+004,-1.87183398289715e+001,-7.86828481929628e-001

4.40762046350642e+004,-1.87183985273750e+001,-7.97762336162552e-001

4.46914855228886e+004,-1.87184588174781e+001,-8.08846758240671e-001

4.53153554118317e+004,-1.87185207407906e+001,-8.20083766210749e-001

4.59479341998812e+004,-1.87185843398127e+001,-8.31475402997222e-001

4.65893434587380e+004,-1.87186496580540e+001,-8.43023736625288e-001

4.72397064571810e+004,-1.87187167400516e+001,-8.54730860446772e-001

4.78991481847569e+004,-1.87187856313887e+001,-8.66598893363939e-001

4.85677953758016e+004,-1.87188563787136e+001,-8.78629980050309e-001

4.92457765337964e+004,-1.87189290297578e+001,-8.90826291174379e-001

4.99332219560642e+004,-1.87190036333542e+001,-9.03190023618924e-001

5.06302637588109e+004,-1.87190802394563e+001,-9.15723400700316e-001

5.13370359025159e+004,-1.87191588991561e+001,-9.28428672384242e-001

5.20536742176771e+004,-1.87192396647018e+001,-9.41308115504294e-001

5.27803164309155e+004,-1.87193225895167e+001,-9.54364033974963e-001

5.35171021914442e+004,-1.87194077282161e+001,-9.67598759003221e-001

5.42641730979066e+004,-1.87194951366254e+001,-9.81014649302135e-001

5.50216727255895e+004,-1.87195848717969e+001,-9.94614091296624e-001

5.57897466540159e+004,-1.87196769920273e+001,-1.00839949933185e+000

5.65685424949235e+004,-1.87197715568735e+001,-1.02237331587763e+000

5.73582099206328e+004,-1.87198686271693e+001,-1.03653801173155e+000

5.81589006928121e+004,-1.87199682650410e+001,-1.05089608621815e+000

5.89707686916437e+004,-1.87200705339219e+001,-1.06545006738918e+000

5.97939699453972e+004,-1.87201754985678e+001,-1.08020251221599e+000

6.06286626604156e+004,-1.87202832250703e+001,-1.09515600678665e+000

6.14750072515201e+004,-1.87203937808701e+001,-1.11031316649420e+000

6.23331663728396e+004,-1.87205072347696e+001,-1.12567663622609e+000

6.32033049490698e+004,-1.87206236569449e+001,-1.14124909055008e+000

6.40855902071694e+004,-1.87207431189557e+001,-1.15703323389783e+000

6.49801917084985e+004,-1.87208656937561e+001,-1.17303180074605e+000

6.58872813814055e+004,-1.87209914557028e+001,-1.18924755579531e+000

6.68070335542691e+004,-1.87211204805628e+001,-1.20568329414629e+000

6.77396249890018e+004,-1.87212528455205e+001,-1.22234184147272e+000

6.86852349150199e+004,-1.87213886291820e+001,-1.23922605419565e+000

6.96440450636895e+004,-1.87215279115797e+001,-1.25633881965117e+000

7.06162397032520e+004,-1.87216707741745e+001,-1.27368305625843e+000

7.16020056742374e+004,-1.87218172998566e+001,-1.29126171368617e+000

7.26015324253724e+004,-1.87219675729450e+001,-1.30907777301657e+000

7.36150120499896e+004,-1.87221216791849e+001,-1.32713424690865e+000

7.46426393229441e+004,-1.87222797057432e+001,-1.34543417975958e+000

7.56846117380472e+004,-1.87224417412025e+001,-1.36398064786552e+000

7.67411295460207e+004,-1.87226078755530e+001,-1.38277675958269e+000

7.78123957929823e+004,-1.87227782001816e+001,-1.40182565548624e+000

7.88986163594682e+004,-1.87229528078598e+001,-1.42113050853110e+000

7.99999999999995e+004,-1.87231317927280e+001,-1.44069452421380e+000

8.11167583832018e+004,-1.87233152502783e+001,-1.46052094073325e+000

8.22491061324848e+004,-1.87235032773348e+001,-1.48061302915379e+000

8.33972608672892e+004,-1.87236959720296e+001,-1.50097409357297e+000

8.45614432449099e+004,-1.87238934337783e+001,-1.52160747128846e+000

8.57418770029029e+004,-1.87240957632504e+001,-1.54251653297127e+000

8.69387890020841e+004,-1.87243030623378e+001,-1.56370468284167e+000

8.81524092701283e+004,-1.87245154341203e+001,-1.58517535884917e+000

8.93829710457770e+004,-1.87247329828264e+001,-1.60693203286298e+000

9.06307108236633e+004,-1.87249558137921e+001,-1.62897821086337e+000

9.18958683997622e+004,-1.87251840334157e+001,-1.65131743314379e+000

9.31786869174758e+004,-1.87254177491081e+001,-1.67395327452319e+000

9.44794129143618e+004,-1.87256570692403e+001,-1.69688934456508e+000

9.57982963695136e+004,-1.87259021030868e+001,-1.72012928781097e+000

9.71355907516031e+004,-1.87261529607645e+001,-1.74367678402263e+000

9.84915530675926e+004,-1.87264097531676e+001,-1.76753554844200e+000

9.98664439121282e+004,-1.87266725918988e+001,-1.79170933206384e+000

1.01260527517622e+005,-1.87269415891955e+001,-1.81620192192582e+000

1.02674071805032e+005,-1.87272168578514e+001,-1.84101714141635e+000

1.04107348435354e+005,-1.87274985111348e+001,-1.86615885060438e+000

1.05560632861831e+005,-1.87277866627007e+001,-1.89163094658772e+000

1.07034204382888e+005,-1.87280814264996e+001,-1.91743736386750e+000

1.08528346195813e+005,-1.87283829166802e+001,-1.94358207474802e+000

1.10043345451179e+005,-1.87286912474893e+001,-1.97006908976127e+000

1.11579493308032e+005,-1.87290065331646e+001,-1.99690245812470e+000

1.13137084989847e+005,-1.87293288878245e+001,-2.02408626822804e+000

1.14716419841265e+005,-1.87296584253520e+001,-2.05162464815491e+000

1.16317801385624e+005,-1.87299952592746e+001,-2.07952176624141e+000

1.17941537383287e+005,-1.87303395026385e+001,-2.10778183167162e+000

1.19587939890794e+005,-1.87306912678788e+001,-2.13640909511505e+000

1.21257325320831e+005,-1.87310506666849e+001,-2.16540784940754e+000

1.22950014503040e+005,-1.87314178098608e+001,-2.19478243027842e+000

1.24666332745679e+005,-1.87317928071815e+001,-2.22453721712642e+000

1.26406609898139e+005,-1.87321757672449e+001,-2.25467663384501e+000

1.28171180414339e+005,-1.87325667973191e+001,-2.28520514970555e+000

1.29960383416997e+005,-1.87329660031864e+001,-2.31612728029292e+000

1.31774562762811e+005,-1.87333734889823e+001,-2.34744758850477e+000

1.33614067108538e+005,-1.87337893570325e+001,-2.37917068560883e+000

1.35479249978003e+005,-1.87342137076849e+001,-2.41130123236900e+000

1.37370469830040e+005,-1.87346466391398e+001,-2.44384394023684e+000

1.39288090127379e+005,-1.87350882472767e+001,-2.47680357261431e+000

1.41232479406504e+005,-1.87355386254787e+001,-2.51018494619043e+000

1.43204011348474e+005,-1.87359978644553e+001,-2.54399293235197e+000

1.45203064850745e+005,-1.87364660520633e+001,-2.57823245867445e+000

1.47230024099979e+005,-1.87369432731263e+001,-2.61290851049289e+000

1.49285278645888e+005,-1.87374296092539e+001,-2.64802613255655e+000

1.51369223476094e+005,-1.87379251386610e+001,-2.68359043076857e+000

1.53482259092041e+005,-1.87384299359863e+001,-2.71960657401460e+000

1.55624791585964e+005,-1.87389440721130e+001,-2.75607979607975e+000

1.57797232718936e+005,-1.87394676139901e+001,-2.79301539765873e+000

1.59999999999999e+005,-1.87400006244567e+001,-2.83041874845828e+000

1.62233516766403e+005,-1.87405431620684e+001,-2.86829528939467e+000

1.64498212264969e+005,-1.87410952809273e+001,-2.90665053488795e+000

1.66794521734578e+005,-1.87416570305166e+001,-2.94549007525269e+000

1.69122886489819e+005,-1.87422284555402e+001,-2.98481957918691e+000

1.71483754005805e+005,-1.87428095957671e+001,-3.02464479635926e+000

1.73877578004168e+005,-1.87434004858840e+001,-3.06497156009481e+000

1.76304818540256e+005,-1.87440011553535e+001,-3.10580579015906e+000

1.78765942091554e+005,-1.87446116282813e+001,-3.14715349564148e+000

1.81261421647326e+005,-1.87452319232927e+001,-3.18902077793366e+000

1.83791736799524e+005,-1.87458620534182e+001,-3.23141383380626e+000

1.86357373834951e+005,-1.87465020259901e+001,-3.27433895857926e+000

1.88958825828723e+005,-1.87471518425507e+001,-3.31780254938505e+000

1.91596592739027e+005,-1.87478114987725e+001,-3.36181110852194e+000

1.94271181503206e+005,-1.87484809843924e+001,-3.40637124689663e+000

1.96983106135185e+005,-1.87491602831586e+001,-3.45148968755088e+000

1.99732887824256e+005,-1.87498493727941e+001,-3.49717326926794e+000

2.02521055035243e+005,-1.87505482249741e+001,-3.54342895025984e+000

2.05348143610063e+005,-1.87512568053208e+001,-3.59026381192483e+000

2.08214696870707e+005,-1.87519750734152e+001,-3.63768506267578e+000

2.11121265723661e+005,-1.87527029828266e+001,-3.68570004182964e+000

2.14068408765776e+005,-1.87534404811604e+001,-3.73431622355881e+000

2.17056692391625e+005,-1.87541875101254e+001,-3.78354122089086e+000

2.20086690902357e+005,-1.87549440056208e+001,-3.83338278975686e+000

2.23158986616063e+005,-1.87557098978424e+001,-3.88384883307987e+000

2.26274169979693e+005,-1.87564851114109e+001,-3.93494740489566e+000

2.29432839682530e+005,-1.87572695655201e+001,-3.98668671449849e+000

2.32635602771247e+005,-1.87580631741066e+001,-4.03907513060869e+000

2.35883074766574e+005,-1.87588658460413e+001,-4.09212118554929e+000

2.39175879781588e+005,-1.87596774853423e+001,-4.14583357942660e+000

2.42514650641661e+005,-1.87604979914102e+001,-4.20022118430741e+000

2.45900029006080e+005,-1.87613272592840e+001,-4.25529304838381e+000

2.49332665491357e+005,-1.87621651799197e+001,-4.31105840011856e+000

2.52813219796278e+005,-1.87630116404906e+001,-4.36752665236125e+000

2.56342360828676e+005,-1.87638665247075e+001,-4.42470740642989e+000

2.59920766833993e+005,-1.87647297131614e+001,-4.48261045614802e+000

2.63549125525621e+005,-1.87656010836858e+001,-4.54124579183030e+000

2.67228134217075e+005,-1.87664805117393e+001,-4.60062360420858e+000

2.70958499956006e+005,-1.87673678708071e+001,-4.66075428829239e+000

2.74740939660078e+005,-1.87682630328220e+001,-4.72164844715398e+000

2.78576180254757e+005,-1.87691658686026e+001,-4.78331689563464e+000

2.82464958813007e+005,-1.87700762483089e+001,-4.84577066396232e+000

2.86408022696948e+005,-1.87709940419141e+001,-4.90902100127625e+000

2.90406129701488e+005,-1.87719191196910e+001,-4.97307937905387e+000

2.94460048199957e+005,-1.87728513527136e+001,-5.03795749443220e+000

2.98570557291775e+005,-1.87737906133705e+001,-5.10366727342116e+000

3.02738446952187e+005,-1.87747367758909e+001,-5.17022087400315e+000

3.06964518184081e+005,-1.87756897168810e+001,-5.23763068911669e+000

3.11249583171928e+005,-1.87766493158694e+001,-5.30590934952077e+000

3.15594465437872e+005,-1.87776154558615e+001,-5.37506972653592e+000

3.19999999999997e+005,-1.87785880238993e+001,-5.44512493466256e+000

3.24467033532806e+005,-1.87795669116283e+001,-5.51608833407374e+000

3.28996424529938e+005,-1.87805520158667e+001,-5.58797353298394e+000

3.33589043469155e+005,-1.87815432391790e+001,-5.66079438989037e+000

3.38245772979638e+005,-1.87825404904498e+001,-5.73456501569212e+000

3.42967508011610e+005,-1.87835436854586e+001,-5.80929977568554e+000

3.47755156008335e+005,-1.87845527474525e+001,-5.88501329143875e+000

3.52609637080511e+005,-1.87855676077176e+001,-5.96172044254895e+000

3.57531884183106e+005,-1.87865882061459e+001,-6.03943636828440e+000

3.62522843294651e+005,-1.87876144917973e+001,-6.11817646911741e+000

3.67583473599047e+005,-1.87886464234564e+001,-6.19795640814822e+000

3.72714747669902e+005,-1.87896839701814e+001,-6.27879211243160e+000

3.77917651657445e+005,-1.87907271118452e+001,-6.36069977420543e+000

3.83193185478053e+005,-1.87917758396681e+001,-6.44369585203096e+000

3.88542363006410e+005,-1.87928301567398e+001,-6.52779707184914e+000

3.93966212270369e+005,-1.87938900785314e+001,-6.61302042796155e+000

3.99465775648511e+005,-1.87949556333954e+001,-6.69938318394166e+000

4.05042110070485e+005,-1.87960268630544e+001,-6.78690287348485e+000

4.10696287220124e+005,-1.87971038230776e+001,-6.87559730120257e+000

4.16429393741414e+005,-1.87981865833427e+001,-6.96548454337289e+000

4.22242531447321e+005,-1.87992752284870e+001,-7.05658294865017e+000

4.28136817531551e+005,-1.88003698583428e+001,-7.14891113874574e+000

4.34113384783250e+005,-1.88014705883605e+001,-7.24248800908548e+000

4.40173381804713e+005,-1.88025775500174e+001,-7.33733272945372e+000

4.46317973232124e+005,-1.88036908912131e+001,-7.43346474463081e+000

4.52548339959385e+005,-1.88048107766507e+001,-7.53090377503265e+000

4.58865679365059e+005,-1.88059373882052e+001,-7.62966981735942e+000

4.65271205542494e+005,-1.88070709252785e+001,-7.72978314526114e+000

4.71766149533147e+005,-1.88082116051417e+001,-7.83126431002948e+000

4.78351759563174e+005,-1.88093596632650e+001,-7.93413414131890e+000

4.85029301283321e+005,-1.88105153536354e+001,-8.03841374790901e+000

4.91800058012158e+005,-1.88116789490641e+001,-8.14412451851003e+000

4.98665330982714e+005,-1.88128507414819e+001,-8.25128812262137e+000

5.05626439592555e+005,-1.88140310422259e+001,-8.35992651144628e+000

5.12684721657352e+005,-1.88152201823166e+001,-8.47006191887022e+000

5.19841533667984e+005,-1.88164185127260e+001,-8.58171686250670e+000

5.27098251051240e+005,-1.88176264046386e+001,-8.69491414481673e+000

5.34456268434150e+005,-1.88188442497068e+001,-8.80967685430282e+000

5.41916999912011e+005,-1.88200724602980e+001,-8.92602836678653e+000

