Freq.,VOut,OutRef

1.00000000000000e+004,-1.68294765158773e+001,-1.57079969836016e-001

1.01395947979003e+004,-1.68294800980909e+001,-1.59271993461181e-001

1.02811382665607e+004,-1.68294837808126e+001,-1.61494585594503e-001

1.04246576084112e+004,-1.68294875668567e+001,-1.63748171643639e-001

1.05701804056138e+004,-1.68294914591160e+001,-1.66033182897379e-001

1.07177346253629e+004,-1.68294954605634e+001,-1.68350056610368e-001

1.08673486252606e+004,-1.68294995742554e+001,-1.70699236076472e-001

1.10190511587661e+004,-1.68295038033330e+001,-1.73081170719897e-001

1.11728713807222e+004,-1.68295081510253e+001,-1.75496316168058e-001

1.13288388529580e+004,-1.68295126206510e+001,-1.77945134342195e-001

1.14869835499703e+004,-1.68295172156210e+001,-1.80428093543688e-001

1.16473358646846e+004,-1.68295219394415e+001,-1.82945668531751e-001

1.18099266142953e+004,-1.68295267957160e+001,-1.85498340619833e-001

1.19747870461893e+004,-1.68295317881486e+001,-1.88086597756380e-001

1.21419488439505e+004,-1.68295369205458e+001,-1.90710934620861e-001

1.23114441334492e+004,-1.68295421968204e+001,-1.93371852708404e-001

1.24833054890161e+004,-1.68295476209939e+001,-1.96069860423849e-001

1.26575659397028e+004,-1.68295531971992e+001,-1.98805473175467e-001

1.28342589756290e+004,-1.68295589296844e+001,-2.01579213465241e-001

1.30134185544193e+004,-1.68295648228153e+001,-2.04391610986734e-001

1.31950791077289e+004,-1.68295708810789e+001,-2.07243202721724e-001

1.33792755478611e+004,-1.68295771090865e+001,-2.10134533034241e-001

1.35660432744767e+004,-1.68295835115776e+001,-2.13066153771448e-001

1.37554181813974e+004,-1.68295900934230e+001,-2.16038624361598e-001

1.39474366635040e+004,-1.68295968596283e+001,-2.19052511916354e-001

1.41421356237309e+004,-1.68296038153379e+001,-2.22108391331704e-001

1.43395524801583e+004,-1.68296109658384e+001,-2.25206845392093e-001

1.45397251732031e+004,-1.68296183165632e+001,-2.28348464871636e-001

1.47426921729110e+004,-1.68296258730955e+001,-2.31533848644684e-001

1.49484924863494e+004,-1.68296336411731e+001,-2.34763603788448e-001

1.51571656651040e+004,-1.68296416266922e+001,-2.38038345693546e-001

1.53687518128801e+004,-1.68296498357121e+001,-2.41358698171043e-001

1.55832915932100e+004,-1.68296582744595e+001,-2.44725293563946e-001

1.58008262372675e+004,-1.68296669493324e+001,-2.48138772860678e-001

1.60213975517924e+004,-1.68296758669057e+001,-2.51599785805870e-001

1.62450479271247e+004,-1.68296850339355e+001,-2.55108991014160e-001

1.64718203453514e+004,-1.68296944573640e+001,-2.58667056087611e-001

1.67017583885674e+004,-1.68297041443242e+001,-2.62274657732151e-001

1.69349062472505e+004,-1.68297141021458e+001,-2.65932481874983e-001

1.71713087287550e+004,-1.68297243383602e+001,-2.69641223782629e-001

1.74110112659224e+004,-1.68297348607053e+001,-2.73401588185065e-001

1.76540599258131e+004,-1.68297456771318e+001,-2.77214289394398e-001

1.79005014185594e+004,-1.68297567958087e+001,-2.81080051429337e-001

1.81503831063432e+004,-1.68297682251287e+001,-2.84999608140316e-001

1.84037530124975e+004,-1.68297799737151e+001,-2.88973703333363e-001

1.86606598307361e+004,-1.68297920504270e+001,-2.93003090898813e-001

1.89211529345119e+004,-1.68298044643660e+001,-2.97088534939243e-001

1.91852823865052e+004,-1.68298172248827e+001,-3.01230809898103e-001

1.94530989482457e+004,-1.68298303415832e+001,-3.05430700692355e-001

1.97246540898671e+004,-1.68298438243358e+001,-3.09689002842702e-001

1.99999999999999e+004,-1.68298576832781e+001,-3.14006522609035e-001

2.02791895958005e+004,-1.68298719288242e+001,-3.18384077122275e-001

2.05622765331213e+004,-1.68298865716716e+001,-3.22822494523430e-001

2.08493152168224e+004,-1.68299016228086e+001,-3.27322614100240e-001

2.11403608112276e+004,-1.68299170935230e+001,-3.31885286422159e-001

2.14354692507258e+004,-1.68299329954082e+001,-3.36511373485622e-001

2.17346972505211e+004,-1.68299493403729e+001,-3.41201748849658e-001

2.20381023175322e+004,-1.68299661406482e+001,-3.45957297782314e-001

2.23457427614443e+004,-1.68299834087962e+001,-3.50778917400843e-001

2.26576777059159e+004,-1.68300011577192e+001,-3.55667516817968e-001

2.29739670999406e+004,-1.68300194006676e+001,-3.60624017286862e-001

2.32946717293690e+004,-1.68300381512494e+001,-3.65649352349079e-001

2.36198532285905e+004,-1.68300574234398e+001,-3.70744467979948e-001

2.39495740923785e+004,-1.68300772315896e+001,-3.75910322741772e-001

2.42838976879009e+004,-1.68300975904358e+001,-3.81147887930128e-001

2.46228882668982e+004,-1.68301185151109e+001,-3.86458147726798e-001

2.49666109780322e+004,-1.68301400211532e+001,-3.91842099353728e-001

2.53151318794055e+004,-1.68301621245171e+001,-3.97300753223636e-001

2.56685179512580e+004,-1.68301848415836e+001,-4.02835133095724e-001

2.60268371088386e+004,-1.68302081891713e+001,-4.08446276230407e-001

2.63901582154578e+004,-1.68302321845469e+001,-4.14135233547204e-001

2.67585510957221e+004,-1.68302568454368e+001,-4.19903069781265e-001

2.71320865489533e+004,-1.68302821900385e+001,-4.25750863640682e-001

2.75108363627948e+004,-1.68303082370326e+001,-4.31679707965278e-001

2.78948733270080e+004,-1.68303350055943e+001,-4.37690709888182e-001

2.82842712474618e+004,-1.68303625154058e+001,-4.43784990995287e-001

2.86791049603164e+004,-1.68303907866691e+001,-4.49963687484702e-001

2.90794503464061e+004,-1.68304198401182e+001,-4.56227950333874e-001

2.94853843458219e+004,-1.68304496970325e+001,-4.62578945454669e-001

2.98969849726987e+004,-1.68304803792499e+001,-4.69017853863619e-001

3.03143313302078e+004,-1.68305119091802e+001,-4.75545871840943e-001

3.07375036257601e+004,-1.68305443098189e+001,-4.82164211097258e-001

3.11665831864199e+004,-1.68305776047615e+001,-4.88874098936428e-001

3.16016524745350e+004,-1.68306118182175e+001,-4.95676778421260e-001

3.20427951035848e+004,-1.68306469750248e+001,-5.02573508538101e-001

3.24900958542493e+004,-1.68306831006650e+001,-5.09565564363785e-001

3.29436406907028e+004,-1.68307202212781e+001,-5.16654237228385e-001

3.34035167771346e+004,-1.68307583636776e+001,-5.23840834885266e-001

3.38698124945009e+004,-1.68307975553669e+001,-5.31126681670797e-001

3.43426174575100e+004,-1.68308378245543e+001,-5.38513118675095e-001

3.48220225318448e+004,-1.68308792001697e+001,-5.46001503905584e-001

3.53081198516260e+004,-1.68309217118804e+001,-5.53593212451434e-001

3.58010028371187e+004,-1.68309653901082e+001,-5.61289636649261e-001

3.63007662126863e+004,-1.68310102660463e+001,-5.69092186246888e-001

3.68075060249948e+004,-1.68310563716755e+001,-5.77002288570131e-001

3.73213196614721e+004,-1.68311037397828e+001,-5.85021388680687e-001

3.78423058690237e+004,-1.68311524039782e+001,-5.93150949544527e-001

3.83705647730104e+004,-1.68312023987123e+001,-6.01392452190686e-001

3.89061978964912e+004,-1.68312537592950e+001,-6.09747395872511e-001

3.94493081797342e+004,-1.68313065219132e+001,-6.18217298228562e-001

3.99999999999998e+004,-1.68313607236493e+001,-6.26803695439578e-001

4.05583791916010e+004,-1.68314164024999e+001,-6.35508142388766e-001

4.11245530662425e+004,-1.68314735973945e+001,-6.44332212816104e-001

4.16986304336447e+004,-1.68315323482142e+001,-6.53277499474389e-001

4.22807216224550e+004,-1.68315926958117e+001,-6.62345614280144e-001

4.28709385014515e+004,-1.68316546820292e+001,-6.71538188467530e-001

4.34693945010421e+004,-1.68317183497187e+001,-6.80856872737193e-001

4.40762046350642e+004,-1.68317837427612e+001,-6.90303337403861e-001

4.46914855228886e+004,-1.68318509060863e+001,-6.99879272540430e-001

4.53153554118317e+004,-1.68319198856916e+001,-7.09586388124005e-001

4.59479341998812e+004,-1.68319907286626e+001,-7.19426414174007e-001

4.65893434587380e+004,-1.68320634831923e+001,-7.29401100891434e-001

4.72397064571810e+004,-1.68321381986009e+001,-7.39512218795789e-001

4.78991481847569e+004,-1.68322149253553e+001,-7.49761558856349e-001

4.85677953758016e+004,-1.68322937150890e+001,-7.60150932621939e-001

4.92457765337964e+004,-1.68323746206215e+001,-7.70682172348562e-001

4.99332219560642e+004,-1.68324576959775e+001,-7.81357131122375e-001

5.06302637588109e+004,-1.68325429964063e+001,-7.92177682980571e-001

5.13370359025159e+004,-1.68326305784009e+001,-8.03145723026263e-001

5.20536742176771e+004,-1.68327204997169e+001,-8.14263167543529e-001

5.27803164309155e+004,-1.68328128193907e+001,-8.25531954105052e-001

5.35171021914442e+004,-1.68329075977583e+001,-8.36954041677906e-001

5.42641730979066e+004,-1.68330048964727e+001,-8.48531410723559e-001

5.50216727255895e+004,-1.68331047785217e+001,-8.60266063297581e-001

5.57897466540159e+004,-1.68332073082448e+001,-8.72160023137556e-001

5.65685424949235e+004,-1.68333125513500e+001,-8.84215335755578e-001

5.73582099206328e+004,-1.68334205749293e+001,-8.96434068519166e-001

5.81589006928121e+004,-1.68335314474745e+001,-9.08818310730703e-001

5.89707686916437e+004,-1.68336452388916e+001,-9.21370173702420e-001

5.97939699453972e+004,-1.68337620205149e+001,-9.34091790822729e-001

6.06286626604156e+004,-1.68338818651200e+001,-9.46985317624145e-001

6.14750072515201e+004,-1.68340048469359e+001,-9.60052931838870e-001

6.23331663728396e+004,-1.68341310416565e+001,-9.73296833455949e-001

6.32033049490698e+004,-1.68342605264507e+001,-9.86719244766728e-001

6.40855902071694e+004,-1.68343933799711e+001,-1.00032241041290e+000

6.49801917084985e+004,-1.68345296823628e+001,-1.01410859742038e+000

6.58872813814055e+004,-1.68346695152687e+001,-1.02808009523652e+000

6.68070335542691e+004,-1.68348129618358e+001,-1.04223921575626e+000

6.77396249890018e+004,-1.68349601067183e+001,-1.05658829334633e+000

6.86852349150199e+004,-1.68351110360798e+001,-1.07112968486263e+000

6.96440450636895e+004,-1.68352658375937e+001,-1.08586576966340e+000

7.06162397032520e+004,-1.68354246004419e+001,-1.10079894961914e+000

7.16020056742374e+004,-1.68355874153114e+001,-1.11593164911432e+000

7.26015324253724e+004,-1.68357543743891e+001,-1.13126631504801e+000

7.36150120499896e+004,-1.68359255713543e+001,-1.14680541682815e+000

7.46426393229441e+004,-1.68361011013688e+001,-1.16255144636343e+000

7.56846117380472e+004,-1.68362810610652e+001,-1.17850691804958e+000

7.67411295460207e+004,-1.68364655485319e+001,-1.19467436875476e+000

7.78123957929823e+004,-1.68366546632962e+001,-1.21105635779892e+000

7.88986163594682e+004,-1.68368485063039e+001,-1.22765546693307e+000

7.99999999999995e+004,-1.68370471798967e+001,-1.24447430031569e+000

8.11167583832018e+004,-1.68372507877862e+001,-1.26151548448712e+000

8.22491061324848e+004,-1.68374594350244e+001,-1.27878166834359e+000

8.33972608672892e+004,-1.68376732279717e+001,-1.29627552310995e+000

8.45614432449099e+004,-1.68378922742605e+001,-1.31399974231366e+000

8.57418770029029e+004,-1.68381166827559e+001,-1.33195704175962e+000

8.69387890020841e+004,-1.68383465635123e+001,-1.35015015950662e+000

8.81524092701283e+004,-1.68385820277258e+001,-1.36858185584700e+000

8.93829710457770e+004,-1.68388231876834e+001,-1.38725491328928e+000

9.06307108236633e+004,-1.68390701567072e+001,-1.40617213654586e+000

9.18958683997622e+004,-1.68393230490943e+001,-1.42533635252837e+000

9.31786869174758e+004,-1.68395819800528e+001,-1.44475041034620e+000

9.44794129143618e+004,-1.68398470656325e+001,-1.46441718131734e+000

9.57982963695136e+004,-1.68401184226511e+001,-1.48433955898718e+000

9.71355907516031e+004,-1.68403961686158e+001,-1.50452045915724e+000

9.84915530675926e+004,-1.68406804216389e+001,-1.52496281992945e+000

9.98664439121282e+004,-1.68409713003496e+001,-1.54566960176146e+000

1.01260527517622e+005,-1.68412689237994e+001,-1.56664378754142e+000

1.02674071805032e+005,-1.68415734113623e+001,-1.58788838267689e+000

1.04107348435354e+005,-1.68418848826301e+001,-1.60940641520598e+000

1.05560632861831e+005,-1.68422034573013e+001,-1.63120093593005e+000

1.07034204382888e+005,-1.68425292550652e+001,-1.65327501856788e+000

1.08528346195813e+005,-1.68428623954791e+001,-1.67563175993914e+000

1.10043345451179e+005,-1.68432029978408e+001,-1.69827428017322e+000

1.11579493308032e+005,-1.68435511810546e+001,-1.72120572295053e+000

1.13137084989847e+005,-1.68439070634916e+001,-1.74442925577491e+000

1.14716419841265e+005,-1.68442707628442e+001,-1.76794807028387e+000

1.16317801385624e+005,-1.68446423959746e+001,-1.79176538259466e+000

1.17941537383287e+005,-1.68450220787570e+001,-1.81588443369444e+000

1.19587939890794e+005,-1.68454099259147e+001,-1.84030848986985e+000

1.21257325320831e+005,-1.68458060508513e+001,-1.86504084318728e+000

1.22950014503040e+005,-1.68462105654756e+001,-1.89008481201952e+000

1.24666332745679e+005,-1.68466235800217e+001,-1.91544374162689e+000

1.26406609898139e+005,-1.68470452028631e+001,-1.94112100479315e+000

1.28171180414339e+005,-1.68474755403215e+001,-1.96712000252044e+000

1.29960383416997e+005,-1.68479146964718e+001,-1.99344416478420e+000

1.31774562762811e+005,-1.68483627729400e+001,-2.02009695135524e+000

1.33614067108538e+005,-1.68488198686988e+001,-2.04708185268960e+000

1.35479249978003e+005,-1.68492860798571e+001,-2.07440239088713e+000

1.37370469830040e+005,-1.68497614994469e+001,-2.10206212072796e+000

1.39288090127379e+005,-1.68502462172058e+001,-2.13006463078356e+000

1.41232479406504e+005,-1.68507403193562e+001,-2.15841354460989e+000

1.43204011348474e+005,-1.68512438883827e+001,-2.18711252202291e+000

1.45203064850745e+005,-1.68517570028056e+001,-2.21616526046260e+000

1.47230024099979e+005,-1.68522797369539e+001,-2.24557549644401e+000

1.49285278645888e+005,-1.68528121607367e+001,-2.27534700710250e+000

1.51369223476094e+005,-1.68533543394135e+001,-2.30548361183115e+000

1.53482259092041e+005,-1.68539063333646e+001,-2.33598917401864e+000

1.55624791585964e+005,-1.68544681978621e+001,-2.36686760288369e+000

1.57797232718936e+005,-1.68550399828427e+001,-2.39812285541305e+000

1.59999999999999e+005,-1.68556217326809e+001,-2.42975893840232e+000

1.62233516766403e+005,-1.68562134859668e+001,-2.46177991060084e+000

1.64498212264969e+005,-1.68568152752862e+001,-2.49418988496596e+000

1.66794521734578e+005,-1.68574271270054e+001,-2.52699303102132e+000

1.69122886489819e+005,-1.68580490610609e+001,-2.56019357732789e+000

1.71483754005805e+005,-1.68586810907558e+001,-2.59379581405916e+000

1.73877578004168e+005,-1.68593232225625e+001,-2.62780409569005e+000

1.76304818540256e+005,-1.68599754559333e+001,-2.66222284379303e+000

1.78765942091554e+005,-1.68606377831204e+001,-2.69705654994080e+000

1.81261421647326e+005,-1.68613101890047e+001,-2.73230977872026e+000

1.83791736799524e+005,-1.68619926509361e+001,-2.76798717085043e+000

1.86357373834951e+005,-1.68626851385854e+001,-2.80409344640352e+000

1.88958825828723e+005,-1.68633876138083e+001,-2.84063340813088e+000

1.91596592739027e+005,-1.68641000305233e+001,-2.87761194488690e+000

1.94271181503206e+005,-1.68648223346042e+001,-2.91503403514896e+000

1.96983106135185e+005,-1.68655544637881e+001,-2.95290475063087e+000

1.99732887824256e+005,-1.68662963476000e+001,-2.99122925998342e+000

2.02521055035243e+005,-1.68670479072937e+001,-3.03001283258168e+000

2.05348143610063e+005,-1.68678090558124e+001,-3.06926084238860e+000

2.08214696870707e+005,-1.68685796977670e+001,-3.10897877189401e+000

2.11121265723661e+005,-1.68693597294347e+001,-3.14917221612040e+000

2.14068408765776e+005,-1.68701490387783e+001,-3.18984688669046e+000

2.17056692391625e+005,-1.68709475054862e+001,-3.23100861594977e+000

2.20086690902357e+005,-1.68717550010346e+001,-3.27266336113597e+000

2.23158986616063e+005,-1.68725713887717e+001,-3.31481720858840e+000

2.26274169979693e+005,-1.68733965240254e+001,-3.35747637799053e+000

2.29432839682530e+005,-1.68742302542333e+001,-3.40064722663455e+000

2.32635602771247e+005,-1.68750724190972e+001,-3.44433625370350e+000

2.35883074766574e+005,-1.68759228507608e+001,-3.48855010455826e+000

2.39175879781588e+005,-1.68767813740117e+001,-3.53329557502359e+000

2.42514650641661e+005,-1.68776478065075e+001,-3.57857961566215e+000

2.45900029006080e+005,-1.68785219590255e+001,-3.62440933602819e+000

2.49332665491357e+005,-1.68794036357365e+001,-3.67079200889236e+000

2.52813219796278e+005,-1.68802926345025e+001,-3.71773507442511e+000

2.56342360828676e+005,-1.68811887471975e+001,-3.76524614433421e+000

2.59920766833993e+005,-1.68820917600507e+001,-3.81333300594360e+000

2.63549125525621e+005,-1.68830014540124e+001,-3.86200362620567e+000

2.67228134217075e+005,-1.68839176051422e+001,-3.91126615563853e+000

2.70958499956006e+005,-1.68848399850166e+001,-3.96112893217873e+000

2.74740939660078e+005,-1.68857683611581e+001,-4.01160048494241e+000

2.78576180254757e+005,-1.68867024974829e+001,-4.06268953788562e+000

2.82464958813007e+005,-1.68876421547662e+001,-4.11440501335735e+000

2.86408022696948e+005,-1.68885870911253e+001,-4.16675603553747e+000

2.90406129701488e+005,-1.68895370625183e+001,-4.21975193375348e+000

2.94460048199957e+005,-1.68904918232566e+001,-4.27340224567026e+000

2.98570557291775e+005,-1.68914511265317e+001,-4.32771672034691e+000

3.02738446952187e+005,-1.68924147249527e+001,-4.38270532115483e+000

3.06964518184081e+005,-1.68933823710950e+001,-4.43837822855708e+000

3.11249583171928e+005,-1.68943538180570e+001,-4.49474584273947e+000

3.15594465437872e+005,-1.68953288200245e+001,-4.55181878609702e+000

3.19999999999997e+005,-1.68963071328410e+001,-4.60960790556725e+000

3.24467033532806e+005,-1.68972885145811e+001,-4.66812427481732e+000

3.28996424529938e+005,-1.68982727261277e+001,-4.72737919627433e+000

3.33589043469155e+005,-1.68992595317485e+001,-4.78738420301068e+000

3.38245772979638e+005,-1.69002486996736e+001,-4.84815106047435e+000

3.42967508011610e+005,-1.69012400026689e+001,-4.90969176807503e+000

3.47755156008335e+005,-1.69022332186069e+001,-4.97201856062317e+000

3.52609637080511e+005,-1.69032281310310e+001,-5.03514390962838e+000

3.57531884183106e+005,-1.69042245297144e+001,-5.09908052445877e+000

3.62522843294651e+005,-1.69052222112087e+001,-5.16384135336845e+000

3.67583473599047e+005,-1.69062209793844e+001,-5.22943958439711e+000

3.72714747669902e+005,-1.69072206459594e+001,-5.29588864614851e+000

3.77917651657445e+005,-1.69082210310156e+001,-5.36320220845370e+000

3.83193185478053e+005,-1.69092219635022e+001,-5.43139418292670e+000

3.88542363006410e+005,-1.69102232817239e+001,-5.50047872342104e+000

3.93966212270369e+005,-1.69112248338141e+001,-5.57047022639435e+000

3.99465775648511e+005,-1.69122264781920e+001,-5.64138333118782e+000

4.05042110070485e+005,-1.69132280840015e+001,-5.71323292023501e+000

4.10696287220124e+005,-1.69142295315335e+001,-5.78603411920142e+000

4.16429393741414e+005,-1.69152307126289e+001,-5.85980229707129e+000

4.22242531447321e+005,-1.69162315310630e+001,-5.93455306618687e+000

4.28136817531551e+005,-1.69172319029105e+001,-6.01030228225072e+000

4.34113384783250e+005,-1.69182317568916e+001,-6.08706604430197e+000

4.40173381804713e+005,-1.69192310346970e+001,-6.16486069467511e+000

4.46317973232124e+005,-1.69202296912948e+001,-6.24370281895192e+000

4.52548339959385e+005,-1.69212276952164e+001,-6.32360924591518e+000

4.58865679365059e+005,-1.69222250288232e+001,-6.40459704751412e+000

4.65271205542494e+005,-1.69232216885543e+001,-6.48668353885193e+000

4.71766149533147e+005,-1.69242176851550e+001,-6.56988627820211e+000

4.78351759563174e+005,-1.69252130438862e+001,-6.65422306706534e+000

4.85029301283321e+005,-1.69262078047163e+001,-6.73971195027282e+000

4.91800058012158e+005,-1.69272020224951e+001,-6.82637121614658e+000

4.98665330982714e+005,-1.69281957671115e+001,-6.91421939672213e+000

5.05626439592555e+005,-1.69291891236342e+001,-7.00327526804283e+000

5.12684721657352e+005,-1.69301821924374e+001,-7.09355785053319e+000

5.19841533667984e+005,-1.69311750893116e+001,-7.18508640945498e+000

5.27098251051240e+005,-1.69321679455618e+001,-7.27788045545619e+000

5.34456268434150e+005,-1.69331609080910e+001,-7.37195974521532e+000

5.41916999912011e+005,-1.69341541394738e+001,-7.46734428218717e+000

