Freq.,VOut,OutRef

1.00000000000000e+004,-1.02108932483633e+001,-1.33199056452178e-001

1.01395947979003e+004,-1.02108941297017e+001,-1.35058242896019e-001

1.02811382665607e+004,-1.02108950357619e+001,-1.36943374003115e-001

1.04246576084112e+004,-1.02108959672357e+001,-1.38854811581573e-001

1.05701804056138e+004,-1.02108969248339e+001,-1.40792922477741e-001

1.07177346253629e+004,-1.02108979092877e+001,-1.42758078639694e-001

1.08673486252606e+004,-1.02108989213485e+001,-1.44750657190592e-001

1.10190511587661e+004,-1.02108999617880e+001,-1.46771040504581e-001

1.11728713807222e+004,-1.02109010314000e+001,-1.48819616272661e-001

1.13288388529580e+004,-1.02109021310003e+001,-1.50896777577091e-001

1.14869835499703e+004,-1.02109032614273e+001,-1.53002922970906e-001

1.16473358646846e+004,-1.02109044235425e+001,-1.55138456548758e-001

1.18099266142953e+004,-1.02109056182317e+001,-1.57303788024097e-001

1.19747870461893e+004,-1.02109068464051e+001,-1.59499332808407e-001

1.21419488439505e+004,-1.02109081089981e+001,-1.61725512088565e-001

1.23114441334492e+004,-1.02109094069722e+001,-1.63982752905884e-001

1.24833054890161e+004,-1.02109107413154e+001,-1.66271488240486e-001

1.26575659397028e+004,-1.02109121130438e+001,-1.68592157084233e-001

1.28342589756290e+004,-1.02109135232005e+001,-1.70945204536515e-001

1.30134185544193e+004,-1.02109149728585e+001,-1.73331081877242e-001

1.31950791077289e+004,-1.02109164631200e+001,-1.75750246657064e-001

1.33792755478611e+004,-1.02109179951180e+001,-1.78203162782651e-001

1.35660432744767e+004,-1.02109195700164e+001,-1.80690300605989e-001

1.37554181813974e+004,-1.02109211890122e+001,-1.83212137006761e-001

1.39474366635040e+004,-1.02109228533345e+001,-1.85769155491532e-001

1.41421356237309e+004,-1.02109245642470e+001,-1.88361846275942e-001

1.43395524801583e+004,-1.02109263230480e+001,-1.90990706382903e-001

1.45397251732031e+004,-1.02109281310722e+001,-1.93656239731356e-001

1.47426921729110e+004,-1.02109299896903e+001,-1.96358957235647e-001

1.49484924863494e+004,-1.02109319003115e+001,-1.99099376897126e-001

1.51571656651040e+004,-1.02109338643836e+001,-2.01878023903840e-001

1.53687518128801e+004,-1.02109358833940e+001,-2.04695430729797e-001

1.55832915932100e+004,-1.02109379588718e+001,-2.07552137230166e-001

1.58008262372675e+004,-1.02109400923875e+001,-2.10448690748082e-001

1.60213975517924e+004,-1.02109422855551e+001,-2.13385646211404e-001

1.62450479271247e+004,-1.02109445400330e+001,-2.16363566241935e-001

1.64718203453514e+004,-1.02109468575250e+001,-2.19383021256837e-001

1.67017583885674e+004,-1.02109492397819e+001,-2.22444589574778e-001

1.69349062472505e+004,-1.02109516886025e+001,-2.25548857525704e-001

1.71713087287550e+004,-1.02109542058344e+001,-2.28696419561441e-001

1.74110112659224e+004,-1.02109567933768e+001,-2.31887878360142e-001

1.76540599258131e+004,-1.02109594531801e+001,-2.35123844946058e-001

1.79005014185594e+004,-1.02109621872482e+001,-2.38404938797398e-001

1.81503831063432e+004,-1.02109649976402e+001,-2.41731787963390e-001

1.84037530124975e+004,-1.02109678864710e+001,-2.45105029181287e-001

1.86606598307361e+004,-1.02109708559131e+001,-2.48525307994338e-001

1.89211529345119e+004,-1.02109739081989e+001,-2.51993278868947e-001

1.91852823865052e+004,-1.02109770456210e+001,-2.55509605318129e-001

1.94530989482457e+004,-1.02109802705348e+001,-2.59074960022268e-001

1.97246540898671e+004,-1.02109835853593e+001,-2.62690024956905e-001

1.99999999999999e+004,-1.02109869925799e+001,-2.66355491511492e-001

2.02791895958005e+004,-1.02109904947486e+001,-2.70072060625272e-001

2.05622765331213e+004,-1.02109940944874e+001,-2.73840442907558e-001

2.08493152168224e+004,-1.02109977944888e+001,-2.77661358775082e-001

2.11403608112276e+004,-1.02110015975186e+001,-2.81535538579200e-001

2.14354692507258e+004,-1.02110055064168e+001,-2.85463722744123e-001

2.17346972505211e+004,-1.02110095241004e+001,-2.89446661897861e-001

2.20381023175322e+004,-1.02110136535651e+001,-2.93485117012664e-001

2.23457427614443e+004,-1.02110178978872e+001,-2.97579859540992e-001

2.26576777059159e+004,-1.02110222602256e+001,-3.01731671560693e-001

2.29739670999406e+004,-1.02110267438244e+001,-3.05941345910667e-001

2.32946717293690e+004,-1.02110313520142e+001,-3.10209686340887e-001

2.36198532285905e+004,-1.02110360882156e+001,-3.14537507653930e-001

2.39495740923785e+004,-1.02110409559399e+001,-3.18925635855320e-001

2.42838976879009e+004,-1.02110459587928e+001,-3.23374908301834e-001

2.46228882668982e+004,-1.02110511004760e+001,-3.27886173850231e-001

2.49666109780322e+004,-1.02110563847896e+001,-3.32460293016094e-001

2.53151318794055e+004,-1.02110618156349e+001,-3.37098138121678e-001

2.56685179512580e+004,-1.02110673970170e+001,-3.41800593457342e-001

2.60268371088386e+004,-1.02110731330469e+001,-3.46568555437799e-001

2.63901582154578e+004,-1.02110790279445e+001,-3.51402932762613e-001

2.67585510957221e+004,-1.02110850860409e+001,-3.56304646580095e-001

2.71320865489533e+004,-1.02110913117816e+001,-3.61274630649409e-001

2.75108363627948e+004,-1.02110977097293e+001,-3.66313831506656e-001

2.78948733270080e+004,-1.02111042845660e+001,-3.71423208634667e-001

2.82842712474618e+004,-1.02111110410967e+001,-3.76603734631662e-001

2.86791049603164e+004,-1.02111179842522e+001,-3.81856395381379e-001

2.90794503464061e+004,-1.02111251190920e+001,-3.87182190230012e-001

2.94853843458219e+004,-1.02111324508068e+001,-3.92582132162156e-001

2.98969849726987e+004,-1.02111399847229e+001,-3.98057247973535e-001

3.03143313302078e+004,-1.02111477263043e+001,-4.03608578455974e-001

3.07375036257601e+004,-1.02111556811562e+001,-4.09237178577970e-001

3.11665831864199e+004,-1.02111638550286e+001,-4.14944117667066e-001

3.16016524745350e+004,-1.02111722538193e+001,-4.20730479596444e-001

3.20427951035848e+004,-1.02111808835776e+001,-4.26597362972197e-001

3.24900958542493e+004,-1.02111897505074e+001,-4.32545881325128e-001

3.29436406907028e+004,-1.02111988609709e+001,-4.38577163299569e-001

3.34035167771346e+004,-1.02112082214924e+001,-4.44692352850206e-001

3.38698124945009e+004,-1.02112178387613e+001,-4.50892609437473e-001

3.43426174575100e+004,-1.02112277196365e+001,-4.57179108223625e-001

3.48220225318448e+004,-1.02112378711495e+001,-4.63553040275108e-001

3.53081198516260e+004,-1.02112483005087e+001,-4.70015612764661e-001

3.58010028371187e+004,-1.02112590151028e+001,-4.76568049174669e-001

3.63007662126863e+004,-1.02112700225048e+001,-4.83211589505218e-001

3.68075060249948e+004,-1.02112813304758e+001,-4.89947490480334e-001

3.73213196614721e+004,-1.02112929469694e+001,-4.96777025760584e-001

3.78423058690237e+004,-1.02113048801350e+001,-5.03701486156428e-001

3.83705647730104e+004,-1.02113171383222e+001,-5.10722179840851e-001

3.89061978964912e+004,-1.02113297300852e+001,-5.17840432567692e-001

3.94493081797342e+004,-1.02113426641861e+001,-5.25057587891658e-001

3.99999999999998e+004,-1.02113559495994e+001,-5.32375007388806e-001

4.05583791916010e+004,-1.02113695955165e+001,-5.39794070878352e-001

4.11245530662425e+004,-1.02113836113492e+001,-5.47316176652283e-001

4.16986304336447e+004,-1.02113980067346e+001,-5.54942741697999e-001

4.22807216224550e+004,-1.02114127915384e+001,-5.62675201932758e-001

4.28709385014515e+004,-1.02114279758599e+001,-5.70515012433724e-001

4.34693945010421e+004,-1.02114435700357e+001,-5.78463647670501e-001

4.40762046350642e+004,-1.02114595846444e+001,-5.86522601743476e-001

4.46914855228886e+004,-1.02114760305100e+001,-5.94693388622903e-001

4.53153554118317e+004,-1.02114929187068e+001,-6.02977542386159e-001

4.59479341998812e+004,-1.02115102605632e+001,-6.11376617463767e-001

4.65893434587380e+004,-1.02115280676659e+001,-6.19892188882120e-001

4.72397064571810e+004,-1.02115463518638e+001,-6.28525852511790e-001

4.78991481847569e+004,-1.02115651252723e+001,-6.37279225315255e-001

4.85677953758016e+004,-1.02115844002771e+001,-6.46153945598740e-001

4.92457765337964e+004,-1.02116041895382e+001,-6.55151673265662e-001

4.99332219560642e+004,-1.02116245059933e+001,-6.64274090072482e-001

5.06302637588109e+004,-1.02116453628624e+001,-6.73522899885969e-001

5.13370359025159e+004,-1.02116667736504e+001,-6.82899828942286e-001

5.20536742176771e+004,-1.02116887521519e+001,-6.92406626109174e-001

5.27803164309155e+004,-1.02117113124530e+001,-7.02045063152231e-001

5.35171021914442e+004,-1.02117344689361e+001,-7.11816934998126e-001

5.42641730979066e+004,-1.02117582362820e+001,-7.21724060004145e-001

5.50216727255895e+004,-1.02117826294734e+001,-7.31768280230513e-001

5.57897466540159e+004,-1.02118076637974e+001,-7.41951461710281e-001

5.65685424949235e+004,-1.02118333548483e+001,-7.52275494726167e-001

5.73582099206328e+004,-1.02118597185296e+001,-7.62742294087897e-001

5.81589006928121e+004,-1.02118867710567e+001,-7.73353799411565e-001

5.89707686916437e+004,-1.02119145289582e+001,-7.84111975400046e-001

5.97939699453972e+004,-1.02119430090779e+001,-7.95018812129862e-001

6.06286626604156e+004,-1.02119722285759e+001,-8.06076325334134e-001

6.14750072515201e+004,-1.02120022049296e+001,-8.17286556695296e-001

6.23331663728396e+004,-1.02120329559347e+001,-8.28651574132046e-001

6.32033049490698e+004,-1.02120644997050e+001,-8.40173472096710e-001

6.40855902071694e+004,-1.02120968546729e+001,-8.51854371867865e-001

6.49801917084985e+004,-1.02121300395882e+001,-8.63696421852025e-001

6.58872813814055e+004,-1.02121640735178e+001,-8.75701797883268e-001

6.68070335542691e+004,-1.02121989758440e+001,-8.87872703526591e-001

6.77396249890018e+004,-1.02122347662625e+001,-9.00211370385866e-001

6.86852349150199e+004,-1.02122714647806e+001,-9.12720058412188e-001

6.96440450636895e+004,-1.02123090917133e+001,-9.25401056215700e-001

7.06162397032520e+004,-1.02123476676804e+001,-9.38256681382724e-001

7.16020056742374e+004,-1.02123872136024e+001,-9.51289280791509e-001

7.26015324253724e+004,-1.02124277506949e+001,-9.64501230936413e-001

7.36150120499896e+004,-1.02124693004639e+001,-9.77894938250442e-001

7.46426393229441e+004,-1.02125118846992e+001,-9.91472839434799e-001

7.56846117380472e+004,-1.02125555254672e+001,-1.00523740179003e+000

7.67411295460207e+004,-1.02126002451037e+001,-1.01919112355184e+000

7.78123957929823e+004,-1.02126460662041e+001,-1.03333653423208e+000

7.88986163594682e+004,-1.02126930116152e+001,-1.04767619495957e+000

7.99999999999995e+004,-1.02127411044238e+001,-1.06221269883053e+000

8.11167583832018e+004,-1.02127903679452e+001,-1.07694867126074e+000

8.22491061324848e+004,-1.02128408257116e+001,-1.09188677034064e+000

8.33972608672892e+004,-1.02128925014578e+001,-1.10702968720059e+000

8.45614432449099e+004,-1.02129454191068e+001,-1.12238014637685e+000

8.57418770029029e+004,-1.02129996027542e+001,-1.13794090618524e+000

8.69387890020841e+004,-1.02130550766511e+001,-1.15371475909834e+000

8.81524092701283e+004,-1.02131118651860e+001,-1.16970453213427e+000

8.93829710457770e+004,-1.02131699928655e+001,-1.18591308724456e+000

9.06307108236633e+004,-1.02132294842932e+001,-1.20234332171519e+000

9.18958683997622e+004,-1.02132903641480e+001,-1.21899816857059e+000

9.31786869174758e+004,-1.02133526571603e+001,-1.23588059698930e+000

9.44794129143618e+004,-1.02134163880869e+001,-1.25299361272448e+000

9.57982963695136e+004,-1.02134815816849e+001,-1.27034025853355e+000

9.71355907516031e+004,-1.02135482626833e+001,-1.28792361461857e+000

9.84915530675926e+004,-1.02136164557536e+001,-1.30574679907553e+000

9.98664439121282e+004,-1.02136861854784e+001,-1.32381296835145e+000

1.01260527517622e+005,-1.02137574763187e+001,-1.34212531771675e+000

1.02674071805032e+005,-1.02138303525791e+001,-1.36068708174413e+000

1.04107348435354e+005,-1.02139048383716e+001,-1.37950153480342e+000

1.05560632861831e+005,-1.02139809575776e+001,-1.39857199156502e+000

1.07034204382888e+005,-1.02140587338076e+001,-1.41790180752060e+000

1.08528346195813e+005,-1.02141381903599e+001,-1.43749437951518e+000

1.10043345451179e+005,-1.02142193501772e+001,-1.45735314629306e+000

1.11579493308032e+005,-1.02143022358002e+001,-1.47748158906392e+000

1.13137084989847e+005,-1.02143868693218e+001,-1.49788323207822e+000

1.14716419841265e+005,-1.02144732723365e+001,-1.51856164322562e+000

1.16317801385624e+005,-1.02145614658900e+001,-1.53952043464856e+000

1.17941537383287e+005,-1.02146514704265e+001,-1.56076326337402e+000

1.19587939890794e+005,-1.02147433057328e+001,-1.58229383196745e+000

1.21257325320831e+005,-1.02148369908828e+001,-1.60411588920397e+000

1.22950014503040e+005,-1.02149325441778e+001,-1.62623323076352e+000

1.24666332745679e+005,-1.02150299830867e+001,-1.64864969994829e+000

1.26406609898139e+005,-1.02151293241831e+001,-1.67136918842183e+000

1.28171180414339e+005,-1.02152305830822e+001,-1.69439563697439e+000

1.29960383416997e+005,-1.02153337743737e+001,-1.71773303631179e+000

1.31774562762811e+005,-1.02154389115556e+001,-1.74138542787313e+000

1.33614067108538e+005,-1.02155460069642e+001,-1.76535690467365e+000

1.35479249978003e+005,-1.02156550717039e+001,-1.78965161217685e+000

1.37370469830040e+005,-1.02157661155750e+001,-1.81427374919679e+000

1.39288090127379e+005,-1.02158791470000e+001,-1.83922756882884e+000

1.41232479406504e+005,-1.02159941729495e+001,-1.86451737941395e+000

1.43204011348474e+005,-1.02161111988654e+001,-1.89014754553422e+000

1.45203064850745e+005,-1.02162302285848e+001,-1.91612248904207e+000

1.47230024099979e+005,-1.02163512642613e+001,-1.94244669012401e+000

1.49285278645888e+005,-1.02164743062871e+001,-1.96912468839806e+000

1.51369223476094e+005,-1.02165993532132e+001,-1.99616108405152e+000

1.53482259092041e+005,-1.02167264016699e+001,-2.02356053900941e+000

1.55624791585964e+005,-1.02168554462865e+001,-2.05132777814639e+000

1.57797232718936e+005,-1.02169864796114e+001,-2.07946759053515e+000

1.59999999999999e+005,-1.02171194920316e+001,-2.10798483073206e+000

1.62233516766403e+005,-1.02172544716933e+001,-2.13688442010612e+000

1.64498212264969e+005,-1.02173914044223e+001,-2.16617134820595e+000

1.66794521734578e+005,-1.02175302736454e+001,-2.19585067416878e+000

1.69122886489819e+005,-1.02176710603121e+001,-2.22592752817054e+000

1.71483754005805e+005,-1.02178137428190e+001,-2.25640711291745e+000

1.73877578004168e+005,-1.02179582969333e+001,-2.28729470517996e+000

1.76304818540256e+005,-1.02181046957203e+001,-2.31859565736830e+000

1.78765942091554e+005,-1.02182529094708e+001,-2.35031539915014e+000

1.81261421647326e+005,-1.02184029056319e+001,-2.38245943911044e+000

1.83791736799524e+005,-1.02185546487392e+001,-2.41503336645400e+000

1.86357373834951e+005,-1.02187081003528e+001,-2.44804285274776e+000

1.88958825828723e+005,-1.02188632189952e+001,-2.48149365370526e+000

1.91596592739027e+005,-1.02190199600923e+001,-2.51539161101240e+000

1.94271181503206e+005,-1.02191782759186e+001,-2.54974265419113e+000

1.96983106135185e+005,-1.02193381155454e+001,-2.58455280250552e+000

1.99732887824256e+005,-1.02194994247928e+001,-2.61982816690193e+000

2.02521055035243e+005,-1.02196621461862e+001,-2.65557495199048e+000

2.05348143610063e+005,-1.02198262189172e+001,-2.69179945805923e+000

2.08214696870707e+005,-1.02199915788081e+001,-2.72850808312563e+000

2.11121265723661e+005,-1.02201581582822e+001,-2.76570732501987e+000

2.14068408765776e+005,-1.02203258863389e+001,-2.80340378349971e+000

2.17056692391625e+005,-1.02204946885330e+001,-2.84160416239807e+000

2.20086690902357e+005,-1.02206644869606e+001,-2.88031527179491e+000

2.23158986616063e+005,-1.02208352002488e+001,-2.91954403022000e+000

2.26274169979693e+005,-1.02210067435527e+001,-2.95929746687704e+000

2.29432839682530e+005,-1.02211790285565e+001,-2.99958272389199e+000

2.32635602771247e+005,-1.02213519634809e+001,-3.04040705858165e+000

2.35883074766574e+005,-1.02215254530962e+001,-3.08177784574033e+000

2.39175879781588e+005,-1.02216993987414e+001,-3.12370257994285e+000

2.42514650641661e+005,-1.02218736983481e+001,-3.16618887786154e+000

2.45900029006080e+005,-1.02220482464713e+001,-3.20924448059333e+000

2.49332665491357e+005,-1.02222229343248e+001,-3.25287725599907e+000

2.52813219796278e+005,-1.02223976498230e+001,-3.29709520104653e+000

2.56342360828676e+005,-1.02225722776272e+001,-3.34190644415955e+000

2.59920766833993e+005,-1.02227466991982e+001,-3.38731924757041e+000

2.63549125525621e+005,-1.02229207928530e+001,-3.43334200967006e+000

2.67228134217075e+005,-1.02230944338274e+001,-3.47998326735794e+000

2.70958499956006e+005,-1.02232674943419e+001,-3.52725169838786e+000

2.74740939660078e+005,-1.02234398436736e+001,-3.57515612370646e+000

2.78576180254757e+005,-1.02236113482307e+001,-3.62370550978422e+000

2.82464958813007e+005,-1.02237818716318e+001,-3.67290897093734e+000

2.86408022696948e+005,-1.02239512747878e+001,-3.72277577163719e+000

2.90406129701488e+005,-1.02241194159881e+001,-3.77331532880700e+000

2.94460048199957e+005,-1.02242861509874e+001,-3.82453721410472e+000

2.98570557291775e+005,-1.02244513330968e+001,-3.87645115619084e+000

3.02738446952187e+005,-1.02246148132757e+001,-3.92906704297791e+000

3.06964518184081e+005,-1.02247764402249e+001,-3.98239492386484e+000

3.11249583171928e+005,-1.02249360604813e+001,-4.03644501195318e+000

3.15594465437872e+005,-1.02250935185120e+001,-4.09122768624457e+000

3.19999999999997e+005,-1.02252486568094e+001,-4.14675349382005e+000

3.24467033532806e+005,-1.02254013159852e+001,-4.20303315200190e+000

3.28996424529938e+005,-1.02255513348630e+001,-4.26007755049758e+000

3.33589043469155e+005,-1.02256985505699e+001,-4.31789775352553e+000

3.38245772979638e+005,-1.02258427986260e+001,-4.37650500192514e+000

3.42967508011610e+005,-1.02259839130306e+001,-4.43591071525165e+000

3.47755156008335e+005,-1.02261217263465e+001,-4.49612649385526e+000

3.52609637080511e+005,-1.02262560697798e+001,-4.55716412094896e+000

3.57531884183106e+005,-1.02263867732557e+001,-4.61903556466491e+000

3.62522843294651e+005,-1.02265136654909e+001,-4.68175298010001e+000

3.67583473599047e+005,-1.02266365740593e+001,-4.74532871135694e+000

3.72714747669902e+005,-1.02267553254541e+001,-4.80977529357672e+000

3.77917651657445e+005,-1.02268697451431e+001,-4.87510545497245e+000

3.83193185478053e+005,-1.02269796576177e+001,-4.94133211886061e+000

3.88542363006410e+005,-1.02270848864363e+001,-5.00846840569552e+000

3.93966212270369e+005,-1.02271852542601e+001,-5.07652763511060e+000

3.99465775648511e+005,-1.02272805828815e+001,-5.14552332796793e+000

4.05042110070485e+005,-1.02273706932460e+001,-5.21546920841873e+000

4.10696287220124e+005,-1.02274554054653e+001,-5.28637920598116e+000

4.16429393741414e+005,-1.02275345388229e+001,-5.35826745763472e+000

4.22242531447321e+005,-1.02276079117717e+001,-5.43114830993780e+000

4.28136817531551e+005,-1.02276753419225e+001,-5.50503632117089e+000

4.34113384783250e+005,-1.02277366460248e+001,-5.57994626350760e+000

4.40173381804713e+005,-1.02277916399386e+001,-5.65589312521943e+000

4.46317973232124e+005,-1.02278401385969e+001,-5.73289211291622e+000

4.52548339959385e+005,-1.02278819559602e+001,-5.81095865382665e+000

4.58865679365059e+005,-1.02279169049616e+001,-5.89010839812172e+000

4.65271205542494e+005,-1.02279447974433e+001,-5.97035722128470e+000

4.71766149533147e+005,-1.02279654440836e+001,-6.05172122653300e+000

4.78351759563174e+005,-1.02279786543160e+001,-6.13421674729141e+000

4.85029301283321e+005,-1.02279842362381e+001,-6.21786034972482e+000

4.91800058012158e+005,-1.02279819965134e+001,-6.30266883533036e+000

4.98665330982714e+005,-1.02279717402627e+001,-6.38865924359347e+000

5.05626439592555e+005,-1.02279532709484e+001,-6.47584885471129e+000

5.12684721657352e+005,-1.02279263902490e+001,-6.56425519238621e+000

5.19841533667984e+005,-1.02278908979264e+001,-6.65389602669207e+000

5.27098251051240e+005,-1.02278465916843e+001,-6.74478937701714e+000

5.34456268434150e+005,-1.02277932670188e+001,-6.83695351508643e+000

5.41916999912011e+005,-1.02277307170611e+001,-6.93040696806432e+000

