Freq.,VOut,OutRef

1.00000000000000e+004,-2.32825118342272e+001,-5.33518553063730e-001

1.01395947979003e+004,-2.32825184686156e+001,-5.40965409061574e-001

1.02811382665607e+004,-2.32825252893225e+001,-5.48516185982460e-001

1.04246576084112e+004,-2.32825323015749e+001,-5.56172333096663e-001

1.05701804056138e+004,-2.32825395107459e+001,-5.63935319845048e-001

1.07177346253629e+004,-2.32825469223589e+001,-5.71806636121224e-001

1.08673486252606e+004,-2.32825545420919e+001,-5.79787792549013e-001

1.10190511587661e+004,-2.32825623757818e+001,-5.87880320775078e-001

1.11728713807222e+004,-2.32825704294288e+001,-5.96085773754011e-001

1.13288388529580e+004,-2.32825787092010e+001,-6.04405726047335e-001

1.14869835499703e+004,-2.32825872214388e+001,-6.12841774118845e-001

1.16473358646846e+004,-2.32825959726601e+001,-6.21395536639225e-001

1.18099266142953e+004,-2.32826049695649e+001,-6.30068654791374e-001

1.19747870461893e+004,-2.32826142190407e+001,-6.38862792582159e-001

1.21419488439505e+004,-2.32826237281673e+001,-6.47779637155666e-001

1.23114441334492e+004,-2.32826335042224e+001,-6.56820899114916e-001

1.24833054890161e+004,-2.32826435546872e+001,-6.65988312843510e-001

1.26575659397028e+004,-2.32826538872517e+001,-6.75283636833423e-001

1.28342589756290e+004,-2.32826645098209e+001,-6.84708654018177e-001

1.30134185544193e+004,-2.32826754305202e+001,-6.94265172109830e-001

1.31950791077289e+004,-2.32826866577025e+001,-7.03955023938434e-001

1.33792755478611e+004,-2.32826981999532e+001,-7.13780067799711e-001

1.35660432744767e+004,-2.32827100660978e+001,-7.23742187804509e-001

1.37554181813974e+004,-2.32827222652078e+001,-7.33843294233536e-001

1.39474366635040e+004,-2.32827348066081e+001,-7.44085323897977e-001

1.41421356237309e+004,-2.32827476998833e+001,-7.54470240504709e-001

1.43395524801583e+004,-2.32827609548855e+001,-7.65000035023754e-001

1.45397251732031e+004,-2.32827745817415e+001,-7.75676726063917e-001

1.47426921729110e+004,-2.32827885908604e+001,-7.86502360252743e-001

1.49484924863494e+004,-2.32828029929413e+001,-7.97479012620032e-001

1.51571656651040e+004,-2.32828177989813e+001,-8.08608786986182e-001

1.53687518128801e+004,-2.32828330202841e+001,-8.19893816360261e-001

1.55832915932100e+004,-2.32828486684678e+001,-8.31336263335619e-001

1.58008262372675e+004,-2.32828647554743e+001,-8.42938320497447e-001

1.60213975517924e+004,-2.32828812935775e+001,-8.54702210833699e-001

1.62450479271247e+004,-2.32828982953929e+001,-8.66630188148974e-001

1.64718203453514e+004,-2.32829157738873e+001,-8.78724537486427e-001

1.67017583885674e+004,-2.32829337423873e+001,-8.90987575555294e-001

1.69349062472505e+004,-2.32829522145907e+001,-9.03421651162318e-001

1.71713087287550e+004,-2.32829712045756e+001,-9.16029145649550e-001

1.74110112659224e+004,-2.32829907268112e+001,-9.28812473339498e-001

1.76540599258131e+004,-2.32830107961685e+001,-9.41774081982685e-001

1.79005014185594e+004,-2.32830314279314e+001,-9.54916453213471e-001

1.81503831063432e+004,-2.32830526378080e+001,-9.68242103012031e-001

1.84037530124975e+004,-2.32830744419421e+001,-9.81753582169835e-001

1.86606598307361e+004,-2.32830968569252e+001,-9.95453476764337e-001

1.89211529345119e+004,-2.32831198998089e+001,-1.00934440863662e+000

1.91852823865052e+004,-2.32831435881168e+001,-1.02342903587786e+000

1.94530989482457e+004,-2.32831679398584e+001,-1.03771005332000e+000

1.97246540898671e+004,-2.32831929735415e+001,-1.05219019303399e+000

1.99999999999999e+004,-2.32832187081862e+001,-1.06687222483346e+000

2.02791895958005e+004,-2.32832451633390e+001,-1.08175895678495e+000

2.05622765331213e+004,-2.32832723590863e+001,-1.09685323572596e+000

2.08493152168224e+004,-2.32833003160702e+001,-1.11215794778652e+000

2.11403608112276e+004,-2.32833290555026e+001,-1.12767601892128e+000

2.14354692507258e+004,-2.32833585991813e+001,-1.14341041544487e+000

2.17346972505211e+004,-2.32833889695056e+001,-1.15936414457483e+000

2.20381023175322e+004,-2.32834201894925e+001,-1.17554025498286e+000

2.23457427614443e+004,-2.32834522827935e+001,-1.19194183735168e+000

2.26576777059159e+004,-2.32834852737121e+001,-1.20857202493761e+000

2.29739670999406e+004,-2.32835191872206e+001,-1.22543399414290e+000

2.32946717293690e+004,-2.32835540489787e+001,-1.24253096509267e+000

2.36198532285905e+004,-2.32835898853518e+001,-1.25986620222017e+000

2.39495740923785e+004,-2.32836267234303e+001,-1.27744301485825e+000

2.42838976879009e+004,-2.32836645910482e+001,-1.29526475783944e+000

2.46228882668982e+004,-2.32837035168042e+001,-1.31333483210178e+000

2.49666109780322e+004,-2.32837435300810e+001,-1.33165668530271e+000

2.53151318794055e+004,-2.32837846610673e+001,-1.35023381244117e+000

2.56685179512580e+004,-2.32838269407784e+001,-1.36906975648423e+000

2.60268371088386e+004,-2.32838704010790e+001,-1.38816810900580e+000

2.63901582154578e+004,-2.32839150747054e+001,-1.40753251082720e+000

2.67585510957221e+004,-2.32839609952885e+001,-1.42716665267144e+000

2.71320865489533e+004,-2.32840081973778e+001,-1.44707427582034e+000

2.75108363627948e+004,-2.32840567164660e+001,-1.46725917278119e+000

2.78948733270080e+004,-2.32841065890131e+001,-1.48772518796181e+000

2.82842712474618e+004,-2.32841578524729e+001,-1.50847621835213e+000

2.86791049603164e+004,-2.32842105453184e+001,-1.52951621421497e+000

2.90794503464061e+004,-2.32842647070689e+001,-1.55084917978293e+000

2.94853843458219e+004,-2.32843203783178e+001,-1.57247917396460e+000

2.98969849726987e+004,-2.32843776007599e+001,-1.59441031105938e+000

3.03143313302078e+004,-2.32844364172212e+001,-1.61664676147767e+000

3.07375036257601e+004,-2.32844968716873e+001,-1.63919275247276e+000

3.11665831864199e+004,-2.32845590093348e+001,-1.66205256887719e+000

3.16016524745350e+004,-2.32846228765612e+001,-1.68523055385055e+000

3.20427951035848e+004,-2.32846885210169e+001,-1.70873110963271e+000

3.24900958542493e+004,-2.32847559916379e+001,-1.73255869830782e+000

3.29436406907028e+004,-2.32848253386784e+001,-1.75671784257373e+000

3.34035167771346e+004,-2.32848966137451e+001,-1.78121312652270e+000

3.38698124945009e+004,-2.32849698698318e+001,-1.80604919642801e+000

3.43426174575100e+004,-2.32850451613549e+001,-1.83123076154101e+000

3.48220225318448e+004,-2.32851225441894e+001,-1.85676259489469e+000

3.53081198516260e+004,-2.32852020757067e+001,-1.88264953411645e+000

3.58010028371187e+004,-2.32852838148119e+001,-1.90889648224929e+000

3.63007662126863e+004,-2.32853678219831e+001,-1.93550840858222e+000

3.68075060249948e+004,-2.32854541593105e+001,-1.96249034948751e+000

3.73213196614721e+004,-2.32855428905375e+001,-1.98984740926822e+000

3.78423058690237e+004,-2.32856340811021e+001,-2.01758476101222e+000

3.83705647730104e+004,-2.32857277981789e+001,-2.04570764745592e+000

3.89061978964912e+004,-2.32858241107223e+001,-2.07422138185820e+000

3.94493081797342e+004,-2.32859230895111e+001,-2.10313134887834e+000

3.99999999999998e+004,-2.32860248071933e+001,-2.13244300546777e+000

4.05583791916010e+004,-2.32861293383321e+001,-2.16216188176536e+000

4.11245530662425e+004,-2.32862367594530e+001,-2.19229358200601e+000

4.16986304336447e+004,-2.32863471490917e+001,-2.22284378543367e+000

4.22807216224550e+004,-2.32864605878428e+001,-2.25381824722567e+000

4.28709385014515e+004,-2.32865771584104e+001,-2.28522279942378e+000

4.34693945010421e+004,-2.32866969456579e+001,-2.31706335187542e+000

4.40762046350642e+004,-2.32868200366610e+001,-2.34934589318107e+000

4.46914855228886e+004,-2.32869465207596e+001,-2.38207649165346e+000

4.53153554118317e+004,-2.32870764896124e+001,-2.41526129628152e+000

4.59479341998812e+004,-2.32872100372515e+001,-2.44890653770582e+000

4.65893434587380e+004,-2.32873472601383e+001,-2.48301852920036e+000

4.72397064571810e+004,-2.32874882572206e+001,-2.51760366766423e+000

4.78991481847569e+004,-2.32876331299902e+001,-2.55266843462138e+000

4.85677953758016e+004,-2.32877819825426e+001,-2.58821939722696e+000

4.92457765337964e+004,-2.32879349216361e+001,-2.62426320928556e+000

4.99332219560642e+004,-2.32880920567537e+001,-2.66080661227380e+000

5.06302637588109e+004,-2.32882535001644e+001,-2.69785643637516e+000

5.13370359025159e+004,-2.32884193669870e+001,-2.73541960151950e+000

5.20536742176771e+004,-2.32885897752536e+001,-2.77350311843306e+000

5.27803164309155e+004,-2.32887648459752e+001,-2.81211408969661e+000

5.35171021914442e+004,-2.32889447032073e+001,-2.85125971081104e+000

5.42641730979066e+004,-2.32891294741176e+001,-2.89094727127189e+000

5.50216727255895e+004,-2.32893192890536e+001,-2.93118415565144e+000

5.57897466540159e+004,-2.32895142816119e+001,-2.97197784468942e+000

5.65685424949235e+004,-2.32897145887083e+001,-3.01333591639245e+000

5.73582099206328e+004,-2.32899203506484e+001,-3.05526604714105e+000

5.81589006928121e+004,-2.32901317112000e+001,-3.09777601280468e+000

5.89707686916437e+004,-2.32903488176655e+001,-3.14087368986552e+000

5.97939699453972e+004,-2.32905718209561e+001,-3.18456705655086e+000

6.06286626604156e+004,-2.32908008756654e+001,-3.22886419397354e+000

6.14750072515201e+004,-2.32910361401460e+001,-3.27377328728022e+000

6.23331663728396e+004,-2.32912777765848e+001,-3.31930262680848e+000

6.32033049490698e+004,-2.32915259510807e+001,-3.36546060925248e+000

6.40855902071694e+004,-2.32917808337215e+001,-3.41225573883813e+000

6.49801917084985e+004,-2.32920425986632e+001,-3.45969662850436e+000

6.58872813814055e+004,-2.32923114242089e+001,-3.50779200109620e+000

6.68070335542691e+004,-2.32925874928884e+001,-3.55655069056482e+000

6.77396249890018e+004,-2.32928709915388e+001,-3.60598164317677e+000

6.86852349150199e+004,-2.32931621113855e+001,-3.65609391873363e+000

6.96440450636895e+004,-2.32934610481238e+001,-3.70689669180000e+000

7.06162397032520e+004,-2.32937680020006e+001,-3.75839925294155e+000

7.16020056742374e+004,-2.32940831778973e+001,-3.81061100997216e+000

7.26015324253724e+004,-2.32944067854121e+001,-3.86354148921259e+000

7.36150120499896e+004,-2.32947390389437e+001,-3.91720033675892e+000

7.46426393229441e+004,-2.32950801577742e+001,-3.97159731976094e+000

7.56846117380472e+004,-2.32954303661531e+001,-4.02674232771294e+000

7.67411295460207e+004,-2.32957898933811e+001,-4.08264537375538e+000

7.78123957929823e+004,-2.32961589738938e+001,-4.13931659598797e+000

7.88986163594682e+004,-2.32965378473462e+001,-4.19676625879698e+000

7.99999999999995e+004,-2.32969267586960e+001,-4.25500475419281e+000

8.11167583832018e+004,-2.32973259582882e+001,-4.31404260316346e+000

8.22491061324848e+004,-2.32977357019384e+001,-4.37389045704089e+000

8.33972608672892e+004,-2.32981562510168e+001,-4.43455909888236e+000

8.45614432449099e+004,-2.32985878725312e+001,-4.49605944486684e+000

8.57418770029029e+004,-2.32990308392105e+001,-4.55840254570863e+000

8.69387890020841e+004,-2.32994854295871e+001,-4.62159958808682e+000

8.81524092701283e+004,-2.32999519280794e+001,-4.68566189609394e+000

8.93829710457770e+004,-2.33004306250734e+001,-4.75060093270195e+000

9.06307108236633e+004,-2.33009218170043e+001,-4.81642830124962e+000

9.18958683997622e+004,-2.33014258064371e+001,-4.88315574694941e+000

9.31786869174758e+004,-2.33019429021467e+001,-4.95079515841782e+000

9.44794129143618e+004,-2.33024734191976e+001,-5.01935856922768e+000

9.57982963695136e+004,-2.33030176790222e+001,-5.08885815948562e+000

9.71355907516031e+004,-2.33035760094995e+001,-5.15930625743591e+000

9.84915530675926e+004,-2.33041487450321e+001,-5.23071534109013e+000

9.98664439121282e+004,-2.33047362266228e+001,-5.30309803988717e+000

1.01260527517622e+005,-2.33053388019508e+001,-5.37646713638268e+000

1.02674071805032e+005,-2.33059568254460e+001,-5.45083556797112e+000

1.04107348435354e+005,-2.33065906583643e+001,-5.52621642864066e+000

1.05560632861831e+005,-2.33072406688606e+001,-5.60262297076515e+000

1.07034204382888e+005,-2.33079072320622e+001,-5.68006860693139e+000

1.08528346195813e+005,-2.33085907301408e+001,-5.75856691180808e+000

1.10043345451179e+005,-2.33092915523845e+001,-5.83813162405447e+000

1.11579493308032e+005,-2.33100100952692e+001,-5.91877664827332e+000

1.13137084989847e+005,-2.33107467625297e+001,-6.00051605700949e+000

1.14716419841265e+005,-2.33115019652302e+001,-6.08336409279615e+000

1.16317801385624e+005,-2.33122761218351e+001,-6.16733517025171e+000

1.17941537383287e+005,-2.33130696582797e+001,-6.25244387822888e+000

1.19587939890794e+005,-2.33138830080415e+001,-6.33870498201918e+000

1.21257325320831e+005,-2.33147166122113e+001,-6.42613342561429e+000

1.22950014503040e+005,-2.33155709195653e+001,-6.51474433402838e+000

1.24666332745679e+005,-2.33164463866389e+001,-6.60455301568169e+000

1.26406609898139e+005,-2.33173434778002e+001,-6.69557496485066e+000

1.28171180414339e+005,-2.33182626653269e+001,-6.78782586418368e+000

1.29960383416997e+005,-2.33192044294836e+001,-6.88132158728951e+000

1.31774562762811e+005,-2.33201692586021e+001,-6.97607820139696e+000

1.33614067108538e+005,-2.33211576491648e+001,-7.07211197008969e+000

1.35479249978003e+005,-2.33221701058908e+001,-7.16943935611976e+000

1.37370469830040e+005,-2.33232071418255e+001,-7.26807702430120e+000

1.39288090127379e+005,-2.33242692784350e+001,-7.36804184448616e+000

1.41232479406504e+005,-2.33253570457052e+001,-7.46935089462677e+000

1.43204011348474e+005,-2.33264709822456e+001,-7.57202146392297e+000

1.45203064850745e+005,-2.33276116354001e+001,-7.67607105606137e+000

1.47230024099979e+005,-2.33287795613640e+001,-7.78151739254442e+000

1.49285278645888e+005,-2.33299753253083e+001,-7.88837841611381e+000

1.51369223476094e+005,-2.33311995015128e+001,-7.99667229426769e+000

1.53482259092041e+005,-2.33324526735074e+001,-8.10641742287520e+000

1.55624791585964e+005,-2.33337354342238e+001,-8.21763242988823e+000

1.57797232718936e+005,-2.33350483861581e+001,-8.33033617915227e+000

1.59999999999999e+005,-2.33363921415441e+001,-8.44454777431628e+000

1.62233516766403e+005,-2.33377673225404e+001,-8.56028656284264e+000

1.64498212264969e+005,-2.33391745614301e+001,-8.67757214011735e+000

1.66794521734578e+005,-2.33406145008355e+001,-8.79642435365991e+000

1.69122886489819e+005,-2.33420877939484e+001,-8.91686330743248e+000

1.71483754005805e+005,-2.33435951047773e+001,-9.03890936624854e+000

1.73877578004168e+005,-2.33451371084119e+001,-9.16258316027654e+000

1.76304818540256e+005,-2.33467144913068e+001,-9.28790558964208e+000

1.78765942091554e+005,-2.33483279515855e+001,-9.41489782912039e+000

1.81261421647326e+005,-2.33499781993656e+001,-9.54358133292160e+000

1.83791736799524e+005,-2.33516659571058e+001,-9.67397783956271e+000

1.86357373834951e+005,-2.33533919599770e+001,-9.80610937682352e+000

1.88958825828723e+005,-2.33551569562585e+001,-9.93999826678271e+000

1.91596592739027e+005,-2.33569617077591e+001,-1.00756671309290e+001

1.94271181503206e+005,-2.33588069902663e+001,-1.02131388953426e+001

1.96983106135185e+005,-2.33606935940230e+001,-1.03524367959403e+001

1.99732887824256e+005,-2.33626223242343e+001,-1.04935843837795e+001

2.02521055035243e+005,-2.33645940016039e+001,-1.06366055304130e+001

2.05348143610063e+005,-2.33666094629029e+001,-1.07815244332874e+001

2.08214696870707e+005,-2.33686695615708e+001,-1.09283656211787e+001

2.11121265723661e+005,-2.33707751683499e+001,-1.10771539596532e+001

2.14068408765776e+005,-2.33729271719549e+001,-1.12279146565487e+001

2.17056692391625e+005,-2.33751264797771e+001,-1.13806732674642e+001

2.20086690902357e+005,-2.33773740186259e+001,-1.15354557012476e+001

2.23158986616063e+005,-2.33796707355059e+001,-1.16922882254727e+001

2.26274169979693e+005,-2.33820175984335e+001,-1.18511974718932e+001

2.29432839682530e+005,-2.33844155972902e+001,-1.20122104418624e+001

2.32635602771247e+005,-2.33868657447158e+001,-1.21753545117069e+001

2.35883074766574e+005,-2.33893690770406e+001,-1.23406574380428e+001

2.39175879781588e+005,-2.33919266552570e+001,-1.25081473630198e+001

2.42514650641661e+005,-2.33945395660311e+001,-1.26778528194830e+001

2.45900029006080e+005,-2.33972089227550e+001,-1.28498027360374e+001

2.49332665491357e+005,-2.33999358666378e+001,-1.30240264420018e+001

2.52813219796278e+005,-2.34027215678377e+001,-1.32005536722397e+001

2.56342360828676e+005,-2.34055672266336e+001,-1.33794145718523e+001

2.59920766833993e+005,-2.34084740746361e+001,-1.35606397007212e+001

2.63549125525621e+005,-2.34114433760375e+001,-1.37442600378852e+001

2.67228134217075e+005,-2.34144764289004e+001,-1.39303069857397e+001

2.70958499956006e+005,-2.34175745664846e+001,-1.41188123740429e+001

2.74740939660078e+005,-2.34207391586106e+001,-1.43098084637167e+001

2.78576180254757e+005,-2.34239716130598e+001,-1.45033279504282e+001

2.82464958813007e+005,-2.34272733770099e+001,-1.46994039679392e+001

2.86408022696948e+005,-2.34306459385045e+001,-1.48980700912104e+001

2.90406129701488e+005,-2.34340908279558e+001,-1.50993603392473e+001

2.94460048199957e+005,-2.34376096196792e+001,-1.53033091776769e+001

2.98570557291775e+005,-2.34412039334583e+001,-1.55099515210422e+001

3.02738446952187e+005,-2.34448754361385e+001,-1.57193227348027e+001

3.06964518184081e+005,-2.34486258432486e+001,-1.59314586370323e+001

3.11249583171928e+005,-2.34524569206479e+001,-1.61463954998011e+001

3.15594465437872e+005,-2.34563704861971e+001,-1.63641700502328e+001

3.19999999999997e+005,-2.34603684114521e+001,-1.65848194712289e+001

3.24467033532806e+005,-2.34644526233777e+001,-1.68083814018488e+001

3.28996424529938e+005,-2.34686251060808e+001,-1.70348939373396e+001

3.33589043469155e+005,-2.34728879025592e+001,-1.72643956288060e+001

3.38245772979638e+005,-2.34772431164662e+001,-1.74969254825148e+001

3.42967508011610e+005,-2.34816929138871e+001,-1.77325229588260e+001

3.47755156008335e+005,-2.34862395251277e+001,-1.79712279707452e+001

3.52609637080511e+005,-2.34908852465101e+001,-1.82130808820910e+001

3.57531884183106e+005,-2.34956324421762e+001,-1.84581225052741e+001

3.62522843294651e+005,-2.35004835458957e+001,-1.87063940986811e+001

3.67583473599047e+005,-2.35054410628763e+001,-1.89579373636604e+001

3.72714747669902e+005,-2.35105075715751e+001,-1.92127944411072e+001

3.77917651657445e+005,-2.35156857255081e+001,-1.94710079076428e+001

3.83193185478053e+005,-2.35209782550560e+001,-1.97326207713868e+001

3.88542363006410e+005,-2.35263879692650e+001,-1.99976764673191e+001

3.93966212270369e+005,-2.35319177576398e+001,-2.02662188522297e+001

3.99465775648511e+005,-2.35375705919264e+001,-2.05382921992540e+001

4.05042110070485e+005,-2.35433495278848e+001,-2.08139411919937e+001

4.10696287220124e+005,-2.35492577070463e+001,-2.10932109182199e+001

4.16429393741414e+005,-2.35552983584569e+001,-2.13761468631576e+001

4.22242531447321e+005,-2.35614748004020e+001,-2.16627949023526e+001

4.28136817531551e+005,-2.35677904421128e+001,-2.19532012941165e+001

4.34113384783250e+005,-2.35742487854502e+001,-2.22474126715515e+001

4.40173381804713e+005,-2.35808534265658e+001,-2.25454760341539e+001

4.46317973232124e+005,-2.35876080575382e+001,-2.28474387389930e+001

4.52548339959385e+005,-2.35945164679806e+001,-2.31533484914693e+001

4.58865679365059e+005,-2.36015825466206e+001,-2.34632533356457e+001

4.65271205542494e+005,-2.36088102828475e+001,-2.37772016441552e+001

4.71766149533147e+005,-2.36162037682271e+001,-2.40952421076826e+001

4.78351759563174e+005,-2.36237671979802e+001,-2.44174237240183e+001

4.85029301283321e+005,-2.36315048724242e+001,-2.47437957866852e+001

4.91800058012158e+005,-2.36394211983745e+001,-2.50744078731366e+001

4.98665330982714e+005,-2.36475206905038e+001,-2.54093098325240e+001

5.05626439592555e+005,-2.36558079726571e+001,-2.57485517730352e+001

5.12684721657352e+005,-2.36642877791199e+001,-2.60921840487998e+001

5.19841533667984e+005,-2.36729649558370e+001,-2.64402572463626e+001

5.27098251051240e+005,-2.36818444615792e+001,-2.67928221707252e+001

5.34456268434150e+005,-2.36909313690555e+001,-2.71499298309526e+001

5.41916999912011e+005,-2.37002308659685e+001,-2.75116314253462e+001

