Freq.,VOut,OutRef

1.00000000000000e+004,-3.63613935135641e+001,-1.60452054282803e-001

1.01395947979003e+004,-3.63613960256403e+001,-1.62691414879741e-001

1.02811382665607e+004,-3.63613986082125e+001,-1.64962015998394e-001

1.04246576084112e+004,-3.63614012632553e+001,-1.67264292901427e-001

1.05701804056138e+004,-3.63614039927983e+001,-1.69598686892967e-001

1.07177346253629e+004,-3.63614067989282e+001,-1.71965645399137e-001

1.08673486252606e+004,-3.63614096837891e+001,-1.74365622055853e-001

1.10190511587661e+004,-3.63614126495857e+001,-1.76799076788349e-001

1.11728713807222e+004,-3.63614156985838e+001,-1.79266475901847e-001

1.13288388529580e+004,-3.63614188331120e+001,-1.81768292169052e-001

1.14869835499703e+004,-3.63614220555644e+001,-1.84305004914042e-001

1.16473358646846e+004,-3.63614253684015e+001,-1.86877100105984e-001

1.18099266142953e+004,-3.63614287741524e+001,-1.89485070448630e-001

1.19747870461893e+004,-3.63614322754167e+001,-1.92129415471449e-001

1.21419488439505e+004,-3.63614358748659e+001,-1.94810641625481e-001

1.23114441334492e+004,-3.63614395752463e+001,-1.97529262373790e-001

1.24833054890161e+004,-3.63614433793808e+001,-2.00285798288218e-001

1.26575659397028e+004,-3.63614472901702e+001,-2.03080777149935e-001

1.28342589756290e+004,-3.63614513105965e+001,-2.05914734041469e-001

1.30134185544193e+004,-3.63614554437241e+001,-2.08788211451577e-001

1.31950791077289e+004,-3.63614596927030e+001,-2.11701759370101e-001

1.33792755478611e+004,-3.63614640607704e+001,-2.14655935395998e-001

1.35660432744767e+004,-3.63614685512535e+001,-2.17651304836132e-001

1.37554181813974e+004,-3.63614731675719e+001,-2.20688440810746e-001

1.39474366635040e+004,-3.63614779132401e+001,-2.23767924360484e-001

1.41421356237309e+004,-3.63614827918698e+001,-2.26890344552611e-001

1.43395524801583e+004,-3.63614878071733e+001,-2.30056298589300e-001

1.45397251732031e+004,-3.63614929629653e+001,-2.33266391918450e-001

1.47426921729110e+004,-3.63614982631666e+001,-2.36521238343548e-001

1.49484924863494e+004,-3.63615037118066e+001,-2.39821460136804e-001

1.51571656651040e+004,-3.63615093130257e+001,-2.43167688155687e-001

1.53687518128801e+004,-3.63615150710794e+001,-2.46560561954228e-001

1.55832915932100e+004,-3.63615209903408e+001,-2.50000729902081e-001

1.58008262372675e+004,-3.63615270753038e+001,-2.53488849303612e-001

1.60213975517924e+004,-3.63615333305863e+001,-2.57025586517016e-001

1.62450479271247e+004,-3.63615397609341e+001,-2.60611617074453e-001

1.64718203453514e+004,-3.63615463712238e+001,-2.64247625806492e-001

1.67017583885674e+004,-3.63615531664666e+001,-2.67934306964928e-001

1.69349062472505e+004,-3.63615601518117e+001,-2.71672364350966e-001

1.71713087287550e+004,-3.63615673325504e+001,-2.75462511439469e-001

1.74110112659224e+004,-3.63615747141199e+001,-2.79305471508882e-001

1.76540599258131e+004,-3.63615823021065e+001,-2.83201977773763e-001

1.79005014185594e+004,-3.63615901022511e+001,-2.87152773511585e-001

1.81503831063432e+004,-3.63615981204513e+001,-2.91158612203893e-001

1.84037530124975e+004,-3.63616063627677e+001,-2.95220257663103e-001

1.86606598307361e+004,-3.63616148354270e+001,-2.99338484173999e-001

1.89211529345119e+004,-3.63616235448266e+001,-3.03514076631737e-001

1.91852823865052e+004,-3.63616324975394e+001,-3.07747830680121e-001

1.94530989482457e+004,-3.63616417003187e+001,-3.12040552853919e-001

1.97246540898671e+004,-3.63616511601022e+001,-3.16393060721344e-001

1.99999999999999e+004,-3.63616608840180e+001,-3.20806183029423e-001

2.02791895958005e+004,-3.63616708793887e+001,-3.25280759850153e-001

2.05622765331213e+004,-3.63616811537369e+001,-3.29817642728976e-001

2.08493152168224e+004,-3.63616917147909e+001,-3.34417694832508e-001

2.11403608112276e+004,-3.63617025704895e+001,-3.39081791102432e-001

2.14354692507258e+004,-3.63617137289877e+001,-3.43810818406619e-001

2.17346972505211e+004,-3.63617251986631e+001,-3.48605675693976e-001

2.20381023175322e+004,-3.63617369881204e+001,-3.53467274152164e-001

2.23457427614443e+004,-3.63617491061988e+001,-3.58396537363465e-001

2.26576777059159e+004,-3.63617615619768e+001,-3.63394401467538e-001

2.29739670999406e+004,-3.63617743647800e+001,-3.68461815317628e-001

2.32946717293690e+004,-3.63617875241859e+001,-3.73599740649825e-001

2.36198532285905e+004,-3.63618010500313e+001,-3.78809152243988e-001

2.39495740923785e+004,-3.63618149524194e+001,-3.84091038090181e-001

2.42838976879009e+004,-3.63618292417257e+001,-3.89446399559088e-001

2.46228882668982e+004,-3.63618439286060e+001,-3.94876251569913e-001

2.49666109780322e+004,-3.63618590240028e+001,-4.00381622763228e-001

2.53151318794055e+004,-3.63618745391533e+001,-4.05963555672447e-001

2.56685179512580e+004,-3.63618904855967e+001,-4.11623106900238e-001

2.60268371088386e+004,-3.63619068751815e+001,-4.17361347297189e-001

2.63901582154578e+004,-3.63619237200744e+001,-4.23179362133880e-001

2.67585510957221e+004,-3.63619410327673e+001,-4.29078251288072e-001

2.71320865489533e+004,-3.63619588260861e+001,-4.35059129422187e-001

2.75108363627948e+004,-3.63619771131991e+001,-4.41123126166942e-001

2.78948733270080e+004,-3.63619959076254e+001,-4.47271386307729e-001

2.82842712474618e+004,-3.63620152232440e+001,-4.53505069970738e-001

2.86791049603164e+004,-3.63620350743025e+001,-4.59825352809742e-001

2.90794503464061e+004,-3.63620554754263e+001,-4.66233426199398e-001

2.94853843458219e+004,-3.63620764416281e+001,-4.72730497422448e-001

2.98969849726987e+004,-3.63620979883175e+001,-4.79317789867259e-001

3.03143313302078e+004,-3.63621201313104e+001,-4.85996543218318e-001

3.07375036257601e+004,-3.63621428868397e+001,-4.92768013654843e-001

3.11665831864199e+004,-3.63621662715644e+001,-4.99633474049185e-001

3.16016524745350e+004,-3.63621903025809e+001,-5.06594214164389e-001

3.20427951035848e+004,-3.63622149974331e+001,-5.13651540854815e-001

3.24900958542493e+004,-3.63622403741232e+001,-5.20806778270629e-001

3.29436406907028e+004,-3.63622664511228e+001,-5.28061268058773e-001

3.34035167771346e+004,-3.63622932473839e+001,-5.35416369570230e-001

3.38698124945009e+004,-3.63623207823505e+001,-5.42873460065277e-001

3.43426174575100e+004,-3.63623490759699e+001,-5.50433934921477e-001

3.48220225318448e+004,-3.63623781487046e+001,-5.58099207844359e-001

3.53081198516260e+004,-3.63624080215444e+001,-5.65870711075457e-001

3.58010028371187e+004,-3.63624387160188e+001,-5.73749895605142e-001

3.63007662126863e+004,-3.63624702542085e+001,-5.81738231387245e-001

3.68075060249948e+004,-3.63625026587591e+001,-5.89837207550087e-001

3.73213196614721e+004,-3.63625359528933e+001,-5.98048332614237e-001

3.78423058690237e+004,-3.63625701604239e+001,-6.06373134707558e-001

3.83705647730104e+004,-3.63626053057671e+001,-6.14813161784532e-001

3.89061978964912e+004,-3.63626414139560e+001,-6.23369981841172e-001

3.94493081797342e+004,-3.63626785106540e+001,-6.32045183137932e-001

3.99999999999998e+004,-3.63627166221682e+001,-6.40840374419869e-001

4.05583791916010e+004,-3.63627557754644e+001,-6.49757185134111e-001

4.11245530662425e+004,-3.63627959981798e+001,-6.58797265656667e-001

4.16986304336447e+004,-3.63628373186385e+001,-6.67962287511861e-001

4.22807216224550e+004,-3.63628797658650e+001,-6.77253943598406e-001

4.28709385014515e+004,-3.63629233695993e+001,-6.86673948410420e-001

4.34693945010421e+004,-3.63629681603115e+001,-6.96224038265342e-001

4.40762046350642e+004,-3.63630141692167e+001,-7.05905971526319e-001

4.46914855228886e+004,-3.63630614282897e+001,-7.15721528830101e-001

4.53153554118317e+004,-3.63631099702806e+001,-7.25672513312301e-001

4.59479341998812e+004,-3.63631598287293e+001,-7.35760750833205e-001

4.65893434587380e+004,-3.63632110379815e+001,-7.45988090206779e-001

4.72397064571810e+004,-3.63632636332037e+001,-7.56356403423317e-001

4.78991481847569e+004,-3.63633176503985e+001,-7.66867585882193e-001

4.85677953758016e+004,-3.63633731264205e+001,-7.77523556613318e-001

4.92457765337964e+004,-3.63634300989914e+001,-7.88326258509012e-001

4.99332219560642e+004,-3.63634886067156e+001,-7.99277658547816e-001

5.06302637588109e+004,-3.63635486890959e+001,-8.10379748024345e-001

5.13370359025159e+004,-3.63636103865490e+001,-8.21634542772833e-001

5.20536742176771e+004,-3.63636737404204e+001,-8.33044083397477e-001

5.27803164309155e+004,-3.63637387930004e+001,-8.44610435495271e-001

5.35171021914442e+004,-3.63638055875393e+001,-8.56335689884722e-001

5.42641730979066e+004,-3.63638741682619e+001,-8.68221962829693e-001

5.50216727255895e+004,-3.63639445803833e+001,-8.80271396265216e-001

5.57897466540159e+004,-3.63640168701231e+001,-8.92486158022056e-001

5.65685424949235e+004,-3.63640910847206e+001,-9.04868442050401e-001

5.73582099206328e+004,-3.63641672724484e+001,-9.17420468643553e-001

5.81589006928121e+004,-3.63642454826273e+001,-9.30144484659583e-001

5.89707686916437e+004,-3.63643257656391e+001,-9.43042763746191e-001

5.97939699453972e+004,-3.63644081729411e+001,-9.56117606558102e-001

6.06286626604156e+004,-3.63644927570782e+001,-9.69371340981182e-001

6.14750072515201e+004,-3.63645795716960e+001,-9.82806322350477e-001

6.23331663728396e+004,-3.63646686715527e+001,-9.96424933669359e-001

6.32033049490698e+004,-3.63647601125307e+001,-1.01022958582852e+000

6.40855902071694e+004,-3.63648539516476e+001,-1.02422271782344e+000

6.49801917084985e+004,-3.63649502470665e+001,-1.03840679697143e+000

6.58872813814055e+004,-3.63650490581063e+001,-1.05278431912658e+000

6.68070335542691e+004,-3.63651504452494e+001,-1.06735780889859e+000

6.77396249890018e+004,-3.63652544701512e+001,-1.08212981986349e+000

6.86852349150199e+004,-3.63653611956467e+001,-1.09710293478251e+000

6.96440450636895e+004,-3.63654706857571e+001,-1.11227976581296e+000

7.06162397032520e+004,-3.63655830056954e+001,-1.12766295472425e+000

7.16020056742374e+004,-3.63656982218706e+001,-1.14325517311103e+000

7.26015324253724e+004,-3.63658164018911e+001,-1.15905912260714e+000

7.36150120499896e+004,-3.63659376145670e+001,-1.17507753509981e+000

7.46426393229441e+004,-3.63660619299106e+001,-1.19131317294376e+000

7.56846117380472e+004,-3.63661894191366e+001,-1.20776882917574e+000

7.67411295460207e+004,-3.63663201546596e+001,-1.22444732773183e+000

7.78123957929823e+004,-3.63664542100914e+001,-1.24135152366397e+000

7.88986163594682e+004,-3.63665916602358e+001,-1.25848430335712e+000

7.99999999999995e+004,-3.63667325810824e+001,-1.27584858475149e+000

8.11167583832018e+004,-3.63668770497979e+001,-1.29344731756439e+000

8.22491061324848e+004,-3.63670251447170e+001,-1.31128348351387e+000

8.33972608672892e+004,-3.63671769453295e+001,-1.32936009654867e+000

8.45614432449099e+004,-3.63673325322676e+001,-1.34768020307787e+000

8.57418770029029e+004,-3.63674919872889e+001,-1.36624688220799e+000

8.69387890020841e+004,-3.63676553932593e+001,-1.38506324598140e+000

8.81524092701283e+004,-3.63678228341320e+001,-1.40413243962359e+000

8.93829710457770e+004,-3.63679943949258e+001,-1.42345764179081e+000

9.06307108236633e+004,-3.63681701616992e+001,-1.44304206483165e+000

9.18958683997622e+004,-3.63683502215236e+001,-1.46288895504868e+000

9.31786869174758e+004,-3.63685346624531e+001,-1.48300159297247e+000

9.44794129143618e+004,-3.63687235734919e+001,-1.50338329364363e+000

9.57982963695136e+004,-3.63689170445587e+001,-1.52403740690347e+000

9.71355907516031e+004,-3.63691151664489e+001,-1.54496731769713e+000

9.84915530675926e+004,-3.63693180307931e+001,-1.56617644638727e+000

9.98664439121282e+004,-3.63695257300132e+001,-1.58766824908092e+000

1.01260527517622e+005,-3.63697383572756e+001,-1.60944621797134e+000

1.02674071805032e+005,-3.63699560064405e+001,-1.63151388169326e+000

1.04107348435354e+005,-3.63701787720095e+001,-1.65387480569531e+000

1.05560632861831e+005,-3.63704067490679e+001,-1.67653259263165e+000

1.07034204382888e+005,-3.63706400332263e+001,-1.69949088277031e+000

1.08528346195813e+005,-3.63708787205566e+001,-1.72275335442368e+000

1.10043345451179e+005,-3.63711229075263e+001,-1.74632372440062e+000

1.11579493308032e+005,-3.63713726909288e+001,-1.77020574848226e+000

1.13137084989847e+005,-3.63716281678103e+001,-1.79440322192220e+000

1.14716419841265e+005,-3.63718894353937e+001,-1.81891997997539e+000

1.16317801385624e+005,-3.63721565909992e+001,-1.84375989845434e+000

1.17941537383287e+005,-3.63724297319611e+001,-1.86892689431575e+000

1.19587939890794e+005,-3.63727089555421e+001,-1.89442492627869e+000

1.21257325320831e+005,-3.63729943588436e+001,-1.92025799547956e+000

1.22950014503040e+005,-3.63732860387138e+001,-1.94643014616004e+000

1.24666332745679e+005,-3.63735840916519e+001,-1.97294546639399e+000

1.26406609898139e+005,-3.63738886137101e+001,-1.99980808885528e+000

1.28171180414339e+005,-3.63741997003918e+001,-2.02702219162698e+000

1.29960383416997e+005,-3.63745174465485e+001,-2.05459199905330e+000

1.31774562762811e+005,-3.63748419462729e+001,-2.08252178263938e+000

1.33614067108538e+005,-3.63751732927904e+001,-2.11081586199906e+000

1.35479249978003e+005,-3.63755115783483e+001,-2.13947860585125e+000

1.37370469830040e+005,-3.63758568941027e+001,-2.16851443307098e+000

1.39288090127379e+005,-3.63762093300045e+001,-2.19792781379228e+000

1.41232479406504e+005,-3.63765689746834e+001,-2.22772327056967e+000

1.43204011348474e+005,-3.63769359153306e+001,-2.25790537959591e+000

1.45203064850745e+005,-3.63773102375817e+001,-2.28847877198186e+000

1.47230024099979e+005,-3.63776920253976e+001,-2.31944813509702e+000

1.49285278645888e+005,-3.63780813609470e+001,-2.35081821397551e+000

1.51369223476094e+005,-3.63784783244878e+001,-2.38259381278587e+000

1.53482259092041e+005,-3.63788829942500e+001,-2.41477979636981e+000

1.55624791585964e+005,-3.63792954463192e+001,-2.44738109184962e+000

1.57797232718936e+005,-3.63797157545221e+001,-2.48040269030467e+000

1.59999999999999e+005,-3.63801439903143e+001,-2.51384964852039e+000

1.62233516766403e+005,-3.63805802226695e+001,-2.54772709081068e+000

1.64498212264969e+005,-3.63810245179734e+001,-2.58204021091151e+000

1.66794521734578e+005,-3.63814769399197e+001,-2.61679427395183e+000

1.69122886489819e+005,-3.63819375494117e+001,-2.65199461849772e+000

1.71483754005805e+005,-3.63824064044678e+001,-2.68764665867148e+000

1.73877578004168e+005,-3.63828835601325e+001,-2.72375588634892e+000

1.76304818540256e+005,-3.63833690683937e+001,-2.76032787342842e+000

1.78765942091554e+005,-3.63838629781064e+001,-2.79736827417865e+000

1.81261421647326e+005,-3.63843653349238e+001,-2.83488282765954e+000

1.83791736799524e+005,-3.63848761812363e+001,-2.87287736021591e+000

1.86357373834951e+005,-3.63853955561188e+001,-2.91135778804647e+000

1.88958825828723e+005,-3.63859234952876e+001,-2.95033011984191e+000

1.91596592739027e+005,-3.63864600310667e+001,-2.98980045949473e+000

1.94271181503206e+005,-3.63870051923653e+001,-3.02977500887509e+000

1.96983106135185e+005,-3.63875590046654e+001,-3.07026007067349e+000

1.99732887824256e+005,-3.63881214900219e+001,-3.11126205130648e+000

2.02521055035243e+005,-3.63886926670753e+001,-3.15278746388170e+000

2.05348143610063e+005,-3.63892725510761e+001,-3.19484293122111e+000

2.08214696870707e+005,-3.63898611539243e+001,-3.23743518893671e+000

2.11121265723661e+005,-3.63904584842218e+001,-3.28057108855790e+000

2.14068408765776e+005,-3.63910645473397e+001,-3.32425760070272e+000

2.17056692391625e+005,-3.63916793455008e+001,-3.36850181829280e+000

2.20086690902357e+005,-3.63923028778779e+001,-3.41331095980391e+000

2.23158986616063e+005,-3.63929351407068e+001,-3.45869237254945e+000

2.26274169979693e+005,-3.63935761274171e+001,-3.50465353599223e+000

2.29432839682530e+005,-3.63942258287783e+001,-3.55120206507623e+000

2.32635602771247e+005,-3.63948842330637e+001,-3.59834571357809e+000

2.35883074766574e+005,-3.63955513262305e+001,-3.64609237746714e+000

2.39175879781588e+005,-3.63962270921176e+001,-3.69445009827270e+000

2.42514650641661e+005,-3.63969115126607e+001,-3.74342706645039e+000

2.45900029006080e+005,-3.63976045681244e+001,-3.79303162474294e+000

2.49332665491357e+005,-3.63983062373517e+001,-3.84327227152790e+000

2.52813219796278e+005,-3.63990164980310e+001,-3.89415766414843e+000

2.56342360828676e+005,-3.63997353269798e+001,-3.94569662221921e+000

2.59920766833993e+005,-3.64004627004450e+001,-3.99789813090361e+000

2.63549125525621e+005,-3.64011985944206e+001,-4.05077134415382e+000

2.67228134217075e+005,-3.64019429849807e+001,-4.10432558791075e+000

2.70958499956006e+005,-3.64026958486285e+001,-4.15857036325676e+000

2.74740939660078e+005,-3.64034571626614e+001,-4.21351534951548e+000

2.78576180254757e+005,-3.64042269055495e+001,-4.26917040729521e+000

2.82464958813007e+005,-3.64050050573297e+001,-4.32554558146897e+000

2.86408022696948e+005,-3.64057916000121e+001,-4.38265110408944e+000

2.90406129701488e+005,-3.64065865180003e+001,-4.44049739722951e+000

2.94460048199957e+005,-3.64073897985234e+001,-4.49909507575193e+000

2.98570557291775e+005,-3.64082014320792e+001,-4.55845494999606e+000

3.02738446952187e+005,-3.64090214128881e+001,-4.61858802838609e+000

3.06964518184081e+005,-3.64098497393567e+001,-4.67950551995218e+000

3.11249583171928e+005,-3.64106864145505e+001,-4.74121883676596e+000

3.15594465437872e+005,-3.64115314466734e+001,-4.80373959628706e+000

3.19999999999997e+005,-3.64123848495557e+001,-4.86707962361786e+000

3.24467033532806e+005,-3.64132466431469e+001,-4.93125095366976e+000

3.28996424529938e+005,-3.64141168540142e+001,-4.99626583323454e+000

3.33589043469155e+005,-3.64149955158448e+001,-5.06213672296638e+000

3.38245772979638e+005,-3.64158826699521e+001,-5.12887629927189e+000

3.42967508011610e+005,-3.64167783657828e+001,-5.19649745610864e+000

3.47755156008335e+005,-3.64176826614273e+001,-5.26501330669725e+000

3.52609637080511e+005,-3.64185956241287e+001,-5.33443718514491e+000

3.57531884183106e+005,-3.64195173307928e+001,-5.40478264798432e+000

3.62522843294651e+005,-3.64204478684961e+001,-5.47606347563150e+000

3.67583473599047e+005,-3.64213873349927e+001,-5.54829367376442e+000

3.72714747669902e+005,-3.64223358392174e+001,-5.62148747462691e+000

3.77917651657445e+005,-3.64232935017864e+001,-5.69565933826094e+000

3.83193185478053e+005,-3.64242604554935e+001,-5.77082395367258e+000

3.88542363006410e+005,-3.64252368458019e+001,-5.84699623993477e+000

3.93966212270369e+005,-3.64262228313307e+001,-5.92419134723338e+000

3.99465775648511e+005,-3.64272185843360e+001,-6.00242465785976e+000

4.05042110070485e+005,-3.64282242911862e+001,-6.08171178715733e+000

4.10696287220124e+005,-3.64292401528307e+001,-6.16206858442456e+000

4.16429393741414e+005,-3.64302663852623e+001,-6.24351113378319e+000

4.22242531447321e+005,-3.64313032199730e+001,-6.32605575501494e+000

4.28136817531551e+005,-3.64323509044025e+001,-6.40971900437307e+000

4.34113384783250e+005,-3.64334097023802e+001,-6.49451767537571e+000

4.40173381804713e+005,-3.64344798945610e+001,-6.58046879958333e+000

4.46317973232124e+005,-3.64355617788525e+001,-6.66758964737167e+000

4.52548339959385e+005,-3.64366556708377e+001,-6.75589772869843e+000

4.58865679365059e+005,-3.64377619041902e+001,-6.84541079387613e+000

4.65271205542494e+005,-3.64388808310834e+001,-6.93614683435153e+000

4.71766149533147e+005,-3.64400128225938e+001,-7.02812408349945e+000

4.78351759563174e+005,-3.64411582691002e+001,-7.12136101743417e+000

4.85029301283321e+005,-3.64423175806762e+001,-7.21587635584532e+000

4.91800058012158e+005,-3.64434911874798e+001,-7.31168906285950e+000

4.98665330982714e+005,-3.64446795401384e+001,-7.40881834793565e+000

5.05626439592555e+005,-3.64458831101311e+001,-7.50728366679446e+000

5.12684721657352e+005,-3.64471023901684e+001,-7.60710472238817e+000

5.19841533667984e+005,-3.64483378945698e+001,-7.70830146591210e+000

5.27098251051240e+005,-3.64495901596405e+001,-7.81089409786269e+000

5.34456268434150e+005,-3.64508597440478e+001,-7.91490306914246e+000

5.41916999912011e+005,-3.64521472291980e+001,-8.02034908221589e+000

