Freq.,VOut,OutRef

1.00000000000000e+004,-8.41682917051243e-001,-1.38831127299138e-001

1.01395947979003e+004,-8.41682893003662e-001,-1.40769134270360e-001

1.02811382665607e+004,-8.41682868279066e-001,-1.42734194668474e-001

1.04246576084112e+004,-8.41682842858342e-001,-1.44726686139453e-001

1.05701804056138e+004,-8.41682816721723e-001,-1.46746991601372e-001

1.07177346253629e+004,-8.41682789849155e-001,-1.48795499315725e-001

1.08673486252606e+004,-8.41682762219943e-001,-1.50872602963981e-001

1.10190511587661e+004,-8.41682733812418e-001,-1.52978701725348e-001

1.11728713807222e+004,-8.41682704605032e-001,-1.55114200346947e-001

1.13288388529580e+004,-8.41682674574903e-001,-1.57279509229410e-001

1.14869835499703e+004,-8.41682643699009e-001,-1.59475044499517e-001

1.16473358646846e+004,-8.41682611953398e-001,-1.61701228093935e-001

1.18099266142953e+004,-8.41682579313557e-001,-1.63958487838422e-001

1.19747870461893e+004,-8.41682545754173e-001,-1.66247257531168e-001

1.21419488439505e+004,-8.41682511249385e-001,-1.68567977024640e-001

1.23114441334492e+004,-8.41682475772491e-001,-1.70921092311958e-001

1.24833054890161e+004,-8.41682439295993e-001,-1.73307055610989e-001

1.26575659397028e+004,-8.41682401791739e-001,-1.75726325452350e-001

1.28342589756290e+004,-8.41682363230530e-001,-1.78179366767198e-001

1.30134185544193e+004,-8.41682323582752e-001,-1.80666650975247e-001

1.31950791077289e+004,-8.41682282817492e-001,-1.83188656078320e-001

1.33792755478611e+004,-8.41682240903317e-001,-1.85745866748736e-001

1.35660432744767e+004,-8.41682197807764e-001,-1.88338774424658e-001

1.37554181813974e+004,-8.41682153497398e-001,-1.90967877404139e-001

1.39474366635040e+004,-8.41682107937853e-001,-1.93633680940681e-001

1.41421356237309e+004,-8.41682061093906e-001,-1.96336697339792e-001

1.43395524801583e+004,-8.41682012929146e-001,-1.99077446058471e-001

1.45397251732031e+004,-8.41681963406261e-001,-2.01856453803893e-001

1.47426921729110e+004,-8.41681912486889e-001,-2.04674254634830e-001

1.49484924863494e+004,-8.41681860131430e-001,-2.07531390065917e-001

1.51571656651040e+004,-8.41681806299343e-001,-2.10428409168547e-001

1.53687518128801e+004,-8.41681750948736e-001,-2.13365868679583e-001

1.55832915932100e+004,-8.41681694036814e-001,-2.16344333105304e-001

1.58008262372675e+004,-8.41681635519224e-001,-2.19364374832906e-001

1.60213975517924e+004,-8.41681575350630e-001,-2.22426574237681e-001

1.62450479271247e+004,-8.41681513484135e-001,-2.25531519797167e-001

1.64718203453514e+004,-8.41681449871721e-001,-2.28679808201725e-001

1.67017583885674e+004,-8.41681384463924e-001,-2.31872044470208e-001

1.69349062472505e+004,-8.41681317209944e-001,-2.35108842066243e-001

1.71713087287550e+004,-8.41681248057285e-001,-2.38390823017095e-001

1.74110112659224e+004,-8.41681176952255e-001,-2.41718618030513e-001

1.76540599258131e+004,-8.41681103839519e-001,-2.45092866617877e-001

1.79005014185594e+004,-8.41681028662059e-001,-2.48514217217559e-001

1.81503831063432e+004,-8.41680951361362e-001,-2.51983327317387e-001

1.84037530124975e+004,-8.41680871877165e-001,-2.55500863582675e-001

1.86606598307361e+004,-8.41680790147490e-001,-2.59067501983593e-001

1.89211529345119e+004,-8.41680706108549e-001,-2.62683927925034e-001

1.91852823865052e+004,-8.41680619694799e-001,-2.66350836378316e-001

1.94530989482457e+004,-8.41680530838819e-001,-2.70068932014348e-001

1.97246540898671e+004,-8.41680439471249e-001,-2.73838929339406e-001

1.99999999999999e+004,-8.41680345520675e-001,-2.77661552832451e-001

2.02791895958005e+004,-8.41680248913594e-001,-2.81537537084608e-001

2.05622765331213e+004,-8.41680149574567e-001,-2.85467626938116e-001

2.08493152168224e+004,-8.41680047425748e-001,-2.89452577632947e-001

2.11403608112276e+004,-8.41679942387358e-001,-2.93493154947854e-001

2.14354692507258e+004,-8.41679834377133e-001,-2.97590135350054e-001

2.17346972505211e+004,-8.41679723310273e-001,-3.01744306145217e-001

2.20381023175322e+004,-8.41679609099829e-001,-3.05956465625267e-001

2.23457427614443e+004,-8.41679491656312e-001,-3.10227423223980e-001

2.26576777059159e+004,-8.41679370887414e-001,-3.14557999672842e-001

2.29739670999406e+004,-8.41679246698431e-001,-3.18949027156693e-001

2.32946717293690e+004,-8.41679118991779e-001,-3.23401349475187e-001

2.36198532285905e+004,-8.41678987667073e-001,-3.27915822204589e-001

2.39495740923785e+004,-8.41678852621004e-001,-3.32493312861331e-001

2.42838976879009e+004,-8.41678713747247e-001,-3.37134701069296e-001

2.46228882668982e+004,-8.41678570936565e-001,-3.41840878727417e-001

2.49666109780322e+004,-8.41678424076370e-001,-3.46612750182898e-001

2.53151318794055e+004,-8.41678273050828e-001,-3.51451232404076e-001

2.56685179512580e+004,-8.41678117740870e-001,-3.56357255154797e-001

2.60268371088386e+004,-8.41677958023737e-001,-3.61331761176023e-001

2.63901582154578e+004,-8.41677793773300e-001,-3.66375706364236e-001

2.67585510957221e+004,-8.41677624859649e-001,-3.71490059955938e-001

2.71320865489533e+004,-8.41677451149217e-001,-3.76675804713283e-001

2.75108363627948e+004,-8.41677272504225e-001,-3.81933937114432e-001

2.78948733270080e+004,-8.41677088783351e-001,-3.87265467541158e-001

2.82842712474618e+004,-8.41676899840625e-001,-3.92671420477873e-001

2.86791049603164e+004,-8.41676705526218e-001,-3.98152834703056e-001

2.90794503464061e+004,-8.41676505685716e-001,-4.03710763492294e-001

2.94853843458219e+004,-8.41676300160144e-001,-4.09346274819196e-001

2.98969849726987e+004,-8.41676088785912e-001,-4.15060451560456e-001

3.03143313302078e+004,-8.41675871394668e-001,-4.20854391702964e-001

3.07375036257601e+004,-8.41675647813076e-001,-4.26729208555600e-001

3.11665831864199e+004,-8.41675417862636e-001,-4.32686030962492e-001

3.16016524745350e+004,-8.41675181359605e-001,-4.38726003520085e-001

3.20427951035848e+004,-8.41674938114956e-001,-4.44850286794939e-001

3.24900958542493e+004,-8.41674687933751e-001,-4.51060057549536e-001

3.29436406907028e+004,-8.41674430615723e-001,-4.57356508964576e-001

3.34035167771346e+004,-8.41674165954204e-001,-4.63740850871409e-001

3.38698124945009e+004,-8.41673893736791e-001,-4.70214309980856e-001

3.43426174575100e+004,-8.41673613744464e-001,-4.76778130121288e-001

3.48220225318448e+004,-8.41673325751891e-001,-4.83433572475321e-001

3.53081198516260e+004,-8.41673029526929e-001,-4.90181915823280e-001

3.58010028371187e+004,-8.41672724830547e-001,-4.97024456787214e-001

3.63007662126863e+004,-8.41672411416539e-001,-5.03962510080372e-001

3.68075060249948e+004,-8.41672089031408e-001,-5.10997408758757e-001

3.73213196614721e+004,-8.41671757413998e-001,-5.18130504477902e-001

3.78423058690237e+004,-8.41671416295262e-001,-5.25363167751547e-001

3.83705647730104e+004,-8.41671065398122e-001,-5.32696788214247e-001

3.89061978964912e+004,-8.41670704437278e-001,-5.40132774887406e-001

3.94493081797342e+004,-8.41670333118649e-001,-5.47672556451198e-001

3.99999999999998e+004,-8.41669951139410e-001,-5.55317581516647e-001

4.05583791916010e+004,-8.41669558187453e-001,-5.63069318904895e-001

4.11245530662425e+004,-8.41669153941384e-001,-5.70929257927685e-001

4.16986304336447e+004,-8.41668738069839e-001,-5.78898908674319e-001

4.22807216224550e+004,-8.41668310231589e-001,-5.86979802299208e-001

4.28709385014515e+004,-8.41667870074927e-001,-5.95173491317314e-001

4.34693945010421e+004,-8.41667417237473e-001,-6.03481549900597e-001

4.40762046350642e+004,-8.41666951345619e-001,-6.11905574180980e-001

4.46914855228886e+004,-8.41666472014573e-001,-6.20447182554697e-001

4.53153554118317e+004,-8.41665978847597e-001,-6.29108015993511e-001

4.59479341998812e+004,-8.41665471435759e-001,-6.37889738359626e-001

4.65893434587380e+004,-8.41664949357657e-001,-6.46794036723432e-001

4.72397064571810e+004,-8.41664412178735e-001,-6.55822621688414e-001

4.78991481847569e+004,-8.41663859451195e-001,-6.64977227716959e-001

4.85677953758016e+004,-8.41663290713278e-001,-6.74259613464847e-001

4.92457765337964e+004,-8.41662705488969e-001,-6.83671562116222e-001

4.99332219560642e+004,-8.41662103287392e-001,-6.93214881727857e-001

5.06302637588109e+004,-8.41661483602529e-001,-7.02891405572068e-001

5.13370359025159e+004,-8.41660845912383e-001,-7.12702992492259e-001

5.20536742176771e+004,-8.41660189678888e-001,-7.22651527254728e-001

5.27803164309155e+004,-8.41659514346976e-001,-7.32738920912928e-001

5.35171021914442e+004,-8.41658819344198e-001,-7.42967111172311e-001

5.42641730979066e+004,-8.41658104080117e-001,-7.53338062761450e-001

5.50216727255895e+004,-8.41657367945801e-001,-7.63853767808345e-001

5.57897466540159e+004,-8.41656610312935e-001,-7.74516246223124e-001

5.65685424949235e+004,-8.41655830533349e-001,-7.85327546083433e-001

5.73582099206328e+004,-8.41655027938498e-001,-7.96289744027188e-001

5.81589006928121e+004,-8.41654201838455e-001,-8.07404945650805e-001

5.89707686916437e+004,-8.41653351521354e-001,-8.18675285912307e-001

5.97939699453972e+004,-8.41652476252710e-001,-8.30102929539026e-001

6.06286626604156e+004,-8.41651575274431e-001,-8.41690071444313e-001

6.14750072515201e+004,-8.41650647804297e-001,-8.53438937145412e-001

6.23331663728396e+004,-8.41649693034803e-001,-8.65351783191797e-001

6.32033049490698e+004,-8.41648710132639e-001,-8.77430897595667e-001

6.40855902071694e+004,-8.41647698237520e-001,-8.89678600270975e-001

6.49801917084985e+004,-8.41646656461486e-001,-9.02097243476813e-001

6.58872813814055e+004,-8.41645583887625e-001,-9.14689212269114e-001

6.68070335542691e+004,-8.41644479569577e-001,-9.27456924955091e-001

6.77396249890018e+004,-8.41643342529901e-001,-9.40402833559087e-001

6.86852349150199e+004,-8.41642171759558e-001,-9.53529424289253e-001

6.96440450636895e+004,-8.41640966216508e-001,-9.66839218015218e-001

7.06162397032520e+004,-8.41639724824531e-001,-9.80334770750533e-001

7.16020056742374e+004,-8.41638446472256e-001,-9.94018674141285e-001

7.26015324253724e+004,-8.41637130011709e-001,-1.00789355596299e+000

7.36150120499896e+004,-8.41635774257171e-001,-1.02196208062338e+000

7.46426393229441e+004,-8.41634377983785e-001,-1.03622694967251e+000

7.56846117380472e+004,-8.41632939926351e-001,-1.05069090231946e+000

7.67411295460207e+004,-8.41631458777670e-001,-1.06535671595797e+000

7.78123957929823e+004,-8.41629933187182e-001,-1.08022720669728e+000

7.88986163594682e+004,-8.41628361759434e-001,-1.09530522990137e+000

7.99999999999995e+004,-8.41626743052603e-001,-1.11059368073612e+000

8.11167583832018e+004,-8.41625075576675e-001,-1.12609549472333e+000

8.22491061324848e+004,-8.41623357791973e-001,-1.14181364830249e+000

8.33972608672892e+004,-8.41621588107171e-001,-1.15775115940193e+000

8.45614432449099e+004,-8.41619764877584e-001,-1.17391108801576e+000

8.57418770029029e+004,-8.41617886403474e-001,-1.19029653678966e+000

8.69387890020841e+004,-8.41615950927782e-001,-1.20691065161658e+000

8.81524092701283e+004,-8.41613956634236e-001,-1.22375662223851e+000

8.93829710457770e+004,-8.41611901645480e-001,-1.24083768285634e+000

9.06307108236633e+004,-8.41609784020546e-001,-1.25815711275221e+000

9.18958683997622e+004,-8.41607601752928e-001,-1.27571823691560e+000

9.31786869174758e+004,-8.41605352768157e-001,-1.29352442668170e+000

9.44794129143618e+004,-8.41603034921389e-001,-1.31157910037674e+000

9.57982963695136e+004,-8.41600645995081e-001,-1.32988572397372e+000

9.71355907516031e+004,-8.41598183696168e-001,-1.34844781175739e+000

9.84915530675926e+004,-8.41595645653718e-001,-1.36726892699741e+000

9.98664439121282e+004,-8.41593029416049e-001,-1.38635268263176e+000

1.01260527517622e+005,-8.41590332447951e-001,-1.40570274195997e+000

1.02674071805032e+005,-8.41587552127762e-001,-1.42532281934620e+000

1.04107348435354e+005,-8.41584685744409e-001,-1.44521668093129e+000

1.05560632861831e+005,-8.41581730494327e-001,-1.46538814535659e+000

1.07034204382888e+005,-8.41578683478031e-001,-1.48584108449613e+000

1.08528346195813e+005,-8.41575541697198e-001,-1.50657942420093e+000

1.10043345451179e+005,-8.41572302050944e-001,-1.52760714505235e+000

1.11579493308032e+005,-8.41568961332475e-001,-1.54892828312710e+000

1.13137084989847e+005,-8.41565516225321e-001,-1.57054693077369e+000

1.14716419841265e+005,-8.41561963299775e-001,-1.59246723739754e+000

1.16317801385624e+005,-8.41558299008940e-001,-1.61469341026018e+000

1.17941537383287e+005,-8.41554519684675e-001,-1.63722971528837e+000

1.19587939890794e+005,-8.41550621533809e-001,-1.66008047789412e+000

1.21257325320831e+005,-8.41546600633516e-001,-1.68325008380825e+000

1.22950014503040e+005,-8.41542452927330e-001,-1.70674297992433e+000

1.24666332745679e+005,-8.41538174220604e-001,-1.73056367515489e+000

1.26406609898139e+005,-8.41533760175768e-001,-1.75471674130128e+000

1.28171180414339e+005,-8.41529206307881e-001,-1.77920681393377e+000

1.29960383416997e+005,-8.41524507979547e-001,-1.80403859328636e+000

1.31774562762811e+005,-8.41519660396100e-001,-1.82921684516313e+000

1.33614067108538e+005,-8.41514658600493e-001,-1.85474640185751e+000

1.35479249978003e+005,-8.41509497467931e-001,-1.88063216308655e+000

1.37370469830040e+005,-8.41504171700616e-001,-1.90687909693604e+000

1.39288090127379e+005,-8.41498675822248e-001,-1.93349224082150e+000

1.41232479406504e+005,-8.41493004172167e-001,-1.96047670246128e+000

1.43204011348474e+005,-8.41487150899778e-001,-1.98783766086533e+000

1.45203064850745e+005,-8.41481109958529e-001,-2.01558036733646e+000

1.47230024099979e+005,-8.41474875099782e-001,-2.04371014648772e+000

1.49285278645888e+005,-8.41468439866656e-001,-2.07223239727334e+000

1.51369223476094e+005,-8.41461797587525e-001,-2.10115259403505e+000

1.53482259092041e+005,-8.41454941369630e-001,-2.13047628756329e+000

1.55624791585964e+005,-8.41447864092433e-001,-2.16020910617347e+000

1.57797232718936e+005,-8.41440558400569e-001,-2.19035675679927e+000

1.59999999999999e+005,-8.41433016697148e-001,-2.22092502609932e+000

1.62233516766403e+005,-8.41425231136412e-001,-2.25191978158238e+000

1.64498212264969e+005,-8.41417193616696e-001,-2.28334697274638e+000

1.66794521734578e+005,-8.41408895772843e-001,-2.31521263223592e+000

1.69122886489819e+005,-8.41400328968583e-001,-2.34752287701566e+000

1.71483754005805e+005,-8.41391484289063e-001,-2.38028390956015e+000

1.73877578004168e+005,-8.41382352532769e-001,-2.41350201906184e+000

1.76304818540256e+005,-8.41372924203512e-001,-2.44718358265574e+000

1.78765942091554e+005,-8.41363189502362e-001,-2.48133506666233e+000

1.81261421647326e+005,-8.41353138319221e-001,-2.51596302784762e+000

1.83791736799524e+005,-8.41342760224420e-001,-2.55107411470213e+000

1.86357373834951e+005,-8.41332044460030e-001,-2.58667506873774e+000

1.88958825828723e+005,-8.41320979931077e-001,-2.62277272580383e+000

1.91596592739027e+005,-8.41309555196567e-001,-2.65937401742139e+000

1.94271181503206e+005,-8.41297758460426e-001,-2.69648597213669e+000

1.96983106135185e+005,-8.41285577562254e-001,-2.73411571689480e+000

1.99732887824256e+005,-8.41272999967838e-001,-2.77227047843210e+000

2.02521055035243e+005,-8.41260012759542e-001,-2.81095758468932e+000

2.05348143610063e+005,-8.41246602626673e-001,-2.85018446624373e+000

2.08214696870707e+005,-8.41232755855416e-001,-2.88995865776311e+000

2.11121265723661e+005,-8.41218458318811e-001,-2.93028779947965e+000

2.14068408765776e+005,-8.41203695466477e-001,-2.97117963868434e+000

2.17056692391625e+005,-8.41188452314107e-001,-3.01264203124411e+000

2.20086690902357e+005,-8.41172713432951e-001,-3.05468294313863e+000

2.23158986616063e+005,-8.41156462938858e-001,-3.09731045202018e+000

2.26274169979693e+005,-8.41139684481303e-001,-3.14053274879544e+000

2.29432839682530e+005,-8.41122361232173e-001,-3.18435813922910e+000

2.32635602771247e+005,-8.41104475874423e-001,-3.22879504556998e+000

2.35883074766574e+005,-8.41086010590294e-001,-3.27385200820134e+000

2.39175879781588e+005,-8.41066947049494e-001,-3.31953768731271e+000

2.42514650641661e+005,-8.41047266397092e-001,-3.36586086459681e+000

2.45900029006080e+005,-8.41026949241267e-001,-3.41283044496853e+000

2.49332665491357e+005,-8.41005975640565e-001,-3.46045545830981e+000

2.52813219796278e+005,-8.40984325091167e-001,-3.50874506123757e+000

2.56342360828676e+005,-8.40961976513659e-001,-3.55770853889783e+000

2.59920766833993e+005,-8.40938908239728e-001,-3.60735530678295e+000

2.63549125525621e+005,-8.40915097998220e-001,-3.65769491257630e+000

2.67228134217075e+005,-8.40890522901471e-001,-3.70873703802120e+000

2.70958499956006e+005,-8.40865159430475e-001,-3.76049150081707e+000

2.74740939660078e+005,-8.40838983420533e-001,-3.81296825654097e+000

2.78576180254757e+005,-8.40811970046061e-001,-3.86617740059703e+000

2.82464958813007e+005,-8.40784093805041e-001,-3.92012917019240e+000

2.86408022696948e+005,-8.40755328503190e-001,-3.97483394634116e+000

2.90406129701488e+005,-8.40725647237832e-001,-4.03030225589540e+000

2.94460048199957e+005,-8.40695022381011e-001,-4.08654477360631e+000

2.98570557291775e+005,-8.40663425562265e-001,-4.14357232421250e+000

3.02738446952187e+005,-8.40630827651249e-001,-4.20139588455838e+000

3.06964518184081e+005,-8.40597198739268e-001,-4.26002658574189e+000

3.11249583171928e+005,-8.40562508120757e-001,-4.31947571529255e+000

3.15594465437872e+005,-8.40526724274057e-001,-4.37975471937988e+000

3.19999999999997e+005,-8.40489814841597e-001,-4.44087520505311e+000

3.24467033532806e+005,-8.40451746609450e-001,-4.50284894251266e+000

3.28996424529938e+005,-8.40412485486428e-001,-4.56568786741253e+000

3.33589043469155e+005,-8.40371996482371e-001,-4.62940408319681e+000

3.38245772979638e+005,-8.40330243685864e-001,-4.69400986346807e+000

3.42967508011610e+005,-8.40287190241242e-001,-4.75951765438987e+000

3.47755156008335e+005,-8.40242798324798e-001,-4.82594007712375e+000

3.52609637080511e+005,-8.40197029120456e-001,-4.89328993029991e+000

3.57531884183106e+005,-8.40149842794374e-001,-4.96158019252448e+000

3.62522843294651e+005,-8.40101198469094e-001,-5.03082402492147e+000

3.67583473599047e+005,-8.40051054196503e-001,-5.10103477371281e+000

3.72714747669902e+005,-8.39999366930313e-001,-5.17222597283358e+000

3.77917651657445e+005,-8.39946092497351e-001,-5.24441134658665e+000

3.83193185478053e+005,-8.39891185568174e-001,-5.31760481233482e+000

3.88542363006410e+005,-8.39834599626631e-001,-5.39182048323258e+000

3.93966212270369e+005,-8.39776286938577e-001,-5.46707267099726e+000

3.99465775648511e+005,-8.39716198519414e-001,-5.54337588872081e+000

4.05042110070485e+005,-8.39654284100836e-001,-5.62074485372306e+000

4.10696287220124e+005,-8.39590492096503e-001,-5.69919449044603e+000

4.16429393741414e+005,-8.39524769566475e-001,-5.77873993339206e+000

4.22242531447321e+005,-8.39457062180849e-001,-5.85939653010411e+000

4.28136817531551e+005,-8.39387314181957e-001,-5.94117984419155e+000

4.34113384783250e+005,-8.39315468345808e-001,-6.02410565839942e+000

4.40173381804713e+005,-8.39241465942004e-001,-6.10818997772452e+000

4.46317973232124e+005,-8.39165246692595e-001,-6.19344903257817e+000

4.52548339959385e+005,-8.39086748729891e-001,-6.27989928199508e+000

4.58865679365059e+005,-8.39005908552796e-001,-6.36755741689184e+000

4.65271205542494e+005,-8.38922660981956e-001,-6.45644036337384e+000

4.71766149533147e+005,-8.38836939113616e-001,-6.54656528609244e+000

4.78351759563174e+005,-8.38748674272200e-001,-6.63794959165246e+000

4.85029301283321e+005,-8.38657795961493e-001,-6.73061093207217e+000

4.91800058012158e+005,-8.38564231814436e-001,-6.82456720829540e+000

4.98665330982714e+005,-8.38467907541573e-001,-6.91983657375779e+000

5.05626439592555e+005,-8.38368746878114e-001,-7.01643743800684e+000

5.12684721657352e+005,-8.38266671529302e-001,-7.11438847037885e+000

5.19841533667984e+005,-8.38161601114739e-001,-7.21370860373109e+000

5.27098251051240e+005,-8.38053453110723e-001,-7.31441703823209e+000

5.34456268434150e+005,-8.37942142791479e-001,-7.41653324521092e+000

5.41916999912011e+005,-8.37827583168532e-001,-7.52007697106569e+000

