Freq.,VOut,OutRef

1.00000000000000e+004,-4.14151983944445e+001,-3.81001048224790e-001

1.01395947979003e+004,-4.14152032475071e+001,-3.86318973069104e-001

1.02811382665607e+004,-4.14152082368357e+001,-3.91711105744550e-001

1.04246576084112e+004,-4.14152133662515e+001,-3.97178480982620e-001

1.05701804056138e+004,-4.14152186396828e+001,-4.02722147909213e-001

1.07177346253629e+004,-4.14152240611670e+001,-4.08343170246111e-001

1.08673486252606e+004,-4.14152296348553e+001,-4.14042626507631e-001

1.10190511587661e+004,-4.14152353650143e+001,-4.19821610209448e-001

1.11728713807222e+004,-4.14152412560300e+001,-4.25681230072714e-001

1.13288388529580e+004,-4.14152473124112e+001,-4.31622610234894e-001

1.14869835499703e+004,-4.14152535387925e+001,-4.37646890462167e-001

1.16473358646846e+004,-4.14152599399379e+001,-4.43755226366778e-001

1.18099266142953e+004,-4.14152665207448e+001,-4.49948789620843e-001

1.19747870461893e+004,-4.14152732862469e+001,-4.56228768183384e-001

1.21419488439505e+004,-4.14152802416187e+001,-4.62596366520962e-001

1.23114441334492e+004,-4.14152873921795e+001,-4.69052805834023e-001

1.24833054890161e+004,-4.14152947433962e+001,-4.75599324292312e-001

1.26575659397028e+004,-4.14153023008891e+001,-4.82237177262631e-001

1.28342589756290e+004,-4.14153100704348e+001,-4.88967637548307e-001

1.30134185544193e+004,-4.14153180579712e+001,-4.95791995629716e-001

1.31950791077289e+004,-4.14153262696018e+001,-5.02711559903213e-001

1.33792755478611e+004,-4.14153347116003e+001,-5.09727656931892e-001

1.35660432744767e+004,-4.14153433904152e+001,-5.16841631692413e-001

1.37554181813974e+004,-4.14153523126747e+001,-5.24054847827805e-001

1.39474366635040e+004,-4.14153614851916e+001,-5.31368687903956e-001

1.41421356237309e+004,-4.14153709149687e+001,-5.38784553668783e-001

1.43395524801583e+004,-4.14153806092036e+001,-5.46303866315427e-001

1.45397251732031e+004,-4.14153905752942e+001,-5.53928066748035e-001

1.47426921729110e+004,-4.14154008208444e+001,-5.61658615852774e-001

1.49484924863494e+004,-4.14154113536699e+001,-5.69496994768398e-001

1.51571656651040e+004,-4.14154221818032e+001,-5.77444705166283e-001

1.53687518128801e+004,-4.14154333135007e+001,-5.85503269529634e-001

1.55832915932100e+004,-4.14154447572481e+001,-5.93674231437286e-001

1.58008262372675e+004,-4.14154565217670e+001,-6.01959155851812e-001

1.60213975517924e+004,-4.14154686160211e+001,-6.10359629412005e-001

1.62450479271247e+004,-4.14154810492230e+001,-6.18877260728031e-001

1.64718203453514e+004,-4.14154938308413e+001,-6.27513680679715e-001

1.67017583885674e+004,-4.14155069706074e+001,-6.36270542720283e-001

1.69349062472505e+004,-4.14155204785223e+001,-6.45149523184269e-001

1.71713087287550e+004,-4.14155343648645e+001,-6.54152321597515e-001

1.74110112659224e+004,-4.14155486401976e+001,-6.63280660992469e-001

1.76540599258131e+004,-4.14155633153776e+001,-6.72536288227144e-001

1.79005014185594e+004,-4.14155784015614e+001,-6.81920974308136e-001

1.81503831063432e+004,-4.14155939102146e+001,-6.91436514719150e-001

1.84037530124975e+004,-4.14156098531202e+001,-7.01084729750370e-001

1.86606598307361e+004,-4.14156262423873e+001,-7.10867464834354e-001

1.89211529345119e+004,-4.14156430904595e+001,-7.20786590888325e-001

1.91852823865052e+004,-4.14156604101245e+001,-7.30844004655389e-001

1.94530989482457e+004,-4.14156782145230e+001,-7.41041629055032e-001

1.97246540898671e+004,-4.14156965171587e+001,-7.51381413534060e-001

1.99999999999999e+004,-4.14157153319079e+001,-7.61865334426210e-001

2.02791895958005e+004,-4.14157346730296e+001,-7.72495395311424e-001

2.05622765331213e+004,-4.14157545551758e+001,-7.83273627383864e-001

2.08493152168224e+004,-4.14157749934021e+001,-7.94202089822652e-001

2.11403608112276e+004,-4.14157960031788e+001,-8.05282870165295e-001

2.14354692507258e+004,-4.14158176004018e+001,-8.16518084689474e-001

2.17346972505211e+004,-4.14158398014043e+001,-8.27909878797797e-001

2.20381023175322e+004,-4.14158626229681e+001,-8.39460427405377e-001

2.23457427614443e+004,-4.14158860823363e+001,-8.51171935334792e-001

2.26576777059159e+004,-4.14159101972250e+001,-8.63046637716366e-001

2.29739670999406e+004,-4.14159349858365e+001,-8.75086800388455e-001

2.32946717293690e+004,-4.14159604668719e+001,-8.87294720309720e-001

2.36198532285905e+004,-4.14159866595445e+001,-8.99672725968698e-001

2.39495740923785e+004,-4.14160135835937e+001,-9.12223177805664e-001

2.42838976879009e+004,-4.14160412592985e+001,-9.24948468633305e-001

2.46228882668982e+004,-4.14160697074925e+001,-9.37851024065424e-001

2.49666109780322e+004,-4.14160989495779e+001,-9.50933302951705e-001

2.53151318794055e+004,-4.14161290075409e+001,-9.64197797814288e-001

2.56685179512580e+004,-4.14161599039672e+001,-9.77647035291498e-001

2.60268371088386e+004,-4.14161916620577e+001,-9.91283576587238e-001

2.63901582154578e+004,-4.14162243056446e+001,-1.00511001792457e+000

2.67585510957221e+004,-4.14162578592083e+001,-1.01912899100320e+000

2.71320865489533e+004,-4.14162923478938e+001,-1.03334316346577e+000

2.75108363627948e+004,-4.14163277975288e+001,-1.04775523936537e+000

2.78948733270080e+004,-4.14163642346410e+001,-1.06236795964140e+000

2.82842712474618e+004,-4.14164016864769e+001,-1.07718410259841e+000

2.86791049603164e+004,-4.14164401810197e+001,-1.09220648439325e+000

2.90794503464061e+004,-4.14164797470089e+001,-1.10743795952406e+000

2.94853843458219e+004,-4.14165204139601e+001,-1.12288142132623e+000

2.98969849726987e+004,-4.14165622121844e+001,-1.13853980247539e+000

3.03143313302078e+004,-4.14166051728095e+001,-1.15441607549246e+000

3.07375036257601e+004,-4.14166493278002e+001,-1.17051325325742e+000

3.11665831864199e+004,-4.14166947099803e+001,-1.18683438952568e+000

3.16016524745350e+004,-4.14167413530542e+001,-1.20338257945268e+000

3.20427951035848e+004,-4.14167892916292e+001,-1.22016096012173e+000

3.24900958542493e+004,-4.14168385612389e+001,-1.23717271107864e+000

3.29436406907028e+004,-4.14168891983665e+001,-1.25442105487059e+000

3.34035167771346e+004,-4.14169412404687e+001,-1.27190925759219e+000

3.38698124945009e+004,-4.14169947259999e+001,-1.28964062943642e+000

3.43426174575100e+004,-4.14170496944380e+001,-1.30761852525045e+000

3.48220225318448e+004,-4.14171061863092e+001,-1.32584634509689e+000

3.53081198516260e+004,-4.14171642432146e+001,-1.34432753482279e+000

3.58010028371187e+004,-4.14172239078567e+001,-1.36306558663087e+000

3.63007662126863e+004,-4.14172852240667e+001,-1.38206403965862e+000

3.68075060249948e+004,-4.14173482368324e+001,-1.40132648056295e+000

3.73213196614721e+004,-4.14174129923262e+001,-1.42085654410865e+000

3.78423058690237e+004,-4.14174795379347e+001,-1.44065791376383e+000

3.83705647730104e+004,-4.14175479222876e+001,-1.46073432230082e+000

3.89061978964912e+004,-4.14176181952883e+001,-1.48108955240163e+000

3.94493081797342e+004,-4.14176904081444e+001,-1.50172743726976e+000

3.99999999999998e+004,-4.14177646133992e+001,-1.52265186124721e+000

4.05583791916010e+004,-4.14178408649632e+001,-1.54386676043734e+000

4.11245530662425e+004,-4.14179192181473e+001,-1.56537612333230e+000

4.16986304336447e+004,-4.14179997296953e+001,-1.58718399144614e+000

4.22807216224550e+004,-4.14180824578181e+001,-1.60929445995426e+000

4.28709385014515e+004,-4.14181674622278e+001,-1.63171167833731e+000

4.34693945010421e+004,-4.14182548041726e+001,-1.65443985102977e+000

4.40762046350642e+004,-4.14183445464726e+001,-1.67748323807685e+000

4.46914855228886e+004,-4.14184367535559e+001,-1.70084615579200e+000

4.53153554118317e+004,-4.14185314914952e+001,-1.72453297742409e+000

4.59479341998812e+004,-4.14186288280453e+001,-1.74854813382737e+000

4.65893434587380e+004,-4.14187288326810e+001,-1.77289611413750e+000

4.72397064571810e+004,-4.14188315766361e+001,-1.79758146645188e+000

4.78991481847569e+004,-4.14189371329418e+001,-1.82260879851692e+000

4.85677953758016e+004,-4.14190455764670e+001,-1.84798277841844e+000

4.92457765337964e+004,-4.14191569839585e+001,-1.87370813527782e+000

4.99332219560642e+004,-4.14192714340816e+001,-1.89978965995454e+000

5.06302637588109e+004,-4.14193890074620e+001,-1.92623220575122e+000

5.13370359025159e+004,-4.14195097867273e+001,-1.95304068912636e+000

5.20536742176771e+004,-4.14196338565497e+001,-1.98022009040936e+000

5.27803164309155e+004,-4.14197613036892e+001,-2.00777545452278e+000

5.35171021914442e+004,-4.14198922170366e+001,-2.03571189170839e+000

5.42641730979066e+004,-4.14200266876582e+001,-2.06403457825844e+000

5.50216727255895e+004,-4.14201648088394e+001,-2.09274875725076e+000

5.57897466540159e+004,-4.14203066761302e+001,-2.12185973929120e+000

5.65685424949235e+004,-4.14204523873905e+001,-2.15137290325828e+000

5.73582099206328e+004,-4.14206020428354e+001,-2.18129369705378e+000

5.81589006928121e+004,-4.14207557450815e+001,-2.21162763835946e+000

5.89707686916437e+004,-4.14209135991934e+001,-2.24238031539556e+000

5.97939699453972e+004,-4.14210757127301e+001,-2.27355738768766e+000

6.06286626604156e+004,-4.14212421957922e+001,-2.30516458683639e+000

6.14750072515201e+004,-4.14214131610693e+001,-2.33720771729204e+000

6.23331663728396e+004,-4.14215887238870e+001,-2.36969265713538e+000

6.32033049490698e+004,-4.14217690022549e+001,-2.40262535886295e+000

6.40855902071694e+004,-4.14219541169141e+001,-2.43601185017701e+000

6.49801917084985e+004,-4.14221441913850e+001,-2.46985823478119e+000

6.58872813814055e+004,-4.14223393520153e+001,-2.50417069318215e+000

6.68070335542691e+004,-4.14225397280278e+001,-2.53895548349503e+000

6.77396249890018e+004,-4.14227454515680e+001,-2.57421894225626e+000

6.86852349150199e+004,-4.14229566577521e+001,-2.60996748524045e+000

6.96440450636895e+004,-4.14231734847145e+001,-2.64620760828493e+000

7.06162397032520e+004,-4.14233960736547e+001,-2.68294588811933e+000

7.16020056742374e+004,-4.14236245688847e+001,-2.72018898320086e+000

7.26015324253724e+004,-4.14238591178758e+001,-2.75794363455835e+000

7.36150120499896e+004,-4.14240998713044e+001,-2.79621666664125e+000

7.46426393229441e+004,-4.14243469830984e+001,-2.83501498817573e+000

7.56846117380472e+004,-4.14246006104822e+001,-2.87434559303095e+000

7.67411295460207e+004,-4.14248609140215e+001,-2.91421556108876e+000

7.78123957929823e+004,-4.14251280576674e+001,-2.95463205912618e+000

7.88986163594682e+004,-4.14254022087997e+001,-2.99560234170409e+000

7.99999999999995e+004,-4.14256835382693e+001,-3.03713375206515e+000

8.11167583832018e+004,-4.14259722204403e+001,-3.07923372304295e+000

8.22491061324848e+004,-4.14262684332302e+001,-3.12190977798027e+000

8.33972608672892e+004,-4.14265723581499e+001,-3.16516953165877e+000

8.45614432449099e+004,-4.14268841803421e+001,-3.20902069123992e+000

8.57418770029029e+004,-4.14272040886190e+001,-3.25347105721885e+000

8.69387890020841e+004,-4.14275322754983e+001,-3.29852852439093e+000

8.81524092701283e+004,-4.14278689372381e+001,-3.34420108283255e+000

8.93829710457770e+004,-4.14282142738703e+001,-3.39049681889644e+000

9.06307108236633e+004,-4.14285684892332e+001,-3.43742391622277e+000

9.18958683997622e+004,-4.14289317910010e+001,-3.48499065676796e+000

9.31786869174758e+004,-4.14293043907140e+001,-3.53320542184940e+000

9.44794129143618e+004,-4.14296865038048e+001,-3.58207669321136e+000

9.57982963695136e+004,-4.14300783496247e+001,-3.63161305410945e+000

9.71355907516031e+004,-4.14304801514671e+001,-3.68182319041780e+000

9.84915530675926e+004,-4.14308921365900e+001,-3.73271589175774e+000

9.98664439121282e+004,-4.14313145362358e+001,-3.78430005265217e+000

1.01260527517622e+005,-4.14317475856498e+001,-3.83658467370430e+000

1.02674071805032e+005,-4.14321915240971e+001,-3.88957886280507e+000

1.04107348435354e+005,-4.14326465948766e+001,-3.94329183636825e+000

1.05560632861831e+005,-4.14331130453341e+001,-3.99773292059656e+000

1.07034204382888e+005,-4.14335911268728e+001,-4.05291155278096e+000

1.08528346195813e+005,-4.14340810949623e+001,-4.10883728263340e+000

1.10043345451179e+005,-4.14345832091458e+001,-4.16551977365562e+000

1.11579493308032e+005,-4.14350977330447e+001,-4.22296880454790e+000

1.13137084989847e+005,-4.14356249343627e+001,-4.28119427065579e+000

1.14716419841265e+005,-4.14361650848875e+001,-4.34020618546043e+000

1.16317801385624e+005,-4.14367184604903e+001,-4.40001468211445e+000

1.17941537383287e+005,-4.14372853411250e+001,-4.46063001502357e+000

1.19587939890794e+005,-4.14378660108256e+001,-4.52206256147725e+000

1.21257325320831e+005,-4.14384607577019e+001,-4.58432282333271e+000

1.22950014503040e+005,-4.14390698739348e+001,-4.64742142875141e+000

1.24666332745679e+005,-4.14396936557704e+001,-4.71136913399276e+000

1.26406609898139e+005,-4.14403324035136e+001,-4.77617682526721e+000

1.28171180414339e+005,-4.14409864215216e+001,-4.84185552065018e+000

1.29960383416997e+005,-4.14416560181965e+001,-4.90841637206120e+000

1.31774562762811e+005,-4.14423415059791e+001,-4.97587066730866e+000

1.33614067108538e+005,-4.14430432013425e+001,-5.04422983220478e+000

1.35479249978003e+005,-4.14437614247869e+001,-5.11350543275217e+000

1.37370469830040e+005,-4.14444965008355e+001,-5.18370917740452e+000

1.39288090127379e+005,-4.14452487580325e+001,-5.25485291940415e+000

1.41232479406504e+005,-4.14460185289426e+001,-5.32694865919909e+000

1.43204011348474e+005,-4.14468061501540e+001,-5.40000854694226e+000

1.45203064850745e+005,-4.14476119622836e+001,-5.47404488507319e+000

1.47230024099979e+005,-4.14484363099870e+001,-5.54907013098719e+000

1.49285278645888e+005,-4.14492795419716e+001,-5.62509689979286e+000

1.51369223476094e+005,-4.14501420110163e+001,-5.70213796715818e+000

1.53482259092041e+005,-4.14510240739946e+001,-5.78020627225073e+000

1.55624791585964e+005,-4.14519260919063e+001,-5.85931492077002e+000

1.57797232718936e+005,-4.14528484299149e+001,-5.93947718807499e+000

1.59999999999999e+005,-4.14537914573928e+001,-6.02070652240952e+000

1.62233516766403e+005,-4.14547555479757e+001,-6.10301654822259e+000

1.64498212264969e+005,-4.14557410796262e+001,-6.18642106958924e+000

1.66794521734578e+005,-4.14567484347075e+001,-6.27093407372785e+000

1.69122886489819e+005,-4.14577780000685e+001,-6.35656973461918e+000

1.71483754005805e+005,-4.14588301671407e+001,-6.44334241672081e+000

1.73877578004168e+005,-4.14599053320484e+001,-6.53126667878350e+000

1.76304818540256e+005,-4.14610038957329e+001,-6.62035727776274e+000

1.78765942091554e+005,-4.14621262640913e+001,-6.71062917282844e+000

1.81261421647326e+005,-4.14632728481317e+001,-6.80209752946945e+000

1.83791736799524e+005,-4.14644440641445e+001,-6.89477772369155e+000

1.86357373834951e+005,-4.14656403338928e+001,-6.98868534630671e+000

1.88958825828723e+005,-4.14668620848209e+001,-7.08383620731070e+000

1.91596592739027e+005,-4.14681097502828e+001,-7.18024634034705e+000

1.94271181503206e+005,-4.14693837697923e+001,-7.27793200725182e+000

1.96983106135185e+005,-4.14706845892941e+001,-7.37690970267734e+000

1.99732887824256e+005,-4.14720126614588e+001,-7.47719615878982e+000

2.02521055035243e+005,-4.14733684460012e+001,-7.57880835003507e+000

2.05348143610063e+005,-4.14747524100236e+001,-7.68176349796868e+000

2.08214696870707e+005,-4.14761650283852e+001,-7.78607907614387e+000

2.11121265723661e+005,-4.14776067840978e+001,-7.89177281505128e+000

2.14068408765776e+005,-4.14790781687490e+001,-7.99886270710370e+000

2.17056692391625e+005,-4.14805796829541e+001,-8.10736701165957e+000

2.20086690902357e+005,-4.14821118368366e+001,-8.21730426007738e+000

2.23158986616063e+005,-4.14836751505391e+001,-8.32869326079262e+000

2.26274169979693e+005,-4.14852701547638e+001,-8.44155310441081e+000

2.29432839682530e+005,-4.14868973913450e+001,-8.55590316880598e+000

2.32635602771247e+005,-4.14885574138520e+001,-8.67176312421834e+000

2.35883074766574e+005,-4.14902507882249e+001,-8.78915293833957e+000

2.39175879781588e+005,-4.14919780934427e+001,-8.90809288137778e+000

2.42514650641661e+005,-4.14937399222233e+001,-9.02860353109311e+000

2.45900029006080e+005,-4.14955368817569e+001,-9.15070577779258e+000

2.49332665491357e+005,-4.14973695944726e+001,-9.27442082927666e+000

2.52813219796278e+005,-4.14992386988377e+001,-9.39977021572515e+000

2.56342360828676e+005,-4.15011448501898e+001,-9.52677579451375e+000

2.59920766833993e+005,-4.15030887216023e+001,-9.65545975495135e+000

2.63549125525621e+005,-4.15050710047825e+001,-9.78584462292790e+000

2.67228134217075e+005,-4.15070924110013e+001,-9.91795326546218e+000

2.70958499956006e+005,-4.15091536720562e+001,-1.00518088951407e+001

2.74740939660078e+005,-4.15112555412648e+001,-1.01874350744372e+001

2.78576180254757e+005,-4.15133987944894e+001,-1.03248557199043e+001

2.82464958813007e+005,-4.15155842311926e+001,-1.04640951062262e+001

2.86408022696948e+005,-4.15178126755217e+001,-1.06051778701264e+001

2.90406129701488e+005,-4.15200849774227e+001,-1.07481290141188e+001

2.94460048199957e+005,-4.15224020137816e+001,-1.08929739100948e+001

2.98570557291775e+005,-4.15247646895936e+001,-1.10397383027404e+001

3.02738446952187e+005,-4.15271739391580e+001,-1.11884483127729e+001

3.06964518184081e+005,-4.15296307272982e+001,-1.13391304399915e+001

3.11249583171928e+005,-4.15321360506060e+001,-1.14918115661361e+001

3.15594465437872e+005,-4.15346909387086e+001,-1.16465189575457e+001

3.19999999999997e+005,-4.15372964555581e+001,-1.18032802676136e+001

3.24467033532806e+005,-4.15399537007411e+001,-1.19621235390317e+001

3.28996424529938e+005,-4.15426638108077e+001,-1.21230772058212e+001

3.33589043469155e+005,-4.15454279606196e+001,-1.22861700951444e+001

3.38245772979638e+005,-4.15482473647146e+001,-1.24514314288940e+001

3.42967508011610e+005,-4.15511232786874e+001,-1.26188908250580e+001

3.47755156008335e+005,-4.15540570005856e+001,-1.27885782988553e+001

3.52609637080511e+005,-4.15570498723183e+001,-1.29605242636420e+001

3.57531884183106e+005,-4.15601032810781e+001,-1.31347595315852e+001

3.62522843294651e+005,-4.15632186607743e+001,-1.33113153141034e+001

3.67583473599047e+005,-4.15663974934763e+001,-1.34902232220727e+001

3.72714747669902e+005,-4.15696413108660e+001,-1.36715152657981e+001

3.77917651657445e+005,-4.15729516956990e+001,-1.38552238547489e+001

3.83193185478053e+005,-4.15763302832729e+001,-1.40413817970593e+001

3.88542363006410e+005,-4.15797787629023e+001,-1.42300222987934e+001

3.93966212270369e+005,-4.15832988793983e+001,-1.44211789629760e+001

3.99465775648511e+005,-4.15868924345548e+001,-1.46148857883884e+001

4.05042110070485e+005,-4.15905612886368e+001,-1.48111771681307e+001

4.10696287220124e+005,-4.15943073618734e+001,-1.50100878879518e+001

4.16429393741414e+005,-4.15981326359534e+001,-1.52116531243463e+001

4.22242531447321e+005,-4.16020391555228e+001,-1.54159084424200e+001

4.28136817531551e+005,-4.16060290296841e+001,-1.56228897935248e+001

4.34113384783250e+005,-4.16101044334969e+001,-1.58326335126617e+001

4.40173381804713e+005,-4.16142676094800e+001,-1.60451763156547e+001

4.46317973232124e+005,-4.16185208691126e+001,-1.62605552960933e+001

4.52548339959385e+005,-4.16228665943374e+001,-1.64788079220447e+001

4.58865679365059e+005,-4.16273072390620e+001,-1.66999720325342e+001

4.65271205542494e+005,-4.16318453306614e+001,-1.69240858337941e+001

4.71766149533147e+005,-4.16364834714790e+001,-1.71511878952781e+001

4.78351759563174e+005,-4.16412243403273e+001,-1.73813171454418e+001

4.85029301283321e+005,-4.16460706939876e+001,-1.76145128672842e+001

4.91800058012158e+005,-4.16510253687084e+001,-1.78508146936507e+001

4.98665330982714e+005,-4.16560912817032e+001,-1.80902626022926e+001

5.05626439592555e+005,-4.16612714326457e+001,-1.83328969106800e+001

5.12684721657352e+005,-4.16665689051646e+001,-1.85787582705643e+001

5.19841533667984e+005,-4.16719868683357e+001,-1.88278876622859e+001

5.27098251051240e+005,-4.16775285781719e+001,-1.90803263888214e+001

5.34456268434150e+005,-4.16831973791111e+001,-1.93361160695657e+001

5.41916999912011e+005,-4.16889967055012e+001,-1.95952986338420e+001

