Freq.,VOut,OutRef

1.00000000000000e+004,-1.78154499956666e+001,-1.41292530872301e-001

1.01395947979003e+004,-1.78154523893994e+001,-1.43264422978458e-001

1.02811382665607e+004,-1.78154548502976e+001,-1.45263821396881e-001

1.04246576084112e+004,-1.78154573802418e+001,-1.47291109243535e-001

1.05701804056138e+004,-1.78154599811655e+001,-1.49346674943019e-001

1.07177346253629e+004,-1.78154626550557e+001,-1.51430912307340e-001

1.08673486252606e+004,-1.78154654039549e+001,-1.53544220605080e-001

1.10190511587661e+004,-1.78154682299627e+001,-1.55687004637022e-001

1.11728713807222e+004,-1.78154711352369e+001,-1.57859674812487e-001

1.13288388529580e+004,-1.78154741219956e+001,-1.60062647226303e-001

1.14869835499703e+004,-1.78154771925184e+001,-1.62296343733913e-001

1.16473358646846e+004,-1.78154803491488e+001,-1.64561192030121e-001

1.18099266142953e+004,-1.78154835942953e+001,-1.66857625731368e-001

1.19747870461893e+004,-1.78154869304333e+001,-1.69186084453678e-001

1.21419488439505e+004,-1.78154903601072e+001,-1.71547013895541e-001

1.23114441334492e+004,-1.78154938859321e+001,-1.73940865918735e-001

1.24833054890161e+004,-1.78154975105957e+001,-1.76368098635410e-001

1.26575659397028e+004,-1.78155012368608e+001,-1.78829176487042e-001

1.28342589756290e+004,-1.78155050675662e+001,-1.81324570338147e-001

1.30134185544193e+004,-1.78155090056301e+001,-1.83854757555839e-001

1.31950791077289e+004,-1.78155130540517e+001,-1.86420222101214e-001

1.33792755478611e+004,-1.78155172159133e+001,-1.89021454617611e-001

1.35660432744767e+004,-1.78155214943829e+001,-1.91658952521467e-001

1.37554181813974e+004,-1.78155258927157e+001,-1.94333220095305e-001

1.39474366635040e+004,-1.78155304142580e+001,-1.97044768574598e-001

1.41421356237309e+004,-1.78155350624480e+001,-1.99794116249291e-001

1.43395524801583e+004,-1.78155398408200e+001,-2.02581788549881e-001

1.45397251732031e+004,-1.78155447530052e+001,-2.05408318152299e-001

1.47426921729110e+004,-1.78155498027364e+001,-2.08274245065979e-001

1.49484924863494e+004,-1.78155549938484e+001,-2.11180116741357e-001

1.51571656651040e+004,-1.78155603302830e+001,-2.14126488162427e-001

1.53687518128801e+004,-1.78155658160905e+001,-2.17113921950347e-001

1.55832915932100e+004,-1.78155714554330e+001,-2.20142988465440e-001

1.58008262372675e+004,-1.78155772525879e+001,-2.23214265909154e-001

1.60213975517924e+004,-1.78155832119502e+001,-2.26328340430792e-001

1.62450479271247e+004,-1.78155893380363e+001,-2.29485806231298e-001

1.64718203453514e+004,-1.78155956354873e+001,-2.32687265669075e-001

1.67017583885674e+004,-1.78156021090714e+001,-2.35933329373674e-001

1.69349062472505e+004,-1.78156087636890e+001,-2.39224616347432e-001

1.71713087287550e+004,-1.78156156043749e+001,-2.42561754082596e-001

1.74110112659224e+004,-1.78156226363022e+001,-2.45945378671084e-001

1.76540599258131e+004,-1.78156298647865e+001,-2.49376134917152e-001

1.79005014185594e+004,-1.78156372952891e+001,-2.52854676453374e-001

1.81503831063432e+004,-1.78156449334214e+001,-2.56381665856105e-001

1.84037530124975e+004,-1.78156527849485e+001,-2.59957774763169e-001

1.86606598307361e+004,-1.78156608557937e+001,-2.63583683991610e-001

1.89211529345119e+004,-1.78156691520423e+001,-2.67260083659224e-001

1.91852823865052e+004,-1.78156776799464e+001,-2.70987673303970e-001

1.94530989482457e+004,-1.78156864459287e+001,-2.74767162009423e-001

1.97246540898671e+004,-1.78156954565878e+001,-2.78599268524243e-001

1.99999999999999e+004,-1.78157047187023e+001,-2.82484721392692e-001

2.02791895958005e+004,-1.78157142392354e+001,-2.86424259079470e-001

2.05622765331213e+004,-1.78157240253404e+001,-2.90418630096239e-001

2.08493152168224e+004,-1.78157340843655e+001,-2.94468593132271e-001

2.11403608112276e+004,-1.78157444238585e+001,-2.98574917186388e-001

2.14354692507258e+004,-1.78157550515725e+001,-3.02738381697185e-001

2.17346972505211e+004,-1.78157659754711e+001,-3.06959776679408e-001

2.20381023175322e+004,-1.78157772037340e+001,-3.11239902855215e-001

2.23457427614443e+004,-1.78157887447624e+001,-3.15579571793411e-001

2.26576777059159e+004,-1.78158006071849e+001,-3.19979606047277e-001

2.29739670999406e+004,-1.78158127998636e+001,-3.24440839290693e-001

2.32946717293690e+004,-1.78158253319000e+001,-3.28964116462485e-001

2.36198532285905e+004,-1.78158382126409e+001,-3.33550293905415e-001

2.39495740923785e+004,-1.78158514516851e+001,-3.38200239510157e-001

2.42838976879009e+004,-1.78158650588898e+001,-3.42914832860849e-001

2.46228882668982e+004,-1.78158790443771e+001,-3.47694965379425e-001

2.49666109780322e+004,-1.78158934185407e+001,-3.52541540474974e-001

2.53151318794055e+004,-1.78159081920533e+001,-3.57455473689252e-001

2.56685179512580e+004,-1.78159233758730e+001,-3.62437692849130e-001

2.60268371088386e+004,-1.78159389812509e+001,-3.67489138218896e-001

2.63901582154578e+004,-1.78159550197386e+001,-3.72610762647623e-001

2.67585510957221e+004,-1.78159715031955e+001,-3.77803531728997e-001

2.71320865489533e+004,-1.78159884437967e+001,-3.83068423953406e-001

2.75108363627948e+004,-1.78160058540406e+001,-3.88406430864615e-001

2.78948733270080e+004,-1.78160237467576e+001,-3.93818557217766e-001

2.82842712474618e+004,-1.78160421351176e+001,-3.99305821137296e-001

2.86791049603164e+004,-1.78160610326385e+001,-4.04869254280230e-001

2.90794503464061e+004,-1.78160804531954e+001,-4.10509901992593e-001

2.94853843458219e+004,-1.78161004110285e+001,-4.16228823477228e-001

2.98969849726987e+004,-1.78161209207525e+001,-4.22027091952830e-001

3.03143313302078e+004,-1.78161419973656e+001,-4.27905794822681e-001

3.07375036257601e+004,-1.78161636562588e+001,-4.33866033837383e-001

3.11665831864199e+004,-1.78161859132251e+001,-4.39908925264031e-001

3.16016524745350e+004,-1.78162087844697e+001,-4.46035600052614e-001

3.20427951035848e+004,-1.78162322866190e+001,-4.52247204006909e-001

3.24900958542493e+004,-1.78162564367311e+001,-4.58544897954324e-001

3.29436406907028e+004,-1.78162812523060e+001,-4.64929857915100e-001

3.34035167771346e+004,-1.78163067512958e+001,-4.71403275276050e-001

3.38698124945009e+004,-1.78163329521149e+001,-4.77966356963865e-001

3.43426174575100e+004,-1.78163598736516e+001,-4.84620325616345e-001

3.48220225318448e+004,-1.78163875352778e+001,-4.91366419760589e-001

3.53081198516260e+004,-1.78164159568608e+001,-4.98205893985661e-001

3.58010028371187e+004,-1.78164451587747e+001,-5.05140019118763e-001

3.63007662126863e+004,-1.78164751619111e+001,-5.12170082403619e-001

3.68075060249948e+004,-1.78165059876911e+001,-5.19297387676318e-001

3.73213196614721e+004,-1.78165376580768e+001,-5.26523255544765e-001

3.78423058690237e+004,-1.78165701955838e+001,-5.33849023564712e-001

3.83705647730104e+004,-1.78166036232924e+001,-5.41276046421880e-001

3.89061978964912e+004,-1.78166379648601e+001,-5.48805696110130e-001

3.94493081797342e+004,-1.78166732445343e+001,-5.56439362109362e-001

3.99999999999998e+004,-1.78167094871643e+001,-5.64178451569084e-001

4.05583791916010e+004,-1.78167467182145e+001,-5.72024389485572e-001

4.11245530662425e+004,-1.78167849637765e+001,-5.79978618884397e-001

4.16986304336447e+004,-1.78168242505823e+001,-5.88042601001348e-001

4.22807216224550e+004,-1.78168646060176e+001,-5.96217815460827e-001

4.28709385014515e+004,-1.78169060581341e+001,-6.04505760459744e-001

4.34693945010421e+004,-1.78169486356637e+001,-6.12907952944807e-001

4.40762046350642e+004,-1.78169923680309e+001,-6.21425928796271e-001

4.46914855228886e+004,-1.78170372853668e+001,-6.30061243006157e-001

4.53153554118317e+004,-1.78170834185221e+001,-6.38815469858050e-001

4.59479341998812e+004,-1.78171307990807e+001,-6.47690203108765e-001

4.65893434587380e+004,-1.78171794593732e+001,-6.56687056165261e-001

4.72397064571810e+004,-1.78172294324904e+001,-6.65807662265078e-001

4.78991481847569e+004,-1.78172807522969e+001,-6.75053674653404e-001

4.85677953758016e+004,-1.78173334534445e+001,-6.84426766759895e-001

4.92457765337964e+004,-1.78173875713854e+001,-6.93928632377549e-001

4.99332219560642e+004,-1.78174431423864e+001,-7.03560985835664e-001

5.06302637588109e+004,-1.78175002035410e+001,-7.13325562178079e-001

5.13370359025159e+004,-1.78175587927839e+001,-7.23224117334276e-001

5.20536742176771e+004,-1.78176189489033e+001,-7.33258428292439e-001

5.27803164309155e+004,-1.78176807115539e+001,-7.43430293274641e-001

5.35171021914442e+004,-1.78177441212699e+001,-7.53741531903581e-001

5.42641730979066e+004,-1.78178092194777e+001,-7.64193985372766e-001

5.50216727255895e+004,-1.78178760485075e+001,-7.74789516616624e-001

5.57897466540159e+004,-1.78179446516062e+001,-7.85530010475028e-001

5.65685424949235e+004,-1.78180150729486e+001,-7.96417373858803e-001

5.73582099206328e+004,-1.78180873576490e+001,-8.07453535914419e-001

5.81589006928121e+004,-1.78181615517721e+001,-8.18640448185322e-001

5.89707686916437e+004,-1.78182377023435e+001,-8.29980084772473e-001

5.97939699453972e+004,-1.78183158573603e+001,-8.41474442493052e-001

6.06286626604156e+004,-1.78183960658003e+001,-8.53125541038811e-001

6.14750072515201e+004,-1.78184783776309e+001,-8.64935423130037e-001

6.23331663728396e+004,-1.78185628438183e+001,-8.76906154670627e-001

6.32033049490698e+004,-1.78186495163345e+001,-8.89039824898580e-001

6.40855902071694e+004,-1.78187384481649e+001,-9.01338546538506e-001

6.49801917084985e+004,-1.78188296933147e+001,-9.13804455948860e-001

6.58872813814055e+004,-1.78189233068140e+001,-9.26439713268768e-001

6.68070335542691e+004,-1.78190193447229e+001,-9.39246502563970e-001

6.77396249890018e+004,-1.78191178641352e+001,-9.52227031971226e-001

6.86852349150199e+004,-1.78192189231808e+001,-9.65383533838032e-001

6.96440450636895e+004,-1.78193225810276e+001,-9.78718264866851e-001

7.06162397032520e+004,-1.78194288978823e+001,-9.92233506251251e-001

7.16020056742374e+004,-1.78195379349891e+001,-1.00593156381643e+000

7.26015324253724e+004,-1.78196497546280e+001,-1.01981476815666e+000

7.36150120499896e+004,-1.78197644201121e+001,-1.03388547476811e+000

7.46426393229441e+004,-1.78198819957815e+001,-1.04814606419018e+000

7.56846117380472e+004,-1.78200025469984e+001,-1.06259894213534e+000

7.67411295460207e+004,-1.78201261401386e+001,-1.07724653962589e+000

7.78123957929823e+004,-1.78202528425818e+001,-1.09209131313075e+000

7.88986163594682e+004,-1.78203827227008e+001,-1.10713574469772e+000

7.99999999999995e+004,-1.78205158498478e+001,-1.12238234209122e+000

8.11167583832018e+004,-1.78206522943397e+001,-1.13783363892852e+000

8.22491061324848e+004,-1.78207921274407e+001,-1.15349219481841e+000

8.33972608672892e+004,-1.78209354213434e+001,-1.16936059550142e+000

8.45614432449099e+004,-1.78210822491468e+001,-1.18544145299168e+000

8.57418770029029e+004,-1.78212326848329e+001,-1.20173740572385e+000

8.69387890020841e+004,-1.78213868032402e+001,-1.21825111870116e+000

8.81524092701283e+004,-1.78215446800354e+001,-1.23498528364742e+000

8.93829710457770e+004,-1.78217063916816e+001,-1.25194261916728e+000

9.06307108236633e+004,-1.78218720154048e+001,-1.26912587090599e+000

9.18958683997622e+004,-1.78220416291565e+001,-1.28653781172234e+000

9.31786869174758e+004,-1.78222153115749e+001,-1.30418124186081e+000

9.44794129143618e+004,-1.78223931419412e+001,-1.32205898913929e+000

9.57982963695136e+004,-1.78225752001349e+001,-1.34017390913996e+000

9.71355907516031e+004,-1.78227615665845e+001,-1.35852888541202e+000

9.84915530675926e+004,-1.78229523222151e+001,-1.37712682968518e+000

9.98664439121282e+004,-1.78231475483938e+001,-1.39597068209523e+000

1.01260527517622e+005,-1.78233473268705e+001,-1.41506341142084e+000

1.02674071805032e+005,-1.78235517397152e+001,-1.43440801533782e+000

1.04107348435354e+005,-1.78237608692536e+001,-1.45400752068465e+000

1.05560632861831e+005,-1.78239747979960e+001,-1.47386498374960e+000

1.07034204382888e+005,-1.78241936085659e+001,-1.49398349057147e+000

1.08528346195813e+005,-1.78244173836222e+001,-1.51436615726358e+000

1.10043345451179e+005,-1.78246462057799e+001,-1.53501613035645e+000

1.11579493308032e+005,-1.78248801575247e+001,-1.55593658716444e+000

1.13137084989847e+005,-1.78251193211263e+001,-1.57713073617763e+000

1.14716419841265e+005,-1.78253637785459e+001,-1.59860181747837e+000

1.16317801385624e+005,-1.78256136113413e+001,-1.62035310318521e+000

1.17941537383287e+005,-1.78258689005673e+001,-1.64238789792880e+000

1.19587939890794e+005,-1.78261297266728e+001,-1.66470953935838e+000

1.21257325320831e+005,-1.78263961693947e+001,-1.68732139868026e+000

1.22950014503040e+005,-1.78266683076471e+001,-1.71022688123338e+000

1.24666332745679e+005,-1.78269462194076e+001,-1.73342942710282e+000

1.26406609898139e+005,-1.78272299816006e+001,-1.75693251177055e+000

1.28171180414339e+005,-1.78275196699759e+001,-1.78073964680990e+000

1.29960383416997e+005,-1.78278153589857e+001,-1.80485438062242e+000

1.31774562762811e+005,-1.78281171216573e+001,-1.82928029922134e+000

1.33614067108538e+005,-1.78284250294635e+001,-1.85402102706188e+000

1.35479249978003e+005,-1.78287391521903e+001,-1.87908022792202e+000

1.37370469830040e+005,-1.78290595578017e+001,-1.90446160583576e+000

1.39288090127379e+005,-1.78293863123029e+001,-1.93016890608018e+000

1.41232479406504e+005,-1.78297194796010e+001,-1.95620591621830e+000

1.43204011348474e+005,-1.78300591213641e+001,-1.98257646720091e+000

1.45203064850745e+005,-1.78304052968789e+001,-2.00928443452877e+000

1.47230024099979e+005,-1.78307580629077e+001,-2.03633373947620e+000

1.49285278645888e+005,-1.78311174735444e+001,-2.06372835037910e+000

1.51369223476094e+005,-1.78314835800698e+001,-2.09147228398895e+000

1.53482259092041e+005,-1.78318564308075e+001,-2.11956960689450e+000

1.55624791585964e+005,-1.78322360709802e+001,-2.14802443701233e+000

1.57797232718936e+005,-1.78326225425669e+001,-2.17684094514685e+000

1.59999999999999e+005,-1.78330158841612e+001,-2.20602335662414e+000

1.62233516766403e+005,-1.78334161308324e+001,-2.23557595299756e+000

1.64498212264969e+005,-1.78338233139878e+001,-2.26550307382734e+000

1.66794521734578e+005,-1.78342374612393e+001,-2.29580911853496e+000

1.69122886489819e+005,-1.78346585962729e+001,-2.32649854833264e+000

1.71483754005805e+005,-1.78350867387220e+001,-2.35757588823049e+000

1.73877578004168e+005,-1.78355219040460e+001,-2.38904572911668e+000

1.76304818540256e+005,-1.78359641034141e+001,-2.42091272991542e+000

1.78765942091554e+005,-1.78364133435953e+001,-2.45318161982081e+000

1.81261421647326e+005,-1.78368696268537e+001,-2.48585720060464e+000

1.83791736799524e+005,-1.78373329508532e+001,-2.51894434899902e+000

1.86357373834951e+005,-1.78378033085679e+001,-2.55244801915219e+000

1.88958825828723e+005,-1.78382806882025e+001,-2.58637324515566e+000

1.91596592739027e+005,-1.78387650731211e+001,-2.62072514364254e+000

1.94271181503206e+005,-1.78392564417854e+001,-2.65550891645353e+000

1.96983106135185e+005,-1.78397547677049e+001,-2.69072985336710e+000

1.99732887824256e+005,-1.78402600193960e+001,-2.72639333489578e+000

2.02521055035243e+005,-1.78407721603543e+001,-2.76250483514060e+000

2.05348143610063e+005,-1.78412911490381e+001,-2.79906992470437e+000

2.08214696870707e+005,-1.78418169388653e+001,-2.83609427365677e+000

2.11121265723661e+005,-1.78423494782232e+001,-2.87358365455095e+000

2.14068408765776e+005,-1.78428887104919e+001,-2.91154394548553e+000

2.17056692391625e+005,-1.78434345740824e+001,-2.94998113320751e+000

2.20086690902357e+005,-1.78439870024886e+001,-2.98890131625274e+000

2.23158986616063e+005,-1.78445459243553e+001,-3.02831070811859e+000

2.26274169979693e+005,-1.78451112635603e+001,-3.06821564046217e+000

2.29432839682530e+005,-1.78456829393134e+001,-3.10862256632258e+000

2.32635602771247e+005,-1.78462608662703e+001,-3.14953806335592e+000

2.35883074766574e+005,-1.78468449546626e+001,-3.19096883708558e+000

2.39175879781588e+005,-1.78474351104448e+001,-3.23292172415156e+000

2.42514650641661e+005,-1.78480312354561e+001,-3.27540369556390e+000

2.45900029006080e+005,-1.78486332275999e+001,-3.31842185994588e+000

2.49332665491357e+005,-1.78492409810379e+001,-3.36198346676491e+000

2.52813219796278e+005,-1.78498543864018e+001,-3.40609590954384e+000

2.56342360828676e+005,-1.78504733310190e+001,-3.45076672904845e+000

2.59920766833993e+005,-1.78510976991553e+001,-3.49600361644258e+000

2.63549125525621e+005,-1.78517273722717e+001,-3.54181441640587e+000

2.67228134217075e+005,-1.78523622292971e+001,-3.58820713021022e+000

2.70958499956006e+005,-1.78530021469137e+001,-3.63518991874736e+000

2.74740939660078e+005,-1.78536469998579e+001,-3.68277110550098e+000

2.78576180254757e+005,-1.78542966612329e+001,-3.73095917946332e+000

2.82464958813007e+005,-1.78549510028345e+001,-3.77976279798503e+000

2.86408022696948e+005,-1.78556098954890e+001,-3.82919078955846e+000

2.90406129701488e+005,-1.78562732094012e+001,-3.87925215652746e+000

2.94460048199957e+005,-1.78569408145134e+001,-3.92995607772041e+000

2.98570557291775e+005,-1.78576125808733e+001,-3.98131191100489e+000

3.02738446952187e+005,-1.78582883790107e+001,-4.03332919575692e+000

3.06964518184081e+005,-1.78589680803213e+001,-4.08601765524655e+000

3.11249583171928e+005,-1.78596515574574e+001,-4.13938719893403e+000

3.15594465437872e+005,-1.78603386847239e+001,-4.19344792467694e+000

3.19999999999997e+005,-1.78610293384788e+001,-4.24821012084619e+000

3.24467033532806e+005,-1.78617233975374e+001,-4.30368426835035e+000

3.28996424529938e+005,-1.78624207435789e+001,-4.35988104256753e+000

3.33589043469155e+005,-1.78631212615545e+001,-4.41681131518642e+000

3.38245772979638e+005,-1.78638248400953e+001,-4.47448615595606e+000

3.42967508011610e+005,-1.78645313719206e+001,-4.53291683434562e+000

3.47755156008335e+005,-1.78652407542437e+001,-4.59211482111594e+000

3.52609637080511e+005,-1.78659528891756e+001,-4.65209178980634e+000

3.57531884183106e+005,-1.78666676841245e+001,-4.71285961813825e+000

3.62522843294651e+005,-1.78673850521919e+001,-4.77443038933827e+000

3.67583473599047e+005,-1.78681049125621e+001,-4.83681639338554e+000

3.72714747669902e+005,-1.78688271908864e+001,-4.90003012818675e+000

3.77917651657445e+005,-1.78695518196599e+001,-4.96408430068388e+000

3.83193185478053e+005,-1.78702787385904e+001,-5.02899182789749e+000

3.88542363006410e+005,-1.78710078949594e+001,-5.09476583791383e+000

3.93966212270369e+005,-1.78717392439737e+001,-5.16141967081755e+000

3.99465775648511e+005,-1.78724727491075e+001,-5.22896687957837e+000

4.05042110070485e+005,-1.78732083824344e+001,-5.29742123089633e+000

4.10696287220124e+005,-1.78739461249489e+001,-5.36679670601159e+000

4.16429393741414e+005,-1.78746859668770e+001,-5.43710750148576e+000

4.22242531447321e+005,-1.78754279079760e+001,-5.50836802996014e+000

4.28136817531551e+005,-1.78761719578221e+001,-5.58059292089765e+000

4.34113384783250e+005,-1.78769181360874e+001,-5.65379702131465e+000

4.40173381804713e+005,-1.78776664728050e+001,-5.72799539651047e+000

4.46317973232124e+005,-1.78784170086222e+001,-5.80320333079840e+000

4.52548339959385e+005,-1.78791697950422e+001,-5.87943632824691e+000

4.58865679365059e+005,-1.78799248946549e+001,-5.95671011343607e+000

4.65271205542494e+005,-1.78806823813560e+001,-6.03504063223607e+000

4.71766149533147e+005,-1.78814423405551e+001,-6.11444405261330e+000

4.78351759563174e+005,-1.78822048693734e+001,-6.19493676546963e+000

4.85029301283321e+005,-1.78829700768306e+001,-6.27653538552120e+000

4.91800058012158e+005,-1.78837380840226e+001,-6.35925675222166e+000

4.98665330982714e+005,-1.78845090242889e+001,-6.44311793073536e+000

5.05626439592555e+005,-1.78852830433719e+001,-6.52813621296487e+000

5.12684721657352e+005,-1.78860602995670e+001,-6.61432911863731e+000

5.19841533667984e+005,-1.78868409638657e+001,-6.70171439645510e+000

5.27098251051240e+005,-1.78876252200909e+001,-6.79031002531352e+000

5.34456268434150e+005,-1.78884132650255e+001,-6.88013421558998e+000

5.41916999912011e+005,-1.78892053085362e+001,-6.97120541050793e+000

