Freq.,VOut,OutRef

1.00000000000000e+004,-1.57061132848811e+001,-1.11171076172292e-001

1.01395947979003e+004,-1.57061156996960e+001,-1.12722467263861e-001

1.02811382665607e+004,-1.57061181822627e+001,-1.14295493796402e-001

1.04246576084112e+004,-1.57061207344788e+001,-1.15890456888423e-001

1.05701804056138e+004,-1.57061233582934e+001,-1.17507661831145e-001

1.07177346253629e+004,-1.57061260557111e+001,-1.19147418133189e-001

1.08673486252606e+004,-1.57061288287918e+001,-1.20810039583925e-001

1.10190511587661e+004,-1.57061316796529e+001,-1.22495844310373e-001

1.11728713807222e+004,-1.57061346104710e+001,-1.24205154834829e-001

1.13288388529580e+004,-1.57061376234827e+001,-1.25938298137809e-001

1.14869835499703e+004,-1.57061407209875e+001,-1.27695605712856e-001

1.16473358646846e+004,-1.57061439053487e+001,-1.29477413629426e-001

1.18099266142953e+004,-1.57061471789949e+001,-1.31284062600725e-001

1.19747870461893e+004,-1.57061505444230e+001,-1.33115898035463e-001

1.21419488439505e+004,-1.57061540041988e+001,-1.34973270109271e-001

1.23114441334492e+004,-1.57061575609594e+001,-1.36856533827805e-001

1.24833054890161e+004,-1.57061612174158e+001,-1.38766049085647e-001

1.26575659397028e+004,-1.57061649763533e+001,-1.40702180741970e-001

1.28342589756290e+004,-1.57061688406354e+001,-1.42665298677115e-001

1.30134185544193e+004,-1.57061728132048e+001,-1.44655777866390e-001

1.31950791077289e+004,-1.57061768970857e+001,-1.46673998445422e-001

1.33792755478611e+004,-1.57061810953863e+001,-1.48720345781523e-001

1.35660432744767e+004,-1.57061854113011e+001,-1.50795210538599e-001

1.37554181813974e+004,-1.57061898481127e+001,-1.52898988755326e-001

1.39474366635040e+004,-1.57061944091955e+001,-1.55032081907114e-001

1.41421356237309e+004,-1.57061990980163e+001,-1.57194896988725e-001

1.43395524801583e+004,-1.57062039181388e+001,-1.59387846578510e-001

1.45397251732031e+004,-1.57062088732245e+001,-1.61611348918780e-001

1.47426921729110e+004,-1.57062139670367e+001,-1.63865827986527e-001

1.49484924863494e+004,-1.57062192034426e+001,-1.66151713572400e-001

1.51571656651040e+004,-1.57062245864163e+001,-1.68469441354875e-001

1.53687518128801e+004,-1.57062301200414e+001,-1.70819452979627e-001

1.55832915932100e+004,-1.57062358085145e+001,-1.73202196136425e-001

1.58008262372675e+004,-1.57062416561480e+001,-1.75618124640400e-001

1.60213975517924e+004,-1.57062476673729e+001,-1.78067698510169e-001

1.62450479271247e+004,-1.57062538467423e+001,-1.80551384052440e-001

1.64718203453514e+004,-1.57062601989354e+001,-1.83069653937186e-001

1.67017583885674e+004,-1.57062667287595e+001,-1.85622987288797e-001

1.69349062472505e+004,-1.57062734411540e+001,-1.88211869767280e-001

1.71713087287550e+004,-1.57062803411950e+001,-1.90836793646712e-001

1.74110112659224e+004,-1.57062874340971e+001,-1.93498257912256e-001

1.76540599258131e+004,-1.57062947252187e+001,-1.96196768337028e-001

1.79005014185594e+004,-1.57063022200648e+001,-1.98932837575920e-001

1.81503831063432e+004,-1.57063099242920e+001,-2.01706985249105e-001

1.84037530124975e+004,-1.57063178437111e+001,-2.04519738036756e-001

1.86606598307361e+004,-1.57063259842924e+001,-2.07371629765102e-001

1.89211529345119e+004,-1.57063343521694e+001,-2.10263201501163e-001

1.91852823865052e+004,-1.57063429536438e+001,-2.13195001638569e-001

1.94530989482457e+004,-1.57063517951886e+001,-2.16167586001483e-001

1.97246540898671e+004,-1.57063608834542e+001,-2.19181517926353e-001

1.99999999999999e+004,-1.57063702252717e+001,-2.22237368368577e-001

2.02791895958005e+004,-1.57063798276591e+001,-2.25335715986825e-001

2.05622765331213e+004,-1.57063896978246e+001,-2.28477147251717e-001

2.08493152168224e+004,-1.57063998431733e+001,-2.31662256531529e-001

2.11403608112276e+004,-1.57064102713107e+001,-2.34891646202584e-001

2.14354692507258e+004,-1.57064209900494e+001,-2.38165926738227e-001

2.17346972505211e+004,-1.57064320074134e+001,-2.41485716817884e-001

2.20381023175322e+004,-1.57064433316443e+001,-2.44851643422194e-001

2.23457427614443e+004,-1.57064549712068e+001,-2.48264341937076e-001

2.26576777059159e+004,-1.57064669347941e+001,-2.51724456259642e-001

2.29739670999406e+004,-1.57064792313342e+001,-2.55232638898761e-001

2.32946717293690e+004,-1.57064918699963e+001,-2.58789551078907e-001

2.36198532285905e+004,-1.57065048601959e+001,-2.62395862850775e-001

2.39495740923785e+004,-1.57065182116022e+001,-2.66052253193281e-001

2.42838976879009e+004,-1.57065319341442e+001,-2.69759410121076e-001

2.46228882668982e+004,-1.57065460380174e+001,-2.73518030795424e-001

2.49666109780322e+004,-1.57065605336901e+001,-2.77328821630916e-001

2.53151318794055e+004,-1.57065754319113e+001,-2.81192498404693e-001

2.56685179512580e+004,-1.57065907437166e+001,-2.85109786370126e-001

2.60268371088386e+004,-1.57066064804366e+001,-2.89081420362516e-001

2.63901582154578e+004,-1.57066226537035e+001,-2.93108144915685e-001

2.67585510957221e+004,-1.57066392754589e+001,-2.97190714373421e-001

2.71320865489533e+004,-1.57066563579616e+001,-3.01329893000310e-001

2.75108363627948e+004,-1.57066739137954e+001,-3.05526455098395e-001

2.78948733270080e+004,-1.57066919558772e+001,-3.09781185120240e-001

2.82842712474618e+004,-1.57067104974652e+001,-3.14094877784618e-001

2.86791049603164e+004,-1.57067295521670e+001,-3.18468338191877e-001

2.90794503464061e+004,-1.57067491339489e+001,-3.22902381939195e-001

2.94853843458219e+004,-1.57067692571434e+001,-3.27397835240770e-001

2.98969849726987e+004,-1.57067899364595e+001,-3.31955535038993e-001

3.03143313302078e+004,-1.57068111869907e+001,-3.36576329127994e-001

3.07375036257601e+004,-1.57068330242248e+001,-3.41261076267924e-001

3.11665831864199e+004,-1.57068554640530e+001,-3.46010646304817e-001

3.16016524745350e+004,-1.57068785227797e+001,-3.50825920288582e-001

3.20427951035848e+004,-1.57069022171320e+001,-3.55707790593219e-001

3.24900958542493e+004,-1.57069265642700e+001,-3.60657161033678e-001

3.29436406907028e+004,-1.57069515817966e+001,-3.65674946988251e-001

3.34035167771346e+004,-1.57069772877679e+001,-3.70762075515548e-001

3.38698124945009e+004,-1.57070037007036e+001,-3.75919485475914e-001

3.43426174575100e+004,-1.57070308395978e+001,-3.81148127648942e-001

3.48220225318448e+004,-1.57070587239294e+001,-3.86448964856323e-001

3.53081198516260e+004,-1.57070873736735e+001,-3.91822972078499e-001

3.58010028371187e+004,-1.57071168093123e+001,-3.97271136574986e-001

3.63007662126863e+004,-1.57071470518461e+001,-4.02794458005787e-001

3.68075060249948e+004,-1.57071781228057e+001,-4.08393948545942e-001

3.73213196614721e+004,-1.57072100442625e+001,-4.14070633009628e-001

3.78423058690237e+004,-1.57072428388418e+001,-4.19825548963822e-001

3.83705647730104e+004,-1.57072765297337e+001,-4.25659746848937e-001

3.89061978964912e+004,-1.57073111407053e+001,-4.31574290096467e-001

3.94493081797342e+004,-1.57073466961132e+001,-4.37570255242928e-001

3.99999999999998e+004,-1.57073832209153e+001,-4.43648732049913e-001

4.05583791916010e+004,-1.57074207406840e+001,-4.49810823615387e-001

4.11245530662425e+004,-1.57074592816177e+001,-4.56057646492309e-001

4.16986304336447e+004,-1.57074988705542e+001,-4.62390330799494e-001

4.22807216224550e+004,-1.57075395349832e+001,-4.68810020335348e-001

4.28709385014515e+004,-1.57075813030591e+001,-4.75317872689479e-001

4.34693945010421e+004,-1.57076242036141e+001,-4.81915059352697e-001

4.40762046350642e+004,-1.57076682661707e+001,-4.88602765827615e-001

4.46914855228886e+004,-1.57077135209552e+001,-4.95382191733504e-001

4.53153554118317e+004,-1.57077599989102e+001,-5.02254550917401e-001

4.59479341998812e+004,-1.57078077317086e+001,-5.09221071554804e-001

4.65893434587380e+004,-1.57078567517654e+001,-5.16282996255467e-001

4.72397064571810e+004,-1.57079070922520e+001,-5.23441582163908e-001

4.78991481847569e+004,-1.57079587871081e+001,-5.30698101059908e-001

4.85677953758016e+004,-1.57080118710559e+001,-5.38053839455946e-001

4.92457765337964e+004,-1.57080663796117e+001,-5.45510098694614e-001

4.99332219560642e+004,-1.57081223490998e+001,-5.53068195039747e-001

5.06302637588109e+004,-1.57081798166645e+001,-5.60729459770642e-001

5.13370359025159e+004,-1.57082388202834e+001,-5.68495239269745e-001

5.20536742176771e+004,-1.57082993987787e+001,-5.76366895111598e-001

5.27803164309155e+004,-1.57083615918305e+001,-5.84345804145004e-001

5.35171021914442e+004,-1.57084254399883e+001,-5.92433358577190e-001

5.42641730979066e+004,-1.57084909846824e+001,-6.00630966051849e-001

5.50216727255895e+004,-1.57085582682361e+001,-6.08940049725797e-001

5.57897466540159e+004,-1.57086273338760e+001,-6.17362048343562e-001

5.65685424949235e+004,-1.57086982257433e+001,-6.25898416308267e-001

5.73582099206328e+004,-1.57087709889042e+001,-6.34550623747240e-001

5.81589006928121e+004,-1.57088456693590e+001,-6.43320156580169e-001

5.89707686916437e+004,-1.57089223140525e+001,-6.52208516578935e-001

5.97939699453972e+004,-1.57090009708824e+001,-6.61217221426236e-001

6.06286626604156e+004,-1.57090816887076e+001,-6.70347804770517e-001

6.14750072515201e+004,-1.57091645173560e+001,-6.79601816279821e-001

6.23331663728396e+004,-1.57092495076313e+001,-6.88980821688968e-001

6.32033049490698e+004,-1.57093367113199e+001,-6.98486402843445e-001

6.40855902071694e+004,-1.57094261811954e+001,-7.08120157745239e-001

6.49801917084985e+004,-1.57095179710241e+001,-7.17883700588082e-001

6.58872813814055e+004,-1.57096121355681e+001,-7.27778661794232e-001

6.68070335542691e+004,-1.57097087305887e+001,-7.37806688045011e-001

6.77396249890018e+004,-1.57098078128475e+001,-7.47969442311955e-001

6.86852349150199e+004,-1.57099094401073e+001,-7.58268603878658e-001

6.96440450636895e+004,-1.57100136711315e+001,-7.68705868365902e-001

7.06162397032520e+004,-1.57101205656825e+001,-7.79282947748576e-001

7.16020056742374e+004,-1.57102301845179e+001,-7.90001570373607e-001

7.26015324253724e+004,-1.57103425893867e+001,-8.00863480970873e-001

7.36150120499896e+004,-1.57104578430228e+001,-8.11870440664902e-001

7.46426393229441e+004,-1.57105760091376e+001,-8.23024226982536e-001

7.56846117380472e+004,-1.57106971524104e+001,-8.34326633858572e-001

7.67411295460207e+004,-1.57108213384779e+001,-8.45779471637846e-001

7.78123957929823e+004,-1.57109486339207e+001,-8.57384567079414e-001

7.88986163594682e+004,-1.57110791062492e+001,-8.69143763353701e-001

7.99999999999995e+004,-1.57112128238864e+001,-8.81058920041464e-001

8.11167583832018e+004,-1.57113498561490e+001,-8.93131913134293e-001

8.22491061324848e+004,-1.57114902732262e+001,-9.05364635028034e-001

8.33972608672892e+004,-1.57116341461566e+001,-9.17758994523697e-001

8.45614432449099e+004,-1.57117815468019e+001,-9.30316916822257e-001

8.57418770029029e+004,-1.57119325478189e+001,-9.43040343524479e-001

8.69387890020841e+004,-1.57120872226284e+001,-9.55931232630602e-001

8.81524092701283e+004,-1.57122456453812e+001,-9.68991558543802e-001

8.93829710457770e+004,-1.57124078909223e+001,-9.82223312072349e-001

9.06307108236633e+004,-1.57125740347503e+001,-9.95628500441172e-001

9.18958683997622e+004,-1.57127441529763e+001,-1.00920914730296e+000

9.31786869174758e+004,-1.57129183222774e+001,-1.02296729275426e+000

9.44794129143618e+004,-1.57130966198480e+001,-1.03690499336321e+000

9.57982963695136e+004,-1.57132791233482e+001,-1.05102432219529e+000

9.71355907516031e+004,-1.57134659108476e+001,-1.06532736885562e+000

9.84915530675926e+004,-1.57136570607666e+001,-1.07981623953339e+000

9.98664439121282e+004,-1.57138526518138e+001,-1.09449305706006e+000

1.01260527517622e+005,-1.57140527629198e+001,-1.10935996097808e+000

1.02674071805032e+005,-1.57142574731669e+001,-1.12441910761997e+000

1.04107348435354e+005,-1.57144668617154e+001,-1.13967267020517e+000

1.05560632861831e+005,-1.57146810077256e+001,-1.15512283894784e+000

1.07034204382888e+005,-1.57148999902767e+001,-1.17077182118261e+000

1.08528346195813e+005,-1.57151238882803e+001,-1.18662184150936e+000

1.10043345451179e+005,-1.57153527803913e+001,-1.20267514195685e+000

1.11579493308032e+005,-1.57155867449136e+001,-1.21893398216661e+000

1.13137084989847e+005,-1.57158258597027e+001,-1.23540063960051e+000

1.14716419841265e+005,-1.57160702020629e+001,-1.25207740977385e+000

1.16317801385624e+005,-1.57163198486418e+001,-1.26896660651278e+000

1.17941537383287e+005,-1.57165748753199e+001,-1.28607056224072e+000

1.19587939890794e+005,-1.57168353570959e+001,-1.30339162829727e+000

1.21257325320831e+005,-1.57171013679687e+001,-1.32093217528499e+000

1.22950014503040e+005,-1.57173729808149e+001,-1.33869459345406e+000

1.24666332745679e+005,-1.57176502672626e+001,-1.35668129312131e+000

1.26406609898139e+005,-1.57179332975613e+001,-1.37489470512769e+000

1.28171180414339e+005,-1.57182221404479e+001,-1.39333728133732e+000

1.29960383416997e+005,-1.57185168630098e+001,-1.41201149517675e+000

1.31774562762811e+005,-1.57188175305440e+001,-1.43091984222130e+000

1.33614067108538e+005,-1.57191242064125e+001,-1.45006484082848e+000

1.35479249978003e+005,-1.57194369518963e+001,-1.46944903281663e+000

1.37370469830040e+005,-1.57197558260447e+001,-1.48907498420062e+000

1.39288090127379e+005,-1.57200808855232e+001,-1.50894528597497e+000

1.41232479406504e+005,-1.57204121844582e+001,-1.52906255495843e+000

1.43204011348474e+005,-1.57207497742807e+001,-1.54942943469045e+000

1.45203064850745e+005,-1.57210937035674e+001,-1.57004859639218e+000

1.47230024099979e+005,-1.57214440178808e+001,-1.59092273998508e+000

1.49285278645888e+005,-1.57218007596081e+001,-1.61205459517586e+000

1.51369223476094e+005,-1.57221639677997e+001,-1.63344692260556e+000

1.53482259092041e+005,-1.57225336780072e+001,-1.65510251506582e+000

1.55624791585964e+005,-1.57229099221217e+001,-1.67702419878342e+000

1.57797232718936e+005,-1.57232927282132e+001,-1.69921483477586e+000

1.59999999999999e+005,-1.57236821203704e+001,-1.72167732027715e+000

1.62233516766403e+005,-1.57240781185428e+001,-1.74441459023754e+000

1.64498212264969e+005,-1.57244807383849e+001,-1.76742961889530e+000

1.66794521734578e+005,-1.57248899911029e+001,-1.79072542142423e+000

1.69122886489819e+005,-1.57253058833052e+001,-1.81430505565530e+000

1.71483754005805e+005,-1.57257284168566e+001,-1.83817162387411e+000

1.73877578004168e+005,-1.57261575887368e+001,-1.86232827469322e+000

1.76304818540256e+005,-1.57265933909044e+001,-1.88677820500129e+000

1.78765942091554e+005,-1.57270358101673e+001,-1.91152466198505e+000

1.81261421647326e+005,-1.57274848280580e+001,-1.93657094522809e+000

1.83791736799524e+005,-1.57279404207174e+001,-1.96192040888103e+000

1.86357373834951e+005,-1.57284025587861e+001,-1.98757646390634e+000

1.88958825828723e+005,-1.57288712073036e+001,-2.01354258039125e+000

1.91596592739027e+005,-1.57293463256169e+001,-2.03982228993243e+000

1.94271181503206e+005,-1.57298278672991e+001,-2.06641918808592e+000

1.96983106135185e+005,-1.57303157800782e+001,-2.09333693688136e+000

1.99732887824256e+005,-1.57308100057762e+001,-2.12057926740037e+000

2.02521055035243e+005,-1.57313104802611e+001,-2.14814998240985e+000

2.05348143610063e+005,-1.57318171334099e+001,-2.17605295905413e+000

2.08214696870707e+005,-1.57323298890854e+001,-2.20429215159647e+000

2.11121265723661e+005,-1.57328486651248e+001,-2.23287159420991e+000

2.14068408765776e+005,-1.57333733733441e+001,-2.26179540380903e+000

2.17056692391625e+005,-1.57339039195550e+001,-2.29106778292356e+000

2.20086690902357e+005,-1.57344402035972e+001,-2.32069302260369e+000

2.23158986616063e+005,-1.57349821193858e+001,-2.35067550535426e+000

2.26274169979693e+005,-1.57355295549740e+001,-2.38101970809342e+000

2.29432839682530e+005,-1.57360823926314e+001,-2.41173020512898e+000

2.32635602771247e+005,-1.57366405089377e+001,-2.44281167114563e+000

2.35883074766574e+005,-1.57372037748941e+001,-2.47426888419880e+000

2.39175879781588e+005,-1.57377720560482e+001,-2.50610672871115e+000

2.42514650641661e+005,-1.57383452126376e+001,-2.53833019845777e+000

2.45900029006080e+005,-1.57389230997482e+001,-2.57094439954413e+000

2.49332665491357e+005,-1.57395055674889e+001,-2.60395455336196e+000

2.52813219796278e+005,-1.57400924611823e+001,-2.63736599952202e+000

2.56342360828676e+005,-1.57406836215711e+001,-2.67118419875406e+000

2.59920766833993e+005,-1.57412788850394e+001,-2.70541473577009e+000

2.63549125525621e+005,-1.57418780838496e+001,-2.74006332208357e+000

2.67228134217075e+005,-1.57424810463931e+001,-2.77513579877890e+000

2.70958499956006e+005,-1.57430875974561e+001,-2.81063813922485e+000

2.74740939660078e+005,-1.57436975584972e+001,-2.84657645172723e+000

2.78576180254757e+005,-1.57443107479395e+001,-2.88295698211493e+000

2.82464958813007e+005,-1.57449269814734e+001,-2.91978611625278e+000

2.86408022696948e+005,-1.57455460723717e+001,-2.95707038247912e+000

2.90406129701488e+005,-1.57461678318141e+001,-2.99481645396250e+000

2.94460048199957e+005,-1.57467920692226e+001,-3.03303115097123e+000

2.98570557291775e+005,-1.57474185926042e+001,-3.07172144305630e+000

3.02738446952187e+005,-1.57480472089020e+001,-3.11089445114052e+000

3.06964518184081e+005,-1.57486777243532e+001,-3.15055744951359e+000

3.11249583171928e+005,-1.57493099448520e+001,-3.19071786772964e+000

3.15594465437872e+005,-1.57499436763176e+001,-3.23138329240556e+000

3.19999999999997e+005,-1.57505787250653e+001,-3.27256146891910e+000

3.24467033532806e+005,-1.57512148981803e+001,-3.31426030300647e+000

3.28996424529938e+005,-1.57518520038924e+001,-3.35648786225724e+000

3.33589043469155e+005,-1.57524898519509e+001,-3.39925237750911e+000

3.38245772979638e+005,-1.57531282539989e+001,-3.44256224414217e+000

3.42967508011610e+005,-1.57537670239447e+001,-3.48642602327386e+000

3.47755156008335e+005,-1.57544059783305e+001,-3.53085244285748e+000

3.52609637080511e+005,-1.57550449366969e+001,-3.57585039868570e+000

3.57531884183106e+005,-1.57556837219423e+001,-3.62142895530072e+000

3.62522843294651e+005,-1.57563221606749e+001,-3.66759734681936e+000

3.67583473599047e+005,-1.57569600835589e+001,-3.71436497766927e+000

3.72714747669902e+005,-1.57575973256513e+001,-3.76174142324814e+000

3.77917651657445e+005,-1.57582337267306e+001,-3.80973643050454e+000

3.83193185478053e+005,-1.57588691316151e+001,-3.85835991844927e+000

3.88542363006410e+005,-1.57595033904706e+001,-3.90762197860069e+000

3.93966212270369e+005,-1.57601363591068e+001,-3.95753287537058e+000

3.99465775648511e+005,-1.57607678992622e+001,-4.00810304639534e+000

4.05042110070485e+005,-1.57613978788758e+001,-4.05934310281977e+000

4.10696287220124e+005,-1.57620261723460e+001,-4.11126382954078e+000

4.16429393741414e+005,-1.57626526607770e+001,-4.16387618541335e+000

4.22242531447321e+005,-1.57632772322097e+001,-4.21719130343187e+000

4.28136817531551e+005,-1.57638997818400e+001,-4.27122049088758e+000

4.34113384783250e+005,-1.57645202122221e+001,-4.32597522951224e+000

4.40173381804713e+005,-1.57651384334577e+001,-4.38146717561481e+000

4.46317973232124e+005,-1.57657543633708e+001,-4.43770816021638e+000

4.52548339959385e+005,-1.57663679276676e+001,-4.49471018919162e+000

4.58865679365059e+005,-1.57669790600822e+001,-4.55248544342282e+000

4.65271205542494e+005,-1.57675877025083e+001,-4.61104627897219e+000

4.71766149533147e+005,-1.57681938051167e+001,-4.67040522728146e+000

4.78351759563174e+005,-1.57687973264587e+001,-4.73057499540224e+000

4.85029301283321e+005,-1.57693982335559e+001,-4.79156846626463e+000

4.91800058012158e+005,-1.57699965019778e+001,-4.85339869898909e+000

4.98665330982714e+005,-1.57705921159057e+001,-4.91607892924961e+000

5.05626439592555e+005,-1.57711850681842e+001,-4.97962256968851e+000

5.12684721657352e+005,-1.57717753603622e+001,-5.04404321039442e+000

5.19841533667984e+005,-1.57723630027211e+001,-5.10935461944174e+000

5.27098251051240e+005,-1.57729480142938e+001,-5.17557074350203e+000

5.34456268434150e+005,-1.57735304228720e+001,-5.24270570852632e+000

5.41916999912011e+005,-1.57741102650060e+001,-5.31077382050527e+000

