Freq.,VOut,OutRef

1.00000000000000e+004,-6.15638754271644e+000,-3.99385001087723e-002

1.01395947979003e+004,-6.15639097538524e+000,-4.04952962475759e-002

1.02811382665607e+004,-6.15639450435942e+000,-4.10598342448792e-002

1.04246576084112e+004,-6.15639813233503e+000,-4.16322208723951e-002

1.05701804056138e+004,-6.15640186208349e+000,-4.22125643347857e-002

1.07177346253629e+004,-6.15640569645296e+000,-4.28009742934642e-002

1.08673486252606e+004,-6.15640963837165e+000,-4.33975618762871e-002

1.10190511587661e+004,-6.15641369084887e+000,-4.40024397030522e-002

1.11728713807222e+004,-6.15641785697780e+000,-4.46157219000803e-002

1.13288388529580e+004,-6.15642213993784e+000,-4.52375241184405e-002

1.14869835499703e+004,-6.15642654299694e+000,-4.58679635529388e-002

1.16473358646846e+004,-6.15643106951300e+000,-4.65071589666703e-002

1.18099266142953e+004,-6.15643572293962e+000,-4.71552306896438e-002

1.19747870461893e+004,-6.15644050682330e+000,-4.78123006716214e-002

1.21419488439505e+004,-6.15644542481191e+000,-4.84784924635322e-002

1.23114441334492e+004,-6.15645048065293e+000,-4.91539312655547e-002

1.24833054890161e+004,-6.15645567819896e+000,-4.98387439292457e-002

1.26575659397028e+004,-6.15646102140888e+000,-5.05330589866631e-002

1.28342589756290e+004,-6.15646651435191e+000,-5.12370066633785e-002

1.30134185544193e+004,-6.15647216120935e+000,-5.19507189061600e-002

1.31950791077289e+004,-6.15647796628073e+000,-5.26743293823361e-002

1.33792755478611e+004,-6.15648393398197e+000,-5.34079735328385e-002

1.35660432744767e+004,-6.15649006885241e+000,-5.41517885668948e-002

1.37554181813974e+004,-6.15649637555847e+000,-5.49059134800134e-002

1.39474366635040e+004,-6.15650285889426e+000,-5.56704890924345e-002

1.41421356237309e+004,-6.15650952378729e+000,-5.64456580548678e-002

1.43395524801583e+004,-6.15651637530054e+000,-5.72315648789296e-002

1.45397251732031e+004,-6.15652341863884e+000,-5.80283559395146e-002

1.47426921729110e+004,-6.15653065914832e+000,-5.88361795238140e-002

1.49484924863494e+004,-6.15653810232542e+000,-5.96551858177293e-002

1.51571656651040e+004,-6.15654575381692e+000,-6.04855269529182e-002

1.53687518128801e+004,-6.15655361942602e+000,-6.13273570135007e-002

1.55832915932100e+004,-6.15656170511580e+000,-6.21808320618983e-002

1.58008262372675e+004,-6.15657001701325e+000,-6.30461101605203e-002

1.60213975517924e+004,-6.15657856141566e+000,-6.39233513798266e-002

1.62450479271247e+004,-6.15658734479228e+000,-6.48127178373301e-002

1.64718203453514e+004,-6.15659637379118e+000,-6.57143737032628e-002

1.67017583885674e+004,-6.15660565524322e+000,-6.66284852262755e-002

1.69349062472505e+004,-6.15661519616735e+000,-6.75552207511421e-002

1.71713087287550e+004,-6.15662500377508e+000,-6.84947507426604e-002

1.74110112659224e+004,-6.15663508547609e+000,-6.94472478014527e-002

1.76540599258131e+004,-6.15664544888310e+000,-7.04128866883830e-002

1.79005014185594e+004,-6.15665610181800e+000,-7.13918443381861e-002

1.81503831063432e+004,-6.15666705231633e+000,-7.23842998864505e-002

1.84037530124975e+004,-6.15667830863515e+000,-7.33904346753961e-002

1.86606598307361e+004,-6.15668987925584e+000,-7.44104322919146e-002

1.89211529345119e+004,-6.15670177289230e+000,-7.54444785727394e-002

1.91852823865052e+004,-6.15671399849650e+000,-7.64927616268496e-002

1.94530989482457e+004,-6.15672656526530e+000,-7.75554718505721e-002

1.97246540898671e+004,-6.15673948264555e+000,-7.86328019541055e-002

1.99999999999999e+004,-6.15675276034195e+000,-7.97249469716576e-002

2.02791895958005e+004,-6.15676640832306e+000,-8.08321042834435e-002

2.05622765331213e+004,-6.15678043682948e+000,-8.19544736246203e-002

2.08493152168224e+004,-6.15679485637876e+000,-8.30922571172785e-002

2.11403608112276e+004,-6.15680967777555e+000,-8.42456592663373e-002

2.14354692507258e+004,-6.15682491211643e+000,-8.54148869935329e-002

2.17346972505211e+004,-6.15684057079901e+000,-8.66001496436169e-002

2.20381023175322e+004,-6.15685666552879e+000,-8.78016590029446e-002

2.23457427614443e+004,-6.15687320832908e+000,-8.90196293041870e-002

2.26576777059159e+004,-6.15689021154644e+000,-9.02542772555282e-002

2.29739670999406e+004,-6.15690768786164e+000,-9.15058220378880e-002

2.32946717293690e+004,-6.15692565029567e+000,-9.27744853331439e-002

2.36198532285905e+004,-6.15694411222158e+000,-9.40604913164483e-002

2.39495740923785e+004,-6.15696308737065e+000,-9.53640666842886e-002

2.42838976879009e+004,-6.15698258984287e+000,-9.66854406566587e-002

2.46228882668982e+004,-6.15700263411639e+000,-9.80248449849039e-002

2.49666109780322e+004,-6.15702323505678e+000,-9.93825139624173e-002

2.53151318794055e+004,-6.15704440792692e+000,-1.00758684431422e-001

2.56685179512580e+004,-6.15706616839667e+000,-1.02153595790719e-001

2.60268371088386e+004,-6.15708853255456e+000,-1.03567489991947e-001

2.63901582154578e+004,-6.15711151691591e+000,-1.05000611558068e-001

2.67585510957221e+004,-6.15713513843541e+000,-1.06453207573892e-001

2.71320865489533e+004,-6.15715941451719e+000,-1.07925527693393e-001

2.75108363627948e+004,-6.15718436302600e+000,-1.09417824138716e-001

2.78948733270080e+004,-6.15721000229906e+000,-1.10930351696297e-001

2.82842712474618e+004,-6.15723635115730e+000,-1.12463367716080e-001

2.86791049603164e+004,-6.15726342891692e+000,-1.14017132109182e-001

2.90794503464061e+004,-6.15729125540175e+000,-1.15591907339939e-001

2.94853843458219e+004,-6.15731985095613e+000,-1.17187958414512e-001

2.98969849726987e+004,-6.15734923645606e+000,-1.18805552880837e-001

3.03143313302078e+004,-6.15737943332367e+000,-1.20444960805007e-001

3.07375036257601e+004,-6.15741046353877e+000,-1.22106454770350e-001

3.11665831864199e+004,-6.15744234965275e+000,-1.23790309854811e-001

3.16016524745350e+004,-6.15747511480267e+000,-1.25496803611791e-001

3.20427951035848e+004,-6.15750878272372e+000,-1.27226216058330e-001

3.24900958542493e+004,-6.15754337776450e+000,-1.28978829644641e-001

3.29436406907028e+004,-6.15757892490008e+000,-1.30754929236976e-001

3.34035167771346e+004,-6.15761544974749e+000,-1.32554802084662e-001

3.38698124945009e+004,-6.15765297858023e+000,-1.34378737790766e-001

3.43426174575100e+004,-6.15769153834191e+000,-1.36227028288769e-001

3.48220225318448e+004,-6.15773115666399e+000,-1.38099967790526e-001

3.53081198516260e+004,-6.15777186187858e+000,-1.39997852764681e-001

3.58010028371187e+004,-6.15781368303560e+000,-1.41920981884504e-001

3.63007662126863e+004,-6.15785664991784e+000,-1.43869655989574e-001

3.68075060249948e+004,-6.15790079305794e+000,-1.45844178030805e-001

3.73213196614721e+004,-6.15794614375334e+000,-1.47844853027151e-001

3.78423058690237e+004,-6.15799273408404e+000,-1.49871988002489e-001

3.83705647730104e+004,-6.15804059692917e+000,-1.51925891927377e-001

3.89061978964912e+004,-6.15808976598190e+000,-1.54006875666978e-001

3.94493081797342e+004,-6.15814027576951e+000,-1.56115251895796e-001

3.99999999999998e+004,-6.15819216166860e+000,-1.58251335038374e-001

4.05583791916010e+004,-6.15824545992239e+000,-1.60415441194280e-001

4.11245530662425e+004,-6.15830020765940e+000,-1.62607888048875e-001

4.16986304336447e+004,-6.15835644290999e+000,-1.64828994796535e-001

4.22807216224550e+004,-6.15841420462497e+000,-1.67079082044547e-001

4.28709385014515e+004,-6.15847353269248e+000,-1.69358471723420e-001

4.34693945010421e+004,-6.15853446795731e+000,-1.71667486979007e-001

4.40762046350642e+004,-6.15859705223749e+000,-1.74006452074566e-001

4.46914855228886e+004,-6.15866132834337e+000,-1.76375692273501e-001

4.53153554118317e+004,-6.15872734009472e+000,-1.78775533727763e-001

4.59479341998812e+004,-6.15879513234046e+000,-1.81206303345058e-001

4.65893434587380e+004,-6.15886475097498e+000,-1.83668328669439e-001

4.72397064571810e+004,-6.15893624295697e+000,-1.86161937741838e-001

4.78991481847569e+004,-6.15900965632804e+000,-1.88687458952551e-001

4.85677953758016e+004,-6.15908504022937e+000,-1.91245220900040e-001

4.92457765337964e+004,-6.15916244492011e+000,-1.93835552231294e-001

4.99332219560642e+004,-6.15924192179513e+000,-1.96458781477270e-001

5.06302637588109e+004,-6.15932352340201e+000,-1.99115236884572e-001

5.13370359025159e+004,-6.15940730345861e+000,-2.01805246235185e-001

5.20536742176771e+004,-6.15949331686908e+000,-2.04529136666153e-001

5.27803164309155e+004,-6.15958161974227e+000,-2.07287234463737e-001

5.35171021914442e+004,-6.15967226940561e+000,-2.10079864876980e-001

5.42641730979066e+004,-6.15976532442293e+000,-2.12907351894380e-001

5.50216727255895e+004,-6.15986084460807e+000,-2.15770018036200e-001

5.57897466540159e+004,-6.15995889104158e+000,-2.18668184115719e-001

5.65685424949235e+004,-6.16005952608353e+000,-2.21602169012233e-001

5.73582099206328e+004,-6.16016281338772e+000,-2.24572289422032e-001

5.81589006928121e+004,-6.16026881791471e+000,-2.27578859604006e-001

5.89707686916437e+004,-6.16037760594409e+000,-2.30622191116005e-001

5.97939699453972e+004,-6.16048924508565e+000,-2.33702592542450e-001

6.06286626604156e+004,-6.16060380429021e+000,-2.36820369210219e-001

6.14750072515201e+004,-6.16072135385947e+000,-2.39975822894143e-001

6.23331663728396e+004,-6.16084196545373e+000,-2.43169251519094e-001

6.32033049490698e+004,-6.16096571210047e+000,-2.46400948841312e-001

6.40855902071694e+004,-6.16109266819950e+000,-2.49671204132431e-001

6.49801917084985e+004,-6.16122290952899e+000,-2.52980301838782e-001

6.58872813814055e+004,-6.16135651324875e+000,-2.56328521241799e-001

6.68070335542691e+004,-6.16149355790176e+000,-2.59716136107420e-001

6.77396249890018e+004,-6.16163412341611e+000,-2.63143414314154e-001

6.86852349150199e+004,-6.16177829110258e+000,-2.66610617487388e-001

6.96440450636895e+004,-6.16192614365284e+000,-2.70118000608125e-001

7.06162397032520e+004,-6.16207776513461e+000,-2.73665811619484e-001

7.16020056742374e+004,-6.16223324098442e+000,-2.77254291024835e-001

7.26015324253724e+004,-6.16239265799951e+000,-2.80883671468088e-001

7.36150120499896e+004,-6.16255610432622e+000,-2.84554177313632e-001

7.46426393229441e+004,-6.16272366944809e+000,-2.88266024201461e-001

7.56846117380472e+004,-6.16289544416786e+000,-2.92019418616754e-001

7.67411295460207e+004,-6.16307152059132e+000,-2.95814557422399e-001

7.78123957929823e+004,-6.16325199210475e+000,-2.99651627404615e-001

7.88986163594682e+004,-6.16343695335136e+000,-3.03530804799570e-001

7.99999999999995e+004,-6.16362650020492e+000,-3.07452254809591e-001

8.11167583832018e+004,-6.16382072973861e+000,-3.11416131121477e-001

8.22491061324848e+004,-6.16401974019255e+000,-3.15422575406237e-001

8.33972608672892e+004,-6.16422363093673e+000,-3.19471716818546e-001

8.45614432449099e+004,-6.16443250243044e+000,-3.23563671489291e-001

8.57418770029029e+004,-6.16464645617826e+000,-3.27698542012265e-001

8.69387890020841e+004,-6.16486559468251e+000,-3.31876416921336e-001

8.81524092701283e+004,-6.16509002139041e+000,-3.36097370174251e-001

8.93829710457770e+004,-6.16531984063892e+000,-3.40361460619708e-001

9.06307108236633e+004,-6.16555515759370e+000,-3.44668731472901e-001

9.18958683997622e+004,-6.16579607818424e+000,-3.49019209785549e-001

9.31786869174758e+004,-6.16604270903437e+000,-3.53412905915556e-001

9.44794129143618e+004,-6.16629515738829e+000,-3.57849812996480e-001

9.57982963695136e+004,-6.16655353103044e+000,-3.62329906416431e-001

9.71355907516031e+004,-6.16681793820277e+000,-3.66853143286190e-001

9.84915530675926e+004,-6.16708848751370e+000,-3.71419461929754e-001

9.98664439121282e+004,-6.16736528784507e+000,-3.76028781364740e-001

1.01260527517622e+005,-6.16764844825072e+000,-3.80681000804741e-001

1.02674071805032e+005,-6.16793807785104e+000,-3.85375999165544e-001

1.04107348435354e+005,-6.16823428572278e+000,-3.90113634574806e-001

1.05560632861831e+005,-6.16853718078091e+000,-3.94893743911174e-001

1.07034204382888e+005,-6.16884687165583e+000,-3.99716142348022e-001

1.08528346195813e+005,-6.16916346656534e+000,-4.04580622914949e-001

1.10043345451179e+005,-6.16948707317937e+000,-4.09486956082416e-001

1.11579493308032e+005,-6.16981779847917e+000,-4.14434889367655e-001

1.13137084989847e+005,-6.17015574861098e+000,-4.19424146960371e-001

1.14716419841265e+005,-6.17050102873299e+000,-4.24454429379226e-001

1.16317801385624e+005,-6.17085374285605e+000,-4.29525413157758e-001

1.17941537383287e+005,-6.17121399367907e+000,-4.34636750558381e-001

1.19587939890794e+005,-6.17158188241802e+000,-4.39788069321025e-001

1.21257325320831e+005,-6.17195750862861e+000,-4.44978972452925e-001

1.22950014503040e+005,-6.17234097002385e+000,-4.50209038050987e-001

1.24666332745679e+005,-6.17273236228494e+000,-4.55477819175019e-001

1.26406609898139e+005,-6.17313177886750e+000,-4.60784843757304e-001

1.28171180414339e+005,-6.17353931080145e+000,-4.66129614567738e-001

1.29960383416997e+005,-6.17395504648633e+000,-4.71511609225054e-001

1.31774562762811e+005,-6.17437907148032e+000,-4.76930280269726e-001

1.33614067108538e+005,-6.17481146828645e+000,-4.82385055281616e-001

1.35479249978003e+005,-6.17525231613182e+000,-4.87875337072777e-001

1.37370469830040e+005,-6.17570169074526e+000,-4.93400503927283e-001

1.39288090127379e+005,-6.17615966412830e+000,-4.98959909923419e-001

1.41232479406504e+005,-6.17662630432466e+000,-5.04552885313901e-001

1.43204011348474e+005,-6.17710167518608e+000,-5.10178736980259e-001

1.45203064850745e+005,-6.17758583613522e+000,-5.15836748963362e-001

1.47230024099979e+005,-6.17807884192626e+000,-5.21526183073175e-001

1.49285278645888e+005,-6.17858074240471e+000,-5.27246279572874e-001

1.51369223476094e+005,-6.17909158226559e+000,-5.32996257947700e-001

1.53482259092041e+005,-6.17961140081087e+000,-5.38775317762225e-001

1.55624791585964e+005,-6.18014023170751e+000,-5.44582639598762e-001

1.57797232718936e+005,-6.18067810274615e+000,-5.50417386087895e-001

1.59999999999999e+005,-6.18122503560182e+000,-5.56278703025931e-001

1.62233516766403e+005,-6.18178104559591e+000,-5.62165720588562e-001

1.64498212264969e+005,-6.18234614146182e+000,-5.68077554636374e-001

1.66794521734578e+005,-6.18292032511489e+000,-5.74013308109229e-001

1.69122886489819e+005,-6.18350359142628e+000,-5.79972072521001e-001

1.71483754005805e+005,-6.18409592800214e+000,-5.85952929550705e-001

1.73877578004168e+005,-6.18469731497018e+000,-5.91954952721123e-001

1.76304818540256e+005,-6.18530772477285e+000,-5.97977209177386e-001

1.78765942091554e+005,-6.18592712196862e+000,-6.04018761558752e-001

1.81261421647326e+005,-6.18655546304271e+000,-6.10078669963283e-001

1.83791736799524e+005,-6.18719269622792e+000,-6.16155993999797e-001

1.86357373834951e+005,-6.18783876133630e+000,-6.22249794932996e-001

1.88958825828723e+005,-6.18849358960243e+000,-6.28359137916429e-001

1.91596592739027e+005,-6.18915710354028e+000,-6.34483094303288e-001

1.94271181503206e+005,-6.18982921681293e+000,-6.40620744045757e-001

1.96983106135185e+005,-6.19050983411820e+000,-6.46771178162563e-001

1.99732887824256e+005,-6.19119885108900e+000,-6.52933501284043e-001

2.02521055035243e+005,-6.19189615421005e+000,-6.59106834266296e-001

2.05348143610063e+005,-6.19260162075233e+000,-6.65290316864978e-001

2.08214696870707e+005,-6.19331511872566e+000,-6.71483110465816e-001

2.11121265723661e+005,-6.19403650684962e+000,-6.77684400868391e-001

2.14068408765776e+005,-6.19476563454454e+000,-6.83893401113502e-001

2.17056692391625e+005,-6.19550234194235e+000,-6.90109354347333e-001

2.20086690902357e+005,-6.19624645991823e+000,-6.96331536717568e-001

2.23158986616063e+005,-6.19699781014379e+000,-7.02559260289549e-001

2.26274169979693e+005,-6.19775620516173e+000,-7.08791875981005e-001

2.29432839682530e+005,-6.19852144848312e+000,-7.15028776497007e-001

2.32635602771247e+005,-6.19929333470592e+000,-7.21269399271253e-001

2.35883074766574e+005,-6.20007164965787e+000,-7.27513229387666e-001

2.39175879781588e+005,-6.20085617056072e+000,-7.33759802485875e-001

2.42514650641661e+005,-6.20164666621774e+000,-7.40008707638990e-001

2.45900029006080e+005,-6.20244289722433e+000,-7.46259590186704e-001

2.49332665491357e+005,-6.20324461620022e+000,-7.52512154528420e-001

2.52813219796278e+005,-6.20405156804484e+000,-7.58766166851224e-001

2.56342360828676e+005,-6.20486349021438e+000,-7.65021457795314e-001

2.59920766833993e+005,-6.20568011301997e+000,-7.71277925041082e-001

2.63549125525621e+005,-6.20650115994707e+000,-7.77535535812362e-001

2.67228134217075e+005,-6.20732634799440e+000,-7.83794329287289e-001

2.70958499956006e+005,-6.20815538803366e+000,-7.90054418897580e-001

2.74740939660078e+005,-6.20898798518592e+000,-7.96315994528914e-001

2.78576180254757e+005,-6.20982383921719e+000,-8.02579324590937e-001

2.82464958813007e+005,-6.21066264494973e+000,-8.08844757965320e-001

2.86408022696948e+005,-6.21150409268833e+000,-8.15112725821333e-001

2.90406129701488e+005,-6.21234786866176e+000,-8.21383743284341e-001

2.94460048199957e+005,-6.21319365547614e+000,-8.27658410963067e-001

2.98570557291775e+005,-6.21404113258034e+000,-8.33937416320318e-001

3.02738446952187e+005,-6.21488997674082e+000,-8.40221534888779e-001

3.06964518184081e+005,-6.21573986252546e+000,-8.46511631323774e-001

3.11249583171928e+005,-6.21659046279426e+000,-8.52808660289930e-001

3.15594465437872e+005,-6.21744144919527e+000,-8.59113667181699e-001

3.19999999999997e+005,-6.21829249266444e+000,-8.65427788671809e-001

3.24467033532806e+005,-6.21914326392773e+000,-8.71752253088127e-001

3.28996424529938e+005,-6.21999343400350e+000,-8.78088380619641e-001

3.33589043469155e+005,-6.22084267470378e+000,-8.84437583350007e-001

3.38245772979638e+005,-6.22169065913346e+000,-8.90801365116378e-001

3.42967508011610e+005,-6.22253706218382e+000,-8.97181321205955e-001

3.47755156008335e+005,-6.22338156102121e+000,-9.03579137878963e-001

3.52609637080511e+005,-6.22422383556770e+000,-9.09996591730047e-001

3.57531884183106e+005,-6.22506356897271e+000,-9.16435548890966e-001

3.62522843294651e+005,-6.22590044807386e+000,-9.22897964077177e-001

3.67583473599047e+005,-6.22673416384681e+000,-9.29385879479860e-001

3.72714747669902e+005,-6.22756441183994e+000,-9.35901423524292e-001

3.77917651657445e+005,-6.22839089259660e+000,-9.42446809477284e-001

3.83193185478053e+005,-6.22921331205999e+000,-9.49024333932458e-001

3.88542363006410e+005,-6.23003138196165e+000,-9.55636375169834e-001

3.93966212270369e+005,-6.23084482019212e+000,-9.62285391397314e-001

3.99465775648511e+005,-6.23165335115246e+000,-9.68973918888221e-001

4.05042110070485e+005,-6.23245670608619e+000,-9.75704570017013e-001

4.10696287220124e+005,-6.23325462339070e+000,-9.82480031206931e-001

4.16429393741414e+005,-6.23404684890760e+000,-9.89303060795232e-001

4.22242531447321e+005,-6.23483313619117e+000,-9.96176486828891e-001

4.28136817531551e+005,-6.23561324675497e+000,-1.00310320479558e+000

4.34113384783250e+005,-6.23638695029584e+000,-1.01008617530514e+000

4.40173381804713e+005,-6.23715402489540e+000,-1.01712842172423e+000

4.46317973232124e+005,-6.23791425719857e+000,-1.02423302777951e+000

4.52548339959385e+005,-6.23866744256891e+000,-1.03140313513848e+000

4.58865679365059e+005,-6.23941338522210e+000,-1.03864194096938e+000

4.65271205542494e+005,-6.24015189833584e+000,-1.04595269550057e+000

4.71766149533147e+005,-6.24088280413756e+000,-1.05333869958217e+000

4.78351759563174e+005,-6.24160593397042e+000,-1.06080330225579e+000

4.85029301283321e+005,-6.24232112833719e+000,-1.06834989834719e+000

4.91800058012158e+005,-6.24302823692300e+000,-1.07598192608680e+000

4.98665330982714e+005,-6.24372711859764e+000,-1.08370286476336e+000

5.05626439592555e+005,-6.24441764139728e+000,-1.09151623242439e+000

5.12684721657352e+005,-6.24509968248756e+000,-1.09942558362032e+000

5.19841533667984e+005,-6.24577312810722e+000,-1.10743450721099e+000

5.27098251051240e+005,-6.24643787349413e+000,-1.11554662423046e+000

5.34456268434150e+005,-6.24709382279457e+000,-1.12376558581964e+000

5.41916999912011e+005,-6.24774088895532e+000,-1.13209507123453e+000

