Freq.,VOut,OutRef

1.00000000000000e+004,-1.46751560210421e+001,-1.56518473965933e-001

1.01395947979003e+004,-1.46751573391573e+001,-1.58703128063550e-001

1.02811382665607e+004,-1.46751586942575e+001,-1.60918267669758e-001

1.04246576084112e+004,-1.46751600873787e+001,-1.63164317873244e-001

1.05701804056138e+004,-1.46751615195849e+001,-1.65441709681243e-001

1.07177346253629e+004,-1.46751629919709e+001,-1.67750880091867e-001

1.08673486252606e+004,-1.46751645056614e+001,-1.70092272184179e-001

1.10190511587661e+004,-1.46751660618122e+001,-1.72466335201645e-001

1.11728713807222e+004,-1.46751676616117e+001,-1.74873524632284e-001

1.13288388529580e+004,-1.46751693062813e+001,-1.77314302299080e-001

1.14869835499703e+004,-1.46751709970766e+001,-1.79789136446815e-001

1.16473358646846e+004,-1.46751727352877e+001,-1.82298501829718e-001

1.18099266142953e+004,-1.46751745222412e+001,-1.84842879800267e-001

1.19747870461893e+004,-1.46751763593000e+001,-1.87422758405029e-001

1.21419488439505e+004,-1.46751782478655e+001,-1.90038632469397e-001

1.23114441334492e+004,-1.46751801893774e+001,-1.92691003697358e-001

1.24833054890161e+004,-1.46751821853161e+001,-1.95380380762226e-001

1.26575659397028e+004,-1.46751842372026e+001,-1.98107279405945e-001

1.28342589756290e+004,-1.46751863466007e+001,-2.00872222531183e-001

1.30134185544193e+004,-1.46751885151169e+001,-2.03675740307269e-001

1.31950791077289e+004,-1.46751907444032e+001,-2.06518370261179e-001

1.33792755478611e+004,-1.46751930361566e+001,-2.09400657388048e-001

1.35660432744767e+004,-1.46751953921217e+001,-2.12323154245152e-001

1.37554181813974e+004,-1.46751978140913e+001,-2.15286421061132e-001

1.39474366635040e+004,-1.46752003039078e+001,-2.18291025840332e-001

1.41421356237309e+004,-1.46752028634650e+001,-2.21337544467045e-001

1.43395524801583e+004,-1.46752054947089e+001,-2.24426560816492e-001

1.45397251732031e+004,-1.46752081996392e+001,-2.27558666862728e-001

1.47426921729110e+004,-1.46752109803113e+001,-2.30734462789915e-001

1.49484924863494e+004,-1.46752138388373e+001,-2.33954557104201e-001

1.51571656651040e+004,-1.46752167773877e+001,-2.37219566748253e-001

1.53687518128801e+004,-1.46752197981930e+001,-2.40530117216349e-001

1.55832915932100e+004,-1.46752229035451e+001,-2.43886842672144e-001

1.58008262372675e+004,-1.46752260957997e+001,-2.47290386063461e-001

1.60213975517924e+004,-1.46752293773770e+001,-2.50741399247427e-001

1.62450479271247e+004,-1.46752327507642e+001,-2.54240543107840e-001

1.64718203453514e+004,-1.46752362185168e+001,-2.57788487681082e-001

1.67017583885674e+004,-1.46752397832613e+001,-2.61385912277094e-001

1.69349062472505e+004,-1.46752434476958e+001,-2.65033505609171e-001

1.71713087287550e+004,-1.46752472145931e+001,-2.68731965921981e-001

1.74110112659224e+004,-1.46752510868019e+001,-2.72482001117917e-001

1.76540599258131e+004,-1.46752550672496e+001,-2.76284328889494e-001

1.79005014185594e+004,-1.46752591589439e+001,-2.80139676853819e-001

1.81503831063432e+004,-1.46752633649749e+001,-2.84048782685671e-001

1.84037530124975e+004,-1.46752676885172e+001,-2.88012394256313e-001

1.86606598307361e+004,-1.46752721328332e+001,-2.92031269765220e-001

1.89211529345119e+004,-1.46752767012739e+001,-2.96106177887352e-001

1.91852823865052e+004,-1.46752813972824e+001,-3.00237897910649e-001

1.94530989482457e+004,-1.46752862243960e+001,-3.04427219878682e-001

1.97246540898671e+004,-1.46752911862482e+001,-3.08674944739312e-001

1.99999999999999e+004,-1.46752962865724e+001,-3.12981884487803e-001

2.02791895958005e+004,-1.46753015292033e+001,-3.17348862317897e-001

2.05622765331213e+004,-1.46753069180804e+001,-3.21776712771581e-001

2.08493152168224e+004,-1.46753124572504e+001,-3.26266281891836e-001

2.11403608112276e+004,-1.46753181508700e+001,-3.30818427378203e-001

2.14354692507258e+004,-1.46753240032091e+001,-3.35434018739818e-001

2.17346972505211e+004,-1.46753300186535e+001,-3.40113937457590e-001

2.20381023175322e+004,-1.46753362017080e+001,-3.44859077140667e-001

2.23457427614443e+004,-1.46753425569993e+001,-3.49670343692714e-001

2.26576777059159e+004,-1.46753490892796e+001,-3.54548655471915e-001

2.29739670999406e+004,-1.46753558034297e+001,-3.59494943458403e-001

2.32946717293690e+004,-1.46753627044618e+001,-3.64510151425149e-001

2.36198532285905e+004,-1.46753697975239e+001,-3.69595236102376e-001

2.39495740923785e+004,-1.46753770879023e+001,-3.74751167356647e-001

2.42838976879009e+004,-1.46753845810258e+001,-3.79978928358137e-001

2.46228882668982e+004,-1.46753922824692e+001,-3.85279515762254e-001

2.49666109780322e+004,-1.46754001979571e+001,-3.90653939884166e-001

2.53151318794055e+004,-1.46754083333671e+001,-3.96103224882855e-001

2.56685179512580e+004,-1.46754166947348e+001,-4.01628408940451e-001

2.60268371088386e+004,-1.46754252882567e+001,-4.07230544448738e-001

2.63901582154578e+004,-1.46754341202952e+001,-4.12910698194382e-001

2.67585510957221e+004,-1.46754431973820e+001,-4.18669951549956e-001

2.71320865489533e+004,-1.46754525262227e+001,-4.24509400664534e-001

2.75108363627948e+004,-1.46754621137013e+001,-4.30430156655486e-001

2.78948733270080e+004,-1.46754719668845e+001,-4.36433345804305e-001

2.82842712474618e+004,-1.46754820930259e+001,-4.42520109757522e-001

2.86791049603164e+004,-1.46754924995712e+001,-4.48691605720945e-001

2.90794503464061e+004,-1.46755031941624e+001,-4.54949006667646e-001

2.94853843458219e+004,-1.46755141846432e+001,-4.61293501537281e-001

2.98969849726987e+004,-1.46755254790633e+001,-4.67726295447259e-001

3.03143313302078e+004,-1.46755370856837e+001,-4.74248609897652e-001

3.07375036257601e+004,-1.46755490129819e+001,-4.80861682984581e-001

3.11665831864199e+004,-1.46755612696570e+001,-4.87566769613233e-001

3.16016524745350e+004,-1.46755738646350e+001,-4.94365141713031e-001

3.20427951035848e+004,-1.46755868070741e+001,-5.01258088456553e-001

3.24900958542493e+004,-1.46756001063704e+001,-5.08246916478495e-001

3.29436406907028e+004,-1.46756137721634e+001,-5.15332950100273e-001

3.34035167771346e+004,-1.46756278143420e+001,-5.22517531551110e-001

3.38698124945009e+004,-1.46756422430496e+001,-5.29802021200339e-001

3.43426174575100e+004,-1.46756570686906e+001,-5.37187797782646e-001

3.48220225318448e+004,-1.46756723019362e+001,-5.44676258632275e-001

3.53081198516260e+004,-1.46756879537307e+001,-5.52268819915714e-001

3.58010028371187e+004,-1.46757040352973e+001,-5.59966916868987e-001

3.63007662126863e+004,-1.46757205581448e+001,-5.67772004036764e-001

3.68075060249948e+004,-1.46757375340736e+001,-5.75685555512583e-001

3.73213196614721e+004,-1.46757549751824e+001,-5.83709065183226e-001

3.78423058690237e+004,-1.46757728938748e+001,-5.91844046972961e-001

3.83705647730104e+004,-1.46757913028658e+001,-6.00092035093605e-001

3.89061978964912e+004,-1.46758102151887e+001,-6.08454584293617e-001

3.94493081797342e+004,-1.46758296442015e+001,-6.16933270111979e-001

3.99999999999998e+004,-1.46758496035945e+001,-6.25529689130952e-001

4.05583791916010e+004,-1.46758701073967e+001,-6.34245459237303e-001

4.11245530662425e+004,-1.46758911699832e+001,-6.43082219877775e-001

4.16986304336447e+004,-1.46759128060819e+001,-6.52041632323826e-001

4.22807216224550e+004,-1.46759350307811e+001,-6.61125379935871e-001

4.28709385014515e+004,-1.46759578595366e+001,-6.70335168428958e-001

4.34693945010421e+004,-1.46759813081788e+001,-6.79672726141076e-001

4.40762046350642e+004,-1.46760053929203e+001,-6.89139804306135e-001

4.46914855228886e+004,-1.46760301303633e+001,-6.98738177326747e-001

4.53153554118317e+004,-1.46760555375066e+001,-7.08469643049960e-001

4.59479341998812e+004,-1.46760816317536e+001,-7.18336023044506e-001

4.65893434587380e+004,-1.46761084309194e+001,-7.28339162881767e-001

4.72397064571810e+004,-1.46761359532384e+001,-7.38480932419213e-001

4.78991481847569e+004,-1.46761642173716e+001,-7.48763226083296e-001

4.85677953758016e+004,-1.46761932424145e+001,-7.59187963157899e-001

4.92457765337964e+004,-1.46762230479040e+001,-7.69757088074153e-001

4.99332219560642e+004,-1.46762536538263e+001,-7.80472570698936e-001

5.06302637588109e+004,-1.46762850806238e+001,-7.91336406632649e-001

5.13370359025159e+004,-1.46763173492029e+001,-8.02350617501712e-001

5.20536742176771e+004,-1.46763504809410e+001,-8.13517251260016e-001

5.27803164309155e+004,-1.46763844976936e+001,-8.24838382485597e-001

5.35171021914442e+004,-1.46764194218017e+001,-8.36316112686396e-001

5.42641730979066e+004,-1.46764552760984e+001,-8.47952570603520e-001

5.50216727255895e+004,-1.46764920839159e+001,-8.59749912518978e-001

5.57897466540159e+004,-1.46765298690924e+001,-8.71710322564086e-001

5.65685424949235e+004,-1.46765686559780e+001,-8.83836013033066e-001

5.73582099206328e+004,-1.46766084694419e+001,-8.96129224693698e-001

5.81589006928121e+004,-1.46766493348778e+001,-9.08592227106312e-001

5.89707686916437e+004,-1.46766912782102e+001,-9.21227318940077e-001

5.97939699453972e+004,-1.46767343259000e+001,-9.34036828295121e-001

6.06286626604156e+004,-1.46767785049496e+001,-9.47023113025123e-001

6.14750072515201e+004,-1.46768238429085e+001,-9.60188561061853e-001

6.23331663728396e+004,-1.46768703678776e+001,-9.73535590744067e-001

6.32033049490698e+004,-1.46769181085137e+001,-9.87066651147014e-001

6.40855902071694e+004,-1.46769670940336e+001,-1.00078422241530e+000

6.49801917084985e+004,-1.46770173542176e+001,-1.01469081609914e+000

6.58872813814055e+004,-1.46770689194129e+001,-1.02878897548984e+000

6.68070335542691e+004,-1.46771218205360e+001,-1.04308127596265e+000

6.77396249890018e+004,-1.46771760890749e+001,-1.05757032531937e+000

6.86852349150199e+004,-1.46772317570908e+001,-1.07225876413442e+000

6.96440450636895e+004,-1.46772888572190e+001,-1.08714926610404e+000

7.06162397032520e+004,-1.46773474226698e+001,-1.10224453839752e+000

7.16020056742374e+004,-1.46774074872274e+001,-1.11754732201503e+000

7.26015324253724e+004,-1.46774690852500e+001,-1.13306039214313e+000

7.36150120499896e+004,-1.46775322516670e+001,-1.14878655851934e+000

7.46426393229441e+004,-1.46775970219775e+001,-1.16472866579730e+000

7.56846117380472e+004,-1.46776634322464e+001,-1.18088959391535e+000

7.67411295460207e+004,-1.46777315191004e+001,-1.19727225847132e+000

7.78123957929823e+004,-1.46778013197233e+001,-1.21387961109914e+000

7.88986163594682e+004,-1.46778728718493e+001,-1.23071463985167e+000

7.99999999999995e+004,-1.46779462137561e+001,-1.24778036958729e+000

8.11167583832018e+004,-1.46780213842573e+001,-1.26507986236193e+000

8.22491061324848e+004,-1.46780984226924e+001,-1.28261621782432e+000

8.33972608672892e+004,-1.46781773689170e+001,-1.30039257362106e+000

8.45614432449099e+004,-1.46782582632909e+001,-1.31841210580265e+000

8.57418770029029e+004,-1.46783411466651e+001,-1.33667802923785e+000

8.69387890020841e+004,-1.46784260603678e+001,-1.35519359803653e+000

8.81524092701283e+004,-1.46785130461889e+001,-1.37396210597522e+000

8.93829710457770e+004,-1.46786021463627e+001,-1.39298688693367e+000

9.06307108236633e+004,-1.46786934035499e+001,-1.41227131533727e+000

9.18958683997622e+004,-1.46787868608169e+001,-1.43181880660938e+000

9.31786869174758e+004,-1.46788825616148e+001,-1.45163281763023e+000

9.44794129143618e+004,-1.46789805497562e+001,-1.47171684720626e+000

9.57982963695136e+004,-1.46790808693899e+001,-1.49207443655169e+000

9.71355907516031e+004,-1.46791835649748e+001,-1.51270916977602e+000

9.84915530675926e+004,-1.46792886812510e+001,-1.53362467438668e+000

9.98664439121282e+004,-1.46793962632102e+001,-1.55482462180095e+000

1.01260527517622e+005,-1.46795063560631e+001,-1.57631272787293e+000

1.02674071805032e+005,-1.46796190052059e+001,-1.59809275343113e+000

1.04107348435354e+005,-1.46797342561841e+001,-1.62016850483190e+000

1.05560632861831e+005,-1.46798521546550e+001,-1.64254383452709e+000

1.07034204382888e+005,-1.46799727463474e+001,-1.66522264164807e+000

1.08528346195813e+005,-1.46800960770204e+001,-1.68820887260467e+000

1.10043345451179e+005,-1.46802221924188e+001,-1.71150652170423e+000

1.11579493308032e+005,-1.46803511382278e+001,-1.73511963178688e+000

1.13137084989847e+005,-1.46804829600245e+001,-1.75905229488112e+000

1.14716419841265e+005,-1.46806177032281e+001,-1.78330865288084e+000

1.16317801385624e+005,-1.46807554130474e+001,-1.80789289824188e+000

1.17941537383287e+005,-1.46808961344271e+001,-1.83280927470230e+000

1.19587939890794e+005,-1.46810399119913e+001,-1.85806207802753e+000

1.21257325320831e+005,-1.46811867899849e+001,-1.88365565677793e+000

1.22950014503040e+005,-1.46813368122138e+001,-1.90959441310429e+000

1.24666332745679e+005,-1.46814900219825e+001,-1.93588280357053e+000

1.26406609898139e+005,-1.46816464620301e+001,-1.96252534000321e+000

1.28171180414339e+005,-1.46818061744639e+001,-1.98952659037219e+000

1.29960383416997e+005,-1.46819692006924e+001,-2.01689117970273e+000

1.31774562762811e+005,-1.46821355813555e+001,-2.04462379101748e+000

1.33614067108538e+005,-1.46823053562533e+001,-2.07272916631462e+000

1.35479249978003e+005,-1.46824785642743e+001,-2.10121210757820e+000

1.37370469830040e+005,-1.46826552433210e+001,-2.13007747782735e+000

1.39288090127379e+005,-1.46828354302349e+001,-2.15933020219857e+000

1.41232479406504e+005,-1.46830191607208e+001,-2.18897526907184e+000

1.43204011348474e+005,-1.46832064692691e+001,-2.21901773123163e+000

1.45203064850745e+005,-1.46833973890785e+001,-2.24946270707103e+000

1.47230024099979e+005,-1.46835919519769e+001,-2.28031538183871e+000

1.49285278645888e+005,-1.46837901883433e+001,-2.31158100892671e+000

1.51369223476094e+005,-1.46839921270281e+001,-2.34326491120563e+000

1.53482259092041e+005,-1.46841977952746e+001,-2.37537248240132e+000

1.55624791585964e+005,-1.46844072186399e+001,-2.40790918852210e+000

1.57797232718936e+005,-1.46846204209172e+001,-2.44088056932965e+000

1.59999999999999e+005,-1.46848374240577e+001,-2.47429223986069e+000

1.62233516766403e+005,-1.46850582480950e+001,-2.50814989199557e+000

1.64498212264969e+005,-1.46852829110696e+001,-2.54245929607758e+000

1.66794521734578e+005,-1.46855114289556e+001,-2.57722630258161e+000

1.69122886489819e+005,-1.46857438155894e+001,-2.61245684383454e+000

1.71483754005805e+005,-1.46859800826006e+001,-2.64815693578470e+000

1.73877578004168e+005,-1.46862202393455e+001,-2.68433267982396e+000

1.76304818540256e+005,-1.46864642928432e+001,-2.72099026466137e+000

1.78765942091554e+005,-1.46867122477155e+001,-2.75813596824648e+000

1.81261421647326e+005,-1.46869641061300e+001,-2.79577615974546e+000

1.83791736799524e+005,-1.46872198677475e+001,-2.83391730156675e+000

1.86357373834951e+005,-1.46874795296736e+001,-2.87256595143795e+000

1.88958825828723e+005,-1.46877430864147e+001,-2.91172876453194e+000

1.91596592739027e+005,-1.46880105298392e+001,-2.95141249564259e+000

1.94271181503206e+005,-1.46882818491445e+001,-2.99162400140680e+000

1.96983106135185e+005,-1.46885570308289e+001,-3.03237024257667e+000

1.99732887824256e+005,-1.46888360586703e+001,-3.07365828633387e+000

2.02521055035243e+005,-1.46891189137108e+001,-3.11549530865033e+000

2.05348143610063e+005,-1.46894055742482e+001,-3.15788859669111e+000

2.08214696870707e+005,-1.46896960158344e+001,-3.20084555125837e+000

2.11121265723661e+005,-1.46899902112814e+001,-3.24437368927371e+000

2.14068408765776e+005,-1.46902881306742e+001,-3.28848064629837e+000

2.17056692391625e+005,-1.46905897413924e+001,-3.33317417908700e+000

2.20086690902357e+005,-1.46908950081395e+001,-3.37846216817464e+000

2.23158986616063e+005,-1.46912038929797e+001,-3.42435262049416e+000

2.26274169979693e+005,-1.46915163553847e+001,-3.47085367201809e+000

2.29432839682530e+005,-1.46918323522878e+001,-3.51797359042942e+000

2.32635602771247e+005,-1.46921518381472e+001,-3.56572077780899e+000

2.35883074766574e+005,-1.46924747650182e+001,-3.61410377334636e+000

2.39175879781588e+005,-1.46928010826344e+001,-3.66313125606301e+000

2.42514650641661e+005,-1.46931307384975e+001,-3.71281204755039e+000

2.45900029006080e+005,-1.46934636779765e+001,-3.76315511471536e+000

2.49332665491357e+005,-1.46937998444150e+001,-3.81416957253452e+000

2.52813219796278e+005,-1.46941391792487e+001,-3.86586468681020e+000

2.56342360828676e+005,-1.46944816221299e+001,-3.91824987692778e+000

2.59920766833993e+005,-1.46948271110622e+001,-3.97133471860847e+000

2.63549125525621e+005,-1.46951755825423e+001,-4.02512894665885e+000

2.67228134217075e+005,-1.46955269717111e+001,-4.07964245770813e+000

2.70958499956006e+005,-1.46958812125118e+001,-4.13488531293713e+000

2.74740939660078e+005,-1.46962382378559e+001,-4.19086774079105e+000

2.78576180254757e+005,-1.46965979797970e+001,-4.24760013967421e+000

2.82464958813007e+005,-1.46969603697110e+001,-4.30509308062652e+000

2.86408022696948e+005,-1.46973253384826e+001,-4.36335730997881e+000

2.90406129701488e+005,-1.46976928166991e+001,-4.42240375198138e+000

2.94460048199957e+005,-1.46980627348486e+001,-4.48224351140937e+000

2.98570557291775e+005,-1.46984350235242e+001,-4.54288787613854e+000

3.02738446952187e+005,-1.46988096136326e+001,-4.60434831969296e+000

3.06964518184081e+005,-1.46991864366071e+001,-4.66663650376078e+000

3.11249583171928e+005,-1.46995654246244e+001,-4.72976428068089e+000

3.15594465437872e+005,-1.46999465108239e+001,-4.79374369589528e+000

3.19999999999997e+005,-1.47003296295305e+001,-4.85858699036901e+000

3.24467033532806e+005,-1.47007147164789e+001,-4.92430660297903e+000

3.28996424529938e+005,-1.47011017090392e+001,-4.99091517286837e+000

3.33589043469155e+005,-1.47014905464438e+001,-5.05842554176880e+000

3.38245772979638e+005,-1.47018811700146e+001,-5.12685075629177e+000

3.42967508011610e+005,-1.47022735233894e+001,-5.19620407018831e+000

3.47755156008335e+005,-1.47026675527486e+001,-5.26649894658001e+000

3.52609637080511e+005,-1.47030632070390e+001,-5.33774906016146e+000

3.57531884183106e+005,-1.47034604381977e+001,-5.40996829937582e+000

3.62522843294651e+005,-1.47038592013716e+001,-5.48317076856810e+000

3.67583473599047e+005,-1.47042594551358e+001,-5.55737079011364e+000

3.72714747669902e+005,-1.47046611617078e+001,-5.63258290652938e+000

3.77917651657445e+005,-1.47050642871578e+001,-5.70882188256699e+000

3.83193185478053e+005,-1.47054688016158e+001,-5.78610270729206e+000

3.88542363006410e+005,-1.47058746794731e+001,-5.86444059615338e+000

3.93966212270369e+005,-1.47062818995797e+001,-5.94385099304308e+000

3.99465775648511e+005,-1.47066904454365e+001,-6.02434957235361e+000

4.05042110070485e+005,-1.47071003053815e+001,-6.10595224103338e+000

4.10696287220124e+005,-1.47075114727710e+001,-6.18867514064606e+000

4.16429393741414e+005,-1.47079239461549e+001,-6.27253464943539e+000

4.22242531447321e+005,-1.47083377294455e+001,-6.35754738440094e+000

4.28136817531551e+005,-1.47087528320807e+001,-6.44373020338850e+000

4.34113384783250e+005,-1.47091692691807e+001,-6.53110020719778e+000

4.40173381804713e+005,-1.47095870616986e+001,-6.61967474171280e+000

4.46317973232124e+005,-1.47100062365649e+001,-6.70947140005788e+000

4.52548339959385e+005,-1.47104268268255e+001,-6.80050802478313e+000

4.58865679365059e+005,-1.47108488717736e+001,-6.89280271008370e+000

4.65271205542494e+005,-1.47112724170760e+001,-6.98637380405694e+000

4.71766149533147e+005,-1.47116975148929e+001,-7.08123991099899e+000

4.78351759563174e+005,-1.47121242239926e+001,-7.17741989374750e+000

4.85029301283321e+005,-1.47125526098600e+001,-7.27493287607181e+000

4.91800058012158e+005,-1.47129827448006e+001,-7.37379824511377e+000

4.98665330982714e+005,-1.47134147080388e+001,-7.47403565388431e+000

5.05626439592555e+005,-1.47138485858120e+001,-7.57566502381744e+000

5.12684721657352e+005,-1.47142844714599e+001,-7.67870654738438e+000

5.19841533667984e+005,-1.47147224655100e+001,-7.78318069077149e+000

5.27098251051240e+005,-1.47151626757592e+001,-7.88910819662499e+000

5.34456268434150e+005,-1.47156052173518e+001,-7.99651008686266e+000

5.41916999912011e+005,-1.47160502128554e+001,-8.10540766555852e+000

