Freq.,VOut,OutRef

1.00000000000000e+004,-2.35089437132435e+001,-1.00821807901343e-001

1.01395947979003e+004,-2.35089461812939e+001,-1.02228726353584e-001

1.02811382665607e+004,-2.35089487185926e+001,-1.03655263386950e-001

1.04246576084112e+004,-2.35089513270784e+001,-1.05101691965147e-001

1.05701804056138e+004,-2.35089540087444e+001,-1.06568288825161e-001

1.07177346253629e+004,-2.35089567656392e+001,-1.08055334526297e-001

1.08673486252606e+004,-2.35089595998685e+001,-1.09563113503890e-001

1.10190511587661e+004,-2.35089625135967e+001,-1.11091914119008e-001

1.11728713807222e+004,-2.35089655090481e+001,-1.12642028717180e-001

1.13288388529580e+004,-2.35089685885099e+001,-1.14213753671486e-001

1.14869835499703e+004,-2.35089717543318e+001,-1.15807389450740e-001

1.16473358646846e+004,-2.35089750089297e+001,-1.17423240661444e-001

1.18099266142953e+004,-2.35089783547867e+001,-1.19061616111727e-001

1.19747870461893e+004,-2.35089817944543e+001,-1.20722828866131e-001

1.21419488439505e+004,-2.35089853305558e+001,-1.22407196300007e-001

1.23114441334492e+004,-2.35089889657870e+001,-1.24115040158771e-001

1.24833054890161e+004,-2.35089927029185e+001,-1.25846686619458e-001

1.26575659397028e+004,-2.35089965447983e+001,-1.27602466343801e-001

1.28342589756290e+004,-2.35090004943530e+001,-1.29382714544335e-001

1.30134185544193e+004,-2.35090045545911e+001,-1.31187771039422e-001

1.31950791077289e+004,-2.35090087286036e+001,-1.33017980321520e-001

1.33792755478611e+004,-2.35090130195683e+001,-1.34873691610270e-001

1.35660432744767e+004,-2.35090174307508e+001,-1.36755258922553e-001

1.37554181813974e+004,-2.35090219655067e+001,-1.38663041135312e-001

1.39474366635040e+004,-2.35090266272852e+001,-1.40597402045835e-001

1.41421356237309e+004,-2.35090314196311e+001,-1.42558710438710e-001

1.43395524801583e+004,-2.35090363461865e+001,-1.44547340156529e-001

1.45397251732031e+004,-2.35090414106956e+001,-1.46563670156013e-001

1.47426921729110e+004,-2.35090466170053e+001,-1.48608084586019e-001

1.49484924863494e+004,-2.35090519690687e+001,-1.50680972850303e-001

1.51571656651040e+004,-2.35090574709488e+001,-1.52782729676986e-001

1.53687518128801e+004,-2.35090631268206e+001,-1.54913755186332e-001

1.55832915932100e+004,-2.35090689409743e+001,-1.57074454967414e-001

1.58008262372675e+004,-2.35090749178186e+001,-1.59265240141081e-001

1.60213975517924e+004,-2.35090810618838e+001,-1.61486527439327e-001

1.62450479271247e+004,-2.35090873778248e+001,-1.63738739274729e-001

1.64718203453514e+004,-2.35090938704253e+001,-1.66022303811380e-001

1.67017583885674e+004,-2.35091005446001e+001,-1.68337655046693e-001

1.69349062472505e+004,-2.35091074054000e+001,-1.70685232876876e-001

1.71713087287550e+004,-2.35091144580141e+001,-1.73065483182871e-001

1.74110112659224e+004,-2.35091217077741e+001,-1.75478857899786e-001

1.76540599258131e+004,-2.35091291601590e+001,-1.77925815095928e-001

1.79005014185594e+004,-2.35091368207970e+001,-1.80406819056050e-001

1.81503831063432e+004,-2.35091446954715e+001,-1.82922340353644e-001

1.84037530124975e+004,-2.35091527901243e+001,-1.85472855934003e-001

1.86606598307361e+004,-2.35091611108599e+001,-1.88058849196312e-001

1.89211529345119e+004,-2.35091696639499e+001,-1.90680810072291e-001

1.91852823865052e+004,-2.35091784558375e+001,-1.93339235111728e-001

1.94530989482457e+004,-2.35091874931417e+001,-1.96034627563095e-001

1.97246540898671e+004,-2.35091967826628e+001,-1.98767497456242e-001

1.99999999999999e+004,-2.35092063313862e+001,-2.01538361692767e-001

2.02791895958005e+004,-2.35092161464878e+001,-2.04347744124705e-001

2.05622765331213e+004,-2.35092262353393e+001,-2.07196175644781e-001

2.08493152168224e+004,-2.35092366055127e+001,-2.10084194271848e-001

2.11403608112276e+004,-2.35092472647856e+001,-2.13012345241152e-001

2.14354692507258e+004,-2.35092582211476e+001,-2.15981181087689e-001

2.17346972505211e+004,-2.35092694828045e+001,-2.18991261740059e-001

2.20381023175322e+004,-2.35092810581848e+001,-2.22043154608206e-001

2.23457427614443e+004,-2.35092929559452e+001,-2.25137434675856e-001

2.26576777059159e+004,-2.35093051849764e+001,-2.28274684590070e-001

2.29739670999406e+004,-2.35093177544096e+001,-2.31455494753285e-001

2.32946717293690e+004,-2.35093306736221e+001,-2.34680463418023e-001

2.36198532285905e+004,-2.35093439522445e+001,-2.37950196777401e-001

2.39495740923785e+004,-2.35093576001662e+001,-2.41265309062438e-001

2.42838976879009e+004,-2.35093716275429e+001,-2.44626422633534e-001

2.46228882668982e+004,-2.35093860448027e+001,-2.48034168079673e-001

2.49666109780322e+004,-2.35094008626538e+001,-2.51489184309655e-001

2.53151318794055e+004,-2.35094160920907e+001,-2.54992118654016e-001

2.56685179512580e+004,-2.35094317444025e+001,-2.58543626956711e-001

2.60268371088386e+004,-2.35094478311796e+001,-2.62144373675476e-001

2.63901582154578e+004,-2.35094643643214e+001,-2.65795031981741e-001

2.67585510957221e+004,-2.35094813560441e+001,-2.69496283856486e-001

2.71320865489533e+004,-2.35094988188891e+001,-2.73248820189886e-001

2.75108363627948e+004,-2.35095167657302e+001,-2.77053340881701e-001

2.78948733270080e+004,-2.35095352097826e+001,-2.80910554941640e-001

2.82842712474618e+004,-2.35095541646109e+001,-2.84821180587738e-001

2.86791049603164e+004,-2.35095736441382e+001,-2.88785945348901e-001

2.90794503464061e+004,-2.35095936626541e+001,-2.92805586167090e-001

2.94853843458219e+004,-2.35096142348245e+001,-2.96880849495038e-001

2.98969849726987e+004,-2.35096353757000e+001,-3.01012491402310e-001

3.03143313302078e+004,-2.35096571007261e+001,-3.05201277672074e-001

3.07375036257601e+004,-2.35096794257517e+001,-3.09447983908967e-001

3.11665831864199e+004,-2.35097023670394e+001,-3.13753395636456e-001

3.16016524745350e+004,-2.35097259412756e+001,-3.18118308399359e-001

3.20427951035848e+004,-2.35097501655792e+001,-3.22543527872703e-001

3.24900958542493e+004,-2.35097750575140e+001,-3.27029869953024e-001

3.29436406907028e+004,-2.35098006350967e+001,-3.31578160871889e-001

3.34035167771346e+004,-2.35098269168096e+001,-3.36189237288394e-001

3.38698124945009e+004,-2.35098539216100e+001,-3.40863946397877e-001

3.43426174575100e+004,-2.35098816689414e+001,-3.45603146031057e-001

3.48220225318448e+004,-2.35099101787452e+001,-3.50407704755694e-001

3.53081198516260e+004,-2.35099394714714e+001,-3.55278501977120e-001

3.58010028371187e+004,-2.35099695680900e+001,-3.60216428041291e-001

3.63007662126863e+004,-2.35100004901035e+001,-3.65222384331702e-001

3.68075060249948e+004,-2.35100322595574e+001,-3.70297283373554e-001

3.73213196614721e+004,-2.35100648990534e+001,-3.75442048928685e-001

3.78423058690237e+004,-2.35100984317606e+001,-3.80657616096971e-001

3.83705647730104e+004,-2.35101328814286e+001,-3.85944931412672e-001

3.89061978964912e+004,-2.35101682723994e+001,-3.91304952942262e-001

3.94493081797342e+004,-2.35102046296198e+001,-3.96738650381140e-001

3.99999999999998e+004,-2.35102419786550e+001,-4.02247005146135e-001

4.05583791916010e+004,-2.35102803457004e+001,-4.07831010474158e-001

4.11245530662425e+004,-2.35103197575954e+001,-4.13491671510870e-001

4.16986304336447e+004,-2.35103602418362e+001,-4.19230005404516e-001

4.22807216224550e+004,-2.35104018265887e+001,-4.25047041396765e-001

4.28709385014515e+004,-2.35104445407024e+001,-4.30943820910739e-001

4.34693945010421e+004,-2.35104884137235e+001,-4.36921397638882e-001

4.40762046350642e+004,-2.35105334759081e+001,-4.42980837630252e-001

4.46914855228886e+004,-2.35105797582364e+001,-4.49123219372442e-001

4.53153554118317e+004,-2.35106272924254e+001,-4.55349633878295e-001

4.59479341998812e+004,-2.35106761109433e+001,-4.61661184762095e-001

4.65893434587380e+004,-2.35107262470230e+001,-4.68058988319385e-001

4.72397064571810e+004,-2.35107777346752e+001,-4.74544173606825e-001

4.78991481847569e+004,-2.35108306087025e+001,-4.81117882514460e-001

4.85677953758016e+004,-2.35108849047132e+001,-4.87781269836524e-001

4.92457765337964e+004,-2.35109406591341e+001,-4.94535503344450e-001

4.99332219560642e+004,-2.35109979092248e+001,-5.01381763852006e-001

5.06302637588109e+004,-2.35110566930902e+001,-5.08321245282089e-001

5.13370359025159e+004,-2.35111170496947e+001,-5.15355154727042e-001

5.20536742176771e+004,-2.35111790188743e+001,-5.22484712509047e-001

5.27803164309155e+004,-2.35112426413504e+001,-5.29711152237919e-001

5.35171021914442e+004,-2.35113079587418e+001,-5.37035720861323e-001

5.42641730979066e+004,-2.35113750135775e+001,-5.44459678719318e-001

5.50216727255895e+004,-2.35114438493091e+001,-5.51984299588298e-001

5.57897466540159e+004,-2.35115145103220e+001,-5.59610870728454e-001

5.65685424949235e+004,-2.35115870419478e+001,-5.67340692920671e-001

5.73582099206328e+004,-2.35116614904747e+001,-5.75175080507226e-001

5.81589006928121e+004,-2.35117379031587e+001,-5.83115361424330e-001

5.89707686916437e+004,-2.35118163282340e+001,-5.91162877230960e-001

5.97939699453972e+004,-2.35118968149219e+001,-5.99318983139619e-001

6.06286626604156e+004,-2.35119794134412e+001,-6.07585048033498e-001

6.14750072515201e+004,-2.35120641750161e+001,-6.15962454490970e-001

6.23331663728396e+004,-2.35121511518841e+001,-6.24452598797236e-001

6.32033049490698e+004,-2.35122403973037e+001,-6.33056890958157e-001

6.40855902071694e+004,-2.35123319655602e+001,-6.41776754706950e-001

6.49801917084985e+004,-2.35124259119721e+001,-6.50613627507060e-001

6.58872813814055e+004,-2.35125222928956e+001,-6.59568960553606e-001

6.68070335542691e+004,-2.35126211657278e+001,-6.68644218769939e-001

6.77396249890018e+004,-2.35127225889107e+001,-6.77840880796606e-001

6.86852349150199e+004,-2.35128266219317e+001,-6.87160438983671e-001

6.96440450636895e+004,-2.35129333253252e+001,-6.96604399372045e-001

7.06162397032520e+004,-2.35130427606709e+001,-7.06174281678212e-001

7.16020056742374e+004,-2.35131549905931e+001,-7.15871619267242e-001

7.26015324253724e+004,-2.35132700787562e+001,-7.25697959129761e-001

7.36150120499896e+004,-2.35133880898606e+001,-7.35654861852692e-001

7.46426393229441e+004,-2.35135090896359e+001,-7.45743901585436e-001

7.56846117380472e+004,-2.35136331448335e+001,-7.55966666005689e-001

7.67411295460207e+004,-2.35137603232165e+001,-7.66324756279759e-001

7.78123957929823e+004,-2.35138906935483e+001,-7.76819787024513e-001

7.88986163594682e+004,-2.35140243255790e+001,-7.87453386262727e-001

7.99999999999995e+004,-2.35141612900308e+001,-7.98227195379049e-001

8.11167583832018e+004,-2.35143016585795e+001,-8.09142869074357e-001

8.22491061324848e+004,-2.35144455038358e+001,-8.20202075318046e-001

8.33972608672892e+004,-2.35145928993227e+001,-8.31406495299989e-001

8.45614432449099e+004,-2.35147439194517e+001,-8.42757823383452e-001

8.57418770029029e+004,-2.35148986394958e+001,-8.54257767055793e-001

8.69387890020841e+004,-2.35150571355600e+001,-8.65908046883070e-001

8.81524092701283e+004,-2.35152194845497e+001,-8.77710396462939e-001

8.93829710457770e+004,-2.35153857641357e+001,-8.89666562382191e-001

9.06307108236633e+004,-2.35155560527164e+001,-9.01778304175615e-001

9.18958683997622e+004,-2.35157304293774e+001,-9.14047394288706e-001

9.31786869174758e+004,-2.35159089738475e+001,-9.26475618045659e-001

9.44794129143618e+004,-2.35160917664518e+001,-9.39064773621393e-001

9.57982963695136e+004,-2.35162788880618e+001,-9.51816672019693e-001

9.71355907516031e+004,-2.35164704200417e+001,-9.64733137059190e-001

9.84915530675926e+004,-2.35166664441913e+001,-9.77816005367596e-001

9.98664439121282e+004,-2.35168670426856e+001,-9.91067126383388e-001

1.01260527517622e+005,-2.35170722980102e+001,-1.00448836237250e+000

1.02674071805032e+005,-2.35172822928943e+001,-1.01808158844925e+000

1.04107348435354e+005,-2.35174971102381e+001,-1.03184869261797e+000

1.05560632861831e+005,-2.35177168330382e+001,-1.04579157582341e+000

1.07034204382888e+005,-2.35179415443073e+001,-1.05991215201988e+000

1.08528346195813e+005,-2.35181713269920e+001,-1.07421234825573e+000

1.10043345451179e+005,-2.35184062638842e+001,-1.08869410477925e+000

1.11579493308032e+005,-2.35186464375310e+001,-1.10335937516119e+000

1.13137084989847e+005,-2.35188919301386e+001,-1.11821012644156e+000

1.14716419841265e+005,-2.35191428234730e+001,-1.13324833930182e+000

1.16317801385624e+005,-2.35193991987569e+001,-1.14847600825935e+000

1.17941537383287e+005,-2.35196611365616e+001,-1.16389514189077e+000

1.19587939890794e+005,-2.35199287166962e+001,-1.17950776308566e+000

1.21257325320831e+005,-2.35202020180915e+001,-1.19531590933024e+000

1.22950014503040e+005,-2.35204811186812e+001,-1.21132163302430e+000

1.24666332745679e+005,-2.35207660952782e+001,-1.22752700183551e+000

1.26406609898139e+005,-2.35210570234481e+001,-1.24393409908772e+000

1.28171180414339e+005,-2.35213539773786e+001,-1.26054502419332e+000

1.29960383416997e+005,-2.35216570297452e+001,-1.27736189312231e+000

1.31774562762811e+005,-2.35219662515742e+001,-1.29438683891968e+000

1.33614067108538e+005,-2.35222817121022e+001,-1.31162201226639e+000

1.35479249978003e+005,-2.35226034786325e+001,-1.32906958208800e+000

1.37370469830040e+005,-2.35229316163890e+001,-1.34673173621640e+000

1.39288090127379e+005,-2.35232661883676e+001,-1.36461068210197e+000

1.41232479406504e+005,-2.35236072551852e+001,-1.38270864757998e+000

1.43204011348474e+005,-2.35239548749272e+001,-1.40102788169565e+000

1.45203064850745e+005,-2.35243091029927e+001,-1.41957065558647e+000

1.47230024099979e+005,-2.35246699919391e+001,-1.43833926342479e+000

1.49285278645888e+005,-2.35250375913255e+001,-1.45733602342523e+000

1.51369223476094e+005,-2.35254119475556e+001,-1.47656327891410e+000

1.53482259092041e+005,-2.35257931037206e+001,-1.49602339946578e+000

1.55624791585964e+005,-2.35261810994423e+001,-1.51571878210755e+000

1.57797232718936e+005,-2.35265759707177e+001,-1.53565185259209e+000

1.59999999999999e+005,-2.35269777497638e+001,-1.55582506674169e+000

1.62233516766403e+005,-2.35273864648652e+001,-1.57624091186383e+000

1.64498212264969e+005,-2.35278021402237e+001,-1.59690190823761e+000

1.66794521734578e+005,-2.35282247958110e+001,-1.61781061067707e+000

1.69122886489819e+005,-2.35286544472250e+001,-1.63896961016440e+000

1.71483754005805e+005,-2.35290911055498e+001,-1.66038153556082e+000

1.73877578004168e+005,-2.35295347772213e+001,-1.68204905538942e+000

1.76304818540256e+005,-2.35299854638971e+001,-1.70397487969336e+000

1.78765942091554e+005,-2.35304431623334e+001,-1.72616176196973e+000

1.81261421647326e+005,-2.35309078642685e+001,-1.74861250117205e+000

1.83791736799524e+005,-2.35313795563126e+001,-1.77132994379004e+000

1.86357373834951e+005,-2.35318582198471e+001,-1.79431698599802e+000

1.88958825828723e+005,-2.35323438309316e+001,-1.81757657587355e+000

1.91596592739027e+005,-2.35328363602204e+001,-1.84111171568311e+000

1.94271181503206e+005,-2.35333357728895e+001,-1.86492546423422e+000

1.96983106135185e+005,-2.35338420285735e+001,-1.88902093929147e+000

1.99732887824256e+005,-2.35343550813144e+001,-1.91340132005006e+000

2.02521055035243e+005,-2.35348748795222e+001,-1.93806984967029e+000

2.05348143610063e+005,-2.35354013659473e+001,-1.96302983786394e+000

2.08214696870707e+005,-2.35359344776673e+001,-1.98828466352933e+000

2.11121265723661e+005,-2.35364741460864e+001,-2.01383777743672e+000

2.14068408765776e+005,-2.35370202969488e+001,-2.03969270495095e+000

2.17056692391625e+005,-2.35375728503677e+001,-2.06585304879358e+000

2.20086690902357e+005,-2.35381317208687e+001,-2.09232249183729e+000

2.23158986616063e+005,-2.35386968174484e+001,-2.11910479992536e+000

2.26274169979693e+005,-2.35392680436491e+001,-2.14620382471581e+000

2.29432839682530e+005,-2.35398452976496e+001,-2.17362350653886e+000

2.32635602771247e+005,-2.35404284723723e+001,-2.20136787726541e+000

2.35883074766574e+005,-2.35410174556064e+001,-2.22944106318004e+000

2.39175879781588e+005,-2.35416121301483e+001,-2.25784728785132e+000

2.42514650641661e+005,-2.35422123739576e+001,-2.28659087499574e+000

2.45900029006080e+005,-2.35428180603311e+001,-2.31567625132305e+000

2.49332665491357e+005,-2.35434290580919e+001,-2.34510794936492e+000

2.52813219796278e+005,-2.35440452317961e+001,-2.37489061027447e+000

2.56342360828676e+005,-2.35446664419545e+001,-2.40502898659030e+000

2.59920766833993e+005,-2.35452925452712e+001,-2.43552794496460e+000

2.63549125525621e+005,-2.35459233948967e+001,-2.46639246883924e+000

2.67228134217075e+005,-2.35465588406969e+001,-2.49762766107536e+000

2.70958499956006e+005,-2.35471987295360e+001,-2.52923874651989e+000

2.74740939660078e+005,-2.35478429055738e+001,-2.56123107450976e+000

2.78576180254757e+005,-2.35484912105757e+001,-2.59361012130799e+000

2.82464958813007e+005,-2.35491434842364e+001,-2.62638149246116e+000

2.86408022696948e+005,-2.35497995645140e+001,-2.65955092508197e+000

2.90406129701488e+005,-2.35504592879768e+001,-2.69312429004280e+000

2.94460048199957e+005,-2.35511224901586e+001,-2.72710759408385e+000

2.98570557291775e+005,-2.35517890059246e+001,-2.76150698182922e+000

3.02738446952187e+005,-2.35524586698448e+001,-2.79632873770446e+000

3.06964518184081e+005,-2.35531313165750e+001,-2.83157928776033e+000

3.11249583171928e+005,-2.35538067812439e+001,-2.86726520139097e+000

3.15594465437872e+005,-2.35544848998457e+001,-2.90339319295357e+000

3.19999999999997e+005,-2.35551655096363e+001,-2.93997012328037e+000

3.24467033532806e+005,-2.35558484495332e+001,-2.97700300108976e+000

3.28996424529938e+005,-2.35565335605165e+001,-3.01449898428735e+000

3.33589043469155e+005,-2.35572206860315e+001,-3.05246538116701e+000

3.38245772979638e+005,-2.35579096723906e+001,-3.09090965150329e+000

3.42967508011610e+005,-2.35586003691736e+001,-3.12983940754383e+000

3.47755156008335e+005,-2.35592926296263e+001,-3.16926241489873e+000

3.52609637080511e+005,-2.35599863110547e+001,-3.20918659333225e+000

3.57531884183106e+005,-2.35606812752154e+001,-3.24962001745697e+000

3.62522843294651e+005,-2.35613773887000e+001,-3.29057091733625e+000

3.67583473599047e+005,-2.35620745233132e+001,-3.33204767899604e+000

3.72714747669902e+005,-2.35627725564439e+001,-3.37405884485465e+000

3.77917651657445e+005,-2.35634713714274e+001,-3.41661311406692e+000

3.83193185478053e+005,-2.35641708578992e+001,-3.45971934279878e+000

3.88542363006410e+005,-2.35648709121386e+001,-3.50338654442655e+000

3.93966212270369e+005,-2.35655714374028e+001,-3.54762388967440e+000

3.99465775648511e+005,-2.35662723442484e+001,-3.59244070669180e+000

4.05042110070485e+005,-2.35669735508429e+001,-3.63784648107848e+000

4.10696287220124e+005,-2.35676749832633e+001,-3.68385085586334e+000

4.16429393741414e+005,-2.35683765757828e+001,-3.73046363144249e+000

4.22242531447321e+005,-2.35690782711442e+001,-3.77769476548412e+000

4.28136817531551e+005,-2.35697800208204e+001,-3.82555437280748e+000

4.34113384783250e+005,-2.35704817852626e+001,-3.87405272524080e+000

4.40173381804713e+005,-2.35711835341338e+001,-3.92320025146635e+000

4.46317973232124e+005,-2.35718852465299e+001,-3.97300753685888e+000

4.52548339959385e+005,-2.35725869111872e+001,-4.02348532332459e+000

4.58865679365059e+005,-2.35732885266772e+001,-4.07464450914611e+000

4.65271205542494e+005,-2.35739901015870e+001,-4.12649614884109e+000

4.71766149533147e+005,-2.35746916546890e+001,-4.17905145304027e+000

4.78351759563174e+005,-2.35753932150959e+001,-4.23232178839016e+000

4.85029301283321e+005,-2.35760948224052e+001,-4.28631867748968e+000

4.91800058012158e+005,-2.35767965268312e+001,-4.34105379886030e+000

4.98665330982714e+005,-2.35774983893255e+001,-4.39653898696273e+000

5.05626439592555e+005,-2.35782004816873e+001,-4.45278623225816e+000

5.12684721657352e+005,-2.35789028866632e+001,-4.50980768132460e+000

5.19841533667984e+005,-2.35796056980368e+001,-4.56761563702894e+000

5.27098251051240e+005,-2.35803090207103e+001,-4.62622255876104e+000

5.34456268434150e+005,-2.35810129707768e+001,-4.68564106273480e+000

5.41916999912011e+005,-2.35817176755852e+001,-4.74588392235579e+000

