Freq.,VOut,OutRef

1.00000000000000e+004,-8.08192167162635e+000,-6.64410187094726e-002

1.01395947979003e+004,-8.08192321411558e+000,-6.73681706779046e-002

1.02811382665607e+004,-8.08192479987913e+000,-6.83082512073949e-002

1.04246576084112e+004,-8.08192643012884e+000,-6.92614401781825e-002

1.05701804056138e+004,-8.08192810610896e+000,-7.02279199648696e-002

1.07177346253629e+004,-8.08192982910019e+000,-7.12078754512752e-002

1.08673486252606e+004,-8.08193160041770e+000,-7.22014940819172e-002

1.10190511587661e+004,-8.08193342141365e+000,-7.32089658873448e-002

1.11728713807222e+004,-8.08193529347814e+000,-7.42304835192678e-002

1.13288388529580e+004,-8.08193721803929e+000,-7.52662422924191e-002

1.14869835499703e+004,-8.08193919656562e+000,-7.63164402115005e-002

1.16473358646846e+004,-8.08194123056641e+000,-7.73812780125759e-002

1.18099266142953e+004,-8.08194332159216e+000,-7.84609592033178e-002

1.19747870461893e+004,-8.08194547123775e+000,-7.95556900882164e-002

1.21419488439505e+004,-8.08194768114123e+000,-8.06656798208697e-002

1.23114441334492e+004,-8.08194995298668e+000,-8.17911404319761e-002

1.24833054890161e+004,-8.08195228850484e+000,-8.29322868715880e-002

1.26575659397028e+004,-8.08195468947478e+000,-8.40893370453526e-002

1.28342589756290e+004,-8.08195715772465e+000,-8.52625118584200e-002

1.30134185544193e+004,-8.08195969513355e+000,-8.64520352513746e-002

1.31950791077289e+004,-8.08196230363215e+000,-8.76581342460654e-002

1.33792755478611e+004,-8.08196498520551e+000,-8.88810389770674e-002

1.35660432744767e+004,-8.08196774189293e+000,-9.01209827437857e-002

1.37554181813974e+004,-8.08197057579048e+000,-9.13782020461905e-002

1.39474366635040e+004,-8.08197348905244e+000,-9.26529366267227e-002

1.41421356237309e+004,-8.08197648389270e+000,-9.39454295151188e-002

1.43395524801583e+004,-8.08197956258585e+000,-9.52559270753710e-002

1.45397251732031e+004,-8.08198272747021e+000,-9.65846790403163e-002

1.47426921729110e+004,-8.08198598094834e+000,-9.79319385640970e-002

1.49484924863494e+004,-8.08198932548878e+000,-9.92979622668243e-002

1.51571656651040e+004,-8.08199276362903e+000,-1.00683010272870e-001

1.53687518128801e+004,-8.08199629797585e+000,-1.02087346266413e-001

1.55832915932100e+004,-8.08199993120857e+000,-1.03511237528704e-001

1.58008262372675e+004,-8.08200366607970e+000,-1.04954954993683e-001

1.60213975517924e+004,-8.08200750541851e+000,-1.06418773285333e-001

1.62450479271247e+004,-8.08201145213132e+000,-1.07902970777124e-001

1.64718203453514e+004,-8.08201550920461e+000,-1.09407829633138e-001

1.67017583885674e+004,-8.08201967970759e+000,-1.10933635855926e-001

1.69349062472505e+004,-8.08202396679287e+000,-1.12480679344356e-001

1.71713087287550e+004,-8.08202837370074e+000,-1.14049253931878e-001

1.74110112659224e+004,-8.08203290375966e+000,-1.15639657447808e-001

1.76540599258131e+004,-8.08203756038965e+000,-1.17252191763554e-001

1.79005014185594e+004,-8.08204234710450e+000,-1.18887162843928e-001

1.81503831063432e+004,-8.08204726751445e+000,-1.20544880799346e-001

1.84037530124975e+004,-8.08205232532795e+000,-1.22225659943435e-001

1.86606598307361e+004,-8.08205752435565e+000,-1.23929818837227e-001

1.89211529345119e+004,-8.08206286851179e+000,-1.25657680351763e-001

1.91852823865052e+004,-8.08206836181788e+000,-1.27409571715627e-001

1.94530989482457e+004,-8.08207400840486e+000,-1.29185824575125e-001

1.97246540898671e+004,-8.08207981251675e+000,-1.30986775043875e-001

1.99999999999999e+004,-8.08208577851275e+000,-1.32812763764489e-001

2.02791895958005e+004,-8.08209191087060e+000,-1.34664135962602e-001

2.05622765331213e+004,-8.08209821419024e+000,-1.36541241500965e-001

2.08493152168224e+004,-8.08210469319646e+000,-1.38444434939185e-001

2.11403608112276e+004,-8.08211135274185e+000,-1.40374075594606e-001

2.14354692507258e+004,-8.08211819781120e+000,-1.42330527592868e-001

2.17346972505211e+004,-8.08212523352368e+000,-1.44314159935277e-001

2.20381023175322e+004,-8.08213246513717e+000,-1.46325346553214e-001

2.23457427614443e+004,-8.08213989805206e+000,-1.48364466365356e-001

2.26576777059159e+004,-8.08214753781361e+000,-1.50431903347408e-001

2.29739670999406e+004,-8.08215539011738e+000,-1.52528046581660e-001

2.32946717293690e+004,-8.08216346081200e+000,-1.54653290324724e-001

2.36198532285905e+004,-8.08217175590333e+000,-1.56808034068707e-001

2.39495740923785e+004,-8.08218028155841e+000,-1.58992682602018e-001

2.42838976879009e+004,-8.08218904411019e+000,-1.61207646069461e-001

2.46228882668982e+004,-8.08219805006078e+000,-1.63453340040396e-001

2.49666109780322e+004,-8.08220730608633e+000,-1.65730185568120e-001

2.53151318794055e+004,-8.08221681904134e+000,-1.68038609254996e-001

2.56685179512580e+004,-8.08222659596315e+000,-1.70379043315152e-001

2.60268371088386e+004,-8.08223664407672e+000,-1.72751925638816e-001

2.63901582154578e+004,-8.08224697079846e+000,-1.75157699862129e-001

2.67585510957221e+004,-8.08225758374234e+000,-1.77596815422969e-001

2.71320865489533e+004,-8.08226849072361e+000,-1.80069727635193e-001

2.75108363627948e+004,-8.08227969976467e+000,-1.82576897747489e-001

2.78948733270080e+004,-8.08229121909935e+000,-1.85118793015115e-001

2.82842712474618e+004,-8.08230305717890e+000,-1.87695886760783e-001

2.86791049603164e+004,-8.08231522267629e+000,-1.90308658447481e-001

2.90794503464061e+004,-8.08232772449304e+000,-1.92957593736378e-001

2.94853843458219e+004,-8.08234057176348e+000,-1.95643184561137e-001

2.98969849726987e+004,-8.08235377386048e+000,-1.98365929194444e-001

3.03143313302078e+004,-8.08236734040213e+000,-2.01126332308867e-001

3.07375036257601e+004,-8.08238128125647e+000,-2.03924905051883e-001

3.11665831864199e+004,-8.08239560654828e+000,-2.06762165106587e-001

3.16016524745350e+004,-8.08241032666421e+000,-2.09638636765945e-001

3.20427951035848e+004,-8.08242545225992e+000,-2.12554850993749e-001

3.24900958542493e+004,-8.08244099426544e+000,-2.15511345497190e-001

3.29436406907028e+004,-8.08245696389256e+000,-2.18508664788631e-001

3.34035167771346e+004,-8.08247337264006e+000,-2.21547360260086e-001

3.38698124945009e+004,-8.08249023230112e+000,-2.24627990246111e-001

3.43426174575100e+004,-8.08250755497012e+000,-2.27751120088520e-001

3.48220225318448e+004,-8.08252535304858e+000,-2.30917322210505e-001

3.53081198516260e+004,-8.08254363925297e+000,-2.34127176176286e-001

3.58010028371187e+004,-8.08256242662084e+000,-2.37381268763397e-001

3.63007662126863e+004,-8.08258172851855e+000,-2.40680194024501e-001

3.68075060249948e+004,-8.08260155864836e+000,-2.44024553353857e-001

3.73213196614721e+004,-8.08262193105536e+000,-2.47414955554943e-001

3.78423058690237e+004,-8.08264286013481e+000,-2.50852016905355e-001

3.83705647730104e+004,-8.08266436064000e+000,-2.54336361218575e-001

3.89061978964912e+004,-8.08268644768928e+000,-2.57868619911561e-001

3.94493081797342e+004,-8.08270913677404e+000,-2.61449432064941e-001

3.99999999999998e+004,-8.08273244376636e+000,-2.65079444486431e-001

4.05583791916010e+004,-8.08275638492599e+000,-2.68759311777642e-001

4.11245530662425e+004,-8.08278097690924e+000,-2.72489696388599e-001

4.16986304336447e+004,-8.08280623677620e+000,-2.76271268681665e-001

4.22807216224550e+004,-8.08283218199880e+000,-2.80104706991167e-001

4.28709385014515e+004,-8.08285883046832e+000,-2.83990697683994e-001

4.34693945010421e+004,-8.08288620050412e+000,-2.87929935213511e-001

4.40762046350642e+004,-8.08291431086113e+000,-2.91923122178796e-001

4.46914855228886e+004,-8.08294318073788e+000,-2.95970969381187e-001

4.53153554118317e+004,-8.08297282978481e+000,-3.00074195875714e-001

4.59479341998812e+004,-8.08300327811180e+000,-3.04233529029030e-001

4.65893434587380e+004,-8.08303454629667e+000,-3.08449704566902e-001

4.72397064571810e+004,-8.08306665539292e+000,-3.12723466627774e-001

4.78991481847569e+004,-8.08309962693772e+000,-3.17055567810548e-001

4.85677953758016e+004,-8.08313348295951e+000,-3.21446769224630e-001

4.92457765337964e+004,-8.08316824598656e+000,-3.25897840532342e-001

4.99332219560642e+004,-8.08320393905380e+000,-3.30409559997703e-001

5.06302637588109e+004,-8.08324058571109e+000,-3.34982714526581e-001

5.13370359025159e+004,-8.08327821003063e+000,-3.39618099708487e-001

5.20536742176771e+004,-8.08331683661418e+000,-3.44316519856601e-001

5.27803164309155e+004,-8.08335649060048e+000,-3.49078788044549e-001

5.35171021914442e+004,-8.08339719767221e+000,-3.53905726142267e-001

5.42641730979066e+004,-8.08343898406291e+000,-3.58798164849690e-001

5.50216727255895e+004,-8.08348187656357e+000,-3.63756943728352e-001

5.57897466540159e+004,-8.08352590252946e+000,-3.68782911228141e-001

5.65685424949235e+004,-8.08357108988566e+000,-3.73876924718036e-001

5.73582099206328e+004,-8.08361746713315e+000,-3.79039850510726e-001

5.81589006928121e+004,-8.08366506335492e+000,-3.84272563880005e-001

5.89707686916437e+004,-8.08371390822008e+000,-3.89575949088633e-001

5.97939699453972e+004,-8.08376403198986e+000,-3.94950899399080e-001

6.06286626604156e+004,-8.08381546552093e+000,-4.00398317094913e-001

6.14750072515201e+004,-8.08386824027013e+000,-4.05919113489391e-001

6.23331663728396e+004,-8.08392238829787e+000,-4.11514208936165e-001

6.32033049490698e+004,-8.08397794227061e+000,-4.17184532840286e-001

6.40855902071694e+004,-8.08403493546378e+000,-4.22931023660626e-001

6.49801917084985e+004,-8.08409340176321e+000,-4.28754628914424e-001

6.58872813814055e+004,-8.08415337566672e+000,-4.34656305175401e-001

6.68070335542691e+004,-8.08421489228444e+000,-4.40637018072982e-001

6.77396249890018e+004,-8.08427798733817e+000,-4.46697742289201e-001

6.86852349150199e+004,-8.08434269716122e+000,-4.52839461546583e-001

6.96440450636895e+004,-8.08440905869584e+000,-4.59063168603642e-001

7.06162397032520e+004,-8.08447710949090e+000,-4.65369865239660e-001

7.16020056742374e+004,-8.08454688769825e+000,-4.71760562241068e-001

7.26015324253724e+004,-8.08461843206811e+000,-4.78236279384148e-001

7.36150120499896e+004,-8.08469178194336e+000,-4.84798045417619e-001

7.46426393229441e+004,-8.08476697725310e+000,-4.91446898039558e-001

7.56846117380472e+004,-8.08484405850456e+000,-4.98183883876860e-001

7.67411295460207e+004,-8.08492306677410e+000,-5.05010058458994e-001

7.78123957929823e+004,-8.08500404369715e+000,-5.11926486192010e-001

7.88986163594682e+004,-8.08508703145620e+000,-5.18934240331772e-001

7.99999999999995e+004,-8.08517207276819e+000,-5.26034402953449e-001

8.11167583832018e+004,-8.08525921086979e+000,-5.33228064923069e-001

8.22491061324848e+004,-8.08534848950130e+000,-5.40516325867316e-001

8.33972608672892e+004,-8.08543995288927e+000,-5.47900294141674e-001

8.45614432449099e+004,-8.08553364572741e+000,-5.55381086798084e-001

8.57418770029029e+004,-8.08562961315531e+000,-5.62959829556340e-001

8.69387890020841e+004,-8.08572790073593e+000,-5.70637656771998e-001

8.81524092701283e+004,-8.08582855443056e+000,-5.78415711409722e-001

8.93829710457770e+004,-8.08593162057307e+000,-5.86295145010327e-001

9.06307108236633e+004,-8.08603714584063e+000,-5.94277117669433e-001

9.18958683997622e+004,-8.08614517722351e+000,-6.02362798011048e-001

9.31786869174758e+004,-8.08625576199205e+000,-6.10553363168042e-001

9.44794129143618e+004,-8.08636894766213e+000,-6.18849998763163e-001

9.57982963695136e+004,-8.08648478195733e+000,-6.27253898898151e-001

9.71355907516031e+004,-8.08660331277012e+000,-6.35766266141699e-001

9.84915530675926e+004,-8.08672458811928e+000,-6.44388311529284e-001

9.98664439121282e+004,-8.08684865610556e+000,-6.53121254565779e-001

1.01260527517622e+005,-8.08697556486541e+000,-6.61966323231725e-001

1.02674071805032e+005,-8.08710536252064e+000,-6.70924754005414e-001

1.04107348435354e+005,-8.08723809712662e+000,-6.79997791887265e-001

1.05560632861831e+005,-8.08737381661778e+000,-6.89186690433324e-001

1.07034204382888e+005,-8.08751256874978e+000,-6.98492711804313e-001

1.08528346195813e+005,-8.08765440103921e+000,-7.07917126821321e-001

1.10043345451179e+005,-8.08779936070081e+000,-7.17461215036173e-001

1.11579493308032e+005,-8.08794749458162e+000,-7.27126264813476e-001

1.13137084989847e+005,-8.08809884909222e+000,-7.36913573429566e-001

1.14716419841265e+005,-8.08825347013523e+000,-7.46824447186078e-001

1.16317801385624e+005,-8.08841140303111e+000,-7.56860201539196e-001

1.17941537383287e+005,-8.08857269244099e+000,-7.67022161249210e-001

1.19587939890794e+005,-8.08873738228651e+000,-7.77311660549210e-001

1.21257325320831e+005,-8.08890551566737e+000,-7.87730043331392e-001

1.22950014503040e+005,-8.08907713477547e+000,-7.98278663360825e-001

1.24666332745679e+005,-8.08925228080683e+000,-8.08958884507389e-001

1.26406609898139e+005,-8.08943099387074e+000,-8.19772081005031e-001

1.28171180414339e+005,-8.08961331289623e+000,-8.30719637737256e-001

1.29960383416997e+005,-8.08979927553585e+000,-8.41802950550102e-001

1.31774562762811e+005,-8.08998891806759e+000,-8.53023426592682e-001

1.33614067108538e+005,-8.09018227529401e+000,-8.64382484689472e-001

1.35479249978003e+005,-8.09037938043912e+000,-8.75881555745863e-001

1.37370469830040e+005,-8.09058026504396e+000,-8.87522083182210e-001

1.39288090127379e+005,-8.09078495885924e+000,-8.99305523408632e-001

1.41232479406504e+005,-8.09099348973706e+000,-9.11233346332430e-001

1.43204011348474e+005,-8.09120588352095e+000,-9.23307035901519e-001

1.45203064850745e+005,-8.09142216393421e+000,-9.35528090691521e-001

1.47230024099979e+005,-8.09164235246746e+000,-9.47898024529905e-001

1.49285278645888e+005,-8.09186646826546e+000,-9.60418367159579e-001

1.51369223476094e+005,-8.09209452801296e+000,-9.73090664949685e-001

1.53482259092041e+005,-8.09232654582024e+000,-9.85916481647719e-001

1.55624791585964e+005,-8.09256253310907e+000,-9.98897399174563e-001

1.57797232718936e+005,-8.09280249849814e+000,-1.01203501846938e+000

1.59999999999999e+005,-8.09304644768973e+000,-1.02533096037777e+000

1.62233516766403e+005,-8.09329438335659e+000,-1.03878686659002e+000

1.64498212264969e+005,-8.09354630503121e+000,-1.05240440062239e+000

1.66794521734578e+005,-8.09380220899502e+000,-1.06618524885479e+000

1.69122886489819e+005,-8.09406208817110e+000,-1.08013112161013e+000

1.71483754005805e+005,-8.09432593201835e+000,-1.09424375428732e+000

1.73877578004168e+005,-8.09459372642881e+000,-1.10852490854087e+000

1.76304818540256e+005,-8.09486545362796e+000,-1.12297637351204e+000

1.78765942091554e+005,-8.09514109207856e+000,-1.13759996710776e+000

1.81261421647326e+005,-8.09542061638883e+000,-1.15239753732773e+000

1.83791736799524e+005,-8.09570399722439e+000,-1.16737096364171e+000

1.86357373834951e+005,-8.09599120122590e+000,-1.18252215841006e+000

1.88958825828723e+005,-8.09628219093112e+000,-1.19785306835574e+000

1.91596592739027e+005,-8.09657692470351e+000,-1.21336567607561e+000

1.94271181503206e+005,-8.09687535666585e+000,-1.22906200160198e+000

1.96983106135185e+005,-8.09717743664173e+000,-1.24494410399900e+000

1.99732887824256e+005,-8.09748311010304e+000,-1.26101408300483e+000

2.02521055035243e+005,-8.09779231812488e+000,-1.27727408070964e+000

2.05348143610063e+005,-8.09810499734840e+000,-1.29372628327110e+000

2.08214696870707e+005,-8.09842107995203e+000,-1.31037292266001e+000

2.11121265723661e+005,-8.09874049363025e+000,-1.32721627844155e+000

2.14068408765776e+005,-8.09906316158209e+000,-1.34425867957999e+000

2.17056692391625e+005,-8.09938900250785e+000,-1.36150250627263e+000

2.20086690902357e+005,-8.09971793061566e+000,-1.37895019180198e+000

2.23158986616063e+005,-8.10004985563743e+000,-1.39660422440905e+000

2.26274169979693e+005,-8.10038468285448e+000,-1.41446714917913e+000

2.29432839682530e+005,-8.10072231313322e+000,-1.43254156994075e+000

2.32635602771247e+005,-8.10106264297077e+000,-1.45083015117117e+000

2.35883074766574e+005,-8.10140556455093e+000,-1.46933561990477e+000

2.39175879781588e+005,-8.10175096581010e+000,-1.48806076764266e+000

2.42514650641661e+005,-8.10209873051380e+000,-1.50700845225453e+000

2.45900029006080e+005,-8.10244873834299e+000,-1.52618159987533e+000

2.49332665491357e+005,-8.10280086499081e+000,-1.54558320678585e+000

2.52813219796278e+005,-8.10315498226910e+000,-1.56521634127867e+000

2.56342360828676e+005,-8.10351095822518e+000,-1.58508414549903e+000

2.59920766833993e+005,-8.10386865726753e+000,-1.60518983726506e+000

2.63549125525621e+005,-8.10422794030157e+000,-1.62553671185423e+000

2.67228134217075e+005,-8.10458866487383e+000,-1.64612814375888e+000

2.70958499956006e+005,-8.10495068532559e+000,-1.66696758840127e+000

2.74740939660078e+005,-8.10531385295383e+000,-1.68805858381168e+000

2.78576180254757e+005,-8.10567801618098e+000,-1.70940475225664e+000

2.82464958813007e+005,-8.10604302073116e+000,-1.73100980182426e+000

2.86408022696948e+005,-8.10640870981401e+000,-1.75287752795330e+000

2.90406129701488e+005,-8.10677492431434e+000,-1.77501181491011e+000

2.94460048199957e+005,-8.10714150298730e+000,-1.79741663721000e+000

2.98570557291775e+005,-8.10750828265905e+000,-1.82009606097609e+000

3.02738446952187e+005,-8.10787509843141e+000,-1.84305424523789e+000

3.06964518184081e+005,-8.10824178389046e+000,-1.86629544316652e+000

3.11249583171928e+005,-8.10860817131761e+000,-1.88982400324507e+000

3.15594465437872e+005,-8.10897409190342e+000,-1.91364437037238e+000

3.19999999999997e+005,-8.10933937596278e+000,-1.93776108689879e+000

3.24467033532806e+005,-8.10970385315052e+000,-1.96217879359603e+000

3.28996424529938e+005,-8.11006735267719e+000,-1.98690223055903e+000

3.33589043469155e+005,-8.11042970352418e+000,-2.01193623803766e+000

3.38245772979638e+005,-8.11079073465702e+000,-2.03728575720567e+000

3.42967508011610e+005,-8.11115027523630e+000,-2.06295583085990e+000

3.47755156008335e+005,-8.11150815482583e+000,-2.08895160405611e+000

3.52609637080511e+005,-8.11186420359670e+000,-2.11527832468165e+000

3.57531884183106e+005,-8.11221825252697e+000,-2.14194134396631e+000

3.62522843294651e+005,-8.11257013359591e+000,-2.16894611693424e+000

3.67583473599047e+005,-8.11291967997277e+000,-2.19629820279831e+000

3.72714747669902e+005,-8.11326672619864e+000,-2.22400326530284e+000

3.77917651657445e+005,-8.11361110836127e+000,-2.25206707301272e+000

3.83193185478053e+005,-8.11395266426220e+000,-2.28049549955842e+000

3.88542363006410e+005,-8.11429123357580e+000,-2.30929452383380e+000

3.93966212270369e+005,-8.11462665799930e+000,-2.33847023015688e+000

3.99465775648511e+005,-8.11495878139373e+000,-2.36802880839309e+000

4.05042110070485e+005,-8.11528744991553e+000,-2.39797655404576e+000

4.10696287220124e+005,-8.11561251213749e+000,-2.42831986832267e+000

4.16429393741414e+005,-8.11593381916035e+000,-2.45906525817408e+000

4.22242531447321e+005,-8.11625122471296e+000,-2.49021933631701e+000

4.28136817531551e+005,-8.11656458524228e+000,-2.52178882124171e+000

4.34113384783250e+005,-8.11687375999206e+000,-2.55378053721080e+000

4.40173381804713e+005,-8.11717861107040e+000,-2.58620141425281e+000

4.46317973232124e+005,-8.11747900350637e+000,-2.61905848815444e+000

4.52548339959385e+005,-8.11777480529523e+000,-2.65235890045847e+000

4.58865679365059e+005,-8.11806588743240e+000,-2.68610989846882e+000

4.65271205542494e+005,-8.11835212393604e+000,-2.72031883527055e+000

4.71766149533147e+005,-8.11863339185905e+000,-2.75499316976558e+000

4.78351759563174e+005,-8.11890957128958e+000,-2.79014046673075e+000

4.85029301283321e+005,-8.11918054534062e+000,-2.82576839690305e+000

4.91800058012158e+005,-8.11944620012948e+000,-2.86188473709227e+000

4.98665330982714e+005,-8.11970642474620e+000,-2.89849737032914e+000

5.05626439592555e+005,-8.11996111121234e+000,-2.93561428605009e+000

5.12684721657352e+005,-8.12021015442920e+000,-2.97324358032360e+000

5.19841533667984e+005,-8.12045345211717e+000,-3.01139345611830e+000

5.27098251051240e+005,-8.12069090474519e+000,-3.05007222362142e+000

5.34456268434150e+005,-8.12092241545138e+000,-3.08928830060589e+000

5.41916999912011e+005,-8.12114788995536e+000,-3.12905021284874e+000

