Freq.,VOut,OutRef

1.00000000000000e+004,-6.52378863436447e+000,-1.25282897113397e-001

1.01395947979003e+004,-6.52378907304605e+000,-1.27031659373380e-001

1.02811382665607e+004,-6.52378952402676e+000,-1.28804828279869e-001

1.04246576084112e+004,-6.52378998765067e+000,-1.30602744316431e-001

1.05701804056138e+004,-6.52379046427103e+000,-1.32425752713806e-001

1.07177346253629e+004,-6.52379095425108e+000,-1.34274203509815e-001

1.08673486252606e+004,-6.52379145796430e+000,-1.36148451618663e-001

1.10190511587661e+004,-6.52379197579404e+000,-1.38048856901050e-001

1.11728713807222e+004,-6.52379250813505e+000,-1.39975784225971e-001

1.13288388529580e+004,-6.52379305539228e+000,-1.41929603548972e-001

1.14869835499703e+004,-6.52379361798253e+000,-1.43910689973690e-001

1.16473358646846e+004,-6.52379419633378e+000,-1.45919423830665e-001

1.18099266142953e+004,-6.52379479088587e+000,-1.47956190746979e-001

1.19747870461893e+004,-6.52379540209082e+000,-1.50021381718630e-001

1.21419488439505e+004,-6.52379603041368e+000,-1.52115393183431e-001

1.23114441334492e+004,-6.52379667633160e+000,-1.54238627102634e-001

1.24833054890161e+004,-6.52379734033538e+000,-1.56391491031600e-001

1.26575659397028e+004,-6.52379802292935e+000,-1.58574398198641e-001

1.28342589756290e+004,-6.52379872463181e+000,-1.60787767584265e-001

1.30134185544193e+004,-6.52379944597526e+000,-1.63032024001101e-001

1.31950791077289e+004,-6.52380018750692e+000,-1.65307598174167e-001

1.33792755478611e+004,-6.52380094978919e+000,-1.67614926821984e-001

1.35660432744767e+004,-6.52380173339987e+000,-1.69954452740215e-001

1.37554181813974e+004,-6.52380253893296e+000,-1.72326624884719e-001

1.39474366635040e+004,-6.52380336699847e+000,-1.74731898458716e-001

1.41421356237309e+004,-6.52380421822335e+000,-1.77170734997916e-001

1.43395524801583e+004,-6.52380509325201e+000,-1.79643602455896e-001

1.45397251732031e+004,-6.52380599274644e+000,-1.82150975295814e-001

1.47426921729110e+004,-6.52380691738658e+000,-1.84693334580861e-001

1.49484924863494e+004,-6.52380786787150e+000,-1.87271168060980e-001

1.51571656651040e+004,-6.52380884491912e+000,-1.89884970269935e-001

1.53687518128801e+004,-6.52380984926719e+000,-1.92535242615864e-001

1.55832915932100e+004,-6.52381088167371e+000,-1.95222493476938e-001

1.58008262372675e+004,-6.52381194291742e+000,-1.97947238297489e-001

1.60213975517924e+004,-6.52381303379830e+000,-2.00709999686319e-001

1.62450479271247e+004,-6.52381415513841e+000,-2.03511307512417e-001

1.64718203453514e+004,-6.52381530778225e+000,-2.06351699007942e-001

1.67017583885674e+004,-6.52381649259715e+000,-2.09231718869414e-001

1.69349062472505e+004,-6.52381771047427e+000,-2.12151919359023e-001

1.71713087287550e+004,-6.52381896232909e+000,-2.15112860408874e-001

1.74110112659224e+004,-6.52382024910196e+000,-2.18115109727158e-001

1.76540599258131e+004,-6.52382157175901e+000,-2.21159242903415e-001

1.79005014185594e+004,-6.52382293129247e+000,-2.24245843519376e-001

1.81503831063432e+004,-6.52382432872161e+000,-2.27375503256187e-001

1.84037530124975e+004,-6.52382576509321e+000,-2.30548822008312e-001

1.86606598307361e+004,-6.52382724148239e+000,-2.33766407994379e-001

1.89211529345119e+004,-6.52382875899401e+000,-2.37028877867423e-001

1.91852823865052e+004,-6.52383031876196e+000,-2.40336856840555e-001

1.94530989482457e+004,-6.52383192195126e+000,-2.43690978794533e-001

1.97246540898671e+004,-6.52383356975843e+000,-2.47091886399827e-001

1.99999999999999e+004,-6.52383526341189e+000,-2.50540231239927e-001

2.02791895958005e+004,-6.52383700417358e+000,-2.54036673926949e-001

2.05622765331213e+004,-6.52383879333903e+000,-2.57581884231047e-001

2.08493152168224e+004,-6.52384063223881e+000,-2.61176541201519e-001

2.11403608112276e+004,-6.52384252223905e+000,-2.64821333295565e-001

2.14354692507258e+004,-6.52384446474244e+000,-2.68516958506202e-001

2.17346972505211e+004,-6.52384646118929e+000,-2.72264124491914e-001

2.20381023175322e+004,-6.52384851305825e+000,-2.76063548708804e-001

2.23457427614443e+004,-6.52385062186774e+000,-2.79915958542214e-001

2.26576777059159e+004,-6.52385278917613e+000,-2.83822091446144e-001

2.29739670999406e+004,-6.52385501658378e+000,-2.87782695073880e-001

2.32946717293690e+004,-6.52385730573297e+000,-2.91798527423810e-001

2.36198532285905e+004,-6.52385965830996e+000,-2.95870356973411e-001

2.39495740923785e+004,-6.52386207604514e+000,-2.99998962827188e-001

2.42838976879009e+004,-6.52386456071524e+000,-3.04185134853736e-001

2.46228882668982e+004,-6.52386711414313e+000,-3.08429673840410e-001

2.49666109780322e+004,-6.52386973820023e+000,-3.12733391632505e-001

2.53151318794055e+004,-6.52387243480638e+000,-3.17097111291130e-001

2.56685179512580e+004,-6.52387520593264e+000,-3.21521667235357e-001

2.60268371088386e+004,-6.52387805360081e+000,-3.26007905405386e-001

2.63901582154578e+004,-6.52388097988583e+000,-3.30556683410874e-001

2.67585510957221e+004,-6.52388398691660e+000,-3.35168870691500e-001

2.71320865489533e+004,-6.52388707687708e+000,-3.39845348676698e-001

2.75108363627948e+004,-6.52389025200818e+000,-3.44587010943980e-001

2.78948733270080e+004,-6.52389351460854e+000,-3.49394763385475e-001

2.82842712474618e+004,-6.52389686703578e+000,-3.54269524373164e-001

2.86791049603164e+004,-6.52390031170875e+000,-3.59212224922215e-001

2.90794503464061e+004,-6.52390385110777e+000,-3.64223808866792e-001

2.94853843458219e+004,-6.52390748777670e+000,-3.69305233027635e-001

2.98969849726987e+004,-6.52391122432463e+000,-3.74457467384343e-001

3.03143313302078e+004,-6.52391506342629e+000,-3.79681495257866e-001

3.07375036257601e+004,-6.52391900782484e+000,-3.84978313479871e-001

3.11665831864199e+004,-6.52392306033233e+000,-3.90348932579711e-001

3.16016524745350e+004,-6.52392722383170e+000,-3.95794376964519e-001

3.20427951035848e+004,-6.52393150127835e+000,-4.01315685101767e-001

3.24900958542493e+004,-6.52393589570128e+000,-4.06913909710472e-001

3.29436406907028e+004,-6.52394041020527e+000,-4.12590117945582e-001

3.34035167771346e+004,-6.52394504797206e+000,-4.18345391592028e-001

3.38698124945009e+004,-6.52394981226165e+000,-4.24180827260127e-001

3.43426174575100e+004,-6.52395470641492e+000,-4.30097536575713e-001

3.48220225318448e+004,-6.52395973385413e+000,-4.36096646384687e-001

3.53081198516260e+004,-6.52396489808552e+000,-4.42179298948796e-001

3.58010028371187e+004,-6.52397020270006e+000,-4.48346652152989e-001

3.63007662126863e+004,-6.52397565137594e+000,-4.54599879706376e-001

3.68075060249948e+004,-6.52398124787968e+000,-4.60940171353447e-001

3.73213196614721e+004,-6.52398699606809e+000,-4.67368733082619e-001

3.78423058690237e+004,-6.52399289988993e+000,-4.73886787338346e-001

3.83705647730104e+004,-6.52399896338736e+000,-4.80495573238336e-001

3.89061978964912e+004,-6.52400519069794e+000,-4.87196346788530e-001

3.94493081797342e+004,-6.52401158605621e+000,-4.93990381105026e-001

3.99999999999998e+004,-6.52401815379525e+000,-5.00878966635539e-001

4.05583791916010e+004,-6.52402489834830e+000,-5.07863411386062e-001

4.11245530662425e+004,-6.52403182425089e+000,-5.14945041145419e-001

4.16986304336447e+004,-6.52403893614178e+000,-5.22125199719596e-001

4.22807216224550e+004,-6.52404623876511e+000,-5.29405249161425e-001

4.28709385014515e+004,-6.52405373697182e+000,-5.36786570006726e-001

4.34693945010421e+004,-6.52406143572126e+000,-5.44270561513170e-001

4.40762046350642e+004,-6.52406934008279e+000,-5.51858641899506e-001

4.46914855228886e+004,-6.52407745523718e+000,-5.59552248590283e-001

4.53153554118317e+004,-6.52408578647808e+000,-5.67352838462134e-001

4.59479341998812e+004,-6.52409433921358e+000,-5.75261888090576e-001

4.65893434587380e+004,-6.52410311896755e+000,-5.83280894003753e-001

4.72397064571810e+004,-6.52411213138105e+000,-5.91411372934232e-001

4.78991481847569e+004,-6.52412138221338e+000,-5.99654862078187e-001

4.85677953758016e+004,-6.52413087734341e+000,-6.08012919354781e-001

4.92457765337964e+004,-6.52414062277083e+000,-6.16487123667110e-001

4.99332219560642e+004,-6.52415062461709e+000,-6.25079075169082e-001

5.06302637588109e+004,-6.52416088912619e+000,-6.33790395534260e-001

5.13370359025159e+004,-6.52417142266608e+000,-6.42622728224543e-001

5.20536742176771e+004,-6.52418223172874e+000,-6.51577738767285e-001

5.27803164309155e+004,-6.52419332293148e+000,-6.60657115029294e-001

5.35171021914442e+004,-6.52420470301695e+000,-6.69862567499495e-001

5.42641730979066e+004,-6.52421637885388e+000,-6.79195829569827e-001

5.50216727255895e+004,-6.52422835743717e+000,-6.88658657822570e-001

5.57897466540159e+004,-6.52424064588808e+000,-6.98252832318414e-001

5.65685424949235e+004,-6.52425325145418e+000,-7.07980156889190e-001

5.73582099206328e+004,-6.52426618150922e+000,-7.17842459431811e-001

5.81589006928121e+004,-6.52427944355240e+000,-7.27841592208738e-001

5.89707686916437e+004,-6.52429304520803e+000,-7.37979432148003e-001

5.97939699453972e+004,-6.52430699422478e+000,-7.48257881147784e-001

6.06286626604156e+004,-6.52432129847420e+000,-7.58678866386318e-001

6.14750072515201e+004,-6.52433596595006e+000,-7.69244340630352e-001

6.23331663728396e+004,-6.52435100476630e+000,-7.79956282552206e-001

6.32033049490698e+004,-6.52436642315529e+000,-7.90816697047868e-001

6.40855902071694e+004,-6.52438222946583e+000,-8.01827615557877e-001

6.49801917084985e+004,-6.52439843216093e+000,-8.12991096391356e-001

6.58872813814055e+004,-6.52441503981455e+000,-8.24309225057949e-001

6.68070335542691e+004,-6.52443206110898e+000,-8.35784114597594e-001

6.77396249890018e+004,-6.52444950483121e+000,-8.47417905917676e-001

6.86852349150199e+004,-6.52446737986929e+000,-8.59212768132458e-001

6.96440450636895e+004,-6.52448569520756e+000,-8.71170898909203e-001

7.06162397032520e+004,-6.52450445992285e+000,-8.83294524812521e-001

7.16020056742374e+004,-6.52452368317868e+000,-8.95585901659389e-001

7.26015324253724e+004,-6.52454337422001e+000,-9.08047314874298e-001

7.36150120499896e+004,-6.52456354236718e+000,-9.20681079849204e-001

7.46426393229441e+004,-6.52458419700915e+000,-9.33489542309595e-001

7.56846117380472e+004,-6.52460534759675e+000,-9.46475078682424e-001

7.67411295460207e+004,-6.52462700363473e+000,-9.59640096471519e-001

7.78123957929823e+004,-6.52464917467357e+000,-9.72987034635247e-001

7.88986163594682e+004,-6.52467187030048e+000,-9.86518363972385e-001

7.99999999999995e+004,-6.52469510013025e+000,-1.00023658750774e+000

8.11167583832018e+004,-6.52471887379448e+000,-1.01414424089014e+000

8.22491061324848e+004,-6.52474320093140e+000,-1.02824389278777e+000

8.33972608672892e+004,-6.52476809117349e+000,-1.04253814529755e+000

8.45614432449099e+004,-6.52479355413563e+000,-1.05702963435305e+000

8.57418770029029e+004,-6.52481959940165e+000,-1.07172103014380e+000

8.69387890020841e+004,-6.52484623651048e+000,-1.08661503753653e+000

8.81524092701283e+004,-6.52487347494126e+000,-1.10171439650677e+000

8.93829710457770e+004,-6.52490132409752e+000,-1.11702188257430e+000

9.06307108236633e+004,-6.52492979329080e+000,-1.13254030724664e+000

9.18958683997622e+004,-6.52495889172278e+000,-1.14827251847069e+000

9.31786869174758e+004,-6.52498862846695e+000,-1.16422140109013e+000

9.44794129143618e+004,-6.52501901244897e+000,-1.18038987731267e+000

9.57982963695136e+004,-6.52505005242612e+000,-1.19678090718340e+000

9.71355907516031e+004,-6.52508175696570e+000,-1.21339748906865e+000

9.84915530675926e+004,-6.52511413442235e+000,-1.23024266014681e+000

9.98664439121282e+004,-6.52514719291408e+000,-1.24731949691064e+000

1.01260527517622e+005,-6.52518094029744e+000,-1.26463111567698e+000

1.02674071805032e+005,-6.52521538414144e+000,-1.28218067310715e+000

1.04107348435354e+005,-6.52525053169987e+000,-1.29997136674031e+000

1.05560632861831e+005,-6.52528638988318e+000,-1.31800643553277e+000

1.07034204382888e+005,-6.52532296522836e+000,-1.33628916041415e+000

1.08528346195813e+005,-6.52536026386818e+000,-1.35482286484970e+000

1.10043345451179e+005,-6.52539829149856e+000,-1.37361091542110e+000

1.11579493308032e+005,-6.52543705334513e+000,-1.39265672241500e+000

1.13137084989847e+005,-6.52547655412825e+000,-1.41196374042715e+000

1.14716419841265e+005,-6.52551679802685e+000,-1.43153546898044e+000

1.16317801385624e+005,-6.52555778864063e+000,-1.45137545315729e+000

1.17941537383287e+005,-6.52559952895133e+000,-1.47148728424672e+000

1.19587939890794e+005,-6.52564202128239e+000,-1.49187460040728e+000

1.21257325320831e+005,-6.52568526725738e+000,-1.51254108734645e+000

1.22950014503040e+005,-6.52572926775709e+000,-1.53349047901602e+000

1.24666332745679e+005,-6.52577402287509e+000,-1.55472655832748e+000

1.26406609898139e+005,-6.52581953187261e+000,-1.57625315788089e+000

1.28171180414339e+005,-6.52586579313101e+000,-1.59807416071838e+000

1.29960383416997e+005,-6.52591280410435e+000,-1.62019350109178e+000

1.31774562762811e+005,-6.52596056126946e+000,-1.64261516525412e+000

1.33614067108538e+005,-6.52600906007544e+000,-1.66534319227103e+000

1.35479249978003e+005,-6.52605829489216e+000,-1.68838167485108e+000

1.37370469830040e+005,-6.52610825895694e+000,-1.71173476020246e+000

1.39288090127379e+005,-6.52615894432075e+000,-1.73540665090943e+000

1.41232479406504e+005,-6.52621034179305e+000,-1.75940160583356e+000

1.43204011348474e+005,-6.52626244088570e+000,-1.78372394103936e+000

1.45203064850745e+005,-6.52631522975597e+000,-1.80837803074328e+000

1.47230024099979e+005,-6.52636869514889e+000,-1.83336830828978e+000

1.49285278645888e+005,-6.52642282233833e+000,-1.85869926715321e+000

1.51369223476094e+005,-6.52647759506794e+000,-1.88437546196559e+000

1.53482259092041e+005,-6.52653299549108e+000,-1.91040150957284e+000

1.55624791585964e+005,-6.52658900411044e+000,-1.93678209011821e+000

1.57797232718936e+005,-6.52664559971719e+000,-1.96352194815381e+000

1.59999999999999e+005,-6.52670275932987e+000,-1.99062589378172e+000

1.62233516766403e+005,-6.52676045813283e+000,-2.01809880382515e+000

1.64498212264969e+005,-6.52681866941504e+000,-2.04594562302730e+000

1.66794521734578e+005,-6.52687736450849e+000,-2.07417136528251e+000

1.69122886489819e+005,-6.52693651272694e+000,-2.10278111489692e+000

1.71483754005805e+005,-6.52699608130505e+000,-2.13178002787990e+000

1.73877578004168e+005,-6.52705603533765e+000,-2.16117333326792e+000

1.76304818540256e+005,-6.52711633771978e+000,-2.19096633447751e+000

1.78765942091554e+005,-6.52717694908747e+000,-2.22116441069097e+000

1.81261421647326e+005,-6.52723782775892e+000,-2.25177301827441e+000

1.83791736799524e+005,-6.52729892967741e+000,-2.28279769222407e+000

1.86357373834951e+005,-6.52736020835443e+000,-2.31424404764769e+000

1.88958825828723e+005,-6.52742161481480e+000,-2.34611778127473e+000

1.91596592739027e+005,-6.52748309754256e+000,-2.37842467299874e+000

1.94271181503206e+005,-6.52754460242894e+000,-2.41117058744980e+000

1.96983106135185e+005,-6.52760607272162e+000,-2.44436147559697e+000

1.99732887824256e+005,-6.52766744897587e+000,-2.47800337638238e+000

2.02521055035243e+005,-6.52772866900763e+000,-2.51210241838237e+000

2.05348143610063e+005,-6.52778966784865e+000,-2.54666482149948e+000

2.08214696870707e+005,-6.52785037770355e+000,-2.58169689868176e+000

2.11121265723661e+005,-6.52791072790957e+000,-2.61720505766921e+000

2.14068408765776e+005,-6.52797064489828e+000,-2.65319580276713e+000

2.17056692391625e+005,-6.52803005215980e+000,-2.68967573664572e+000

2.20086690902357e+005,-6.52808887020948e+000,-2.72665156216506e+000

2.23158986616063e+005,-6.52814701655759e+000,-2.76413008422109e+000

2.26274169979693e+005,-6.52820440568100e+000,-2.80211821161832e+000

2.29432839682530e+005,-6.52826094899790e+000,-2.84062295896141e+000

2.32635602771247e+005,-6.52831655484507e+000,-2.87965144856930e+000

2.35883074766574e+005,-6.52837112845798e+000,-2.91921091240763e+000

2.39175879781588e+005,-6.52842457195346e+000,-2.95930869403994e+000

2.42514650641661e+005,-6.52847678431497e+000,-2.99995225059560e+000

2.45900029006080e+005,-6.52852766138058e+000,-3.04114915475494e+000

2.49332665491357e+005,-6.52857709583369e+000,-3.08290709674618e+000

2.52813219796278e+005,-6.52862497719583e+000,-3.12523388635939e+000

2.56342360828676e+005,-6.52867119182198e+000,-3.16813745497013e+000

2.59920766833993e+005,-6.52871562289863e+000,-3.21162585757387e+000

2.63549125525621e+005,-6.52875815044314e+000,-3.25570727483247e+000

2.67228134217075e+005,-6.52879865130568e+000,-3.30039001512768e+000

2.70958499956006e+005,-6.52883699917291e+000,-3.34568251662184e+000

2.74740939660078e+005,-6.52887306457312e+000,-3.39159334932729e+000

2.78576180254757e+005,-6.52890671488288e+000,-3.43813121717832e+000

2.82464958813007e+005,-6.52893781433489e+000,-3.48530496011163e+000

2.86408022696948e+005,-6.52896622402673e+000,-3.53312355614789e+000

2.90406129701488e+005,-6.52899180193054e+000,-3.58159612347700e+000

2.94460048199957e+005,-6.52901440290277e+000,-3.63073192254835e+000

2.98570557291775e+005,-6.52903387869434e+000,-3.68054035816038e+000

3.02738446952187e+005,-6.52905007796070e+000,-3.73103098155391e+000

3.06964518184081e+005,-6.52906284627134e+000,-3.78221349250580e+000

3.11249583171928e+005,-6.52907202611849e+000,-3.83409774142635e+000

3.15594465437872e+005,-6.52907745692480e+000,-3.88669373145614e+000

3.19999999999997e+005,-6.52907897504976e+000,-3.94001162056521e+000

3.24467033532806e+005,-6.52907641379412e+000,-3.99406172365516e+000

3.28996424529938e+005,-6.52906960340243e+000,-4.04885451466270e+000

3.33589043469155e+005,-6.52905837106309e+000,-4.10440062866687e+000

3.38245772979638e+005,-6.52904254090549e+000,-4.16071086400031e+000

3.42967508011610e+005,-6.52902193399427e+000,-4.21779618436552e+000

3.47755156008335e+005,-6.52899636832011e+000,-4.27566772095518e+000

3.52609637080511e+005,-6.52896565878645e+000,-4.33433677458255e+000

3.57531884183106e+005,-6.52892961719253e+000,-4.39381481781677e+000

3.62522843294651e+005,-6.52888805221160e+000,-4.45411349713057e+000

3.67583473599047e+005,-6.52884076936458e+000,-4.51524463505866e+000

3.72714747669902e+005,-6.52878757098868e+000,-4.57722023236758e+000

3.77917651657445e+005,-6.52872825620052e+000,-4.64005247024301e+000

3.83193185478053e+005,-6.52866262085367e+000,-4.70375371249196e+000

3.88542363006410e+005,-6.52859045749025e+000,-4.76833650776515e+000

3.93966212270369e+005,-6.52851155528655e+000,-4.83381359179840e+000

3.99465775648511e+005,-6.52842569999183e+000,-4.90019788968049e+000

4.05042110070485e+005,-6.52833267386071e+000,-4.96750251814363e+000

4.10696287220124e+005,-6.52823225557874e+000,-5.03574078788330e+000

4.16429393741414e+005,-6.52812422018062e+000,-5.10492620590898e+000

4.22242531447321e+005,-6.52800833896154e+000,-5.17507247792569e+000

4.28136817531551e+005,-6.52788437938055e+000,-5.24619351075474e+000

4.34113384783250e+005,-6.52775210495684e+000,-5.31830341478866e+000

4.40173381804713e+005,-6.52761127515809e+000,-5.39141650648947e+000

4.46317973232124e+005,-6.52746164528060e+000,-5.46554731092997e+000

4.52548339959385e+005,-6.52730296632208e+000,-5.54071056438086e+000

4.58865679365059e+005,-6.52713498484591e+000,-5.61692121694649e+000

4.65271205542494e+005,-6.52695744283733e+000,-5.69419443525256e+000

4.71766149533147e+005,-6.52677007755129e+000,-5.77254560518863e+000

4.78351759563174e+005,-6.52657262135229e+000,-5.85199033470658e+000

4.85029301283321e+005,-6.52636480154573e+000,-5.93254445667872e+000

4.91800058012158e+005,-6.52614634020050e+000,-6.01422403181986e+000

4.98665330982714e+005,-6.52591695396385e+000,-6.09704535167201e+000

5.05626439592555e+005,-6.52567635386719e+000,-6.18102494165849e+000

5.12684721657352e+005,-6.52542424512394e+000,-6.26617956420699e+000

5.19841533667984e+005,-6.52516032691838e+000,-6.35252622194694e+000

5.27098251051240e+005,-6.52488429218650e+000,-6.44008216098027e+000

5.34456268434150e+005,-6.52459582738840e+000,-6.52886487423056e+000

5.41916999912011e+005,-6.52429461227179e+000,-6.61889210487418e+000

