Freq.,VOut,OutRef

1.00000000000000e+004,-1.26133822563238e+001,-1.23549404874334e-001

1.01395947979003e+004,-1.26133831398435e+001,-1.25273902671176e-001

1.02811382665607e+004,-1.26133840481506e+001,-1.27022465603242e-001

1.04246576084112e+004,-1.26133849819390e+001,-1.28795429271272e-001

1.05701804056138e+004,-1.26133859419221e+001,-1.30593133944078e-001

1.07177346253629e+004,-1.26133869288329e+001,-1.32415924628222e-001

1.08673486252606e+004,-1.26133879434252e+001,-1.34264151128357e-001

1.10190511587661e+004,-1.26133889864732e+001,-1.36138168118962e-001

1.11728713807222e+004,-1.26133900587733e+001,-1.38038335206208e-001

1.13288388529580e+004,-1.26133911611435e+001,-1.39965017000704e-001

1.14869835499703e+004,-1.26133922944253e+001,-1.41918583182088e-001

1.16473358646846e+004,-1.26133934594829e+001,-1.43899408573070e-001

1.18099266142953e+004,-1.26133946572046e+001,-1.45907873210259e-001

1.19747870461893e+004,-1.26133958885040e+001,-1.47944362411231e-001

1.21419488439505e+004,-1.26133971543195e+001,-1.50009266853510e-001

1.23114441334492e+004,-1.26133984556157e+001,-1.52102982646057e-001

1.24833054890161e+004,-1.26133997933841e+001,-1.54225911401654e-001

1.26575659397028e+004,-1.26134011686437e+001,-1.56378460317258e-001

1.28342589756290e+004,-1.26134025824418e+001,-1.58561042247316e-001

1.30134185544193e+004,-1.26134040358549e+001,-1.60774075782103e-001

1.31950791077289e+004,-1.26134055299888e+001,-1.63017985331550e-001

1.33792755478611e+004,-1.26134070659806e+001,-1.65293201197112e-001

1.35660432744767e+004,-1.26134086449986e+001,-1.67600159659047e-001

1.37554181813974e+004,-1.26134102682439e+001,-1.69939303054765e-001

1.39474366635040e+004,-1.26134119369499e+001,-1.72311079869024e-001

1.41421356237309e+004,-1.26134136523851e+001,-1.74715944807438e-001

1.43395524801583e+004,-1.26134154158529e+001,-1.77154358889900e-001

1.45397251732031e+004,-1.26134172286922e+001,-1.79626789536240e-001

1.47426921729110e+004,-1.26134190922794e+001,-1.82133710652259e-001

1.49484924863494e+004,-1.26134210080290e+001,-1.84675602718755e-001

1.51571656651040e+004,-1.26134229773943e+001,-1.87252952881756e-001

1.53687518128801e+004,-1.26134250018689e+001,-1.89866255045387e-001

1.55832915932100e+004,-1.26134270829874e+001,-1.92516009963196e-001

1.58008262372675e+004,-1.26134292223270e+001,-1.95202725330716e-001

1.60213975517924e+004,-1.26134314215080e+001,-1.97926915883872e-001

1.62450479271247e+004,-1.26134336821957e+001,-2.00689103489269e-001

1.64718203453514e+004,-1.26134360061010e+001,-2.03489817249892e-001

1.67017583885674e+004,-1.26134383949819e+001,-2.06329593595741e-001

1.69349062472505e+004,-1.26134408506448e+001,-2.09208976388400e-001

1.71713087287550e+004,-1.26134433749457e+001,-2.12128517023020e-001

1.74110112659224e+004,-1.26134459697917e+001,-2.15088774524849e-001

1.76540599258131e+004,-1.26134486371419e+001,-2.18090315663412e-001

1.79005014185594e+004,-1.26134513790094e+001,-2.21133715047065e-001

1.81503831063432e+004,-1.26134541974624e+001,-2.24219555237003e-001

1.84037530124975e+004,-1.26134570946256e+001,-2.27348426853820e-001

1.86606598307361e+004,-1.26134600726821e+001,-2.30520928682211e-001

1.89211529345119e+004,-1.26134631338745e+001,-2.33737667789297e-001

1.91852823865052e+004,-1.26134662805065e+001,-2.36999259632301e-001

1.94530989482457e+004,-1.26134695149450e+001,-2.40306328171654e-001

1.97246540898671e+004,-1.26134728396213e+001,-2.43659505988629e-001

1.99999999999999e+004,-1.26134762570329e+001,-2.47059434401160e-001

2.02791895958005e+004,-1.26134797697454e+001,-2.50506763580505e-001

2.05622765331213e+004,-1.26134833803941e+001,-2.54002152672335e-001

2.08493152168224e+004,-1.26134870916860e+001,-2.57546269916487e-001

2.11403608112276e+004,-1.26134909064013e+001,-2.61139792773025e-001

2.14354692507258e+004,-1.26134948273959e+001,-2.64783408040470e-001

2.17346972505211e+004,-1.26134988576032e+001,-2.68477811984744e-001

2.20381023175322e+004,-1.26135030000354e+001,-2.72223710468834e-001

2.23457427614443e+004,-1.26135072577866e+001,-2.76021819076915e-001

2.26576777059159e+004,-1.26135116340343e+001,-2.79872863247028e-001

2.29739670999406e+004,-1.26135161320418e+001,-2.83777578402159e-001

2.32946717293690e+004,-1.26135207551600e+001,-2.87736710086884e-001

2.36198532285905e+004,-1.26135255068305e+001,-2.91751014095997e-001

2.39495740923785e+004,-1.26135303905866e+001,-2.95821256620477e-001

2.42838976879009e+004,-1.26135354100571e+001,-2.99948214376108e-001

2.46228882668982e+004,-1.26135405689677e+001,-3.04132674752729e-001

2.49666109780322e+004,-1.26135458711438e+001,-3.08375435950066e-001

2.53151318794055e+004,-1.26135513205133e+001,-3.12677307122135e-001

2.56685179512580e+004,-1.26135569211086e+001,-3.17039108526227e-001

2.60268371088386e+004,-1.26135626770694e+001,-3.21461671666517e-001

2.63901582154578e+004,-1.26135685926461e+001,-3.25945839441755e-001

2.67585510957221e+004,-1.26135746722014e+001,-3.30492466300031e-001

2.71320865489533e+004,-1.26135809202141e+001,-3.35102418387029e-001

2.75108363627948e+004,-1.26135873412812e+001,-3.39776573703613e-001

2.78948733270080e+004,-1.26135939401210e+001,-3.44515822259174e-001

2.82842712474618e+004,-1.26136007215771e+001,-3.49321066227387e-001

2.86791049603164e+004,-1.26136076906195e+001,-3.54193220112310e-001

2.90794503464061e+004,-1.26136148523496e+001,-3.59133210902266e-001

2.94853843458219e+004,-1.26136222120021e+001,-3.64141978236745e-001

2.98969849726987e+004,-1.26136297749488e+001,-3.69220474573127e-001

3.03143313302078e+004,-1.26136375467019e+001,-3.74369665347383e-001

3.07375036257601e+004,-1.26136455329170e+001,-3.79590529148911e-001

3.11665831864199e+004,-1.26136537393967e+001,-3.84884057888756e-001

3.16016524745350e+004,-1.26136621720944e+001,-3.90251256970229e-001

3.20427951035848e+004,-1.26136708371172e+001,-3.95693145465599e-001

3.24900958542493e+004,-1.26136797407300e+001,-4.01210756292261e-001

3.29436406907028e+004,-1.26136888893589e+001,-4.06805136388838e-001

3.34035167771346e+004,-1.26136982895949e+001,-4.12477346898073e-001

3.38698124945009e+004,-1.26137079481980e+001,-4.18228463344071e-001

3.43426174575100e+004,-1.26137178721005e+001,-4.24059575823834e-001

3.48220225318448e+004,-1.26137280684116e+001,-4.29971789184344e-001

3.53081198516260e+004,-1.26137385444208e+001,-4.35966223215564e-001

3.58010028371187e+004,-1.26137493076017e+001,-4.42044012840539e-001

3.63007662126863e+004,-1.26137603656170e+001,-4.48206308303390e-001

3.68075060249948e+004,-1.26137717263217e+001,-4.54454275366955e-001

3.73213196614721e+004,-1.26137833977679e+001,-4.60789095503727e-001

3.78423058690237e+004,-1.26137953882085e+001,-4.67211966099218e-001

3.83705647730104e+004,-1.26138077061020e+001,-4.73724100644785e-001

3.89061978964912e+004,-1.26138203601164e+001,-4.80326728945682e-001

3.94493081797342e+004,-1.26138333591336e+001,-4.87021097320157e-001

3.99999999999998e+004,-1.26138467122545e+001,-4.93808468804761e-001

4.05583791916010e+004,-1.26138604288023e+001,-5.00690123364979e-001

4.11245530662425e+004,-1.26138745183279e+001,-5.07667358101871e-001

4.16986304336447e+004,-1.26138889906141e+001,-5.14741487464313e-001

4.22807216224550e+004,-1.26139038556801e+001,-5.21913843461885e-001

4.28709385014515e+004,-1.26139191237862e+001,-5.29185775881076e-001

4.34693945010421e+004,-1.26139348054384e+001,-5.36558652501163e-001

4.40762046350642e+004,-1.26139509113928e+001,-5.44033859316489e-001

4.46914855228886e+004,-1.26139674526607e+001,-5.51612800752608e-001

4.53153554118317e+004,-1.26139844405125e+001,-5.59296899895817e-001

4.59479341998812e+004,-1.26140018864830e+001,-5.67087598713244e-001

4.65893434587380e+004,-1.26140198023760e+001,-5.74986358281813e-001

4.72397064571810e+004,-1.26140382002682e+001,-5.82994659019358e-001

4.78991481847569e+004,-1.26140570925148e+001,-5.91114000912592e-001

4.85677953758016e+004,-1.26140764917533e+001,-5.99345903752881e-001

4.92457765337964e+004,-1.26140964109084e+001,-6.07691907370638e-001

4.99332219560642e+004,-1.26141168631963e+001,-6.16153571871260e-001

5.06302637588109e+004,-1.26141378621294e+001,-6.24732477876891e-001

5.13370359025159e+004,-1.26141594215204e+001,-6.33430226765295e-001

5.20536742176771e+004,-1.26141815554867e+001,-6.42248440914066e-001

5.27803164309155e+004,-1.26142042784549e+001,-6.51188763945705e-001

5.35171021914442e+004,-1.26142276051643e+001,-6.60252860974931e-001

5.42641730979066e+004,-1.26142515506714e+001,-6.69442418858524e-001

5.50216727255895e+004,-1.26142761303538e+001,-6.78759146444588e-001

5.57897466540159e+004,-1.26143013599139e+001,-6.88204774827742e-001

5.65685424949235e+004,-1.26143272553822e+001,-6.97781057603790e-001

5.73582099206328e+004,-1.26143538331212e+001,-7.07489771128271e-001

5.81589006928121e+004,-1.26143811098286e+001,-7.17332714773411e-001

5.89707686916437e+004,-1.26144091025399e+001,-7.27311711193037e-001

5.97939699453972e+004,-1.26144378286322e+001,-7.37428606582607e-001

6.06286626604156e+004,-1.26144673058257e+001,-7.47685270949664e-001

6.14750072515201e+004,-1.26144975521871e+001,-7.58083598377394e-001

6.23331663728396e+004,-1.26145285861311e+001,-7.68625507298275e-001

6.32033049490698e+004,-1.26145604264226e+001,-7.79312940764496e-001

6.40855902071694e+004,-1.26145930921777e+001,-7.90147866724738e-001

6.49801917084985e+004,-1.26146266028656e+001,-8.01132278299442e-001

6.58872813814055e+004,-1.26146609783089e+001,-8.12268194061942e-001

6.68070335542691e+004,-1.26146962386840e+001,-8.23557658319758e-001

6.77396249890018e+004,-1.26147324045218e+001,-8.35002741400034e-001

6.86852349150199e+004,-1.26147694967063e+001,-8.46605539935275e-001

6.96440450636895e+004,-1.26148075364747e+001,-8.58368177154297e-001

7.06162397032520e+004,-1.26148465454152e+001,-8.70292803175851e-001

7.16020056742374e+004,-1.26148865454661e+001,-8.82381595300595e-001

7.26015324253724e+004,-1.26149275589122e+001,-8.94636758314107e-001

7.36150120499896e+004,-1.26149696083831e+001,-9.07060524784184e-001

7.46426393229441e+004,-1.26150127168484e+001,-9.19655155369352e-001

7.56846117380472e+004,-1.26150569076142e+001,-9.32422939123628e-001

7.67411295460207e+004,-1.26151022043179e+001,-9.45366193809380e-001

7.78123957929823e+004,-1.26151486309226e+001,-9.58487266213533e-001

7.88986163594682e+004,-1.26151962117108e+001,-9.71788532463866e-001

7.99999999999995e+004,-1.26152449712769e+001,-9.85272398354670e-001

8.11167583832018e+004,-1.26152949345196e+001,-9.98941299672277e-001

8.22491061324848e+004,-1.26153461266329e+001,-1.01279770252631e+000

8.33972608672892e+004,-1.26153985730960e+001,-1.02684410368682e+000

8.45614432449099e+004,-1.26154522996632e+001,-1.04108303092417e+000

8.57418770029029e+004,-1.26155073323520e+001,-1.05551704335603e+000

8.69387890020841e+004,-1.26155636974300e+001,-1.07014873179810e+000

8.81524092701283e+004,-1.26156214214020e+001,-1.08498071912098e+000

8.93829710457770e+004,-1.26156805309944e+001,-1.10001566061521e+000

9.06307108236633e+004,-1.26157410531395e+001,-1.11525624435774e+000

9.18958683997622e+004,-1.26158030149588e+001,-1.13070519159116e+000

9.31786869174758e+004,-1.26158664437439e+001,-1.14636525710517e+000

9.44794129143618e+004,-1.26159313669376e+001,-1.16223922962722e+000

9.57982963695136e+004,-1.26159978121126e+001,-1.17832993222241e+000

9.71355907516031e+004,-1.26160658069495e+001,-1.19464022269982e+000

9.84915530675926e+004,-1.26161353792133e+001,-1.21117299402807e+000

9.98664439121282e+004,-1.26162065567284e+001,-1.22793117476079e+000

1.01260527517622e+005,-1.26162793673521e+001,-1.24491772947176e+000

1.02674071805032e+005,-1.26163538389470e+001,-1.26213565920080e+000

1.04107348435354e+005,-1.26164299993517e+001,-1.27958800190768e+000

1.05560632861831e+005,-1.26165078763498e+001,-1.29727783294339e+000

1.07034204382888e+005,-1.26165874976378e+001,-1.31520826552785e+000

1.08528346195813e+005,-1.26166688907910e+001,-1.33338245124338e+000

1.10043345451179e+005,-1.26167520832283e+001,-1.35180358054075e+000

1.11579493308032e+005,-1.26168371021747e+001,-1.37047488326056e+000

1.13137084989847e+005,-1.26169239746230e+001,-1.38939962916817e+000

1.14716419841265e+005,-1.26170127272937e+001,-1.40858112850390e+000

1.16317801385624e+005,-1.26171033865926e+001,-1.42802273255193e+000

1.17941537383287e+005,-1.26171959785676e+001,-1.44772783422386e+000

1.19587939890794e+005,-1.26172905288640e+001,-1.46769986866267e+000

1.21257325320831e+005,-1.26173870626771e+001,-1.48794231386265e+000

1.22950014503040e+005,-1.26174856047046e+001,-1.50845869131325e+000

1.24666332745679e+005,-1.26175861790967e+001,-1.52925256665721e+000

1.26406609898139e+005,-1.26176888094047e+001,-1.55032755037812e+000

1.28171180414339e+005,-1.26177935185284e+001,-1.57168729850335e+000

1.29960383416997e+005,-1.26179003286619e+001,-1.59333551333443e+000

1.31774562762811e+005,-1.26180092612383e+001,-1.61527594419931e+000

1.33614067108538e+005,-1.26181203368725e+001,-1.63751238823225e+000

1.35479249978003e+005,-1.26182335753036e+001,-1.66004869117716e+000

1.37370469830040e+005,-1.26183489953355e+001,-1.68288874821990e+000

1.39288090127379e+005,-1.26184666147766e+001,-1.70603650484658e+000

1.41232479406504e+005,-1.26185864503786e+001,-1.72949595773306e+000

1.43204011348474e+005,-1.26187085177748e+001,-1.75327115566208e+000

1.45203064850745e+005,-1.26188328314165e+001,-1.77736620047293e+000

1.47230024099979e+005,-1.26189594045102e+001,-1.80178524804051e+000

1.49285278645888e+005,-1.26190882489536e+001,-1.82653250928755e+000

1.51369223476094e+005,-1.26192193752711e+001,-1.85161225123184e+000

1.53482259092041e+005,-1.26193527925495e+001,-1.87702879806393e+000

1.55624791585964e+005,-1.26194885083734e+001,-1.90278653226250e+000

1.57797232718936e+005,-1.26196265287609e+001,-1.92888989574343e+000

1.59999999999999e+005,-1.26197668580997e+001,-1.95534339104466e+000

1.62233516766403e+005,-1.26199094990835e+001,-1.98215158254911e+000

1.64498212264969e+005,-1.26200544526492e+001,-2.00931909774327e+000

1.66794521734578e+005,-1.26202017179151e+001,-2.03685062851337e+000

1.69122886489819e+005,-1.26203512921202e+001,-2.06475093248039e+000

1.71483754005805e+005,-1.26205031705648e+001,-2.09302483437230e+000

1.73877578004168e+005,-1.26206573465528e+001,-2.12167722743459e+000

1.76304818540256e+005,-1.26208138113356e+001,-2.15071307488041e+000

1.78765942091554e+005,-1.26209725540584e+001,-2.18013741137729e+000

1.81261421647326e+005,-1.26211335617083e+001,-2.20995534457489e+000

1.83791736799524e+005,-1.26212968190654e+001,-2.24017205666795e+000

1.86357373834951e+005,-1.26214623086567e+001,-2.27079280600007e+000

1.88958825828723e+005,-1.26216300107122e+001,-2.30182292870276e+000

1.91596592739027e+005,-1.26217999031258e+001,-2.33326784037304e+000

1.94271181503206e+005,-1.26219719614177e+001,-2.36513303778700e+000

1.96983106135185e+005,-1.26221461587027e+001,-2.39742410064732e+000

1.99732887824256e+005,-1.26223224656606e+001,-2.43014669337042e+000

2.02521055035243e+005,-1.26225008505124e+001,-2.46330656690058e+000

2.05348143610063e+005,-1.26226812789991e+001,-2.49690956056277e+000

2.08214696870707e+005,-1.26228637143674e+001,-2.53096160394417e+000

2.11121265723661e+005,-1.26230481173581e+001,-2.56546871880565e+000

2.14068408765776e+005,-1.26232344462007e+001,-2.60043702102354e+000

2.17056692391625e+005,-1.26234226566131e+001,-2.63587272255730e+000

2.20086690902357e+005,-1.26236127018063e+001,-2.67178213344323e+000

2.23158986616063e+005,-1.26238045324945e+001,-2.70817166381255e+000

2.26274169979693e+005,-1.26239980969117e+001,-2.74504782593007e+000

2.29432839682530e+005,-1.26241933408327e+001,-2.78241723625446e+000

2.32635602771247e+005,-1.26243902076009e+001,-2.82028661751654e+000

2.35883074766574e+005,-1.26245886381614e+001,-2.85866280081196e+000

2.39175879781588e+005,-1.26247885711002e+001,-2.89755272771009e+000

2.42514650641661e+005,-1.26249899426896e+001,-2.93696345237352e+000

2.45900029006080e+005,-1.26251926869383e+001,-2.97690214368707e+000

2.49332665491357e+005,-1.26253967356492e+001,-3.01737608739547e+000

2.52813219796278e+005,-1.26256020184813e+001,-3.05839268824539e+000

2.56342360828676e+005,-1.26258084630177e+001,-3.09995947213164e+000

2.59920766833993e+005,-1.26260159948400e+001,-3.14208408824231e+000

2.63549125525621e+005,-1.26262245376071e+001,-3.18477431120654e+000

2.67228134217075e+005,-1.26264340131398e+001,-3.22803804323441e+000

2.70958499956006e+005,-1.26266443415097e+001,-3.27188331625683e+000

2.74740939660078e+005,-1.26268554411344e+001,-3.31631829405432e+000

2.78576180254757e+005,-1.26270672288754e+001,-3.36135127437885e+000

2.82464958813007e+005,-1.26272796201419e+001,-3.40699069106548e+000

2.86408022696948e+005,-1.26274925289974e+001,-3.45324511613082e+000

2.90406129701488e+005,-1.26277058682708e+001,-3.50012326185839e+000

2.94460048199957e+005,-1.26279195496703e+001,-3.54763398287016e+000

2.98570557291775e+005,-1.26281334839005e+001,-3.59578627817995e+000

3.02738446952187e+005,-1.26283475807823e+001,-3.64458929323200e+000

3.06964518184081e+005,-1.26285617493744e+001,-3.69405232192120e+000

3.11249583171928e+005,-1.26287758980973e+001,-3.74418480859359e+000

3.15594465437872e+005,-1.26289899348581e+001,-3.79499635003077e+000

3.19999999999997e+005,-1.26292037671770e+001,-3.84649669741221e+000

3.24467033532806e+005,-1.26294173023133e+001,-3.89869575826170e+000

3.28996424529938e+005,-1.26296304473927e+001,-3.95160359837220e+000

3.33589043469155e+005,-1.26298431095331e+001,-4.00523044371446e+000

3.38245772979638e+005,-1.26300551959709e+001,-4.05958668232596e+000

3.42967508011610e+005,-1.26302666141849e+001,-4.11468286618465e+000

3.47755156008335e+005,-1.26304772720194e+001,-4.17052971306465e+000

3.52609637080511e+005,-1.26306870778049e+001,-4.22713810837943e+000

3.57531884183106e+005,-1.26308959404769e+001,-4.28451910700921e+000

3.62522843294651e+005,-1.26311037696909e+001,-4.34268393511899e+000

3.67583473599047e+005,-1.26313104759355e+001,-4.40164399196365e+000

3.72714747669902e+005,-1.26315159706406e+001,-4.46141085168763e+000

3.77917651657445e+005,-1.26317201662829e+001,-4.52199626511746e+000

3.83193185478053e+005,-1.26319229764864e+001,-4.58341216154971e+000

3.88542363006410e+005,-1.26321243161186e+001,-4.64567065053875e+000

3.93966212270369e+005,-1.26323241013821e+001,-4.70878402368556e+000

3.99465775648511e+005,-1.26325222499012e+001,-4.77276475642913e+000

4.05042110070485e+005,-1.26327186808025e+001,-4.83762550984624e+000

4.10696287220124e+005,-1.26329133147910e+001,-4.90337913245792e+000

4.16429393741414e+005,-1.26331060742200e+001,-4.97003866205094e+000

4.22242531447321e+005,-1.26332968831551e+001,-5.03761732751199e+000

4.28136817531551e+005,-1.26334856674326e+001,-5.10612855068212e+000

4.34113384783250e+005,-1.26336723547123e+001,-5.17558594822960e+000

4.40173381804713e+005,-1.26338568745222e+001,-5.24600333355032e+000

4.46317973232124e+005,-1.26340391583004e+001,-5.31739471869180e+000

4.52548339959385e+005,-1.26342191394271e+001,-5.38977431631057e+000

4.58865679365059e+005,-1.26343967532536e+001,-5.46315654166092e+000

4.65271205542494e+005,-1.26345719371235e+001,-5.53755601461959e+000

4.71766149533147e+005,-1.26347446303877e+001,-5.61298756175228e+000

4.78351759563174e+005,-1.26349147744148e+001,-5.68946621841788e+000

4.85029301283321e+005,-1.26350823125940e+001,-5.76700723092176e+000

4.91800058012158e+005,-1.26352471903333e+001,-5.84562605871403e+000

4.98665330982714e+005,-1.26354093550515e+001,-5.92533837663944e+000

5.05626439592555e+005,-1.26355687561654e+001,-6.00616007723873e+000

5.12684721657352e+005,-1.26357253450705e+001,-6.08810727310708e+000

5.19841533667984e+005,-1.26358790751179e+001,-6.17119629930864e+000

5.27098251051240e+005,-1.26360299015854e+001,-6.25544371585192e+000

5.34456268434150e+005,-1.26361777816442e+001,-6.34086631022806e+000

5.41916999912011e+005,-1.26363226743209e+001,-6.42748110001171e+000

