Freq.,VOut,OutRef

1.00000000000000e+004,-4.36517205221024e+000,-1.76788970463392e-002

1.01395947979003e+004,-4.36517336116312e+000,-1.79254096570350e-002

1.02811382665607e+004,-4.36517470684027e+000,-1.81753517649157e-002

1.04246576084112e+004,-4.36517609026873e+000,-1.84287707558644e-002

1.05701804056138e+004,-4.36517751250641e+000,-1.86857146423046e-002

1.07177346253629e+004,-4.36517897463844e+000,-1.89462320988152e-002

1.08673486252606e+004,-4.36518047778220e+000,-1.92103724439363e-002

1.10190511587661e+004,-4.36518202308502e+000,-1.94781856691832e-002

1.11728713807222e+004,-4.36518361172597e+000,-1.97497224397696e-002

1.13288388529580e+004,-4.36518524491775e+000,-2.00250340977916e-002

1.14869835499703e+004,-4.36518692390731e+000,-2.03041726716821e-002

1.16473358646846e+004,-4.36518864997426e+000,-2.05871909012954e-002

1.18099266142953e+004,-4.36519042443529e+000,-2.08741422241069e-002

1.19747870461893e+004,-4.36519224864430e+000,-2.11650807892176e-002

1.21419488439505e+004,-4.36519412399048e+000,-2.14600614856525e-002

1.23114441334492e+004,-4.36519605190440e+000,-2.17591399166995e-002

1.24833054890161e+004,-4.36519803385424e+000,-2.20623724423197e-002

1.26575659397028e+004,-4.36520007135056e+000,-2.23698161621630e-002

1.28342589756290e+004,-4.36520216594487e+000,-2.26815289427782e-002

1.30134185544193e+004,-4.36520431923122e+000,-2.29975694224584e-002

1.31950791077289e+004,-4.36520653284928e+000,-2.33179970084269e-002

1.33792755478611e+004,-4.36520880848304e+000,-2.36428719027718e-002

1.35660432744767e+004,-4.36521114786395e+000,-2.39722550985481e-002

1.37554181813974e+004,-4.36521355277113e+000,-2.43062083969881e-002

1.39474366635040e+004,-4.36521602503299e+000,-2.46447944134346e-002

1.41421356237309e+004,-4.36521856652848e+000,-2.49880765885504e-002

1.43395524801583e+004,-4.36522117918907e+000,-2.53361191927449e-002

1.45397251732031e+004,-4.36522386499852e+000,-2.56889873479930e-002

1.47426921729110e+004,-4.36522662599586e+000,-2.60467470252105e-002

1.49484924863494e+004,-4.36522946427781e+000,-2.64094650494912e-002

1.51571656651040e+004,-4.36523238199749e+000,-2.67772091272726e-002

1.53687518128801e+004,-4.36523538136712e+000,-2.71500478485821e-002

1.55832915932100e+004,-4.36523846466189e+000,-2.75280506823804e-002

1.58008262372675e+004,-4.36524163421774e+000,-2.79112880111001e-002

1.60213975517924e+004,-4.36524489243663e+000,-2.82998311164791e-002

1.62450479271247e+004,-4.36524824178469e+000,-2.86937522143515e-002

1.64718203453514e+004,-4.36525168479830e+000,-2.90931244345154e-002

1.67017583885674e+004,-4.36525522408216e+000,-2.94980218556162e-002

1.69349062472505e+004,-4.36525886231275e+000,-2.99085195049840e-002

1.71713087287550e+004,-4.36526260224025e+000,-3.03246933677018e-002

1.74110112659224e+004,-4.36526644669028e+000,-3.07466203984570e-002

1.76540599258131e+004,-4.36527039856675e+000,-3.11743785248937e-002

1.79005014185594e+004,-4.36527446085187e+000,-3.16080466717864e-002

1.81503831063432e+004,-4.36527863661024e+000,-3.20477047574595e-002

1.84037530124975e+004,-4.36528292899181e+000,-3.24934336976359e-002

1.86606598307361e+004,-4.36528734122972e+000,-3.29453154449851e-002

1.89211529345119e+004,-4.36529187664803e+000,-3.34034329616364e-002

1.91852823865052e+004,-4.36529653866061e+000,-3.38678702526068e-002

1.94530989482457e+004,-4.36530133077469e+000,-3.43387123664133e-002

1.97246540898671e+004,-4.36530625659300e+000,-3.48160454076409e-002

1.99999999999999e+004,-4.36531131981719e+000,-3.52999565394157e-002

2.02791895958005e+004,-4.36531652424880e+000,-3.57905340035022e-002

2.05622765331213e+004,-4.36532187379270e+000,-3.62878671240476e-002

2.08493152168224e+004,-4.36532737246101e+000,-3.67920463084729e-002

2.11403608112276e+004,-4.36533302437394e+000,-3.73031630692255e-002

2.14354692507258e+004,-4.36533883376379e+000,-3.78213100248207e-002

2.17346972505211e+004,-4.36534480497687e+000,-3.83465809141269e-002

2.20381023175322e+004,-4.36535094247902e+000,-3.88790705892872e-002

2.23457427614443e+004,-4.36535725085380e+000,-3.94188750543352e-002

2.26576777059159e+004,-4.36536373481123e+000,-3.99660914375544e-002

2.29739670999406e+004,-4.36537039918733e+000,-4.05208180223194e-002

2.32946717293690e+004,-4.36537724894885e+000,-4.10831542455415e-002

2.36198532285905e+004,-4.36538428919528e+000,-4.16532007132296e-002

2.39495740923785e+004,-4.36539152516456e+000,-4.22310591934885e-002

2.42838976879009e+004,-4.36539896223396e+000,-4.28168326391321e-002

2.46228882668982e+004,-4.36540660592599e+000,-4.34106251798345e-002

2.49666109780322e+004,-4.36541446191005e+000,-4.40125421410794e-002

2.53151318794055e+004,-4.36542253600763e+000,-4.46226900405479e-002

2.56685179512580e+004,-4.36543083419536e+000,-4.52411765985133e-002

2.60268371088386e+004,-4.36543936260991e+000,-4.58681107366814e-002

2.63901582154578e+004,-4.36544812755025e+000,-4.65036025942550e-002

2.67585510957221e+004,-4.36545713548334e+000,-4.71477635211431e-002

2.71320865489533e+004,-4.36546639304779e+000,-4.78007060860186e-002

2.75108363627948e+004,-4.36547590705748e+000,-4.84625440827838e-002

2.78948733270080e+004,-4.36548568450633e+000,-4.91333925321025e-002

2.82842712474618e+004,-4.36549573257399e+000,-4.98133676738112e-002

2.86791049603164e+004,-4.36550605862804e+000,-5.05025869855520e-002

2.90794503464061e+004,-4.36551667022983e+000,-5.12011691750345e-002

2.94853843458219e+004,-4.36552757513988e+000,-5.19092341764852e-002

2.98969849726987e+004,-4.36553878132114e+000,-5.26269031606225e-002

3.03143313302078e+004,-4.36555029694485e+000,-5.33542985278989e-002

3.07375036257601e+004,-4.36556213039590e+000,-5.40915439046058e-002

3.11665831864199e+004,-4.36557429027621e+000,-5.48387641517027e-002

3.16016524745350e+004,-4.36558678541199e+000,-5.55960853484484e-002

3.20427951035848e+004,-4.36559962485657e+000,-5.63636348049263e-002

3.24900958542493e+004,-4.36561281789931e+000,-5.71415410340876e-002

3.29436406907028e+004,-4.36562637406704e+000,-5.79299337721503e-002

3.34035167771346e+004,-4.36564030313187e+000,-5.87289439587771e-002

3.38698124945009e+004,-4.36565461511719e+000,-5.95387037258315e-002

3.43426174575100e+004,-4.36566932030178e+000,-6.03593464010280e-002

3.48220225318448e+004,-4.36568442922600e+000,-6.11910064953061e-002

3.53081198516260e+004,-4.36569995269901e+000,-6.20338196845284e-002

3.58010028371187e+004,-4.36571590180336e+000,-6.28879228062375e-002

3.63007662126863e+004,-4.36573228790125e+000,-6.37534538465237e-002

3.68075060249948e+004,-4.36574912264166e+000,-6.46305519196636e-002

3.73213196614721e+004,-4.36576641796475e+000,-6.55193572642743e-002

3.78423058690237e+004,-4.36578418611037e+000,-6.64200112130407e-002

3.83705647730104e+004,-4.36580243962236e+000,-6.73326561885103e-002

3.89061978964912e+004,-4.36582119135658e+000,-6.82574356723490e-002

3.94493081797342e+004,-4.36584045448564e+000,-6.91944941983846e-002

3.99999999999998e+004,-4.36586024250836e+000,-7.01439773089846e-002

4.05583791916010e+004,-4.36588056925322e+000,-7.11060315538069e-002

4.11245530662425e+004,-4.36590144888698e+000,-7.20808044510364e-002

4.16986304336447e+004,-4.36592289592099e+000,-7.30684444623641e-002

4.22807216224550e+004,-4.36594492521826e+000,-7.40691009631762e-002

4.28709385014515e+004,-4.36596755199915e+000,-7.50829242180178e-002

4.34693945010421e+004,-4.36599079184957e+000,-7.61100653395687e-002

4.40762046350642e+004,-4.36601466072761e+000,-7.71506762552007e-002

4.46914855228886e+004,-4.36603917497014e+000,-7.82049096716275e-002

4.53153554118317e+004,-4.36606435129956e+000,-7.92729190383464e-002

4.59479341998812e+004,-4.36609020683070e+000,-8.03548585048676e-002

4.65893434587380e+004,-4.36611675907931e+000,-8.14508828683632e-002

4.72397064571810e+004,-4.36614402596615e+000,-8.25611475445259e-002

4.78991481847569e+004,-4.36617202582716e+000,-8.36858084998385e-002

4.85677953758016e+004,-4.36620077741691e+000,-8.48250222211985e-002

4.92457765337964e+004,-4.36623029991843e+000,-8.59789456432152e-002

4.99332219560642e+004,-4.36626061294837e+000,-8.71477361035192e-002

5.06302637588109e+004,-4.36629173656388e+000,-8.83315512810347e-002

5.13370359025159e+004,-4.36632369126887e+000,-8.95305491378294e-002

5.20536742176771e+004,-4.36635649802152e+000,-9.07448878473116e-002

5.27803164309155e+004,-4.36639017823998e+000,-9.19747257315608e-002

5.35171021914442e+004,-4.36642475380843e+000,-9.32202211918846e-002

5.42641730979066e+004,-4.36646024708372e+000,-9.44815326319511e-002

5.50216727255895e+004,-4.36649668090095e+000,-9.57588183829172e-002

5.57897466540159e+004,-4.36653407857934e+000,-9.70522366231569e-002

5.65685424949235e+004,-4.36657246392712e+000,-9.83619452988602e-002

5.73582099206328e+004,-4.36661186124792e+000,-9.96881020304269e-002

5.81589006928121e+004,-4.36665229534533e+000,-1.01030864025476e-001

5.89707686916437e+004,-4.36669379152677e+000,-1.02390387990935e-001

5.97939699453972e+004,-4.36673637560914e+000,-1.03766830029164e-001

6.06286626604156e+004,-4.36678007392313e+000,-1.05160345534755e-001

6.14750072515201e+004,-4.36682491331493e+000,-1.06571089104516e-001

6.23331663728396e+004,-4.36687092115240e+000,-1.07999214410920e-001

6.32033049490698e+004,-4.36691812532550e+000,-1.09444874107369e-001

6.40855902071694e+004,-4.36696655425061e+000,-1.10908219700152e-001

6.49801917084985e+004,-4.36701623687125e+000,-1.12389401438428e-001

6.58872813814055e+004,-4.36706720266068e+000,-1.13888568183134e-001

6.68070335542691e+004,-4.36711948162212e+000,-1.15405867285776e-001

6.77396249890018e+004,-4.36717310428877e+000,-1.16941444458995e-001

6.86852349150199e+004,-4.36722810172489e+000,-1.18495443633932e-001

6.96440450636895e+004,-4.36728450552309e+000,-1.20068006832889e-001

7.06162397032520e+004,-4.36734234780416e+000,-1.21659274017103e-001

7.16020056742374e+004,-4.36740166121386e+000,-1.23269382946792e-001

7.26015324253724e+004,-4.36746247892006e+000,-1.24898469028362e-001

7.36150120499896e+004,-4.36752483460819e+000,-1.26546665164669e-001

7.46426393229441e+004,-4.36758876247745e+000,-1.28214101590311e-001

7.56846117380472e+004,-4.36765429723298e+000,-1.29900905723660e-001

7.67411295460207e+004,-4.36772147408142e+000,-1.31607201987063e-001

7.78123957929823e+004,-4.36779032872091e+000,-1.33333111652987e-001

7.88986163594682e+004,-4.36786089733299e+000,-1.35078752668031e-001

7.99999999999995e+004,-4.36793321657326e+000,-1.36844239473552e-001

8.11167583832018e+004,-4.36800732355854e+000,-1.38629682839082e-001

8.22491061324848e+004,-4.36808325585479e+000,-1.40435189680263e-001

8.33972608672892e+004,-4.36816105146463e+000,-1.42260862867162e-001

8.45614432449099e+004,-4.36824074880988e+000,-1.44106801054820e-001

8.57418770029029e+004,-4.36832238671675e+000,-1.45973098485963e-001

8.69387890020841e+004,-4.36840600439649e+000,-1.47859844809803e-001

8.81524092701283e+004,-4.36849164142650e+000,-1.49767124888312e-001

8.93829710457770e+004,-4.36857933772924e+000,-1.51695018604348e-001

9.06307108236633e+004,-4.36866913354846e+000,-1.53643600676969e-001

9.18958683997622e+004,-4.36876106942542e+000,-1.55612940463328e-001

9.31786869174758e+004,-4.36885518617242e+000,-1.57603101768032e-001

9.44794129143618e+004,-4.36895152484434e+000,-1.59614142654826e-001

9.57982963695136e+004,-4.36905012670918e+000,-1.61646115250954e-001

9.71355907516031e+004,-4.36915103321523e+000,-1.63699065565550e-001

9.84915530675926e+004,-4.36925428595881e+000,-1.65773033290883e-001

9.98664439121282e+004,-4.36935992664637e+000,-1.67868051631078e-001

1.01260527517622e+005,-4.36946799705779e+000,-1.69984147112367e-001

1.02674071805032e+005,-4.36957853900586e+000,-1.72121339408417e-001

1.04107348435354e+005,-4.36969159429455e+000,-1.74279641163094e-001

1.05560632861831e+005,-4.36980720467362e+000,-1.76459057829440e-001

1.07034204382888e+005,-4.36992541179287e+000,-1.78659587500890e-001

1.08528346195813e+005,-4.37004625715250e+000,-1.80881220761364e-001

1.10043345451179e+005,-4.37016978205235e+000,-1.83123940533483e-001

1.11579493308032e+005,-4.37029602753859e+000,-1.85387721938043e-001

1.13137084989847e+005,-4.37042503434729e+000,-1.87672532168653e-001

1.14716419841265e+005,-4.37055684284663e+000,-1.89978330367521e-001

1.16317801385624e+005,-4.37069149297631e+000,-1.92305067518386e-001

1.17941537383287e+005,-4.37082902418496e+000,-1.94652686347854e-001

1.19587939890794e+005,-4.37096947536466e+000,-1.97021121243654e-001

1.21257325320831e+005,-4.37111288478405e+000,-1.99410298182392e-001

1.22950014503040e+005,-4.37125929001821e+000,-2.01820134677320e-001

1.24666332745679e+005,-4.37140872787694e+000,-2.04250539739580e-001

1.26406609898139e+005,-4.37156123433073e+000,-2.06701413857113e-001

1.28171180414339e+005,-4.37171684443493e+000,-2.09172648990144e-001

1.29960383416997e+005,-4.37187559225114e+000,-2.11664128591362e-001

1.31774562762811e+005,-4.37203751076644e+000,-2.14175727647774e-001

1.33614067108538e+005,-4.37220263181330e+000,-2.16707312728687e-001

1.35479249978003e+005,-4.37237098598369e+000,-2.19258742081729e-001

1.37370469830040e+005,-4.37254260254476e+000,-2.21829865733752e-001

1.39288090127379e+005,-4.37271750935181e+000,-2.24420525623560e-001

1.41232479406504e+005,-4.37289573275968e+000,-2.27030555763470e-001

1.43204011348474e+005,-4.37307729753315e+000,-2.29659782425665e-001

1.45203064850745e+005,-4.37326222675718e+000,-2.32308024353775e-001

1.47230024099979e+005,-4.37345054174423e+000,-2.34975093014770e-001

1.49285278645888e+005,-4.37364226194339e+000,-2.37660792867436e-001

1.51369223476094e+005,-4.37383740484662e+000,-2.40364921677565e-001

1.53482259092041e+005,-4.37403598589711e+000,-2.43087270850980e-001

1.55624791585964e+005,-4.37423801839585e+000,-2.45827625810646e-001

1.57797232718936e+005,-4.37444351340938e+000,-2.48585766403101e-001

1.59999999999999e+005,-4.37465247967804e+000,-2.51361467339796e-001

1.62233516766403e+005,-4.37486492352456e+000,-2.54154498675697e-001

1.64498212264969e+005,-4.37508084876408e+000,-2.56964626322983e-001

1.66794521734578e+005,-4.37530025661604e+000,-2.59791612598573e-001

1.69122886489819e+005,-4.37552314561652e+000,-2.62635216813684e-001

1.71483754005805e+005,-4.37574951153473e+000,-2.65495195889417e-001

1.73877578004168e+005,-4.37597934728892e+000,-2.68371305027200e-001

1.76304818540256e+005,-4.37621264286870e+000,-2.71263298391680e-001

1.78765942091554e+005,-4.37644938525683e+000,-2.74170929853024e-001

1.81261421647326e+005,-4.37668955835667e+000,-2.77093953752061e-001

1.83791736799524e+005,-4.37693314292335e+000,-2.80032125699265e-001

1.86357373834951e+005,-4.37718011649797e+000,-2.82985203417572e-001

1.88958825828723e+005,-4.37743045334679e+000,-2.85952947614284e-001

1.91596592739027e+005,-4.37768412440640e+000,-2.88935122879030e-001

1.94271181503206e+005,-4.37794109723195e+000,-2.91931498627154e-001

1.96983106135185e+005,-4.37820133595280e+000,-2.94941850060727e-001

1.99732887824256e+005,-4.37846480123342e+000,-2.97965959163371e-001

2.02521055035243e+005,-4.37873145024074e+000,-3.01003615718624e-001

2.05348143610063e+005,-4.37900123661692e+000,-3.04054618361851e-001

2.08214696870707e+005,-4.37927411046129e+000,-3.07118775639967e-001

2.11121265723661e+005,-4.37955001831714e+000,-3.10195907105111e-001

2.14068408765776e+005,-4.37982890316759e+000,-3.13285844416856e-001

2.17056692391625e+005,-4.38011070443809e+000,-3.16388432466356e-001

2.20086690902357e+005,-4.38039535800730e+000,-3.19503530508781e-001

2.23158986616063e+005,-4.38068279622637e+000,-3.22631013305787e-001

2.26274169979693e+005,-4.38097294794615e+000,-3.25770772274376e-001

2.29432839682530e+005,-4.38126573855242e+000,-3.28922716644075e-001

2.32635602771247e+005,-4.38156109001105e+000,-3.32086774604438e-001

2.35883074766574e+005,-4.38185892092021e+000,-3.35262894459319e-001

2.39175879781588e+005,-4.38215914657277e+000,-3.38451045764945e-001

2.42514650641661e+005,-4.38246167902595e+000,-3.41651220469239e-001

2.45900029006080e+005,-4.38276642718109e+000,-3.44863434024424e-001

2.49332665491357e+005,-4.38307329687132e+000,-3.48087726490856e-001

2.52813219796278e+005,-4.38338219095747e+000,-3.51324163619332e-001

2.56342360828676e+005,-4.38369300943362e+000,-3.54572837902066e-001

2.59920766833993e+005,-4.38400564953914e+000,-3.57833869606278e-001

2.63549125525621e+005,-4.38432000588060e+000,-3.61107407765071e-001

2.67228134217075e+005,-4.38463597056001e+000,-3.64393631141205e-001

2.70958499956006e+005,-4.38495343331142e+000,-3.67692749147646e-001

2.74740939660078e+005,-4.38527228164423e+000,-3.71005002729914e-001

2.78576180254757e+005,-4.38559240099361e+000,-3.74330665199947e-001

2.82464958813007e+005,-4.38591367487689e+000,-3.77670043026084e-001

2.86408022696948e+005,-4.38623598505670e+000,-3.81023476567386e-001

2.90406129701488e+005,-4.38655921170815e+000,-3.84391340764177e-001

2.94460048199957e+005,-4.38688323359293e+000,-3.87774045759936e-001

2.98570557291775e+005,-4.38720792823632e+000,-3.91172037476255e-001

3.02738446952187e+005,-4.38753317210882e+000,-3.94585798124706e-001

3.06964518184081e+005,-4.38785884081109e+000,-3.98015846656303e-001

3.11249583171928e+005,-4.38818480926145e+000,-4.01462739149572e-001

3.15594465437872e+005,-4.38851095188579e+000,-4.04927069135696e-001

3.19999999999997e+005,-4.38883714280905e+000,-4.08409467856116e-001

3.24467033532806e+005,-4.38916325604757e+000,-4.11910604457321e-001

3.28996424529938e+005,-4.38948916570122e+000,-4.15431186122215e-001

3.33589043469155e+005,-4.38981474614628e+000,-4.18971958130913e-001

3.38245772979638e+005,-4.39013987222693e+000,-4.22533703858176e-001

3.42967508011610e+005,-4.39046441944417e+000,-4.26117244711661e-001

3.47755156008335e+005,-4.39078826414432e+000,-4.29723439997887e-001

3.52609637080511e+005,-4.39111128370324e+000,-4.33353186733055e-001

3.57531884183106e+005,-4.39143335670803e+000,-4.37007419388940e-001

3.62522843294651e+005,-4.39175436313451e+000,-4.40687109580014e-001

3.67583473599047e+005,-4.39207418452008e+000,-4.44393265694842e-001

3.72714747669902e+005,-4.39239270413216e+000,-4.48126932469159e-001

3.77917651657445e+005,-4.39270980712971e+000,-4.51889190513704e-001

3.83193185478053e+005,-4.39302538072063e+000,-4.55681155781183e-001

3.88542363006410e+005,-4.39333931431163e+000,-4.59503978994191e-001

3.93966212270369e+005,-4.39365149965116e+000,-4.63358845026950e-001

3.99465775648511e+005,-4.39396183096598e+000,-4.67246972244487e-001

4.05042110070485e+005,-4.39427020508945e+000,-4.71169611804935e-001

4.10696287220124e+005,-4.39457652158248e+000,-4.75128046928639e-001

4.16429393741414e+005,-4.39488068284591e+000,-4.79123592135437e-001

4.22242531447321e+005,-4.39518259422583e+000,-4.83157592451958e-001

4.28136817531551e+005,-4.39548216410878e+000,-4.87231422600284e-001

4.34113384783250e+005,-4.39577930400976e+000,-4.91346486162598e-001

4.40173381804713e+005,-4.39607392865057e+000,-4.95504214732870e-001

4.46317973232124e+005,-4.39636595603040e+000,-4.99706067050387e-001

4.52548339959385e+005,-4.39665530748681e+000,-5.03953528129483e-001

4.58865679365059e+005,-4.39694190774834e+000,-5.08248108382132e-001

4.65271205542494e+005,-4.39722568497857e+000,-5.12591342736070e-001

4.71766149533147e+005,-4.39750657081135e+000,-5.16984789756959e-001

4.78351759563174e+005,-4.39778450037748e+000,-5.21430030775227e-001

4.85029301283321e+005,-4.39805941232335e+000,-5.25928669018319e-001

4.91800058012158e+005,-4.39833124882142e+000,-5.30482328755597e-001

4.98665330982714e+005,-4.39859995557209e+000,-5.35092654459242e-001

5.05626439592555e+005,-4.39886548179915e+000,-5.39761309975670e-001

5.12684721657352e+005,-4.39912778023601e+000,-5.44489977725480e-001

5.19841533667984e+005,-4.39938680710656e+000,-5.49280357915420e-001

5.27098251051240e+005,-4.39964252209774e+000,-5.54134167782672e-001

5.34456268434150e+005,-4.39989488832625e+000,-5.59053140860723e-001

5.41916999912011e+005,-4.40014387229860e+000,-5.64039026276770e-001

