Freq.,VOut,OutRef

1.00000000000000e+004,-1.77655385822386e+001,-2.30674836078635e-001

1.01395947979003e+004,-1.77655405230654e+001,-2.33894606807583e-001

1.02811382665607e+004,-1.77655425183660e+001,-2.37159309868835e-001

1.04246576084112e+004,-1.77655445696672e+001,-2.40469571898833e-001

1.05701804056138e+004,-1.77655466785377e+001,-2.43826028260289e-001

1.07177346253629e+004,-1.77655488465904e+001,-2.47229323158081e-001

1.08673486252606e+004,-1.77655510754831e+001,-2.50680109761654e-001

1.10190511587661e+004,-1.77655533669199e+001,-2.54179050331211e-001

1.11728713807222e+004,-1.77655557226521e+001,-2.57726816342894e-001

1.13288388529580e+004,-1.77655581444805e+001,-2.61324088612262e-001

1.14869835499703e+004,-1.77655606342556e+001,-2.64971557429994e-001

1.16473358646846e+004,-1.77655631938797e+001,-2.68669922688158e-001

1.18099266142953e+004,-1.77655658253081e+001,-2.72419894013374e-001

1.19747870461893e+004,-1.77655685305505e+001,-2.76222190902848e-001

1.21419488439505e+004,-1.77655713116729e+001,-2.80077542858280e-001

1.23114441334492e+004,-1.77655741707984e+001,-2.83986689528064e-001

1.24833054890161e+004,-1.77655771101096e+001,-2.87950380841953e-001

1.26575659397028e+004,-1.77655801318496e+001,-2.91969377156343e-001

1.28342589756290e+004,-1.77655832383243e+001,-2.96044449396683e-001

1.30134185544193e+004,-1.77655864319031e+001,-3.00176379205540e-001

1.31950791077289e+004,-1.77655897150221e+001,-3.04365959085006e-001

1.33792755478611e+004,-1.77655930901845e+001,-3.08613992552893e-001

1.35660432744767e+004,-1.77655965599635e+001,-3.12921294288359e-001

1.37554181813974e+004,-1.77656001270036e+001,-3.17288690289423e-001

1.39474366635040e+004,-1.77656037940227e+001,-3.21717018028311e-001

1.41421356237309e+004,-1.77656075638146e+001,-3.26207126604704e-001

1.43395524801583e+004,-1.77656114392500e+001,-3.30759876914624e-001

1.45397251732031e+004,-1.77656154232801e+001,-3.35376141801682e-001

1.47426921729110e+004,-1.77656195189371e+001,-3.40056806230271e-001

1.49484924863494e+004,-1.77656237293379e+001,-3.44802767446052e-001

1.51571656651040e+004,-1.77656280576856e+001,-3.49614935147893e-001

1.53687518128801e+004,-1.77656325072721e+001,-3.54494231656449e-001

1.55832915932100e+004,-1.77656370814803e+001,-3.59441592088198e-001

1.58008262372675e+004,-1.77656417837871e+001,-3.64457964531156e-001

1.60213975517924e+004,-1.77656466177653e+001,-3.69544310221034e-001

1.62450479271247e+004,-1.77656515870868e+001,-3.74701603722578e-001

1.64718203453514e+004,-1.77656566955248e+001,-3.79930833111379e-001

1.67017583885674e+004,-1.77656619469569e+001,-3.85233000158265e-001

1.69349062472505e+004,-1.77656673453678e+001,-3.90609120517055e-001

1.71713087287550e+004,-1.77656728948523e+001,-3.96060223912678e-001

1.74110112659224e+004,-1.77656785996181e+001,-4.01587354335622e-001

1.76540599258131e+004,-1.77656844639889e+001,-4.07191570234695e-001

1.79005014185594e+004,-1.77656904924078e+001,-4.12873944713750e-001

1.81503831063432e+004,-1.77656966894400e+001,-4.18635565732938e-001

1.84037530124975e+004,-1.77657030597768e+001,-4.24477536309013e-001

1.86606598307361e+004,-1.77657096082382e+001,-4.30400974722474e-001

1.89211529345119e+004,-1.77657163397771e+001,-4.36407014721481e-001

1.91852823865052e+004,-1.77657232594823e+001,-4.42496805735872e-001

1.94530989482457e+004,-1.77657303725825e+001,-4.48671513087953e-001

1.97246540898671e+004,-1.77657376844498e+001,-4.54932318207449e-001

1.99999999999999e+004,-1.77657452006039e+001,-4.61280418850502e-001

2.02791895958005e+004,-1.77657529267157e+001,-4.67717029321603e-001

2.05622765331213e+004,-1.77657608686111e+001,-4.74243380696124e-001

2.08493152168224e+004,-1.77657690322761e+001,-4.80860721046593e-001

2.11403608112276e+004,-1.77657774238599e+001,-4.87570315674586e-001

2.14354692507258e+004,-1.77657860496801e+001,-4.94373447340363e-001

2.17346972505211e+004,-1.77657949162264e+001,-5.01271416500657e-001

2.20381023175322e+004,-1.77658040301662e+001,-5.08265541544014e-001

2.23457427614443e+004,-1.77658133983480e+001,-5.15357159035877e-001

2.26576777059159e+004,-1.77658230278072e+001,-5.22547623960230e-001

2.29739670999406e+004,-1.77658329257709e+001,-5.29838309965806e-001

2.32946717293690e+004,-1.77658430996620e+001,-5.37230609620784e-001

2.36198532285905e+004,-1.77658535571056e+001,-5.44725934661527e-001

2.39495740923785e+004,-1.77658643059335e+001,-5.52325716252638e-001

2.42838976879009e+004,-1.77658753541899e+001,-5.60031405244290e-001

2.46228882668982e+004,-1.77658867101367e+001,-5.67844472435705e-001

2.49666109780322e+004,-1.77658983822594e+001,-5.75766408842768e-001

2.53151318794055e+004,-1.77659103792727e+001,-5.83798725964368e-001

2.56685179512580e+004,-1.77659227101268e+001,-5.91942956057567e-001

2.60268371088386e+004,-1.77659353840126e+001,-6.00200652412987e-001

2.63901582154578e+004,-1.77659484103690e+001,-6.08573389631488e-001

2.67585510957221e+004,-1.77659617988887e+001,-6.17062763909643e-001

2.71320865489533e+004,-1.77659755595244e+001,-6.25670393323840e-001

2.75108363627948e+004,-1.77659897024962e+001,-6.34397918119700e-001

2.78948733270080e+004,-1.77660042382976e+001,-6.43247001004832e-001

2.82842712474618e+004,-1.77660191777030e+001,-6.52219327443963e-001

2.86791049603164e+004,-1.77660345317746e+001,-6.61316605959858e-001

2.90794503464061e+004,-1.77660503118698e+001,-6.70540568434296e-001

2.94853843458219e+004,-1.77660665296481e+001,-6.79892970415536e-001

2.98969849726987e+004,-1.77660831970794e+001,-6.89375591428505e-001

3.03143313302078e+004,-1.77661003264511e+001,-6.98990235287290e-001

3.07375036257601e+004,-1.77661179303767e+001,-7.08738730411250e-001

3.11665831864199e+004,-1.77661360218030e+001,-7.18622930148266e-001

3.16016524745350e+004,-1.77661546140190e+001,-7.28644713096804e-001

3.20427951035848e+004,-1.77661737206639e+001,-7.38805983433605e-001

3.24900958542493e+004,-1.77661933557362e+001,-7.49108671245028e-001

3.29436406907028e+004,-1.77662135336018e+001,-7.59554732863171e-001

3.34035167771346e+004,-1.77662342690032e+001,-7.70146151203545e-001

3.38698124945009e+004,-1.77662555770688e+001,-7.80884936107409e-001

3.43426174575100e+004,-1.77662774733216e+001,-7.91773124688817e-001

3.48220225318448e+004,-1.77662999736895e+001,-8.02812781681477e-001

3.53081198516260e+004,-1.77663230945138e+001,-8.14005999797081e-001

3.58010028371187e+004,-1.77663468525603e+001,-8.25354900077555e-001

3.63007662126863e+004,-1.77663712650280e+001,-8.36861632259381e-001

3.68075060249948e+004,-1.77663963495600e+001,-8.48528375136794e-001

3.73213196614721e+004,-1.77664221242539e+001,-8.60357336930461e-001

3.78423058690237e+004,-1.77664486076716e+001,-8.72350755660836e-001

3.83705647730104e+004,-1.77664758188508e+001,-8.84510899522448e-001

3.89061978964912e+004,-1.77665037773151e+001,-8.96840067265849e-001

3.94493081797342e+004,-1.77665325030858e+001,-9.09340588579465e-001

3.99999999999998e+004,-1.77665620166922e+001,-9.22014824479328e-001

4.05583791916010e+004,-1.77665923391839e+001,-9.34865167697688e-001

4.11245530662425e+004,-1.77666234921414e+001,-9.47894043081762e-001

4.16986304336447e+004,-1.77666554976884e+001,-9.61103907989696e-001

4.22807216224550e+004,-1.77666883785035e+001,-9.74497252695357e-001

4.28709385014515e+004,-1.77667221578322e+001,-9.88076600795244e-001

4.34693945010421e+004,-1.77667568594989e+001,-1.00184450961743e+000

4.40762046350642e+004,-1.77667925079193e+001,-1.01580357063877e+000

4.46914855228886e+004,-1.77668291281127e+001,-1.02995640990198e+000

4.53153554118317e+004,-1.77668667457151e+001,-1.04430568843768e+000

4.59479341998812e+004,-1.77669053869912e+001,-1.05885410269118e+000

4.65893434587380e+004,-1.77669450788474e+001,-1.07360438495349e+000

4.72397064571810e+004,-1.77669858488449e+001,-1.08855930379390e+000

4.78991481847569e+004,-1.77670277252129e+001,-1.10372166449871e+000

4.85677953758016e+004,-1.77670707368612e+001,-1.11909430951363e+000

4.92457765337964e+004,-1.77671149133938e+001,-1.13468011888897e+000

4.99332219560642e+004,-1.77671602851221e+001,-1.15048201072926e+000

5.06302637588109e+004,-1.77672068830780e+001,-1.16650294164853e+000

5.13370359025159e+004,-1.77672547390279e+001,-1.18274590722475e+000

5.20536742176771e+004,-1.77673038854853e+001,-1.19921394246581e+000

5.27803164309155e+004,-1.77673543557250e+001,-1.21591012227147e+000

5.35171021914442e+004,-1.77674061837961e+001,-1.23283756190493e+000

5.42641730979066e+004,-1.77674594045356e+001,-1.24999941746599e+000

5.50216727255895e+004,-1.77675140535819e+001,-1.26739888636809e+000

5.57897466540159e+004,-1.77675701673880e+001,-1.28503920782117e+000

5.65685424949235e+004,-1.77676277832349e+001,-1.30292366331678e+000

5.73582099206328e+004,-1.77676869392449e+001,-1.32105557711752e+000

5.81589006928121e+004,-1.77677476743945e+001,-1.33943831675240e+000

5.89707686916437e+004,-1.77678100285275e+001,-1.35807529351390e+000

5.97939699453972e+004,-1.77678740423681e+001,-1.37696996296048e+000

6.06286626604156e+004,-1.77679397575330e+001,-1.39612582542436e+000

6.14750072515201e+004,-1.77680072165443e+001,-1.41554642652172e+000

6.23331663728396e+004,-1.77680764628415e+001,-1.43523535766790e+000

6.32033049490698e+004,-1.77681475407935e+001,-1.45519625659803e+000

6.40855902071694e+004,-1.77682204957101e+001,-1.47543280789114e+000

6.49801917084985e+004,-1.77682953738536e+001,-1.49594874349951e+000

6.58872813814055e+004,-1.77683722224496e+001,-1.51674784328160e+000

6.68070335542691e+004,-1.77684510896973e+001,-1.53783393554200e+000

6.77396249890018e+004,-1.77685320247800e+001,-1.55921089757402e+000

6.86852349150199e+004,-1.77686150778748e+001,-1.58088265620848e+000

6.96440450636895e+004,-1.77687003001613e+001,-1.60285318836806e+000

7.06162397032520e+004,-1.77687877438305e+001,-1.62512652162556e+000

7.16020056742374e+004,-1.77688774620927e+001,-1.64770673476980e+000

7.26015324253724e+004,-1.77689695091848e+001,-1.67059795837497e+000

7.36150120499896e+004,-1.77690639403771e+001,-1.69380437537739e+000

7.46426393229441e+004,-1.77691608119790e+001,-1.71733022165817e+000

7.56846117380472e+004,-1.77692601813447e+001,-1.74117978663139e+000

7.67411295460207e+004,-1.77693621068765e+001,-1.76535741384051e+000

7.78123957929823e+004,-1.77694666480295e+001,-1.78986750155934e+000

7.88986163594682e+004,-1.77695738653129e+001,-1.81471450340311e+000

7.99999999999995e+004,-1.77696838202926e+001,-1.83990292894363e+000

8.11167583832018e+004,-1.77697965755909e+001,-1.86543734433544e+000

8.22491061324848e+004,-1.77699121948864e+001,-1.89132237294851e+000

8.33972608672892e+004,-1.77700307429119e+001,-1.91756269600884e+000

8.45614432449099e+004,-1.77701522854519e+001,-1.94416305325106e+000

8.57418770029029e+004,-1.77702768893380e+001,-1.97112824357637e+000

8.69387890020841e+004,-1.77704046224437e+001,-1.99846312572385e+000

8.81524092701283e+004,-1.77705355536772e+001,-2.02617261895091e+000

8.93829710457770e+004,-1.77706697529736e+001,-2.05426170372398e+000

9.06307108236633e+004,-1.77708072912846e+001,-2.08273542242284e+000

9.18958683997622e+004,-1.77709482405678e+001,-2.11159888005452e+000

9.31786869174758e+004,-1.77710926737732e+001,-2.14085724498299e+000

9.44794129143618e+004,-1.77712406648292e+001,-2.17051574966903e+000

9.57982963695136e+004,-1.77713922886262e+001,-2.20057969142872e+000

9.71355907516031e+004,-1.77715476209985e+001,-2.23105443320195e+000

9.84915530675926e+004,-1.77717067387049e+001,-2.26194540434075e+000

9.98664439121282e+004,-1.77718697194073e+001,-2.29325810141310e+000

1.01260527517622e+005,-1.77720366416466e+001,-2.32499808902288e+000

1.02674071805032e+005,-1.77722075848182e+001,-2.35717100065104e+000

1.04107348435354e+005,-1.77723826291443e+001,-2.38978253951448e+000

1.05560632861831e+005,-1.77725618556451e+001,-2.42283847944450e+000

1.07034204382888e+005,-1.77727453461070e+001,-2.45634466579113e+000

1.08528346195813e+005,-1.77729331830502e+001,-2.49030701634438e+000

1.10043345451179e+005,-1.77731254496930e+001,-2.52473152228382e+000

1.11579493308032e+005,-1.77733222299147e+001,-2.55962424915170e+000

1.13137084989847e+005,-1.77735236082167e+001,-2.59499133785153e+000

1.14716419841265e+005,-1.77737296696807e+001,-2.63083900567583e+000

1.16317801385624e+005,-1.77739404999261e+001,-2.66717354736203e+000

1.17941537383287e+005,-1.77741561850644e+001,-2.70400133617774e+000

1.19587939890794e+005,-1.77743768116524e+001,-2.74132882504001e+000

1.21257325320831e+005,-1.77746024666431e+001,-2.77916254766530e+000

1.22950014503040e+005,-1.77748332373350e+001,-2.81750911975483e+000

1.24666332745679e+005,-1.77750692113194e+001,-2.85637524021663e+000

1.26406609898139e+005,-1.77753104764266e+001,-2.89576769242436e+000

1.28171180414339e+005,-1.77755571206697e+001,-2.93569334551565e+000

1.29960383416997e+005,-1.77758092321876e+001,-2.97615915573053e+000

1.31774562762811e+005,-1.77760668991866e+001,-3.01717216779196e+000

1.33614067108538e+005,-1.77763302098804e+001,-3.05873951633247e+000

1.35479249978003e+005,-1.77765992524293e+001,-3.10086842736191e+000

1.37370469830040e+005,-1.77768741148788e+001,-3.14356621978510e+000

1.39288090127379e+005,-1.77771548850969e+001,-3.18684030696884e+000

1.41232479406504e+005,-1.77774416507116e+001,-3.23069819835478e+000

1.43204011348474e+005,-1.77777344990471e+001,-3.27514750112851e+000

1.45203064850745e+005,-1.77780335170614e+001,-3.32019592193857e+000

1.47230024099979e+005,-1.77783387912828e+001,-3.36585126867084e+000

1.49285278645888e+005,-1.77786504077473e+001,-3.41212145227955e+000

1.51369223476094e+005,-1.77789684519375e+001,-3.45901448867394e+000

1.53482259092041e+005,-1.77792930087211e+001,-3.50653850066486e+000

1.55624791585964e+005,-1.77796241622921e+001,-3.55470171996995e+000

1.57797232718936e+005,-1.77799619961131e+001,-3.60351248928064e+000

1.59999999999999e+005,-1.77803065928598e+001,-3.65297926438984e+000

1.62233516766403e+005,-1.77806580343680e+001,-3.70311061638335e+000

1.64498212264969e+005,-1.77810164015835e+001,-3.75391523389394e+000

1.66794521734578e+005,-1.77813817745147e+001,-3.80540192542048e+000

1.69122886489819e+005,-1.77817542321900e+001,-3.85757962171146e+000

1.71483754005805e+005,-1.77821338526181e+001,-3.91045737821302e+000

1.73877578004168e+005,-1.77825207127532e+001,-3.96404437758416e+000

1.76304818540256e+005,-1.77829148884660e+001,-4.01834993227491e+000

1.78765942091554e+005,-1.77833164545185e+001,-4.07338348717247e+000

1.81261421647326e+005,-1.77837254845463e+001,-4.12915462231104e+000

1.83791736799524e+005,-1.77841420510466e+001,-4.18567305564638e+000

1.86357373834951e+005,-1.77845662253723e+001,-4.24294864589570e+000

1.88958825828723e+005,-1.77849980777355e+001,-4.30099139543858e+000

1.91596592739027e+005,-1.77854376772161e+001,-4.35981145328323e+000

1.94271181503206e+005,-1.77858850917811e+001,-4.41941911809016e+000

1.96983106135185e+005,-1.77863403883113e+001,-4.47982484125893e+000

1.99732887824256e+005,-1.77868036326375e+001,-4.54103923006983e+000

2.02521055035243e+005,-1.77872748895866e+001,-4.60307305088309e+000

2.05348143610063e+005,-1.77877542230375e+001,-4.66593723239246e+000

2.08214696870707e+005,-1.77882416959878e+001,-4.72964286892879e+000

2.11121265723661e+005,-1.77887373706313e+001,-4.79420122381395e+000

2.14068408765776e+005,-1.77892413084472e+001,-4.85962373276123e+000

2.17056692391625e+005,-1.77897535703002e+001,-4.92592200731841e+000

2.20086690902357e+005,-1.77902742165534e+001,-4.99310783835175e+000

2.23158986616063e+005,-1.77908033071935e+001,-5.06119319956850e+000

2.26274169979693e+005,-1.77913409019683e+001,-5.13019025106992e+000

2.29432839682530e+005,-1.77918870605372e+001,-5.20011134293850e+000

2.32635602771247e+005,-1.77924418426351e+001,-5.27096901884856e+000

2.35883074766574e+005,-1.77930053082490e+001,-5.34277601970193e+000

2.39175879781588e+005,-1.77935775178091e+001,-5.41554528728052e+000

2.42514650641661e+005,-1.77941585323919e+001,-5.48928996791507e+000

2.45900029006080e+005,-1.77947484139385e+001,-5.56402341616397e+000

2.49332665491357e+005,-1.77953472254854e+001,-5.63975919849944e+000

2.52813219796278e+005,-1.77959550314093e+001,-5.71651109699514e+000

2.56342360828676e+005,-1.77965718976854e+001,-5.79429311301350e+000

2.59920766833993e+005,-1.77971978921592e+001,-5.87311947088658e+000

2.63549125525621e+005,-1.77978330848313e+001,-5.95300462158720e+000

2.67228134217075e+005,-1.77984775481554e+001,-6.03396324638752e+000

2.70958499956006e+005,-1.77991313573490e+001,-6.11601026049836e+000

2.74740939660078e+005,-1.77997945907169e+001,-6.19916081668886e+000

2.78576180254757e+005,-1.78004673299865e+001,-6.28343030888030e+000

2.82464958813007e+005,-1.78011496606551e+001,-6.36883437571301e+000

2.86408022696948e+005,-1.78018416723484e+001,-6.45538890407939e+000

2.90406129701488e+005,-1.78025434591905e+001,-6.54311003262544e+000

2.94460048199957e+005,-1.78032551201837e+001,-6.63201415521253e+000

2.98570557291775e+005,-1.78039767595986e+001,-6.72211792434108e+000

3.02738446952187e+005,-1.78047084873740e+001,-6.81343825453072e+000

3.06964518184081e+005,-1.78054504195247e+001,-6.90599232565830e+000

3.11249583171928e+005,-1.78062026785591e+001,-6.99979758624780e+000

3.15594465437872e+005,-1.78069653939030e+001,-7.09487175671541e+000

3.19999999999997e+005,-1.78077387023316e+001,-7.19123283256490e+000

3.24467033532806e+005,-1.78085227484076e+001,-7.28889908753490e+000

3.28996424529938e+005,-1.78093176849254e+001,-7.38788907669660e+000

3.33589043469155e+005,-1.78101236733604e+001,-7.48822163950157e+000

3.38245772979638e+005,-1.78109408843230e+001,-7.58991590278176e+000

3.42967508011610e+005,-1.78117694980169e+001,-7.69299128369883e+000

3.47755156008335e+005,-1.78126097047011e+001,-7.79746749264761e+000

3.52609637080511e+005,-1.78134617051541e+001,-7.90336453611252e+000

3.57531884183106e+005,-1.78143257111412e+001,-8.01070271947773e+000

3.62522843294651e+005,-1.78152019458834e+001,-8.11950264979581e+000

3.67583473599047e+005,-1.78160906445279e+001,-8.22978523851355e+000

3.72714747669902e+005,-1.78169920546191e+001,-8.34157170415980e+000

3.77917651657445e+005,-1.78179064365705e+001,-8.45488357499607e+000

3.83193185478053e+005,-1.78188340641366e+001,-8.56974269163461e+000

3.88542363006410e+005,-1.78197752248843e+001,-8.68617120962334e+000

3.93966212270369e+005,-1.78207302206643e+001,-8.80419160200605e+000

3.99465775648511e+005,-1.78216993680809e+001,-8.92382666185542e+000

4.05042110070485e+005,-1.78226829989616e+001,-9.04509950478698e+000

4.10696287220124e+005,-1.78236814608250e+001,-9.16803357145348e+000

4.16429393741414e+005,-1.78246951173472e+001,-9.29265263002696e+000

4.22242531447321e+005,-1.78257243488275e+001,-9.41898077866865e+000

4.28136817531551e+005,-1.78267695526517e+001,-9.54704244799318e+000

4.34113384783250e+005,-1.78278311437552e+001,-9.67686240352758e+000

4.40173381804713e+005,-1.78289095550834e+001,-9.80846574817275e+000

4.46317973232124e+005,-1.78300052380519e+001,-9.94187792466602e+000

4.52548339959385e+005,-1.78311186630057e+001,-1.00771247180517e+001

4.58865679365059e+005,-1.78322503196763e+001,-1.02142322581624e+001

4.65271205542494e+005,-1.78334007176397e+001,-1.03532270221125e+001

4.71766149533147e+005,-1.78345703867735e+001,-1.04941358368079e+001

4.78351759563174e+005,-1.78357598777137e+001,-1.06369858814762e+001

4.85029301283321e+005,-1.78369697623128e+001,-1.07818046902163e+001

4.91800058012158e+005,-1.78382006340974e+001,-1.09286201545743e+001

4.98665330982714e+005,-1.78394531087286e+001,-1.10774605261440e+001

5.05626439592555e+005,-1.78407278244630e+001,-1.12283544191961e+001

5.12684721657352e+005,-1.78420254426163e+001,-1.13813308133374e+001

5.19841533667984e+005,-1.78433466480299e+001,-1.15364190562003e+001

5.27098251051240e+005,-1.78446921495405e+001,-1.16936488661657e+001

5.34456268434150e+005,-1.78460626804535e+001,-1.18530503351184e+001

5.41916999912011e+005,-1.78474589990212e+001,-1.20146539312357e+001

