Freq.,VOut,OutRef

1.00000000000000e+004,-1.20241304837162e+001,-1.50466131652304e-001

1.01395947979003e+004,-1.20241313558884e+001,-1.52566369377394e-001

1.02811382665607e+004,-1.20241322525279e+001,-1.54695917220611e-001

1.04246576084112e+004,-1.20241331743197e+001,-1.56855183991644e-001

1.05701804056138e+004,-1.20241341219674e+001,-1.59044584195124e-001

1.07177346253629e+004,-1.20241350961952e+001,-1.61264538101979e-001

1.08673486252606e+004,-1.20241360977461e+001,-1.63515471839936e-001

1.10190511587661e+004,-1.20241371273850e+001,-1.65797817464088e-001

1.11728713807222e+004,-1.20241381858975e+001,-1.68112013045622e-001

1.13288388529580e+004,-1.20241392740909e+001,-1.70458502754492e-001

1.14869835499703e+004,-1.20241403927955e+001,-1.72837736938832e-001

1.16473358646846e+004,-1.20241415428645e+001,-1.75250172216946e-001

1.18099266142953e+004,-1.20241427251743e+001,-1.77696271561174e-001

1.19747870461893e+004,-1.20241439406265e+001,-1.80176504383186e-001

1.21419488439505e+004,-1.20241451901473e+001,-1.82691346626547e-001

1.23114441334492e+004,-1.20241464746885e+001,-1.85241280858050e-001

1.24833054890161e+004,-1.20241477952285e+001,-1.87826796353781e-001

1.26575659397028e+004,-1.20241491527729e+001,-1.90448389197614e-001

1.28342589756290e+004,-1.20241505483552e+001,-1.93106562370328e-001

1.30134185544193e+004,-1.20241519830375e+001,-1.95801825848558e-001

1.31950791077289e+004,-1.20241534579111e+001,-1.98534696700382e-001

1.33792755478611e+004,-1.20241549740983e+001,-2.01305699179780e-001

1.35660432744767e+004,-1.20241565327517e+001,-2.04115364831907e-001

1.37554181813974e+004,-1.20241581350562e+001,-2.06964232587802e-001

1.39474366635040e+004,-1.20241597822292e+001,-2.09852848870570e-001

1.41421356237309e+004,-1.20241614755223e+001,-2.12781767694383e-001

1.43395524801583e+004,-1.20241632162212e+001,-2.15751550773179e-001

1.45397251732031e+004,-1.20241650056474e+001,-2.18762767622650e-001

1.47426921729110e+004,-1.20241668451590e+001,-2.21815995670822e-001

1.49484924863494e+004,-1.20241687361512e+001,-2.24911820366154e-001

1.51571656651040e+004,-1.20241706800581e+001,-2.28050835286220e-001

1.53687518128801e+004,-1.20241726783530e+001,-2.31233642251274e-001

1.55832915932100e+004,-1.20241747325504e+001,-2.34460851435164e-001

1.58008262372675e+004,-1.20241768442060e+001,-2.37733081483016e-001

1.60213975517924e+004,-1.20241790149185e+001,-2.41050959625868e-001

1.62450479271247e+004,-1.20241812463307e+001,-2.44415121796959e-001

1.64718203453514e+004,-1.20241835401304e+001,-2.47826212754095e-001

1.67017583885674e+004,-1.20241858980521e+001,-2.51284886198641e-001

1.69349062472505e+004,-1.20241883218775e+001,-2.54791804899256e-001

1.71713087287550e+004,-1.20241908134376e+001,-2.58347640813609e-001

1.74110112659224e+004,-1.20241933746134e+001,-2.61953075216810e-001

1.76540599258131e+004,-1.20241960073378e+001,-2.65608798827152e-001

1.79005014185594e+004,-1.20241987135963e+001,-2.69315511935922e-001

1.81503831063432e+004,-1.20242014954288e+001,-2.73073924538933e-001

1.84037530124975e+004,-1.20242043549311e+001,-2.76884756465832e-001

1.86606598307361e+004,-1.20242072942565e+001,-2.80748737517237e-001

1.89211529345119e+004,-1.20242103156166e+001,-2.84666607601399e-001

1.91852823865052e+004,-1.20242134212837e+001,-2.88639116868467e-001

1.94530989482457e+004,-1.20242166135920e+001,-2.92667025852803e-001

1.97246540898671e+004,-1.20242198949394e+001,-2.96751105611981e-001

1.99999999999999e+004,-1.20242232677888e+001,-3.00892137872667e-001

2.02791895958005e+004,-1.20242267346703e+001,-3.05090915173866e-001

2.05622765331213e+004,-1.20242302981825e+001,-3.09348241012871e-001

2.08493152168224e+004,-1.20242339609948e+001,-3.13664929996095e-001

2.11403608112276e+004,-1.20242377258488e+001,-3.18041807987319e-001

2.14354692507258e+004,-1.20242415955604e+001,-3.22479712262754e-001

2.17346972505211e+004,-1.20242455730215e+001,-3.26979491664051e-001

2.20381023175322e+004,-1.20242496612026e+001,-3.31542006752834e-001

2.23457427614443e+004,-1.20242538631540e+001,-3.36168129973147e-001

2.26576777059159e+004,-1.20242581820081e+001,-3.40858745809681e-001

2.29739670999406e+004,-1.20242626209821e+001,-3.45614750948908e-001

2.32946717293690e+004,-1.20242671833796e+001,-3.50437054444974e-001

2.36198532285905e+004,-1.20242718725928e+001,-3.55326577886262e-001

2.39495740923785e+004,-1.20242766921047e+001,-3.60284255565578e-001

2.42838976879009e+004,-1.20242816454921e+001,-3.65311034645205e-001

2.46228882668982e+004,-1.20242867364271e+001,-3.70407875336893e-001

2.49666109780322e+004,-1.20242919686802e+001,-3.75575751071004e-001

2.53151318794055e+004,-1.20242973461220e+001,-3.80815648677857e-001

2.56685179512580e+004,-1.20243028727267e+001,-3.86128568562829e-001

2.60268371088386e+004,-1.20243085525738e+001,-3.91515524891983e-001

2.63901582154578e+004,-1.20243143898513e+001,-3.96977545771891e-001

2.67585510957221e+004,-1.20243203888579e+001,-4.02515673440072e-001

2.71320865489533e+004,-1.20243265540066e+001,-4.08130964446654e-001

2.75108363627948e+004,-1.20243328898262e+001,-4.13824489852149e-001

2.78948733270080e+004,-1.20243394009656e+001,-4.19597335413552e-001

2.82842712474618e+004,-1.20243460921953e+001,-4.25450601785272e-001

2.86791049603164e+004,-1.20243529684117e+001,-4.31385404710310e-001

2.90794503464061e+004,-1.20243600346391e+001,-4.37402875225701e-001

2.94853843458219e+004,-1.20243672960333e+001,-4.43504159861156e-001

2.98969849726987e+004,-1.20243747578848e+001,-4.49690420843904e-001

3.03143313302078e+004,-1.20243824256216e+001,-4.55962836305977e-001

3.07375036257601e+004,-1.20243903048130e+001,-4.62322600493174e-001

3.11665831864199e+004,-1.20243984011723e+001,-4.68770923977588e-001

3.16016524745350e+004,-1.20244067205608e+001,-4.75309033870378e-001

3.20427951035848e+004,-1.20244152689907e+001,-4.81938174038535e-001

3.24900958542493e+004,-1.20244240526292e+001,-4.88659605324844e-001

3.29436406907028e+004,-1.20244330778014e+001,-4.95474605769312e-001

3.34035167771346e+004,-1.20244423509945e+001,-5.02384470830413e-001

3.38698124945009e+004,-1.20244518788610e+001,-5.09390513616879e-001

3.43426174575100e+004,-1.20244616682226e+001,-5.16494065112024e-001

3.48220225318448e+004,-1.20244717260742e+001,-5.23696474407330e-001

3.53081198516260e+004,-1.20244820595876e+001,-5.30999108936696e-001

3.58010028371187e+004,-1.20244926761150e+001,-5.38403354714325e-001

3.63007662126863e+004,-1.20245035831936e+001,-5.45910616570165e-001

3.68075060249948e+004,-1.20245147885491e+001,-5.53522318397008e-001

3.73213196614721e+004,-1.20245263001001e+001,-5.61239903391577e-001

3.78423058690237e+004,-1.20245381259616e+001,-5.69064834304127e-001

3.83705647730104e+004,-1.20245502744499e+001,-5.76998593685622e-001

3.89061978964912e+004,-1.20245627540864e+001,-5.85042684141903e-001

3.94493081797342e+004,-1.20245755736015e+001,-5.93198628590989e-001

3.99999999999998e+004,-1.20245887419393e+001,-6.01467970517288e-001

4.05583791916010e+004,-1.20246022682619e+001,-6.09852274233101e-001

4.11245530662425e+004,-1.20246161619533e+001,-6.18353125144307e-001

4.16986304336447e+004,-1.20246304326241e+001,-6.26972130014265e-001

4.22807216224550e+004,-1.20246450901156e+001,-6.35710917233222e-001

4.28709385014515e+004,-1.20246601445047e+001,-6.44571137089065e-001

4.34693945010421e+004,-1.20246756061073e+001,-6.53554462043531e-001

4.40762046350642e+004,-1.20246914854838e+001,-6.62662587007114e-001

4.46914855228886e+004,-1.20247077934427e+001,-6.71897229620202e-001

4.53153554118317e+004,-1.20247245410456e+001,-6.81260130534975e-001

4.59479341998812e+004,-1.20247417396110e+001,-6.90753053701608e-001

4.65893434587380e+004,-1.20247594007190e+001,-7.00377786655742e-001

4.72397064571810e+004,-1.20247775362160e+001,-7.10136140809299e-001

4.78991481847569e+004,-1.20247961582180e+001,-7.20029951745346e-001

4.85677953758016e+004,-1.20248152791161e+001,-7.30061079514181e-001

4.92457765337964e+004,-1.20248349115800e+001,-7.40231408931793e-001

4.99332219560642e+004,-1.20248550685621e+001,-7.50542849885632e-001

5.06302637588109e+004,-1.20248757633023e+001,-7.60997337635014e-001

5.13370359025159e+004,-1.20248970093312e+001,-7.71596833124239e-001

5.20536742176771e+004,-1.20249188204747e+001,-7.82343323290383e-001

5.27803164309155e+004,-1.20249412108577e+001,-7.93238821377780e-001

5.35171021914442e+004,-1.20249641949075e+001,-8.04285367257466e-001

5.42641730979066e+004,-1.20249877873581e+001,-8.15485027743224e-001

5.50216727255895e+004,-1.20250120032529e+001,-8.26839896918373e-001

5.57897466540159e+004,-1.20250368579487e+001,-8.38352096459523e-001

5.65685424949235e+004,-1.20250623671185e+001,-8.50023775965296e-001

5.73582099206328e+004,-1.20250885467546e+001,-8.61857113290676e-001

5.81589006928121e+004,-1.20251154131716e+001,-8.73854314879562e-001

5.89707686916437e+004,-1.20251429830085e+001,-8.86017616105177e-001

5.97939699453972e+004,-1.20251712732317e+001,-8.98349281610274e-001

6.06286626604156e+004,-1.20252003011365e+001,-9.10851605652343e-001

6.14750072515201e+004,-1.20252300843493e+001,-9.23526912452511e-001

6.23331663728396e+004,-1.20252606408289e+001,-9.36377556544221e-001

6.32033049490698e+004,-1.20252919888681e+001,-9.49405923131896e-001

6.40855902071694e+004,-1.20253241470941e+001,-9.62614428445218e-001

6.49801917084985e+004,-1.20253571344694e+001,-9.76005520102341e-001

6.58872813814055e+004,-1.20253909702918e+001,-9.89581677475907e-001

6.68070335542691e+004,-1.20254256741940e+001,-1.00334541206036e+000

6.77396249890018e+004,-1.20254612661433e+001,-1.01729926784547e+000

6.86852349150199e+004,-1.20254977664400e+001,-1.03144582169097e+000

6.96440450636895e+004,-1.20255351957160e+001,-1.04578768370926e+000

7.06162397032520e+004,-1.20255735749325e+001,-1.06032749764762e+000

7.16020056742374e+004,-1.20256129253774e+001,-1.07506794127726e+000

7.26015324253724e+004,-1.20256532686619e+001,-1.09001172678508e+000

7.36150120499896e+004,-1.20256946267163e+001,-1.10516160117293e+000

7.46426393229441e+004,-1.20257370217862e+001,-1.12052034665562e+000

7.56846117380472e+004,-1.20257804764263e+001,-1.13609078106934e+000

7.67411295460207e+004,-1.20258250134950e+001,-1.15187575828306e+000

7.78123957929823e+004,-1.20258706561475e+001,-1.16787816861200e+000

7.88986163594682e+004,-1.20259174278285e+001,-1.18410093924101e+000

7.99999999999995e+004,-1.20259653522632e+001,-1.20054703465050e+000

8.11167583832018e+004,-1.20260144534488e+001,-1.21721945704848e+000

8.22491061324848e+004,-1.20260647556441e+001,-1.23412124680897e+000

8.33972608672892e+004,-1.20261162833584e+001,-1.25125548291508e+000

8.45614432449099e+004,-1.20261690613392e+001,-1.26862528341163e+000

8.57418770029029e+004,-1.20262231145597e+001,-1.28623380586116e+000

8.69387890020841e+004,-1.20262784682042e+001,-1.30408424780756e+000

8.81524092701283e+004,-1.20263351476528e+001,-1.32217984724972e+000

8.93829710457770e+004,-1.20263931784653e+001,-1.34052388311798e+000

9.06307108236633e+004,-1.20264525863633e+001,-1.35911967576443e+000

9.18958683997622e+004,-1.20265133972118e+001,-1.37797058745565e+000

9.31786869174758e+004,-1.20265756369983e+001,-1.39708002287983e+000

9.44794129143618e+004,-1.20266393318124e+001,-1.41645142965806e+000

9.57982963695136e+004,-1.20267045078222e+001,-1.43608829886982e+000

9.71355907516031e+004,-1.20267711912505e+001,-1.45599416558459e+000

9.84915530675926e+004,-1.20268394083494e+001,-1.47617260940788e+000

9.98664439121282e+004,-1.20269091853728e+001,-1.49662725503561e+000

1.01260527517622e+005,-1.20269805485481e+001,-1.51736177282251e+000

1.02674071805032e+005,-1.20270535240462e+001,-1.53837987936029e+000

1.04107348435354e+005,-1.20271281379498e+001,-1.55968533807042e+000

1.05560632861831e+005,-1.20272044162201e+001,-1.58128195981207e+000

1.07034204382888e+005,-1.20272823846620e+001,-1.60317360350001e+000

1.08528346195813e+005,-1.20273620688878e+001,-1.62536417674185e+000

1.10043345451179e+005,-1.20274434942786e+001,-1.64785763648770e+000

1.11579493308032e+005,-1.20275266859451e+001,-1.67065798969923e+000

1.13137084989847e+005,-1.20276116686856e+001,-1.69376929403208e+000

1.14716419841265e+005,-1.20276984669430e+001,-1.71719565854045e+000

1.16317801385624e+005,-1.20277871047601e+001,-1.74094124439658e+000

1.17941537383287e+005,-1.20278776057325e+001,-1.76501026563345e+000

1.19587939890794e+005,-1.20279699929609e+001,-1.78940698990428e+000

1.21257325320831e+005,-1.20280642890008e+001,-1.81413573926711e+000

1.22950014503040e+005,-1.20281605158110e+001,-1.83920089098822e+000

1.24666332745679e+005,-1.20282586947001e+001,-1.86460687837061e+000

1.26406609898139e+005,-1.20283588462722e+001,-1.89035819160767e+000

1.28171180414339e+005,-1.20284609903697e+001,-1.91645937865876e+000

1.29960383416997e+005,-1.20285651460162e+001,-1.94291504615310e+000

1.31774562762811e+005,-1.20286713313564e+001,-1.96972986032094e+000

1.33614067108538e+005,-1.20287795635956e+001,-1.99690854795103e+000

1.35479249978003e+005,-1.20288898589374e+001,-2.02445589737936e+000

1.37370469830040e+005,-1.20290022325207e+001,-2.05237675950398e+000

1.39288090127379e+005,-1.20291166983542e+001,-2.08067604883634e+000

1.41232479406504e+005,-1.20292332692520e+001,-2.10935874457913e+000

1.43204011348474e+005,-1.20293519567659e+001,-2.13842989174067e+000

1.45203064850745e+005,-1.20294727711185e+001,-2.16789460228135e+000

1.47230024099979e+005,-1.20295957211347e+001,-2.19775805629504e+000

1.49285278645888e+005,-1.20297208141734e+001,-2.22802550322666e+000

1.51369223476094e+005,-1.20298480560575e+001,-2.25870226312620e+000

1.53482259092041e+005,-1.20299774510051e+001,-2.28979372793927e+000

1.55624791585964e+005,-1.20301090015593e+001,-2.32130536283666e+000

1.57797232718936e+005,-1.20302427085191e+001,-2.35324270758157e+000

1.59999999999999e+005,-1.20303785708696e+001,-2.38561137793921e+000

1.62233516766403e+005,-1.20305165857129e+001,-2.41841706712271e+000

1.64498212264969e+005,-1.20306567482005e+001,-2.45166554728213e+000

1.66794521734578e+005,-1.20307990514649e+001,-2.48536267103541e+000

1.69122886489819e+005,-1.20309434865536e+001,-2.51951437303785e+000

1.71483754005805e+005,-1.20310900423637e+001,-2.55412667159790e+000

1.73877578004168e+005,-1.20312387055783e+001,-2.58920567033173e+000

1.76304818540256e+005,-1.20313894606042e+001,-2.62475755986139e+000

1.78765942091554e+005,-1.20315422895121e+001,-2.66078861955626e+000

1.81261421647326e+005,-1.20316971719787e+001,-2.69730521931574e+000

1.83791736799524e+005,-1.20318540852311e+001,-2.73431382139581e+000

1.86357373834951e+005,-1.20320130039941e+001,-2.77182098227586e+000

1.88958825828723e+005,-1.20321739004408e+001,-2.80983335456952e+000

1.91596592739027e+005,-1.20323367441453e+001,-2.84835768897396e+000

1.94271181503206e+005,-1.20325015020401e+001,-2.88740083626313e+000

1.96983106135185e+005,-1.20326681383762e+001,-2.92696974931842e+000

1.99732887824256e+005,-1.20328366146876e+001,-2.96707148520032e+000

2.02521055035243e+005,-1.20330068897598e+001,-3.00771320725692e+000

2.05348143610063e+005,-1.20331789196027e+001,-3.04890218727043e+000

2.08214696870707e+005,-1.20333526574273e+001,-3.09064580764060e+000

2.11121265723661e+005,-1.20335280536290e+001,-3.13295156360058e+000

2.14068408765776e+005,-1.20337050557735e+001,-3.17582706546839e+000

2.17056692391625e+005,-1.20338836085895e+001,-3.21928004092931e+000

2.20086690902357e+005,-1.20340636539659e+001,-3.26331833734816e+000

2.23158986616063e+005,-1.20342451309547e+001,-3.30794992411133e+000

2.26274169979693e+005,-1.20344279757791e+001,-3.35318289499412e+000

2.29432839682530e+005,-1.20346121218476e+001,-3.39902547055399e+000

2.32635602771247e+005,-1.20347974997733e+001,-3.44548600054696e+000

2.35883074766574e+005,-1.20349840373993e+001,-3.49257296636359e+000

2.39175879781588e+005,-1.20351716598298e+001,-3.54029498348543e+000

2.42514650641661e+005,-1.20353602894671e+001,-3.58866080395754e+000

2.45900029006080e+005,-1.20355498460537e+001,-3.63767931887581e+000

2.49332665491357e+005,-1.20357402467207e+001,-3.68735956088712e+000

2.52813219796278e+005,-1.20359314060424e+001,-3.73771070669843e+000

2.56342360828676e+005,-1.20361232360946e+001,-3.78874207959787e+000

2.59920766833993e+005,-1.20363156465200e+001,-3.84046315197695e+000

2.63549125525621e+005,-1.20365085445985e+001,-3.89288354786147e+000

2.67228134217075e+005,-1.20367018353217e+001,-3.94601304544195e+000

2.70958499956006e+005,-1.20368954214734e+001,-3.99986157960520e+000

2.74740939660078e+005,-1.20370892037135e+001,-4.05443924446472e+000

2.78576180254757e+005,-1.20372830806677e+001,-4.10975629588659e+000

2.82464958813007e+005,-1.20374769490197e+001,-4.16582315401127e+000

2.86408022696948e+005,-1.20376707036082e+001,-4.22265040576889e+000

2.90406129701488e+005,-1.20378642375273e+001,-4.28024880738622e+000

2.94460048199957e+005,-1.20380574422287e+001,-4.33862928688609e+000

2.98570557291775e+005,-1.20382502076287e+001,-4.39780294657417e+000

3.02738446952187e+005,-1.20384424222153e+001,-4.45778106551670e+000

3.06964518184081e+005,-1.20386339731588e+001,-4.51857510200696e+000

3.11249583171928e+005,-1.20388247464230e+001,-4.58019669601791e+000

3.15594465437872e+005,-1.20390146268777e+001,-4.64265767164365e+000

3.19999999999997e+005,-1.20392034984116e+001,-4.70597003952799e+000

3.24467033532806e+005,-1.20393912440458e+001,-4.77014599928107e+000

3.28996424529938e+005,-1.20395777460464e+001,-4.83519794188309e+000

3.33589043469155e+005,-1.20397628860370e+001,-4.90113845207712e+000

3.38245772979638e+005,-1.20399465451091e+001,-4.96798031075141e+000

3.42967508011610e+005,-1.20401286039317e+001,-5.03573649731116e+000

3.47755156008335e+005,-1.20403089428584e+001,-5.10442019204261e+000

3.52609637080511e+005,-1.20404874420319e+001,-5.17404477846871e+000

3.57531884183106e+005,-1.20406639814859e+001,-5.24462384570108e+000

3.62522843294651e+005,-1.20408384412431e+001,-5.31617119078600e+000

3.67583473599047e+005,-1.20410107014098e+001,-5.38870082105058e+000

3.72714747669902e+005,-1.20411806422664e+001,-5.46222695644780e+000

3.77917651657445e+005,-1.20413481443530e+001,-5.53676403190477e+000

3.83193185478053e+005,-1.20415130885508e+001,-5.61232669967673e+000

3.88542363006410e+005,-1.20416753561576e+001,-5.68892983170786e+000

3.93966212270369e+005,-1.20418348289581e+001,-5.76658852200273e+000

3.99465775648511e+005,-1.20419913892891e+001,-5.84531808901279e+000

4.05042110070485e+005,-1.20421449200974e+001,-5.92513407803707e+000

4.10696287220124e+005,-1.20422953049928e+001,-6.00605226364359e+000

4.16429393741414e+005,-1.20424424282940e+001,-6.08808865211400e+000

4.22242531447321e+005,-1.20425861750679e+001,-6.17125948391296e+000

4.28136817531551e+005,-1.20427264311625e+001,-6.25558123618779e+000

4.34113384783250e+005,-1.20428630832332e+001,-6.34107062530003e+000

4.40173381804713e+005,-1.20429960187611e+001,-6.42774460939392e+000

4.46317973232124e+005,-1.20431251260658e+001,-6.51562039100279e+000

4.52548339959385e+005,-1.20432502943100e+001,-6.60471541969909e+000

4.58865679365059e+005,-1.20433714134979e+001,-6.69504739479126e+000

4.65271205542494e+005,-1.20434883744662e+001,-6.78663426806746e+000

4.71766149533147e+005,-1.20436010688680e+001,-6.87949424659487e+000

4.78351759563174e+005,-1.20437093891505e+001,-6.97364579557308e+000

4.85029301283321e+005,-1.20438132285251e+001,-7.06910764124701e+000

4.91800058012158e+005,-1.20439124809314e+001,-7.16589877388283e+000

4.98665330982714e+005,-1.20440070409943e+001,-7.26403845080794e+000

5.05626439592555e+005,-1.20440968039747e+001,-7.36354619952045e+000

5.12684721657352e+005,-1.20441816657141e+001,-7.46444182086924e+000

5.19841533667984e+005,-1.20442615225732e+001,-7.56674539230816e+000

5.27098251051240e+005,-1.20443362713640e+001,-7.67047727122694e+000

5.34456268434150e+005,-1.20444058092769e+001,-7.77565809836199e+000

5.41916999912011e+005,-1.20444700338019e+001,-7.88230880128825e+000

