Freq.,VOut,OutRef

1.00000000000000e+004,-2.29543773229979e+001,-3.00961604466317e-001

1.01395947979003e+004,-2.29543801545384e+001,-3.05162479784505e-001

1.02811382665607e+004,-2.29543830655797e+001,-3.09421980507127e-001

1.04246576084112e+004,-2.29543860583507e+001,-3.13740924310206e-001

1.05701804056138e+004,-2.29543891351431e+001,-3.18120140253562e-001

1.07177346253629e+004,-2.29543922983121e+001,-3.22560468939990e-001

1.08673486252606e+004,-2.29543955502792e+001,-3.27062762673739e-001

1.10190511587661e+004,-2.29543988935334e+001,-3.31627885622799e-001

1.11728713807222e+004,-2.29544023306335e+001,-3.36256713982852e-001

1.13288388529580e+004,-2.29544058642091e+001,-3.40950136146592e-001

1.14869835499703e+004,-2.29544094969639e+001,-3.45709052867485e-001

1.16473358646846e+004,-2.29544132316771e+001,-3.50534377433932e-001

1.18099266142953e+004,-2.29544170712051e+001,-3.55427035842421e-001

1.19747870461893e+004,-2.29544210184845e+001,-3.60387966971823e-001

1.21419488439505e+004,-2.29544250765335e+001,-3.65418122763230e-001

1.23114441334492e+004,-2.29544292484547e+001,-3.70518468399144e-001

1.24833054890161e+004,-2.29544335374373e+001,-3.75689982485324e-001

1.26575659397028e+004,-2.29544379467594e+001,-3.80933657239358e-001

1.28342589756290e+004,-2.29544424797904e+001,-3.86250498675160e-001

1.30134185544193e+004,-2.29544471399939e+001,-3.91641526795611e-001

1.31950791077289e+004,-2.29544519309299e+001,-3.97107775784236e-001

1.33792755478611e+004,-2.29544568562579e+001,-4.02650294199743e-001

1.35660432744767e+004,-2.29544619197388e+001,-4.08270145178163e-001

1.37554181813974e+004,-2.29544671252388e+001,-4.13968406629475e-001

1.39474366635040e+004,-2.29544724767315e+001,-4.19746171442692e-001

1.41421356237309e+004,-2.29544779783012e+001,-4.25604547692762e-001

1.43395524801583e+004,-2.29544836341458e+001,-4.31544658849235e-001

1.45397251732031e+004,-2.29544894485802e+001,-4.37567643986691e-001

1.47426921729110e+004,-2.29544954260393e+001,-4.43674658000478e-001

1.49484924863494e+004,-2.29545015710811e+001,-4.49866871825143e-001

1.51571656651040e+004,-2.29545078883905e+001,-4.56145472653527e-001

1.53687518128801e+004,-2.29545143827826e+001,-4.62511664160145e-001

1.55832915932100e+004,-2.29545210592064e+001,-4.68966666727920e-001

1.58008262372675e+004,-2.29545279227480e+001,-4.75511717677054e-001

1.60213975517924e+004,-2.29545349786352e+001,-4.82148071497763e-001

1.62450479271247e+004,-2.29545422322404e+001,-4.88877000085147e-001

1.64718203453514e+004,-2.29545496890855e+001,-4.95699792978138e-001

1.67017583885674e+004,-2.29545573548452e+001,-5.02617757602025e-001

1.69349062472505e+004,-2.29545652353519e+001,-5.09632219510076e-001

1.71713087287550e+004,-2.29545733365990e+001,-5.16744522636932e-001

1.74110112659224e+004,-2.29545816647469e+001,-5.23956029542879e-001

1.76540599258131e+004,-2.29545902261255e+001,-5.31268121676020e-001

1.79005014185594e+004,-2.29545990272408e+001,-5.38682199623497e-001

1.81503831063432e+004,-2.29546080747783e+001,-5.46199683378247e-001

1.84037530124975e+004,-2.29546173756085e+001,-5.53822012599743e-001

1.86606598307361e+004,-2.29546269367920e+001,-5.61550646883329e-001

1.89211529345119e+004,-2.29546367655840e+001,-5.69387066033698e-001

1.91852823865052e+004,-2.29546468694405e+001,-5.77332770336825e-001

1.94530989482457e+004,-2.29546572560234e+001,-5.85389280840269e-001

1.97246540898671e+004,-2.29546679332053e+001,-5.93558139637314e-001

1.99999999999999e+004,-2.29546789090764e+001,-6.01840910148576e-001

2.02791895958005e+004,-2.29546901919499e+001,-6.10239177415028e-001

2.05622765331213e+004,-2.29547017903676e+001,-6.18754548390727e-001

2.08493152168224e+004,-2.29547137131065e+001,-6.27388652239108e-001

2.11403608112276e+004,-2.29547259691852e+001,-6.36143140633454e-001

2.14354692507258e+004,-2.29547385678703e+001,-6.45019688062065e-001

2.17346972505211e+004,-2.29547515186825e+001,-6.54019992138395e-001

2.20381023175322e+004,-2.29547648314046e+001,-6.63145773909653e-001

2.23457427614443e+004,-2.29547785160873e+001,-6.72398778177821e-001

2.26576777059159e+004,-2.29547925830571e+001,-6.81780773815003e-001

2.29739670999406e+004,-2.29548070429233e+001,-6.91293554092947e-001

2.32946717293690e+004,-2.29548219065859e+001,-7.00938937007468e-001

2.36198532285905e+004,-2.29548371852430e+001,-7.10718765611813e-001

2.39495740923785e+004,-2.29548528903987e+001,-7.20634908355188e-001

2.42838976879009e+004,-2.29548690338717e+001,-7.30689259421142e-001

2.46228882668982e+004,-2.29548856278030e+001,-7.40883739074294e-001

2.49666109780322e+004,-2.29549026846647e+001,-7.51220294008721e-001

2.53151318794055e+004,-2.29549202172690e+001,-7.61700897701328e-001

2.56685179512580e+004,-2.29549382387767e+001,-7.72327550770943e-001

2.60268371088386e+004,-2.29549567627066e+001,-7.83102281339044e-001

2.63901582154578e+004,-2.29549758029449e+001,-7.94027145397513e-001

2.67585510957221e+004,-2.29549953737548e+001,-8.05104227178930e-001

2.71320865489533e+004,-2.29550154897862e+001,-8.16335639532602e-001

2.75108363627948e+004,-2.29550361660861e+001,-8.27723524304158e-001

2.78948733270080e+004,-2.29550574181089e+001,-8.39270052720375e-001

2.82842712474618e+004,-2.29550792617262e+001,-8.50977425779399e-001

2.86791049603164e+004,-2.29551017132391e+001,-8.62847874641188e-001

2.90794503464061e+004,-2.29551247893876e+001,-8.74883661030647e-001

2.94853843458219e+004,-2.29551485073635e+001,-8.87087077636345e-001

2.98969849726987e+004,-2.29551728848208e+001,-8.99460448521323e-001

3.03143313302078e+004,-2.29551979398880e+001,-9.12006129533730e-001

3.07375036257601e+004,-2.29552236911805e+001,-9.24726508725660e-001

3.11665831864199e+004,-2.29552501578128e+001,-9.37624006773341e-001

3.16016524745350e+004,-2.29552773594107e+001,-9.50701077407431e-001

3.20427951035848e+004,-2.29553053161253e+001,-9.63960207839643e-001

3.24900958542493e+004,-2.29553340486452e+001,-9.77403919205518e-001

3.29436406907028e+004,-2.29553635782110e+001,-9.91034767000861e-001

3.34035167771346e+004,-2.29553939266283e+001,-1.00485534153213e+000

3.38698124945009e+004,-2.29554251162826e+001,-1.01886826836525e+000

3.43426174575100e+004,-2.29554571701531e+001,-1.03307620878458e+000

3.48220225318448e+004,-2.29554901118280e+001,-1.04748186025300e+000

3.53081198516260e+004,-2.29555239655191e+001,-1.06208795687859e+000

3.58010028371187e+004,-2.29555587560777e+001,-1.07689726988797e+000

3.63007662126863e+004,-2.29555945090098e+001,-1.09191260810140e+000

3.68075060249948e+004,-2.29556312504926e+001,-1.10713681841590e+000

3.73213196614721e+004,-2.29556690073904e+001,-1.12257278629249e+000

3.78423058690237e+004,-2.29557078072717e+001,-1.13822343624756e+000

3.83705647730104e+004,-2.29557476784256e+001,-1.15409173235232e+000

3.89061978964912e+004,-2.29557886498801e+001,-1.17018067873310e+000

3.94493081797342e+004,-2.29558307514187e+001,-1.18649332008223e+000

3.99999999999998e+004,-2.29558740135993e+001,-1.20303274216930e+000

4.05583791916010e+004,-2.29559184677719e+001,-1.21980207235991e+000

4.11245530662425e+004,-2.29559641460975e+001,-1.23680448014107e+000

4.16986304336447e+004,-2.29560110815672e+001,-1.25404317764895e+000

4.22807216224550e+004,-2.29560593080217e+001,-1.27152142020350e+000

4.28709385014515e+004,-2.29561088601704e+001,-1.28924250684974e+000

4.34693945010421e+004,-2.29561597736118e+001,-1.30720978090132e+000

4.40762046350642e+004,-2.29562120848542e+001,-1.32542663049211e+000

4.46914855228886e+004,-2.29562658313356e+001,-1.34389648913158e+000

4.53153554118317e+004,-2.29563210514454e+001,-1.36262283626698e+000

4.59479341998812e+004,-2.29563777845455e+001,-1.38160919784965e+000

4.65893434587380e+004,-2.29564360709917e+001,-1.40085914690768e+000

4.72397064571810e+004,-2.29564959521563e+001,-1.42037630412313e+000

4.78991481847569e+004,-2.29565574704498e+001,-1.44016433841576e+000

4.85677953758016e+004,-2.29566206693439e+001,-1.46022696753140e+000

4.92457765337964e+004,-2.29566855933942e+001,-1.48056795863657e+000

4.99332219560642e+004,-2.29567522882637e+001,-1.50119112891693e+000

5.06302637588109e+004,-2.29568208007459e+001,-1.52210034618448e+000

5.13370359025159e+004,-2.29568911787890e+001,-1.54329952948709e+000

5.20536742176771e+004,-2.29569634715198e+001,-1.56479264972430e+000

5.27803164309155e+004,-2.29570377292678e+001,-1.58658373027112e+000

5.35171021914442e+004,-2.29571140035902e+001,-1.60867684760394e+000

5.42641730979066e+004,-2.29571923472963e+001,-1.63107613193477e+000

5.50216727255895e+004,-2.29572728144731e+001,-1.65378576784962e+000

5.57897466540159e+004,-2.29573554605098e+001,-1.67680999495321e+000

5.65685424949235e+004,-2.29574403421239e+001,-1.70015310851982e+000

5.73582099206328e+004,-2.29575275173865e+001,-1.72381946014929e+000

5.81589006928121e+004,-2.29576170457481e+001,-1.74781345842864e+000

5.89707686916437e+004,-2.29577089880647e+001,-1.77213956960041e+000

5.97939699453972e+004,-2.29578034066236e+001,-1.79680231823710e+000

6.06286626604156e+004,-2.29579003651700e+001,-1.82180628791986e+000

6.14750072515201e+004,-2.29579999289327e+001,-1.84715612192544e+000

6.23331663728396e+004,-2.29581021646506e+001,-1.87285652391838e+000

6.32033049490698e+004,-2.29582071405992e+001,-1.89891225864858e+000

6.40855902071694e+004,-2.29583149266169e+001,-1.92532815265675e+000

6.49801917084985e+004,-2.29584255941308e+001,-1.95210909498635e+000

6.58872813814055e+004,-2.29585392161838e+001,-1.97926003789950e+000

6.68070335542691e+004,-2.29586558674599e+001,-2.00678599760314e+000

6.77396249890018e+004,-2.29587756243109e+001,-2.03469205497928e+000

6.86852349150199e+004,-2.29588985647819e+001,-2.06298335632427e+000

6.96440450636895e+004,-2.29590247686372e+001,-2.09166511409337e+000

7.06162397032520e+004,-2.29591543173858e+001,-2.12074260765316e+000

7.16020056742374e+004,-2.29592872943064e+001,-2.15022118404352e+000

7.26015324253724e+004,-2.29594237844726e+001,-2.18010625874376e+000

7.36150120499896e+004,-2.29595638747775e+001,-2.21040331644911e+000

7.46426393229441e+004,-2.29597076539576e+001,-2.24111791185568e+000

7.56846117380472e+004,-2.29598552126169e+001,-2.27225567045137e+000

7.67411295460207e+004,-2.29600066432502e+001,-2.30382228931948e+000

7.78123957929823e+004,-2.29601620402657e+001,-2.33582353794725e+000

7.88986163594682e+004,-2.29603215000075e+001,-2.36826525904623e+000

7.99999999999995e+004,-2.29604851207770e+001,-2.40115336938303e+000

8.11167583832018e+004,-2.29606530028543e+001,-2.43449386061758e+000

8.22491061324848e+004,-2.29608252485182e+001,-2.46829280015463e+000

8.33972608672892e+004,-2.29610019620657e+001,-2.50255633200499e+000

8.45614432449099e+004,-2.29611832498310e+001,-2.53729067765832e+000

8.57418770029029e+004,-2.29613692202035e+001,-2.57250213696900e+000

8.69387890020841e+004,-2.29615599836445e+001,-2.60819708905289e+000

8.81524092701283e+004,-2.29617556527036e+001,-2.64438199319843e+000

8.93829710457770e+004,-2.29619563420337e+001,-2.68106338979157e+000

9.06307108236633e+004,-2.29621621684052e+001,-2.71824790125549e+000

9.18958683997622e+004,-2.29623732507188e+001,-2.75594223300349e+000

9.31786869174758e+004,-2.29625897100180e+001,-2.79415317441006e+000

9.44794129143618e+004,-2.29628116694988e+001,-2.83288759979833e+000

9.57982963695136e+004,-2.29630392545205e+001,-2.87215246944313e+000

9.71355907516031e+004,-2.29632725926131e+001,-2.91195483059534e+000

9.84915530675926e+004,-2.29635118134850e+001,-2.95230181852255e+000

9.98664439121282e+004,-2.29637570490282e+001,-2.99320065757285e+000

1.01260527517622e+005,-2.29640084333235e+001,-3.03465866225741e+000

1.02674071805032e+005,-2.29642661026428e+001,-3.07668323835682e+000

1.04107348435354e+005,-2.29645301954519e+001,-3.11928188405115e+000

1.05560632861831e+005,-2.29648008524100e+001,-3.16246219107289e+000

1.07034204382888e+005,-2.29650782163693e+001,-3.20623184588838e+000

1.08528346195813e+005,-2.29653624323729e+001,-3.25059863090294e+000

1.10043345451179e+005,-2.29656536476506e+001,-3.29557042569734e+000

1.11579493308032e+005,-2.29659520116148e+001,-3.34115520829250e+000

1.13137084989847e+005,-2.29662576758535e+001,-3.38736105644526e+000

1.14716419841265e+005,-2.29665707941233e+001,-3.43419614897758e+000

1.16317801385624e+005,-2.29668915223410e+001,-3.48166876713859e+000

1.17941537383287e+005,-2.29672200185732e+001,-3.52978729600258e+000

1.19587939890794e+005,-2.29675564430260e+001,-3.57856022590521e+000

1.21257325320831e+005,-2.29679009580330e+001,-3.62799615391618e+000

1.22950014503040e+005,-2.29682537280426e+001,-3.67810378535417e+000

1.24666332745679e+005,-2.29686149196048e+001,-3.72889193534280e+000

1.26406609898139e+005,-2.29689847013568e+001,-3.78036953041067e+000

1.28171180414339e+005,-2.29693632440086e+001,-3.83254561013634e+000

1.29960383416997e+005,-2.29697507203283e+001,-3.88542932884045e+000

1.31774562762811e+005,-2.29701473051271e+001,-3.93902995732740e+000

1.33614067108538e+005,-2.29705531752439e+001,-3.99335688467617e+000

1.35479249978003e+005,-2.29709685095311e+001,-4.04841962008460e+000

1.37370469830040e+005,-2.29713934888403e+001,-4.10422779476729e+000

1.39288090127379e+005,-2.29718282960087e+001,-4.16079116390916e+000

1.41232479406504e+005,-2.29722731158470e+001,-4.21811960867595e+000

1.43204011348474e+005,-2.29727281351279e+001,-4.27622313828458e+000

1.45203064850745e+005,-2.29731935425770e+001,-4.33511189213374e+000

1.47230024099979e+005,-2.29736695288653e+001,-4.39479614199570e+000

1.49285278645888e+005,-2.29741562866039e+001,-4.45528629427363e+000

1.51369223476094e+005,-2.29746540103419e+001,-4.51659289232255e+000

1.53482259092041e+005,-2.29751628965666e+001,-4.57872661883692e+000

1.55624791585964e+005,-2.29756831437083e+001,-4.64169829830610e+000

1.57797232718936e+005,-2.29762149521479e+001,-4.70551889953842e+000

1.59999999999999e+005,-2.29767585242300e+001,-4.77019953825525e+000

1.62233516766403e+005,-2.29773140642805e+001,-4.83575147975486e+000

1.64498212264969e+005,-2.29778817786289e+001,-4.90218614164899e+000

1.66794521734578e+005,-2.29784618756383e+001,-4.96951509666989e+000

1.69122886489819e+005,-2.29790545657398e+001,-5.03775007555080e+000

1.71483754005805e+005,-2.29796600614756e+001,-5.10690296997899e+000

1.73877578004168e+005,-2.29802785775486e+001,-5.17698583562083e+000

1.76304818540256e+005,-2.29809103308810e+001,-5.24801089521970e+000

1.78765942091554e+005,-2.29815555406813e+001,-5.31999054176617e+000

1.81261421647326e+005,-2.29822144285202e+001,-5.39293734174054e+000

1.83791736799524e+005,-2.29828872184177e+001,-5.46686403842409e+000

1.86357373834951e+005,-2.29835741369396e+001,-5.54178355528279e+000

1.88958825828723e+005,-2.29842754133058e+001,-5.61770899941758e+000

1.91596592739027e+005,-2.29849912795106e+001,-5.69465366508241e+000

1.94271181503206e+005,-2.29857219704552e+001,-5.77263103726766e+000

1.96983106135185e+005,-2.29864677240930e+001,-5.85165479534603e+000

1.99732887824256e+005,-2.29872287815895e+001,-5.93173881678038e+000

2.02521055035243e+005,-2.29880053874956e+001,-6.01289718088929e+000

2.05348143610063e+005,-2.29887977899362e+001,-6.09514417266741e+000

2.08214696870707e+005,-2.29896062408140e+001,-6.17849428666042e+000

2.11121265723661e+005,-2.29904309960300e+001,-6.26296223088655e+000

2.14068408765776e+005,-2.29912723157193e+001,-6.34856293080557e+000

2.17056692391625e+005,-2.29921304645052e+001,-6.43531153332839e+000

2.20086690902357e+005,-2.29930057117700e+001,-6.52322341086469e+000

2.23158986616063e+005,-2.29938983319440e+001,-6.61231416540371e+000

2.26274169979693e+005,-2.29948086048128e+001,-6.70259963262467e+000

2.29432839682530e+005,-2.29957368158438e+001,-6.79409588602971e+000

2.32635602771247e+005,-2.29966832565309e+001,-6.88681924109812e+000

2.35883074766574e+005,-2.29976482247591e+001,-6.98078625945346e+000

2.39175879781588e+005,-2.29986320251890e+001,-7.07601375304002e+000

2.42514650641661e+005,-2.29996349696604e+001,-7.17251878830365e+000

2.45900029006080e+005,-2.30006573776166e+001,-7.27031869037026e+000

2.49332665491357e+005,-2.30016995765482e+001,-7.36943104721741e+000

2.52813219796278e+005,-2.30027619024574e+001,-7.46987371383437e+000

2.56342360828676e+005,-2.30038447003423e+001,-7.57166481636167e+000

2.59920766833993e+005,-2.30049483247015e+001,-7.67482275621024e+000

2.63549125525621e+005,-2.30060731400586e+001,-7.77936621414781e+000

2.67228134217075e+005,-2.30072195215064e+001,-7.88531415435375e+000

2.70958499956006e+005,-2.30083878552713e+001,-7.99268582843191e+000

2.74740939660078e+005,-2.30095785392967e+001,-8.10150077937870e+000

2.78576180254757e+005,-2.30107919838457e+001,-8.21177884550095e+000

2.82464958813007e+005,-2.30120286121225e+001,-8.32354016427809e+000

2.86408022696948e+005,-2.30132888609129e+001,-8.43680517616420e+000

2.90406129701488e+005,-2.30145731812418e+001,-8.55159462832506e+000

2.94460048199957e+005,-2.30158820390493e+001,-8.66792957830598e+000

2.98570557291775e+005,-2.30172159158832e+001,-8.78583139762670e+000

3.02738446952187e+005,-2.30185753096084e+001,-8.90532177529844e+000

3.06964518184081e+005,-2.30199607351325e+001,-9.02642272126082e+000

3.11249583171928e+005,-2.30213727251462e+001,-9.14915656973440e+000

3.15594465437872e+005,-2.30228118308795e+001,-9.27354598248634e+000

3.19999999999997e+005,-2.30242786228717e+001,-9.39961395200604e+000

3.24467033532806e+005,-2.30257736917547e+001,-9.52738380458937e+000

3.28996424529938e+005,-2.30272976490501e+001,-9.65687920332867e+000

3.33589043469155e+005,-2.30288511279786e+001,-9.78812415100617e+000

3.38245772979638e+005,-2.30304347842803e+001,-9.92114299289184e+000

3.42967508011610e+005,-2.30320492970476e+001,-1.00559604194418e+001

3.47755156008335e+005,-2.30336953695677e+001,-1.01926014688983e+001

3.52609637080511e+005,-2.30353737301756e+001,-1.03310915297899e+001

3.57531884183106e+005,-2.30370851331164e+001,-1.04714563433330e+001

3.62522843294651e+005,-2.30388303594164e+001,-1.06137220057329e+001

3.67583473599047e+005,-2.30406102177636e+001,-1.07579149703857e+001

3.72714747669902e+005,-2.30424255453945e+001,-1.09040620499822e+001

3.77917651657445e+005,-2.30442772089901e+001,-1.10521904185134e+001

3.83193185478053e+005,-2.30461661055779e+001,-1.12023276131788e+001

3.88542363006410e+005,-2.30480931634418e+001,-1.13545015361997e+001

3.93966212270369e+005,-2.30500593430370e+001,-1.15087404565363e+001

3.99465775648511e+005,-2.30520656379128e+001,-1.16650730115126e+001

4.05042110070485e+005,-2.30541130756400e+001,-1.18235282083481e+001

4.10696287220124e+005,-2.30562027187452e+001,-1.19841354255996e+001

4.16429393741414e+005,-2.30583356656500e+001,-1.21469244145124e+001

4.22242531447321e+005,-2.30605130516164e+001,-1.23119253002845e+001

4.28136817531551e+005,-2.30627360496976e+001,-1.24791685832426e+001

4.34113384783250e+005,-2.30650058716943e+001,-1.26486851399330e+001

4.40173381804713e+005,-2.30673237691169e+001,-1.28205062241273e+001

4.46317973232124e+005,-2.30696910341534e+001,-1.29946634677445e+001

4.52548339959385e+005,-2.30721090006432e+001,-1.31711888816884e+001

4.58865679365059e+005,-2.30745790450572e+001,-1.33501148566037e+001

4.65271205542494e+005,-2.30771025874840e+001,-1.35314741635479e+001

4.71766149533147e+005,-2.30796810926227e+001,-1.37152999545807e+001

4.78351759563174e+005,-2.30823160707831e+001,-1.39016257632693e+001

4.85029301283321e+005,-2.30850090788921e+001,-1.40904855051111e+001

4.91800058012158e+005,-2.30877617215090e+001,-1.42819134778687e+001

4.98665330982714e+005,-2.30905756518474e+001,-1.44759443618208e+001

5.05626439592555e+005,-2.30934525728059e+001,-1.46726132199217e+001

5.12684721657352e+005,-2.30963942380079e+001,-1.48719554978725e+001

5.19841533667984e+005,-2.30994024528492e+001,-1.50740070240972e+001

5.27098251051240e+005,-2.31024790755565e+001,-1.52788040096230e+001

5.34456268434150e+005,-2.31056260182546e+001,-1.54863830478598e+001

5.41916999912011e+005,-2.31088452480439e+001,-1.56967811142772e+001

