Freq.,VOut,OutRef

1.00000000000000e+004,-9.10014416563937e+000,-9.65290710823104e-002

1.01395947979003e+004,-9.10014511964317e+000,-9.78763539844941e-002

1.02811382665607e+004,-9.10014610040896e+000,-9.92424352346853e-002

1.04246576084112e+004,-9.10014710868592e+000,-1.00627576865474e-001

1.05701804056138e+004,-9.10014814524411e+000,-1.02032044550096e-001

1.07177346253629e+004,-9.10014921087453e+000,-1.03456107657535e-001

1.08673486252606e+004,-9.10015030639060e+000,-1.04900039296957e-001

1.10190511587661e+004,-9.10015143262837e+000,-1.06364116371335e-001

1.11728713807222e+004,-9.10015259044739e+000,-1.07848619628909e-001

1.13288388529580e+004,-9.10015378073069e+000,-1.09353833719659e-001

1.14869835499703e+004,-9.10015500438620e+000,-1.10880047244497e-001

1.16473358646846e+004,-9.10015626234676e+000,-1.12427552813529e-001

1.18099266142953e+004,-9.10015755557126e+000,-1.13996647098190e-001

1.19747870461893e+004,-9.10015888504550e+000,-1.15587630886501e-001

1.21419488439505e+004,-9.10016025178225e+000,-1.17200809142714e-001

1.23114441334492e+004,-9.10016165682295e+000,-1.18836491060341e-001

1.24833054890161e+004,-9.10016310123750e+000,-1.20494990124761e-001

1.26575659397028e+004,-9.10016458612531e+000,-1.22176624171042e-001

1.28342589756290e+004,-9.10016611261696e+000,-1.23881715438365e-001

1.30134185544193e+004,-9.10016768187379e+000,-1.25610590637440e-001

1.31950791077289e+004,-9.10016929508961e+000,-1.27363581006769e-001

1.33792755478611e+004,-9.10017095349126e+000,-1.29141022376753e-001

1.35660432744767e+004,-9.10017265833953e+000,-1.30943255231738e-001

1.37554181813974e+004,-9.10017441093018e+000,-1.32770624773221e-001

1.39474366635040e+004,-9.10017621259463e+000,-1.34623480986168e-001

1.41421356237309e+004,-9.10017806470133e+000,-1.36502178701141e-001

1.43395524801583e+004,-9.10017996865655e+000,-1.38407077662495e-001

1.45397251732031e+004,-9.10018192590543e+000,-1.40338542593983e-001

1.47426921729110e+004,-9.10018393793282e+000,-1.42296943268970e-001

1.49484924863494e+004,-9.10018600626468e+000,-1.44282654576524e-001

1.51571656651040e+004,-9.10018813246919e+000,-1.46296056591344e-001

1.53687518128801e+004,-9.10019031815774e+000,-1.48337534644212e-001

1.55832915932100e+004,-9.10019256498613e+000,-1.50407479394251e-001

1.58008262372675e+004,-9.10019487465543e+000,-1.52506286902699e-001

1.60213975517924e+004,-9.10019724891413e+000,-1.54634358700198e-001

1.62450479271247e+004,-9.10019968955816e+000,-1.56792101868834e-001

1.64718203453514e+004,-9.10020219843367e+000,-1.58979929107714e-001

1.67017583885674e+004,-9.10020477743665e+000,-1.61198258820076e-001

1.69349062472505e+004,-9.10020742851595e+000,-1.63447515179023e-001

1.71713087287550e+004,-9.10021015367319e+000,-1.65728128215203e-001

1.74110112659224e+004,-9.10021295496535e+000,-1.68040533888291e-001

1.76540599258131e+004,-9.10021583450569e+000,-1.70385174170833e-001

1.79005014185594e+004,-9.10021879446527e+000,-1.72762497127448e-001

1.81503831063432e+004,-9.10022183707470e+000,-1.75172956996919e-001

1.84037530124975e+004,-9.10022496462512e+000,-1.77617014278118e-001

1.86606598307361e+004,-9.10022817947097e+000,-1.80095135806992e-001

1.89211529345119e+004,-9.10023148403053e+000,-1.82607794847456e-001

1.91852823865052e+004,-9.10023488078790e+000,-1.85155471176892e-001

1.94530989482457e+004,-9.10023837229524e+000,-1.87738651169190e-001

1.97246540898671e+004,-9.10024196117419e+000,-1.90357827885569e-001

1.99999999999999e+004,-9.10024565011742e+000,-1.93013501164764e-001

2.02791895958005e+004,-9.10024944189080e+000,-1.95706177711680e-001

2.05622765331213e+004,-9.10025333933575e+000,-1.98436371185930e-001

2.08493152168224e+004,-9.10025734537005e+000,-2.01204602301564e-001

2.11403608112276e+004,-9.10026146299109e+000,-2.04011398912029e-001

2.14354692507258e+004,-9.10026569527704e+000,-2.06857296111022e-001

2.17346972505211e+004,-9.10027004538975e+000,-2.09742836323023e-001

2.20381023175322e+004,-9.10027451657591e+000,-2.12668569405372e-001

2.23457427614443e+004,-9.10027911217006e+000,-2.15635052742314e-001

2.26576777059159e+004,-9.10028383559662e+000,-2.18642851344853e-001

2.29739670999406e+004,-9.10028869037210e+000,-2.21692537951170e-001

2.32946717293690e+004,-9.10029368010733e+000,-2.24784693129668e-001

2.36198532285905e+004,-9.10029880851031e+000,-2.27919905377401e-001

2.39495740923785e+004,-9.10030407938843e+000,-2.31098771226605e-001

2.42838976879009e+004,-9.10030949665090e+000,-2.34321895348412e-001

2.46228882668982e+004,-9.10031506431113e+000,-2.37589890661881e-001

2.49666109780322e+004,-9.10032078649015e+000,-2.40903378434372e-001

2.53151318794055e+004,-9.10032666741851e+000,-2.44262988396136e-001

2.56685179512580e+004,-9.10033271143936e+000,-2.47669358846807e-001

2.60268371088386e+004,-9.10033892301111e+000,-2.51123136767598e-001

2.63901582154578e+004,-9.10034530671079e+000,-2.54624977929590e-001

2.67585510957221e+004,-9.10035186723607e+000,-2.58175547012498e-001

2.71320865489533e+004,-9.10035860940918e+000,-2.61775517713361e-001

2.75108363627948e+004,-9.10036553817935e+000,-2.65425572865378e-001

2.78948733270080e+004,-9.10037265862610e+000,-2.69126404553588e-001

2.82842712474618e+004,-9.10037997596269e+000,-2.72878714230822e-001

2.86791049603164e+004,-9.10038749553872e+000,-2.76683212840937e-001

2.90794503464061e+004,-9.10039522284390e+000,-2.80540620935756e-001

2.94853843458219e+004,-9.10040316351173e+000,-2.84451668794692e-001

2.98969849726987e+004,-9.10041132332191e+000,-2.88417096553063e-001

3.03143313302078e+004,-9.10041970820481e+000,-2.92437654321562e-001

3.07375036257601e+004,-9.10042832424457e+000,-2.96514102311470e-001

3.11665831864199e+004,-9.10043717768271e+000,-3.00647210963180e-001

3.16016524745350e+004,-9.10044627492207e+000,-3.04837761070630e-001

3.20427951035848e+004,-9.10045562252989e+000,-3.09086543914414e-001

3.24900958542493e+004,-9.10046522724257e+000,-3.13394361385715e-001

3.29436406907028e+004,-9.10047509596880e+000,-3.17762026121659e-001

3.34035167771346e+004,-9.10048523579390e+000,-3.22190361634903e-001

3.38698124945009e+004,-9.10049565398340e+000,-3.26680202449527e-001

3.43426174575100e+004,-9.10050635798743e+000,-3.31232394233581e-001

3.48220225318448e+004,-9.10051735544461e+000,-3.35847793935414e-001

3.53081198516260e+004,-9.10052865418652e+000,-3.40527269919101e-001

3.58010028371187e+004,-9.10054026224141e+000,-3.45271702105644e-001

3.63007662126863e+004,-9.10055218783904e+000,-3.50081982108191e-001

3.68075060249948e+004,-9.10056443941445e+000,-3.54959013375392e-001

3.73213196614721e+004,-9.10057702561276e+000,-3.59903711331316e-001

3.78423058690237e+004,-9.10058995529340e+000,-3.64917003517266e-001

3.83705647730104e+004,-9.10060323753463e+000,-3.69999829736550e-001

3.89061978964912e+004,-9.10061688163789e+000,-3.75153142199190e-001

3.94493081797342e+004,-9.10063089713274e+000,-3.80377905665642e-001

3.99999999999998e+004,-9.10064529378084e+000,-3.85675097597044e-001

4.05583791916010e+004,-9.10066008158127e+000,-3.91045708298690e-001

4.11245530662425e+004,-9.10067527077461e+000,-3.96490741072612e-001

4.16986304336447e+004,-9.10069087184780e+000,-4.02011212365759e-001

4.22807216224550e+004,-9.10070689553903e+000,-4.07608151920280e-001

4.28709385014515e+004,-9.10072335284207e+000,-4.13282602926929e-001

4.34693945010421e+004,-9.10074025501154e+000,-4.19035622175191e-001

4.40762046350642e+004,-9.10075761356690e+000,-4.24868280211025e-001

4.46914855228886e+004,-9.10077544029790e+000,-4.30781661487163e-001

4.53153554118317e+004,-9.10079374726882e+000,-4.36776864521670e-001

4.59479341998812e+004,-9.10081254682318e+000,-4.42855002054306e-001

4.65893434587380e+004,-9.10083185158898e+000,-4.49017201200551e-001

4.72397064571810e+004,-9.10085167448244e+000,-4.55264603614951e-001

4.78991481847569e+004,-9.10087202871356e+000,-4.61598365644788e-001

4.85677953758016e+004,-9.10089292778988e+000,-4.68019658494608e-001

4.92457765337964e+004,-9.10091438552148e+000,-4.74529668383722e-001

4.99332219560642e+004,-9.10093641602549e+000,-4.81129596707721e-001

5.06302637588109e+004,-9.10095903372986e+000,-4.87820660203205e-001

5.13370359025159e+004,-9.10098225337820e+000,-4.94604091108793e-001

5.20536742176771e+004,-9.10100609003384e+000,-5.01481137327639e-001

5.27803164309155e+004,-9.10103055908366e+000,-5.08453062594690e-001

5.35171021914442e+004,-9.10105567624232e+000,-5.15521146639032e-001

5.42641730979066e+004,-9.10108145755577e+000,-5.22686685351757e-001

5.50216727255895e+004,-9.10110791940494e+000,-5.29950990951633e-001

5.57897466540159e+004,-9.10113507850946e+000,-5.37315392150815e-001

5.65685424949235e+004,-9.10116295193058e+000,-5.44781234324609e-001

5.73582099206328e+004,-9.10119155707432e+000,-5.52349879679096e-001

5.81589006928121e+004,-9.10122091169462e+000,-5.60022707418978e-001

5.89707686916437e+004,-9.10125103389514e+000,-5.67801113920426e-001

5.97939699453972e+004,-9.10128194213242e+000,-5.75686512898076e-001

6.06286626604156e+004,-9.10131365521753e+000,-5.83680335577231e-001

6.14750072515201e+004,-9.10134619231790e+000,-5.91784030864946e-001

6.23331663728396e+004,-9.10137957295824e+000,-5.99999065525052e-001

6.32033049490698e+004,-9.10141381702235e+000,-6.08326924347004e-001

6.40855902071694e+004,-9.10144894475311e+000,-6.16769110322813e-001

6.49801917084985e+004,-9.10148497675313e+000,-6.25327144819513e-001

6.58872813814055e+004,-9.10152193398428e+000,-6.34002567755438e-001

6.68070335542691e+004,-9.10155983776717e+000,-6.42796937775954e-001

6.77396249890018e+004,-9.10159870977983e+000,-6.51711832430564e-001

6.86852349150199e+004,-9.10163857205631e+000,-6.60748848349919e-001

6.96440450636895e+004,-9.10167944698394e+000,-6.69909601426200e-001

7.06162397032520e+004,-9.10172135730111e+000,-6.79195726990619e-001

7.16020056742374e+004,-9.10176432609325e+000,-6.88608879996536e-001

7.26015324253724e+004,-9.10180837678915e+000,-6.98150735199494e-001

7.36150120499896e+004,-9.10185353315576e+000,-7.07822987342903e-001

7.46426393229441e+004,-9.10189981929274e+000,-7.17627351341687e-001

7.56846117380472e+004,-9.10194725962635e+000,-7.27565562468135e-001

7.67411295460207e+004,-9.10199587890212e+000,-7.37639376540333e-001

7.78123957929823e+004,-9.10204570217671e+000,-7.47850570113714e-001

7.88986163594682e+004,-9.10209675480937e+000,-7.58200940669698e-001

7.99999999999995e+004,-9.10214906245195e+000,-7.68692306811840e-001

8.11167583832018e+004,-9.10220265103788e+000,-7.79326508462764e-001

8.22491061324848e+004,-9.10225754677072e+000,-7.90105407060806e-001

8.33972608672892e+004,-9.10231377611097e+000,-8.01030885763787e-001

8.45614432449099e+004,-9.10237136576239e+000,-8.12104849651256e-001

8.57418770029029e+004,-9.10243034265637e+000,-8.23329225936005e-001

8.69387890020841e+004,-9.10249073393599e+000,-8.34705964171913e-001

8.81524092701283e+004,-9.10255256693828e+000,-8.46237036471411e-001

8.93829710457770e+004,-9.10261586917513e+000,-8.57924437724646e-001

9.06307108236633e+004,-9.10268066831325e+000,-8.69770185823410e-001

9.18958683997622e+004,-9.10274699215254e+000,-8.81776321889514e-001

9.31786869174758e+004,-9.10281486860290e+000,-8.93944910510160e-001

9.44794129143618e+004,-9.10288432565953e+000,-9.06278039977912e-001

9.57982963695136e+004,-9.10295539137739e+000,-9.18777822534607e-001

9.71355907516031e+004,-9.10302809384301e+000,-9.31446394626831e-001

9.84915530675926e+004,-9.10310246114546e+000,-9.44285917164669e-001

9.98664439121282e+004,-9.10317852134540e+000,-9.57298575788925e-001

1.01260527517622e+005,-9.10325630244273e+000,-9.70486581146220e-001

1.02674071805032e+005,-9.10333583234195e+000,-9.83852169174656e-001

1.04107348435354e+005,-9.10341713881625e+000,-9.97397601396414e-001

1.05560632861831e+005,-9.10350024946965e+000,-1.01112516522217e+000

1.07034204382888e+005,-9.10358519169732e+000,-1.02503717426533e+000

1.08528346195813e+005,-9.10367199264405e+000,-1.03913596866703e+000

1.10043345451179e+005,-9.10376067916077e+000,-1.05342391543509e+000

1.11579493308032e+005,-9.10385127775936e+000,-1.06790340879338e+000

1.13137084989847e+005,-9.10394381456552e+000,-1.08257687054642e+000

1.14716419841265e+005,-9.10403831526943e+000,-1.09744675045858e+000

1.16317801385624e+005,-9.10413480507492e+000,-1.11251552664653e+000

1.17941537383287e+005,-9.10423330864652e+000,-1.12778570599030e+000

1.19587939890794e+005,-9.10433385005452e+000,-1.14325982455892e+000

1.21257325320831e+005,-9.10443645271825e+000,-1.15894044805572e+000

1.22950014503040e+005,-9.10454113934744e+000,-1.17483017228198e+000

1.24666332745679e+005,-9.10464793188181e+000,-1.19093162361837e+000

1.26406609898139e+005,-9.10475685142880e+000,-1.20724745952996e+000

1.28171180414339e+005,-9.10486791819912e+000,-1.22378036909273e+000

1.29960383416997e+005,-9.10498115144141e+000,-1.24053307353851e+000

1.31774562762811e+005,-9.10509656937466e+000,-1.25750832682829e+000

1.33614067108538e+005,-9.10521418911882e+000,-1.27470891624866e+000

1.35479249978003e+005,-9.10533402662448e+000,-1.29213766303305e+000

1.37370469830040e+005,-9.10545609660082e+000,-1.30979742300991e+000

1.39288090127379e+005,-9.10558041244209e+000,-1.32769108727848e+000

1.41232479406504e+005,-9.10570698615305e+000,-1.34582158291434e+000

1.43204011348474e+005,-9.10583582827317e+000,-1.36419187370192e+000

1.45203064850745e+005,-9.10596694780003e+000,-1.38280496090020e+000

1.47230024099979e+005,-9.10610035211148e+000,-1.40166388403824e+000

1.49285278645888e+005,-9.10623604688751e+000,-1.42077172174362e+000

1.51369223476094e+005,-9.10637403603138e+000,-1.44013159260317e+000

1.53482259092041e+005,-9.10651432159034e+000,-1.45974665605871e+000

1.55624791585964e+005,-9.10665690367615e+000,-1.47962011333761e+000

1.57797232718936e+005,-9.10680178038579e+000,-1.49975520841781e+000

1.59999999999999e+005,-9.10694894772191e+000,-1.52015522902957e+000

1.62233516766403e+005,-9.10709839951446e+000,-1.54082350769332e+000

1.64498212264969e+005,-9.10725012734192e+000,-1.56176342279664e+000

1.66794521734578e+005,-9.10740412045433e+000,-1.58297839970598e+000

1.69122886489819e+005,-9.10756036569670e+000,-1.60447191191901e+000

1.71483754005805e+005,-9.10771884743436e+000,-1.62624748225310e+000

1.73877578004168e+005,-9.10787954747931e+000,-1.64830868407392e+000

1.76304818540256e+005,-9.10804244501894e+000,-1.67065914256159e+000

1.78765942091554e+005,-9.10820751654614e+000,-1.69330253601645e+000

1.81261421647326e+005,-9.10837473579285e+000,-1.71624259720051e+000

1.83791736799524e+005,-9.10854407366520e+000,-1.73948311471985e+000

1.86357373834951e+005,-9.10871549818204e+000,-1.76302793444311e+000

1.88958825828723e+005,-9.10888897441682e+000,-1.78688096095696e+000

1.91596592739027e+005,-9.10906446444228e+000,-1.81104615905961e+000

1.94271181503206e+005,-9.10924192727969e+000,-1.83552755528705e+000

1.96983106135185e+005,-9.10942131885136e+000,-1.86032923947671e+000

1.99732887824256e+005,-9.10960259193767e+000,-1.88545536636364e+000

2.02521055035243e+005,-9.10978569613867e+000,-1.91091015720937e+000

2.05348143610063e+005,-9.10997057784004e+000,-1.93669790146207e+000

2.08214696870707e+005,-9.11015718018462e+000,-1.96282295844528e+000

2.11121265723661e+005,-9.11034544304832e+000,-1.98928975907683e+000

2.14068408765776e+005,-9.11053530302197e+000,-2.01610280761268e+000

2.17056692391625e+005,-9.11072669339860e+000,-2.04326668341487e+000

2.20086690902357e+005,-9.11091954416623e+000,-2.07078604274435e+000

2.23158986616063e+005,-9.11111378200664e+000,-2.09866562057241e+000

2.26274169979693e+005,-9.11130933030034e+000,-2.12691023241041e+000

2.29432839682530e+005,-9.11150610913721e+000,-2.15552477615751e+000

2.32635602771247e+005,-9.11170403533367e+000,-2.18451423396066e+000

2.35883074766574e+005,-9.11190302245596e+000,-2.21388367408629e+000

2.39175879781588e+005,-9.11210298084952e+000,-2.24363825280235e+000

2.42514650641661e+005,-9.11230381767502e+000,-2.27378321626409e+000

2.45900029006080e+005,-9.11250543695012e+000,-2.30432390240688e+000

2.49332665491357e+005,-9.11270773959780e+000,-2.33526574283843e+000

2.52813219796278e+005,-9.11291062350048e+000,-2.36661426473121e+000

2.56342360828676e+005,-9.11311398356046e+000,-2.39837509270893e+000

2.59920766833993e+005,-9.11331771176560e+000,-2.43055395073041e+000

2.63549125525621e+005,-9.11352169726145e+000,-2.46315666396070e+000

2.67228134217075e+005,-9.11372582642784e+000,-2.49618916063433e+000

2.70958499956006e+005,-9.11392998296152e+000,-2.52965747390351e+000

2.74740939660078e+005,-9.11413404796307e+000,-2.56356774367079e+000

2.78576180254757e+005,-9.11433790002896e+000,-2.59792621840368e+000

2.82464958813007e+005,-9.11454141534726e+000,-2.63273925693107e+000

2.86408022696948e+005,-9.11474446779803e+000,-2.66801333021444e+000

2.90406129701488e+005,-9.11494692905645e+000,-2.70375502310004e+000

2.94460048199957e+005,-9.11514866869987e+000,-2.73997103604129e+000

2.98570557291775e+005,-9.11534955431713e+000,-2.77666818679854e+000

3.02738446952187e+005,-9.11554945162003e+000,-2.81385341210959e+000

3.06964518184081e+005,-9.11574822455719e+000,-2.85153376933075e+000

3.11249583171928e+005,-9.11594573542868e+000,-2.88971643805023e+000

3.15594465437872e+005,-9.11614184500181e+000,-2.92840872167042e+000

3.19999999999997e+005,-9.11633641262725e+000,-2.96761804895944e+000

3.24467033532806e+005,-9.11652929635493e+000,-3.00735197557321e+000

3.28996424529938e+005,-9.11672035304943e+000,-3.04761818554597e+000

3.33589043469155e+005,-9.11690943850377e+000,-3.08842449275247e+000

3.38245772979638e+005,-9.11709640755215e+000,-3.12977884233884e+000

3.42967508011610e+005,-9.11728111418022e+000,-3.17168931212506e+000

3.47755156008335e+005,-9.11746341163221e+000,-3.21416411398167e+000

3.52609637080511e+005,-9.11764315251587e+000,-3.25721159517673e+000

3.57531884183106e+005,-9.11782018890263e+000,-3.30084023970155e+000

3.62522843294651e+005,-9.11799437242443e+000,-3.34505866957055e+000

3.67583473599047e+005,-9.11816555436561e+000,-3.38987564610095e+000

3.72714747669902e+005,-9.11833358574978e+000,-3.43530007117290e+000

3.77917651657445e+005,-9.11849831742131e+000,-3.48134098847296e+000

3.83193185478053e+005,-9.11865960012106e+000,-3.52800758472228e+000

3.88542363006410e+005,-9.11881728455561e+000,-3.57530919089446e+000

3.93966212270369e+005,-9.11897122146028e+000,-3.62325528342174e+000

3.99465775648511e+005,-9.11912126165505e+000,-3.67185548539747e+000

4.05042110070485e+005,-9.11926725609339e+000,-3.72111956777366e+000

4.10696287220124e+005,-9.11940905590368e+000,-3.77105745055842e+000

4.16429393741414e+005,-9.11954651242289e+000,-3.82167920401680e+000

4.22242531447321e+005,-9.11967947722247e+000,-3.87299504987722e+000

4.28136817531551e+005,-9.11980780212609e+000,-3.92501536254832e+000

4.34113384783250e+005,-9.11993133921936e+000,-3.97775067034650e+000

4.40173381804713e+005,-9.12004994085104e+000,-4.03121165674183e+000

4.46317973232124e+005,-9.12016345962596e+000,-4.08540916162193e+000

4.52548339959385e+005,-9.12027174838945e+000,-4.14035418257862e+000

4.58865679365059e+005,-9.12037466020331e+000,-4.19605787622131e+000

4.65271205542494e+005,-9.12047204831318e+000,-4.25253155951865e+000

4.71766149533147e+005,-9.12056376610755e+000,-4.30978671117393e+000

4.78351759563174e+005,-9.12064966706820e+000,-4.36783497303493e+000

4.85029301283321e+005,-9.12072960471234e+000,-4.42668815154323e+000

4.91800058012158e+005,-9.12080343252648e+000,-4.48635821922490e+000

4.98665330982714e+005,-9.12087100389192e+000,-4.54685731622685e+000

5.05626439592555e+005,-9.12093217200254e+000,-4.60819775189812e+000

5.12684721657352e+005,-9.12098678977426e+000,-4.67039200642532e+000

5.19841533667984e+005,-9.12103470974690e+000,-4.73345273251737e+000

5.27098251051240e+005,-9.12107578397866e+000,-4.79739275714702e+000

5.34456268434150e+005,-9.12110986393262e+000,-4.86222508335129e+000

5.41916999912011e+005,-9.12113680035660e+000,-4.92796289208917e+000

