Freq.,VOut,OutRef

1.00000000000000e+004,-1.38414441147334e+001,-1.51283847718085e-001

1.01395947979003e+004,-1.38414458334633e+001,-1.53395336877973e-001

1.02811382665607e+004,-1.38414476004159e+001,-1.55536286286685e-001

1.04246576084112e+004,-1.38414494169406e+001,-1.57707106560368e-001

1.05701804056138e+004,-1.38414512844258e+001,-1.59908214014044e-001

1.07177346253629e+004,-1.38414532042978e+001,-1.62140030749199e-001

1.08673486252606e+004,-1.38414551780230e+001,-1.64402984728990e-001

1.10190511587661e+004,-1.38414572071080e+001,-1.66697509864043e-001

1.11728713807222e+004,-1.38414592931024e+001,-1.69024046084545e-001

1.13288388529580e+004,-1.38414614375981e+001,-1.71383039432883e-001

1.14869835499703e+004,-1.38414636422317e+001,-1.73774942141873e-001

1.16473358646846e+004,-1.38414659086852e+001,-1.76200212722398e-001

1.18099266142953e+004,-1.38414682386873e+001,-1.78659316047296e-001

1.19747870461893e+004,-1.38414706340153e+001,-1.81152723438746e-001

1.21419488439505e+004,-1.38414730964951e+001,-1.83680912761017e-001

1.23114441334492e+004,-1.38414756280040e+001,-1.86244368504036e-001

1.24833054890161e+004,-1.38414782304714e+001,-1.88843581876359e-001

1.26575659397028e+004,-1.38414809058801e+001,-1.91479050898076e-001

1.28342589756290e+004,-1.38414836562678e+001,-1.94151280494925e-001

1.30134185544193e+004,-1.38414864837291e+001,-1.96860782589927e-001

1.31950791077289e+004,-1.38414893904167e+001,-1.99608076199318e-001

1.33792755478611e+004,-1.38414923785427e+001,-2.02393687531305e-001

1.35660432744767e+004,-1.38414954503811e+001,-2.05218150081915e-001

1.37554181813974e+004,-1.38414986082682e+001,-2.08082004737205e-001

1.39474366635040e+004,-1.38415018546055e+001,-2.10985799871191e-001

1.41421356237309e+004,-1.38415051918611e+001,-2.13930091448656e-001

1.43395524801583e+004,-1.38415086225710e+001,-2.16915443129441e-001

1.45397251732031e+004,-1.38415121493416e+001,-2.19942426371606e-001

1.47426921729110e+004,-1.38415157748516e+001,-2.23011620537962e-001

1.49484924863494e+004,-1.38415195018535e+001,-2.26123613002783e-001

1.51571656651040e+004,-1.38415233331757e+001,-2.29278999263743e-001

1.53687518128801e+004,-1.38415272717251e+001,-2.32478383047007e-001

1.55832915932100e+004,-1.38415313204885e+001,-2.35722376421413e-001

1.58008262372675e+004,-1.38415354825355e+001,-2.39011599910596e-001

1.60213975517924e+004,-1.38415397610198e+001,-2.42346682610066e-001

1.62450479271247e+004,-1.38415441591827e+001,-2.45728262297087e-001

1.64718203453514e+004,-1.38415486803540e+001,-2.49156985554524e-001

1.67017583885674e+004,-1.38415533279558e+001,-2.52633507884811e-001

1.69349062472505e+004,-1.38415581055040e+001,-2.56158493832464e-001

1.71713087287550e+004,-1.38415630166113e+001,-2.59732617103691e-001

1.74110112659224e+004,-1.38415680649897e+001,-2.63356560691601e-001

1.76540599258131e+004,-1.38415732544529e+001,-2.67031017001459e-001

1.79005014185594e+004,-1.38415785889198e+001,-2.70756687972435e-001

1.81503831063432e+004,-1.38415840724158e+001,-2.74534285212718e-001

1.84037530124975e+004,-1.38415897090777e+001,-2.78364530120343e-001

1.86606598307361e+004,-1.38415955031549e+001,-2.82248154020623e-001

1.89211529345119e+004,-1.38416014590130e+001,-2.86185898298376e-001

1.91852823865052e+004,-1.38416075811376e+001,-2.90178514525767e-001

1.94530989482457e+004,-1.38416138741360e+001,-2.94226764605815e-001

1.97246540898671e+004,-1.38416203427419e+001,-2.98331420905618e-001

1.99999999999999e+004,-1.38416269918179e+001,-3.02493266394983e-001

2.02791895958005e+004,-1.38416338263591e+001,-3.06713094788569e-001

2.05622765331213e+004,-1.38416408514965e+001,-3.10991710688946e-001

2.08493152168224e+004,-1.38416480725007e+001,-3.15329929728348e-001

2.11403608112276e+004,-1.38416554947856e+001,-3.19728578714900e-001

2.14354692507258e+004,-1.38416631239121e+001,-3.24188495782176e-001

2.17346972505211e+004,-1.38416709655916e+001,-3.28710530535290e-001

2.20381023175322e+004,-1.38416790256908e+001,-3.33295544202534e-001

2.23457427614443e+004,-1.38416873102346e+001,-3.37944409789645e-001

2.26576777059159e+004,-1.38416958254111e+001,-3.42658012232295e-001

2.29739670999406e+004,-1.38417045775755e+001,-3.47437248551235e-001

2.32946717293690e+004,-1.38417135732542e+001,-3.52283028013582e-001

2.36198532285905e+004,-1.38417228191493e+001,-3.57196272289209e-001

2.39495740923785e+004,-1.38417323221439e+001,-3.62177915611106e-001

2.42838976879009e+004,-1.38417420893054e+001,-3.67228904942238e-001

2.46228882668982e+004,-1.38417521278910e+001,-3.72350200138402e-001

2.49666109780322e+004,-1.38417624453525e+001,-3.77542774113943e-001

2.53151318794055e+004,-1.38417730493412e+001,-3.82807613010770e-001

2.56685179512580e+004,-1.38417839477128e+001,-3.88145716369375e-001

2.60268371088386e+004,-1.38417951485325e+001,-3.93558097300473e-001

2.63901582154578e+004,-1.38418066600805e+001,-3.99045782659164e-001

2.67585510957221e+004,-1.38418184908575e+001,-4.04609813217645e-001

2.71320865489533e+004,-1.38418306495895e+001,-4.10251243848708e-001

2.75108363627948e+004,-1.38418431452344e+001,-4.15971143698144e-001

2.78948733270080e+004,-1.38418559869869e+001,-4.21770596370998e-001

2.82842712474618e+004,-1.38418691842848e+001,-4.27650700112522e-001

2.86791049603164e+004,-1.38418827468147e+001,-4.33612567991900e-001

2.90794503464061e+004,-1.38418966845186e+001,-4.39657328089675e-001

2.94853843458219e+004,-1.38419110075993e+001,-4.45786123687984e-001

2.98969849726987e+004,-1.38419257265274e+001,-4.52000113457123e-001

3.03143313302078e+004,-1.38419408520474e+001,-4.58300471650827e-001

3.07375036257601e+004,-1.38419563951846e+001,-4.64688388296432e-001

3.11665831864199e+004,-1.38419723672515e+001,-4.71165069395134e-001

3.16016524745350e+004,-1.38419887798548e+001,-4.77731737114146e-001

3.20427951035848e+004,-1.38420056449023e+001,-4.84389629989954e-001

3.24900958542493e+004,-1.38420229746097e+001,-4.91140003127019e-001

3.29436406907028e+004,-1.38420407815085e+001,-4.97984128400952e-001

3.34035167771346e+004,-1.38420590784525e+001,-5.04923294662911e-001

3.38698124945009e+004,-1.38420778786261e+001,-5.11958807945810e-001

3.43426174575100e+004,-1.38420971955508e+001,-5.19091991672314e-001

3.48220225318448e+004,-1.38421170430940e+001,-5.26324186863149e-001

3.53081198516260e+004,-1.38421374354760e+001,-5.33656752350625e-001

3.58010028371187e+004,-1.38421583872785e+001,-5.41091064988849e-001

3.63007662126863e+004,-1.38421799134519e+001,-5.48628519871351e-001

3.68075060249948e+004,-1.38422020293246e+001,-5.56270530543481e-001

3.73213196614721e+004,-1.38422247506100e+001,-5.64018529223506e-001

3.78423058690237e+004,-1.38422480934157e+001,-5.71873967021962e-001

3.83705647730104e+004,-1.38422720742516e+001,-5.79838314159037e-001

3.89061978964912e+004,-1.38422967100388e+001,-5.87913060191805e-001

3.94493081797342e+004,-1.38423220181180e+001,-5.96099714235133e-001

3.99999999999998e+004,-1.38423480162583e+001,-6.04399805187674e-001

4.05583791916010e+004,-1.38423747226662e+001,-6.12814881960851e-001

4.11245530662425e+004,-1.38424021559944e+001,-6.21346513704317e-001

4.16986304336447e+004,-1.38424303353509e+001,-6.29996290038559e-001

4.22807216224550e+004,-1.38424592803078e+001,-6.38765821284736e-001

4.28709385014515e+004,-1.38424890109112e+001,-6.47656738696625e-001

4.34693945010421e+004,-1.38425195476893e+001,-6.56670694697127e-001

4.40762046350642e+004,-1.38425509116626e+001,-6.65809363110616e-001

4.46914855228886e+004,-1.38425831243526e+001,-6.75074439401245e-001

4.53153554118317e+004,-1.38426162077915e+001,-6.84467640909155e-001

4.59479341998812e+004,-1.38426501845312e+001,-6.93990707091995e-001

4.65893434587380e+004,-1.38426850776527e+001,-7.03645399761425e-001

4.72397064571810e+004,-1.38427209107757e+001,-7.13433503326627e-001

4.78991481847569e+004,-1.38427577080676e+001,-7.23356825036272e-001

4.85677953758016e+004,-1.38427954942527e+001,-7.33417195220747e-001

4.92457765337964e+004,-1.38428342946217e+001,-7.43616467537958e-001

4.99332219560642e+004,-1.38428741350407e+001,-7.53956519217129e-001

5.06302637588109e+004,-1.38429150419604e+001,-7.64439251305438e-001

5.13370359025159e+004,-1.38429570424250e+001,-7.75066588915503e-001

5.20536742176771e+004,-1.38430001640808e+001,-7.85840481473272e-001

5.27803164309155e+004,-1.38430444351855e+001,-7.96762902965458e-001

5.35171021914442e+004,-1.38430898846161e+001,-8.07835852192492e-001

5.42641730979066e+004,-1.38431365418780e+001,-8.19061353013611e-001

5.50216727255895e+004,-1.38431844371124e+001,-8.30441454603946e-001

5.57897466540159e+004,-1.38432336011050e+001,-8.41978231702144e-001

5.65685424949235e+004,-1.38432840652931e+001,-8.53673784864389e-001

5.73582099206328e+004,-1.38433358617734e+001,-8.65530240718281e-001

5.81589006928121e+004,-1.38433890233089e+001,-8.77549752215716e-001

5.89707686916437e+004,-1.38434435833359e+001,-8.89734498888053e-001

5.97939699453972e+004,-1.38434995759698e+001,-9.02086687101899e-001

6.06286626604156e+004,-1.38435570360117e+001,-9.14608550315014e-001

6.14750072515201e+004,-1.38436159989541e+001,-9.27302349331390e-001

6.23331663728396e+004,-1.38436765009848e+001,-9.40170372561817e-001

6.32033049490698e+004,-1.38437385789930e+001,-9.53214936278790e-001

6.40855902071694e+004,-1.38438022705718e+001,-9.66438384877977e-001

6.49801917084985e+004,-1.38438676140228e+001,-9.79843091135822e-001

6.58872813814055e+004,-1.38439346483579e+001,-9.93431456472392e-001

6.68070335542691e+004,-1.38440034133020e+001,-1.00720591121063e+000

6.77396249890018e+004,-1.38440739492938e+001,-1.02116891483990e+000

6.86852349150199e+004,-1.38441462974869e+001,-1.03532295627922e+000

6.96440450636895e+004,-1.38442204997488e+001,-1.04967055414229e+000

7.06162397032520e+004,-1.38442965986604e+001,-1.06421425700316e+000

7.16020056742374e+004,-1.38443746375132e+001,-1.07895664366233e+000

7.26015324253724e+004,-1.38444546603069e+001,-1.09390032341777e+000

7.36150120499896e+004,-1.38445367117442e+001,-1.10904793633428e+000

7.46426393229441e+004,-1.38446208372268e+001,-1.12440215351449e+000

7.56846117380472e+004,-1.38447070828476e+001,-1.13996567737645e+000

7.67411295460207e+004,-1.38447954953840e+001,-1.15574124192611e+000

7.78123957929823e+004,-1.38448861222883e+001,-1.17173161304035e+000

7.88986163594682e+004,-1.38449790116775e+001,-1.18793958874653e+000

7.99999999999995e+004,-1.38450742123215e+001,-1.20436799950839e+000

8.11167583832018e+004,-1.38451717736297e+001,-1.22101970851373e+000

8.22491061324848e+004,-1.38452717456363e+001,-1.23789761196646e+000

8.33972608672892e+004,-1.38453741789837e+001,-1.25500463938312e+000

8.45614432449099e+004,-1.38454791249038e+001,-1.27234375389268e+000

8.57418770029029e+004,-1.38455866351989e+001,-1.28991795254252e+000

8.69387890020841e+004,-1.38456967622188e+001,-1.30773026660864e+000

8.81524092701283e+004,-1.38458095588379e+001,-1.32578376191141e+000

8.93829710457770e+004,-1.38459250784288e+001,-1.34408153914033e+000

9.06307108236633e+004,-1.38460433748345e+001,-1.36262673418189e+000

9.18958683997622e+004,-1.38461645023388e+001,-1.38142251845785e+000

9.31786869174758e+004,-1.38462885156335e+001,-1.40047209927027e+000

9.44794129143618e+004,-1.38464154697841e+001,-1.41977872015501e+000

9.57982963695136e+004,-1.38465454201930e+001,-1.43934566124781e+000

9.71355907516031e+004,-1.38466784225604e+001,-1.45917623965506e+000

9.84915530675926e+004,-1.38468145328418e+001,-1.47927380984217e+000

9.98664439121282e+004,-1.38469538072045e+001,-1.49964176402925e+000

1.01260527517622e+005,-1.38470963019801e+001,-1.52028353260105e+000

1.02674071805032e+005,-1.38472420736152e+001,-1.54120258453174e+000

1.04107348435354e+005,-1.38473911786190e+001,-1.56240242782327e+000

1.05560632861831e+005,-1.38475436735080e+001,-1.58388660996092e+000

1.07034204382888e+005,-1.38476996147484e+001,-1.60565871838335e+000

1.08528346195813e+005,-1.38478590586956e+001,-1.62772238097315e+000

1.10043345451179e+005,-1.38480220615297e+001,-1.65008126656726e+000

1.11579493308032e+005,-1.38481886791901e+001,-1.67273908548389e+000

1.13137084989847e+005,-1.38483589673051e+001,-1.69569959007605e+000

1.14716419841265e+005,-1.38485329811205e+001,-1.71896657530488e+000

1.16317801385624e+005,-1.38487107754235e+001,-1.74254387933912e+000

1.17941537383287e+005,-1.38488924044652e+001,-1.76643538417939e+000

1.19587939890794e+005,-1.38490779218788e+001,-1.79064501631094e+000

1.21257325320831e+005,-1.38492673805964e+001,-1.81517674738411e+000

1.22950014503040e+005,-1.38494608327620e+001,-1.84003459492472e+000

1.24666332745679e+005,-1.38496583296414e+001,-1.86522262307918e+000

1.26406609898139e+005,-1.38498599215310e+001,-1.89074494338921e+000

1.28171180414339e+005,-1.38500656576617e+001,-1.91660571560410e+000

1.29960383416997e+005,-1.38502755861026e+001,-1.94280914852795e+000

1.31774562762811e+005,-1.38504897536604e+001,-1.96935950090733e+000

1.33614067108538e+005,-1.38507082057775e+001,-1.99626108235732e+000

1.35479249978003e+005,-1.38509309864277e+001,-2.02351825432800e+000

1.37370469830040e+005,-1.38511581380098e+001,-2.05113543111695e+000

1.39288090127379e+005,-1.38513897012391e+001,-2.07911708092519e+000

1.41232479406504e+005,-1.38516257150383e+001,-2.10746772695758e+000

1.43204011348474e+005,-1.38518662164251e+001,-2.13619194857524e+000

1.45203064850745e+005,-1.38521112404007e+001,-2.16529438249373e+000

1.47230024099979e+005,-1.38523608198357e+001,-2.19477972403471e+000

1.49285278645888e+005,-1.38526149853557e+001,-2.22465272842934e+000

1.51369223476094e+005,-1.38528737652270e+001,-2.25491821217482e+000

1.53482259092041e+005,-1.38531371852413e+001,-2.28558105444726e+000

1.55624791585964e+005,-1.38534052686012e+001,-2.31664619857089e+000

1.57797232718936e+005,-1.38536780358062e+001,-2.34811865354399e+000

1.59999999999999e+005,-1.38539555045385e+001,-2.38000349562495e+000

1.62233516766403e+005,-1.38542376895515e+001,-2.41230586997688e+000

1.64498212264969e+005,-1.38545246025590e+001,-2.44503099237217e+000

1.66794521734578e+005,-1.38548162521260e+001,-2.47818415096073e+000

1.69122886489819e+005,-1.38551126435633e+001,-2.51177070809635e+000

1.71483754005805e+005,-1.38554137788232e+001,-2.54579610222816e+000

1.73877578004168e+005,-1.38557196563996e+001,-2.58026584985264e+000

1.76304818540256e+005,-1.38560302712315e+001,-2.61518554752975e+000

1.78765942091554e+005,-1.38563456146103e+001,-2.65056087395801e+000

1.81261421647326e+005,-1.38566656740920e+001,-2.68639759211630e+000

1.83791736799524e+005,-1.38569904334147e+001,-2.72270155146248e+000

1.86357373834951e+005,-1.38573198724208e+001,-2.75947869019660e+000

1.88958825828723e+005,-1.38576539669863e+001,-2.79673503758002e+000

1.91596592739027e+005,-1.38579926889551e+001,-2.83447671631794e+000

1.94271181503206e+005,-1.38583360060824e+001,-2.87270994499343e+000

1.96983106135185e+005,-1.38586838819827e+001,-2.91144104056392e+000

1.99732887824256e+005,-1.38590362760883e+001,-2.95067642090502e+000

2.02521055035243e+005,-1.38593931436140e+001,-2.99042260741177e+000

2.05348143610063e+005,-1.38597544355317e+001,-3.03068622764459e+000

2.08214696870707e+005,-1.38601200985536e+001,-3.07147401802767e+000

2.11121265723661e+005,-1.38604900751249e+001,-3.11279282658677e+000

2.14068408765776e+005,-1.38608643034266e+001,-3.15464961573189e+000

2.17056692391625e+005,-1.38612427173878e+001,-3.19705146507765e+000

2.20086690902357e+005,-1.38616252467089e+001,-3.24000557429747e+000

2.23158986616063e+005,-1.38620118168960e+001,-3.28351926601191e+000

2.26274169979693e+005,-1.38624023493048e+001,-3.32759998870324e+000

2.29432839682530e+005,-1.38627967611976e+001,-3.37225531965427e+000

2.32635602771247e+005,-1.38631949658098e+001,-3.41749296790866e+000

2.35883074766574e+005,-1.38635968724287e+001,-3.46332077724661e+000

2.39175879781588e+005,-1.38640023864845e+001,-3.50974672917234e+000

2.42514650641661e+005,-1.38644114096508e+001,-3.55677894591107e+000

2.45900029006080e+005,-1.38648238399591e+001,-3.60442569340734e+000

2.49332665491357e+005,-1.38652395719227e+001,-3.65269538432453e+000

2.52813219796278e+005,-1.38656584966730e+001,-3.70159658103788e+000

2.56342360828676e+005,-1.38660805021070e+001,-3.75113799861907e+000

2.59920766833993e+005,-1.38665054730453e+001,-3.80132850780666e+000

2.63549125525621e+005,-1.38669332914007e+001,-3.85217713795902e+000

2.67228134217075e+005,-1.38673638363582e+001,-3.90369307998464e+000

2.70958499956006e+005,-1.38677969845634e+001,-3.95588568924708e+000

2.74740939660078e+005,-1.38682326103222e+001,-4.00876448844028e+000

2.78576180254757e+005,-1.38686705858082e+001,-4.06233917042903e+000

2.82464958813007e+005,-1.38691107812797e+001,-4.11661960105493e+000

2.86408022696948e+005,-1.38695530653045e+001,-4.17161582189938e+000

2.90406129701488e+005,-1.38699973049918e+001,-4.22733805300620e+000

2.94460048199957e+005,-1.38704433662320e+001,-4.28379669555574e+000

2.98570557291775e+005,-1.38708911139411e+001,-4.34100233449347e+000

3.02738446952187e+005,-1.38713404123127e+001,-4.39896574110535e+000

3.06964518184081e+005,-1.38717911250729e+001,-4.45769787554342e+000

3.11249583171928e+005,-1.38722431157402e+001,-4.51720988929654e+000

3.15594465437872e+005,-1.38726962478891e+001,-4.57751312760676e+000

3.19999999999997e+005,-1.38731503854153e+001,-4.63861913182974e+000

3.24467033532806e+005,-1.38736053928030e+001,-4.70053964174097e+000

3.28996424529938e+005,-1.38740611353938e+001,-4.76328659778468e+000

3.33589043469155e+005,-1.38745174796545e+001,-4.82687214326824e+000

3.38245772979638e+005,-1.38749742934456e+001,-4.89130862650140e+000

3.42967508011610e+005,-1.38754314462875e+001,-4.95660860288380e+000

3.47755156008335e+005,-1.38758888096248e+001,-5.02278483693866e+000

3.52609637080511e+005,-1.38763462570878e+001,-5.08985030429863e+000

3.57531884183106e+005,-1.38768036647500e+001,-5.15781819364237e+000

3.62522843294651e+005,-1.38772609113815e+001,-5.22670190858739e+000

3.67583473599047e+005,-1.38777178786973e+001,-5.29651506954075e+000

3.72714747669902e+005,-1.38781744515995e+001,-5.36727151551059e+000

3.77917651657445e+005,-1.38786305184141e+001,-5.43898530588266e+000

3.83193185478053e+005,-1.38790859711195e+001,-5.51167072216607e+000

3.88542363006410e+005,-1.38795407055687e+001,-5.58534226971120e+000

3.93966212270369e+005,-1.38799946217032e+001,-5.66001467940501e+000

3.99465775648511e+005,-1.38804476237581e+001,-5.73570290934743e+000

4.05042110070485e+005,-1.38808996204594e+001,-5.81242214651538e+000

4.10696287220124e+005,-1.38813505252107e+001,-5.89018780841571e+000

4.16429393741414e+005,-1.38818002562721e+001,-5.96901554473632e+000

4.22242531447321e+005,-1.38822487369280e+001,-6.04892123899755e+000

4.28136817531551e+005,-1.38826958956458e+001,-6.12992101020889e+000

4.34113384783250e+005,-1.38831416662246e+001,-6.21203121453929e+000

4.40173381804713e+005,-1.38835859879331e+001,-6.29526844700255e+000

4.46317973232124e+005,-1.38840288056381e+001,-6.37964954316400e+000

4.52548339959385e+005,-1.38844700699223e+001,-6.46519158087607e+000

4.58865679365059e+005,-1.38849097371923e+001,-6.55191188204471e+000

4.65271205542494e+005,-1.38853477697764e+001,-6.63982801443290e+000

4.71766149533147e+005,-1.38857841360124e+001,-6.72895779350642e+000

4.78351759563174e+005,-1.38862188103263e+001,-6.81931928432660e+000

4.85029301283321e+005,-1.38866517733005e+001,-6.91093080349462e+000

4.91800058012158e+005,-1.38870830117337e+001,-7.00381092115187e+000

4.98665330982714e+005,-1.38875125186920e+001,-7.09797846304020e+000

5.05626439592555e+005,-1.38879402935502e+001,-7.19345251262749e+000

5.12684721657352e+005,-1.38883663420263e+001,-7.29025241330187e+000

5.19841533667984e+005,-1.38887906762075e+001,-7.38839777063748e+000

5.27098251051240e+005,-1.38892133145690e+001,-7.48790845473717e+000

5.34456268434150e+005,-1.38896342819851e+001,-7.58880460265440e+000

5.41916999912011e+005,-1.38900536097355e+001,-7.69110662089676e+000

