Freq.,VOut,OutRef

1.00000000000000e+004,-5.43297902052344e+000,-4.37024887799892e-002

1.01395947979003e+004,-5.43298258693610e+000,-4.43117996901229e-002

1.02811382665607e+004,-5.43298625340651e+000,-4.49295843256156e-002

1.04246576084112e+004,-5.43299002273525e+000,-4.55559596259893e-002

1.05701804056138e+004,-5.43299389780184e+000,-4.61910441002578e-002

1.07177346253629e+004,-5.43299788156540e+000,-4.68349578564085e-002

1.08673486252606e+004,-5.43300197706881e+000,-4.74878226083228e-002

1.10190511587661e+004,-5.43300618743778e+000,-4.81497617163317e-002

1.11728713807222e+004,-5.43301051588689e+000,-4.88209001839338e-002

1.13288388529580e+004,-5.43301496571839e+000,-4.95013647007521e-002

1.14869835499703e+004,-5.43301954032766e+000,-5.01912836436900e-002

1.16473358646846e+004,-5.43302424320479e+000,-5.08907871035748e-002

1.18099266142953e+004,-5.43302907793553e+000,-5.16000069165941e-002

1.19747870461893e+004,-5.43303404820682e+000,-5.23190766676780e-002

1.21419488439505e+004,-5.43303915780747e+000,-5.30481317228193e-002

1.23114441334492e+004,-5.43304441063116e+000,-5.37873092509181e-002

1.24833054890161e+004,-5.43304981068062e+000,-5.45367482358896e-002

1.26575659397028e+004,-5.43305536206868e+000,-5.52965895103507e-002

1.28342589756290e+004,-5.43306106902324e+000,-5.60669757657731e-002

1.30134185544193e+004,-5.43306693588914e+000,-5.68480515809554e-002

1.31950791077289e+004,-5.43307296713240e+000,-5.76399634387301e-002

1.33792755478611e+004,-5.43307916734112e+000,-5.84428597619432e-002

1.35660432744767e+004,-5.43308554123250e+000,-5.92568909133402e-002

1.37554181813974e+004,-5.43309209365326e+000,-6.00822092368119e-002

1.39474366635040e+004,-5.43309882958515e+000,-6.09189690667176e-002

1.41421356237309e+004,-5.43310575414716e+000,-6.17673267607167e-002

1.43395524801583e+004,-5.43311287260016e+000,-6.26274407159928e-002

1.45397251732031e+004,-5.43312019035037e+000,-6.34994713933131e-002

1.47426921729110e+004,-5.43312771295397e+000,-6.43835813375211e-002

1.49484924863494e+004,-5.43313544612041e+000,-6.52799352030131e-002

1.51571656651040e+004,-5.43314339571675e+000,-6.61886997767601e-002

1.53687518128801e+004,-5.43315156777172e+000,-6.71100440014033e-002

1.55832915932100e+004,-5.43315996848089e+000,-6.80441389934455e-002

1.58008262372675e+004,-5.43316860421044e+000,-6.89911580709799e-002

1.60213975517924e+004,-5.43317748150217e+000,-6.99512767737788e-002

1.62450479271247e+004,-5.43318660707803e+000,-7.09246728870053e-002

1.64718203453514e+004,-5.43319598784452e+000,-7.19115264671876e-002

1.67017583885674e+004,-5.43320563089901e+000,-7.29120198566697e-002

1.69349062472505e+004,-5.43321554353326e+000,-7.39263377163644e-002

1.71713087287550e+004,-5.43322573323989e+000,-7.49546670398853e-002

1.74110112659224e+004,-5.43323620771693e+000,-7.59971971822403e-002

1.76540599258131e+004,-5.43324697487362e+000,-7.70541198797890e-002

1.79005014185594e+004,-5.43325804283702e+000,-7.81256292664853e-002

1.81503831063432e+004,-5.43326941995562e+000,-7.92119219101742e-002

1.84037530124975e+004,-5.43328111480734e+000,-8.03131968215655e-002

1.86606598307361e+004,-5.43329313620425e+000,-8.14296554844330e-002

1.89211529345119e+004,-5.43330549319960e+000,-8.25615018721241e-002

1.91852823865052e+004,-5.43331819509437e+000,-8.37089424688613e-002

1.94530989482457e+004,-5.43333125144263e+000,-8.48721862970263e-002

1.97246540898671e+004,-5.43334467205997e+000,-8.60514449284177e-002

1.99999999999999e+004,-5.43335846702872e+000,-8.72469325148143e-002

2.02791895958005e+004,-5.43337264670560e+000,-8.84588658043906e-002

2.05622765331213e+004,-5.43338722172955e+000,-8.96874641577111e-002

2.08493152168224e+004,-5.43340220302891e+000,-9.09329495694390e-002

2.11403608112276e+004,-5.43341760182813e+000,-9.21955466910984e-002

2.14354692507258e+004,-5.43343342965553e+000,-9.34754828515422e-002

2.17346972505211e+004,-5.43344969835327e+000,-9.47729880611640e-002

2.20381023175322e+004,-5.43346642008255e+000,-9.60882950486719e-002

2.23457427614443e+004,-5.43348360733415e+000,-9.74216392633274e-002

2.26576777059159e+004,-5.43350127293648e+000,-9.87732588953448e-002

2.29739670999406e+004,-5.43351943006285e+000,-1.00143394900186e-001

2.32946717293690e+004,-5.43353809224213e+000,-1.01532291003119e-001

2.36198532285905e+004,-5.43355727336725e+000,-1.02940193716797e-001

2.39495740923785e+004,-5.43357698770470e+000,-1.04367352354876e-001

2.42838976879009e+004,-5.43359724990332e+000,-1.05814019049098e-001

2.46228882668982e+004,-5.43361807500462e+000,-1.07280448757693e-001

2.49666109780322e+004,-5.43363947845281e+000,-1.08766899276289e-001

2.53151318794055e+004,-5.43366147610519e+000,-1.10273631246329e-001

2.56685179512580e+004,-5.43368408424226e+000,-1.11800908166472e-001

2.60268371088386e+004,-5.43370731957749e+000,-1.13348996406105e-001

2.63901582154578e+004,-5.43373119926962e+000,-1.14918165203124e-001

2.67585510957221e+004,-5.43375574093354e+000,-1.16508686670642e-001

2.71320865489533e+004,-5.43378096265063e+000,-1.18120835808209e-001

2.75108363627948e+004,-5.43380688298111e+000,-1.19754890499651e-001

2.78948733270080e+004,-5.43383352097593e+000,-1.21411131513733e-001

2.82842712474618e+004,-5.43386089618785e+000,-1.23089842511523e-001

2.86791049603164e+004,-5.43388902868576e+000,-1.24791310031250e-001

2.90794503464061e+004,-5.43391793906443e+000,-1.26515823503269e-001

2.94853843458219e+004,-5.43394764846012e+000,-1.28263675227241e-001

2.98969849726987e+004,-5.43397817856116e+000,-1.30035160381365e-001

3.03143313302078e+004,-5.43400955162335e+000,-1.31830577000034e-001

3.07375036257601e+004,-5.43404179048150e+000,-1.33650225976529e-001

3.11665831864199e+004,-5.43407491856471e+000,-1.35494411040546e-001

3.16016524745350e+004,-5.43410895991042e+000,-1.37363438743643e-001

3.20427951035848e+004,-5.43414393917694e+000,-1.39257618453283e-001

3.24900958542493e+004,-5.43417988166025e+000,-1.41177262318809e-001

3.29436406907028e+004,-5.43421681330740e+000,-1.43122685258735e-001

3.34035167771346e+004,-5.43425476073154e+000,-1.45094204936104e-001

3.38698124945009e+004,-5.43429375122822e+000,-1.47092141724846e-001

3.43426174575100e+004,-5.43433381278982e+000,-1.49116818686721e-001

3.48220225318448e+004,-5.43437497412189e+000,-1.51168561534262e-001

3.53081198516260e+004,-5.43441726465859e+000,-1.53247698598759e-001

3.58010028371187e+004,-5.43446071457929e+000,-1.55354560788702e-001

3.63007662126863e+004,-5.43450535482594e+000,-1.57489481540809e-001

3.68075060249948e+004,-5.43455121711776e+000,-1.59652796787501e-001

3.73213196614721e+004,-5.43459833396992e+000,-1.61844844894870e-001

3.78423058690237e+004,-5.43464673870944e+000,-1.64065966617652e-001

3.83705647730104e+004,-5.43469646549374e+000,-1.66316505034225e-001

3.89061978964912e+004,-5.43474754932635e+000,-1.68596805495953e-001

3.94493081797342e+004,-5.43480002607662e+000,-1.70907215548633e-001

3.99999999999998e+004,-5.43485393249625e+000,-1.73248084872297e-001

4.05583791916010e+004,-5.43490930623748e+000,-1.75619765204239e-001

4.11245530662425e+004,-5.43496618587200e+000,-1.78022610256014e-001

4.16986304336447e+004,-5.43502461090851e+000,-1.80456975634058e-001

4.22807216224550e+004,-5.43508462181098e+000,-1.82923218751358e-001

4.28709385014515e+004,-5.43514626001832e+000,-1.85421698726765e-001

4.34693945010421e+004,-5.43520956796204e+000,-1.87952776290537e-001

4.40762046350642e+004,-5.43527458908475e+000,-1.90516813681448e-001

4.46914855228886e+004,-5.43534136786071e+000,-1.93114174522853e-001

4.53153554118317e+004,-5.43540994981180e+000,-1.95745223725821e-001

4.59479341998812e+004,-5.43548038152867e+000,-1.98410327348782e-001

4.65893434587380e+004,-5.43555271068850e+000,-2.01109852475512e-001

4.72397064571810e+004,-5.43562698607413e+000,-2.03844167076945e-001

4.78991481847569e+004,-5.43570325759241e+000,-2.06613639869675e-001

4.85677953758016e+004,-5.43578157629254e+000,-2.09418640167735e-001

4.92457765337964e+004,-5.43586199438552e+000,-2.12259537719924e-001

4.99332219560642e+004,-5.43594456526101e+000,-2.15136702553554e-001

5.06302637588109e+004,-5.43602934350684e+000,-2.18050504793827e-001

5.13370359025159e+004,-5.43611638492501e+000,-2.21001314495835e-001

5.20536742176771e+004,-5.43620574655170e+000,-2.23989501441443e-001

5.27803164309155e+004,-5.43629748667175e+000,-2.27015434960638e-001

5.35171021914442e+004,-5.43639166483755e+000,-2.30079483714619e-001

5.42641730979066e+004,-5.43648834188471e+000,-2.33182015487583e-001

5.50216727255895e+004,-5.43658757994745e+000,-2.36323396969530e-001

5.57897466540159e+004,-5.43668944247490e+000,-2.39503993519952e-001

5.65685424949235e+004,-5.43679399424560e+000,-2.42724168930015e-001

5.73582099206328e+004,-5.43690130138122e+000,-2.45984285178132e-001

5.81589006928121e+004,-5.43701143136060e+000,-2.49284702166563e-001

5.89707686916437e+004,-5.43712445303259e+000,-2.52625777454043e-001

5.97939699453972e+004,-5.43724043662721e+000,-2.56007865982248e-001

6.06286626604156e+004,-5.43735945376696e+000,-2.59431319785723e-001

6.14750072515201e+004,-5.43748157747712e+000,-2.62896487691837e-001

6.23331663728396e+004,-5.43760688219391e+000,-2.66403715018797e-001

6.32033049490698e+004,-5.43773544377237e+000,-2.69953343254607e-001

6.40855902071694e+004,-5.43786733949409e+000,-2.73545709722835e-001

6.49801917084985e+004,-5.43800264807019e+000,-2.77181147255123e-001

6.58872813814055e+004,-5.43814144964682e+000,-2.80859983832112e-001

6.68070335542691e+004,-5.43828382580681e+000,-2.84582542226392e-001

6.77396249890018e+004,-5.43842985957001e+000,-2.88349139632234e-001

6.86852349150199e+004,-5.43857963539268e+000,-2.92160087282862e-001

6.96440450636895e+004,-5.43873323916437e+000,-2.96015690056882e-001

7.06162397032520e+004,-5.43889075820217e+000,-2.99916246082724e-001

7.16020056742374e+004,-5.43905228124531e+000,-3.03862046315107e-001

7.26015324253724e+004,-5.43921789844506e+000,-3.07853374116324e-001

7.36150120499896e+004,-5.43938770135287e+000,-3.11890504827167e-001

7.46426393229441e+004,-5.43956178290803e+000,-3.15973705311375e-001

7.56846117380472e+004,-5.43974023741889e+000,-3.20103233517411e-001

7.67411295460207e+004,-5.43992316054638e+000,-3.24279337998703e-001

7.78123957929823e+004,-5.44011064928000e+000,-3.28502257453357e-001

7.88986163594682e+004,-5.44030280191348e+000,-3.32772220239547e-001

7.99999999999995e+004,-5.44049971801719e+000,-3.37089443882131e-001

8.11167583832018e+004,-5.44070149840591e+000,-3.41454134579804e-001

8.22491061324848e+004,-5.44090824510552e+000,-3.45866486692125e-001

8.33972608672892e+004,-5.44112006131249e+000,-3.50326682239443e-001

8.45614432449099e+004,-5.44133705135419e+000,-3.54834890370132e-001

8.57418770029029e+004,-5.44155932064137e+000,-3.59391266846105e-001

8.69387890020841e+004,-5.44178697561893e+000,-3.63995953509025e-001

8.81524092701283e+004,-5.44202012371192e+000,-3.68649077746653e-001

8.93829710457770e+004,-5.44225887326652e+000,-3.73350751959927e-001

9.06307108236633e+004,-5.44250333348806e+000,-3.78101073017401e-001

9.18958683997622e+004,-5.44275361437281e+000,-3.82900121720927e-001

9.31786869174758e+004,-5.44300982663513e+000,-3.87747962267248e-001

9.44794129143618e+004,-5.44327208163189e+000,-3.92644641698999e-001

9.57982963695136e+004,-5.44354049127826e+000,-3.97590189379576e-001

9.71355907516031e+004,-5.44381516796129e+000,-4.02584616453539e-001

9.84915530675926e+004,-5.44409622444656e+000,-4.07627915321104e-001

9.98664439121282e+004,-5.44438377377931e+000,-4.12720059120208e-001

1.01260527517622e+005,-5.44467792918112e+000,-4.17861001209501e-001

1.02674071805032e+005,-5.44497880393978e+000,-4.23050674668924e-001

1.04107348435354e+005,-5.44528651129266e+000,-4.28288991815217e-001

1.05560632861831e+005,-5.44560116430676e+000,-4.33575843715734e-001

1.07034204382888e+005,-5.44592287574941e+000,-4.38911099738894e-001

1.08528346195813e+005,-5.44625175795518e+000,-4.44294607108826e-001

1.10043345451179e+005,-5.44658792268564e+000,-4.49726190483409e-001

1.11579493308032e+005,-5.44693148098292e+000,-4.55205651560146e-001

1.13137084989847e+005,-5.44728254301716e+000,-4.60732768700707e-001

1.14716419841265e+005,-5.44764121792798e+000,-4.66307296584390e-001

1.16317801385624e+005,-5.44800761365851e+000,-4.71928965897451e-001

1.17941537383287e+005,-5.44838183678422e+000,-4.77597483049278e-001

1.19587939890794e+005,-5.44876399233548e+000,-4.83312529923665e-001

1.21257325320831e+005,-5.44915418361288e+000,-4.89073763676261e-001

1.22950014503040e+005,-5.44955251199753e+000,-4.94880816565757e-001

1.24666332745679e+005,-5.44995907675530e+000,-5.00733295828790e-001

1.26406609898139e+005,-5.45037397483409e+000,-5.06630783611925e-001

1.28171180414339e+005,-5.45079730065694e+000,-5.12572836941296e-001

1.29960383416997e+005,-5.45122914590848e+000,-5.18558987756107e-001

1.31774562762811e+005,-5.45166959931648e+000,-5.24588742992999e-001

1.33614067108538e+005,-5.45211874642872e+000,-5.30661584730716e-001

1.35479249978003e+005,-5.45257666938457e+000,-5.36776970400145e-001

1.37370469830040e+005,-5.45304344668273e+000,-5.42934333055429e-001

1.39288090127379e+005,-5.45351915294411e+000,-5.49133081721549e-001

1.41232479406504e+005,-5.45400385867229e+000,-5.55372601804689e-001

1.43204011348474e+005,-5.45449763000925e+000,-5.61652255586737e-001

1.45203064850745e+005,-5.45500052849007e+000,-5.67971382787782e-001

1.47230024099979e+005,-5.45551261079388e+000,-5.74329301218467e-001

1.49285278645888e+005,-5.45603392849356e+000,-5.80725307512023e-001

1.51369223476094e+005,-5.45656452780557e+000,-5.87158677935955e-001

1.53482259092041e+005,-5.45710444933711e+000,-5.93628669303334e-001

1.55624791585964e+005,-5.45765372783517e+000,-6.00134519966455e-001

1.57797232718936e+005,-5.45821239193582e+000,-6.06675450903482e-001

1.59999999999999e+005,-5.45878046391501e+000,-6.13250666903228e-001

1.62233516766403e+005,-5.45935795944237e+000,-6.19859357838779e-001

1.64498212264969e+005,-5.45994488733678e+000,-6.26500700048344e-001

1.66794521734578e+005,-5.46054124932818e+000,-6.33173857799950e-001

1.69122886489819e+005,-5.46114703982165e+000,-6.39877984869015e-001

1.71483754005805e+005,-5.46176224566942e+000,-6.46612226204723e-001

1.73877578004168e+005,-5.46238684594811e+000,-6.53375719699541e-001

1.76304818540256e+005,-5.46302081174449e+000,-6.60167598055150e-001

1.78765942091554e+005,-5.46366410594881e+000,-6.66986990750225e-001

1.81261421647326e+005,-5.46431668305901e+000,-6.73833026095980e-001

1.83791736799524e+005,-5.46497848899337e+000,-6.80704833400190e-001

1.86357373834951e+005,-5.46564946091686e+000,-6.87601545208048e-001

1.88958825828723e+005,-5.46632952707821e+000,-6.94522299646226e-001

1.91596592739027e+005,-5.46701860666116e+000,-7.01466242846936e-001

1.94271181503206e+005,-5.46771660964966e+000,-7.08432531459902e-001

1.96983106135185e+005,-5.46842343670866e+000,-7.15420335241115e-001

1.99732887824256e+005,-5.46913897908116e+000,-7.22428839718249e-001

2.02521055035243e+005,-5.46986311850162e+000,-7.29457248929399e-001

2.05348143610063e+005,-5.47059572712849e+000,-7.36504788221661e-001

2.08214696870707e+005,-5.47133666749452e+000,-7.43570707114956e-001

2.11121265723661e+005,-5.47208579247736e+000,-7.50654282213420e-001

2.14068408765776e+005,-5.47284294529009e+000,-7.57754820167903e-001

2.17056692391625e+005,-5.47360795949252e+000,-7.64871660676260e-001

2.20086690902357e+005,-5.47438065902459e+000,-7.72004179514541e-001

2.23158986616063e+005,-5.47516085826183e+000,-7.79151791590500e-001

2.26274169979693e+005,-5.47594836209289e+000,-7.86313954016693e-001

2.29432839682530e+005,-5.47674296602083e+000,-7.93490169185695e-001

2.32635602771247e+005,-5.47754445628681e+000,-8.00679987848362e-001

2.35883074766574e+005,-5.47835261001799e+000,-8.07883012174685e-001

2.39175879781588e+005,-5.47916719539923e+000,-8.15098898796972e-001

2.42514650641661e+005,-5.47998797186743e+000,-8.22327361824222e-001

2.45900029006080e+005,-5.48081469033022e+000,-8.29568175814773e-001

2.49332665491357e+005,-5.48164709340828e+000,-8.36821178696426e-001

2.52813219796278e+005,-5.48248491570016e+000,-8.44086274632136e-001

2.56342360828676e+005,-5.48332788406985e+000,-8.51363436813980e-001

2.59920766833993e+005,-5.48417571795717e+000,-8.58652710177135e-001

2.63549125525621e+005,-5.48502812970967e+000,-8.65954214025485e-001

2.67228134217075e+005,-5.48588482493449e+000,-8.73268144563830e-001

2.70958499956006e+005,-5.48674550287180e+000,-8.80594777317321e-001

2.74740939660078e+005,-5.48760985678683e+000,-8.87934469437232e-001

2.78576180254757e+005,-5.48847757437936e+000,-8.95287661887822e-001

2.82464958813007e+005,-5.48934833821195e+000,-9.02654881492068e-001

2.86408022696948e+005,-5.49022182615226e+000,-9.10036742849284e-001

2.90406129701488e+005,-5.49109771183193e+000,-9.17433950094466e-001

2.94460048199957e+005,-5.49197566511641e+000,-9.24847298519509e-001

2.98570557291775e+005,-5.49285535258929e+000,-9.32277676020204e-001

3.02738446952187e+005,-5.49373643804475e+000,-9.39726064393961e-001

3.06964518184081e+005,-5.49461858299009e+000,-9.47193540461676e-001

3.11249583171928e+005,-5.49550144715499e+000,-9.54681277021464e-001

3.15594465437872e+005,-5.49638468900635e+000,-9.62190543627135e-001

3.19999999999997e+005,-5.49726796626756e+000,-9.69722707188769e-001

3.24467033532806e+005,-5.49815093643888e+000,-9.77279232400825e-001

3.28996424529938e+005,-5.49903325731959e+000,-9.84861681984134e-001

3.33589043469155e+005,-5.49991458752780e+000,-9.92471716757340e-001

3.38245772979638e+005,-5.50079458701839e+000,-1.00011109552370e+000

3.42967508011610e+005,-5.50167291759543e+000,-1.00778167478959e+000

3.47755156008335e+005,-5.50254924341904e+000,-1.01548540830410e+000

3.52609637080511e+005,-5.50342323150390e+000,-1.02322434643344e+000

3.57531884183106e+005,-5.50429455220842e+000,-1.03100063536794e+000

3.62522843294651e+005,-5.50516287971320e+000,-1.03881651616692e+000

3.67583473599047e+005,-5.50602789248661e+000,-1.04667432365147e+000

3.72714747669902e+005,-5.50688927373677e+000,-1.05457648514480e+000

3.77917651657445e+005,-5.50774671184821e+000,-1.06252551907226e+000

3.83193185478053e+005,-5.50859990080215e+000,-1.07052403342419e+000

3.88542363006410e+005,-5.50944854057889e+000,-1.07857472409409e+000

3.93966212270369e+005,-5.51029233754222e+000,-1.08668037309239e+000

3.99465775648511e+005,-5.51113100480331e+000,-1.09484384665409e+000

4.05042110070485e+005,-5.51196426256456e+000,-1.10306809324278e+000

4.10696287220124e+005,-5.51279183844224e+000,-1.11135614146081e+000

4.16429393741414e+005,-5.51361346776674e+000,-1.11971109787863e+000

4.22242531447321e+005,-5.51442889386087e+000,-1.12813614478673e+000

4.28136817531551e+005,-5.51523786829430e+000,-1.13663453789038e+000

4.34113384783250e+005,-5.51604015111565e+000,-1.14520960394366e+000

4.40173381804713e+005,-5.51683551106049e+000,-1.15386473834233e+000

4.46317973232124e+005,-5.51762372573526e+000,-1.16260340268537e+000

4.52548339959385e+005,-5.51840458177853e+000,-1.17142912230514e+000

4.58865679365059e+005,-5.51917787499721e+000,-1.18034548379089e+000

4.65271205542494e+005,-5.51994341048007e+000,-1.18935613250221e+000

4.71766149533147e+005,-5.52070100268804e+000,-1.19846477008571e+000

4.78351759563174e+005,-5.52145047552094e+000,-1.20767515200710e+000

4.85029301283321e+005,-5.52219166236195e+000,-1.21699108510511e+000

4.91800058012158e+005,-5.52292440610037e+000,-1.22641642517171e+000

4.98665330982714e+005,-5.52364855913203e+000,-1.23595507457554e+000

5.05626439592555e+005,-5.52436398334015e+000,-1.24561097992284e+000

5.12684721657352e+005,-5.52507055005450e+000,-1.25538812978053e+000

5.19841533667984e+005,-5.52576813999230e+000,-1.26529055245002e+000

5.27098251051240e+005,-5.52645664318002e+000,-1.27532231381144e+000

5.34456268434150e+005,-5.52713595885755e+000,-1.28548751523635e+000

5.41916999912011e+005,-5.52780599536509e+000,-1.29579029157975e+000

