Freq.,VOut,OutRef

1.00000000000000e+004,-2.09193244519642e+001,-4.01506709499230e-001

1.01395947979003e+004,-2.09193287196960e+001,-4.07110952071975e-001

1.02811382665607e+004,-2.09193331072563e+001,-4.12793402263248e-001

1.04246576084112e+004,-2.09193376180051e+001,-4.18555150765359e-001

1.05701804056138e+004,-2.09193422553965e+001,-4.24397303449926e-001

1.07177346253629e+004,-2.09193470229810e+001,-4.30320981582406e-001

1.08673486252606e+004,-2.09193519244086e+001,-4.36327322029754e-001

1.10190511587661e+004,-2.09193569634310e+001,-4.42417477480991e-001

1.11728713807222e+004,-2.09193621439052e+001,-4.48592616662823e-001

1.13288388529580e+004,-2.09193674697957e+001,-4.54853924561802e-001

1.14869835499703e+004,-2.09193729451779e+001,-4.61202602650731e-001

1.16473358646846e+004,-2.09193785742407e+001,-4.67639869114633e-001

1.18099266142953e+004,-2.09193843612904e+001,-4.74166959082691e-001

1.19747870461893e+004,-2.09193903107534e+001,-4.80785124861709e-001

1.21419488439505e+004,-2.09193964271795e+001,-4.87495636171777e-001

1.23114441334492e+004,-2.09194027152460e+001,-4.94299780389147e-001

1.24833054890161e+004,-2.09194091797601e+001,-5.01198862788174e-001

1.26575659397028e+004,-2.09194158256635e+001,-5.08194206789482e-001

1.28342589756290e+004,-2.09194226580357e+001,-5.15287154207137e-001

1.30134185544193e+004,-2.09194296820978e+001,-5.22479065505610e-001

1.31950791077289e+004,-2.09194369032165e+001,-5.29771320054739e-001

1.33792755478611e+004,-2.09194443269083e+001,-5.37165316389207e-001

1.35660432744767e+004,-2.09194519588431e+001,-5.44662472475400e-001

1.37554181813974e+004,-2.09194598048488e+001,-5.52264225976000e-001

1.39474366635040e+004,-2.09194678709162e+001,-5.59972034521151e-001

1.41421356237309e+004,-2.09194761632021e+001,-5.67787375984526e-001

1.43395524801583e+004,-2.09194846880355e+001,-5.75711748759622e-001

1.45397251732031e+004,-2.09194934519208e+001,-5.83746672043902e-001

1.47426921729110e+004,-2.09195024615443e+001,-5.91893686120325e-001

1.49484924863494e+004,-2.09195117237773e+001,-6.00154352652856e-001

1.51571656651040e+004,-2.09195212456830e+001,-6.08530254972988e-001

1.53687518128801e+004,-2.09195310345205e+001,-6.17022998382559e-001

1.55832915932100e+004,-2.09195410977508e+001,-6.25634210450704e-001

1.58008262372675e+004,-2.09195514430423e+001,-6.34365541320406e-001

1.60213975517924e+004,-2.09195620782761e+001,-6.43218664019199e-001

1.62450479271247e+004,-2.09195730115522e+001,-6.52195274769574e-001

1.64718203453514e+004,-2.09195842511958e+001,-6.61297093305648e-001

1.67017583885674e+004,-2.09195958057626e+001,-6.70525863197937e-001

1.69349062472505e+004,-2.09196076840457e+001,-6.79883352176474e-001

1.71713087287550e+004,-2.09196198950821e+001,-6.89371352460612e-001

1.74110112659224e+004,-2.09196324481591e+001,-6.98991681093599e-001

1.76540599258131e+004,-2.09196453528215e+001,-7.08746180280738e-001

1.79005014185594e+004,-2.09196586188783e+001,-7.18636717732369e-001

1.81503831063432e+004,-2.09196722564096e+001,-7.28665187011311e-001

1.84037530124975e+004,-2.09196862757751e+001,-7.38833507884243e-001

1.86606598307361e+004,-2.09197006876203e+001,-7.49143626677751e-001

1.89211529345119e+004,-2.09197155028855e+001,-7.59597516638704e-001

1.91852823865052e+004,-2.09197307328129e+001,-7.70197178302301e-001

1.94530989482457e+004,-2.09197463889552e+001,-7.80944639858630e-001

1.97246540898671e+004,-2.09197624831840e+001,-7.91841957530147e-001

1.99999999999999e+004,-2.09197790276985e+001,-8.02891215949093e-001

2.02791895958005e+004,-2.09197960350341e+001,-8.14094528545631e-001

2.05622765331213e+004,-2.09198135180716e+001,-8.25454037931941e-001

2.08493152168224e+004,-2.09198314900466e+001,-8.36971916301940e-001

2.11403608112276e+004,-2.09198499645590e+001,-8.48650365825548e-001

2.14354692507258e+004,-2.09198689555829e+001,-8.60491619056816e-001

2.17346972505211e+004,-2.09198884774763e+001,-8.72497939341446e-001

2.20381023175322e+004,-2.09199085449919e+001,-8.84671621230765e-001

2.23457427614443e+004,-2.09199291732872e+001,-8.97014990902606e-001

2.26576777059159e+004,-2.09199503779360e+001,-9.09530406585191e-001

2.29739670999406e+004,-2.09199721749387e+001,-9.22220258986778e-001

2.32946717293690e+004,-2.09199945807344e+001,-9.35086971732661e-001

2.36198532285905e+004,-2.09200176122119e+001,-9.48133001804428e-001

2.39495740923785e+004,-2.09200412867224e+001,-9.61360839986136e-001

2.42838976879009e+004,-2.09200656220914e+001,-9.74773011316247e-001

2.46228882668982e+004,-2.09200906366311e+001,-9.88372075544828e-001

2.49666109780322e+004,-2.09201163491539e+001,-1.00216062759574e+000

2.53151318794055e+004,-2.09201427789848e+001,-1.01614129803408e+000

2.56685179512580e+004,-2.09201699459757e+001,-1.03031675354182e+000

2.60268371088386e+004,-2.09201978705186e+001,-1.04468969739535e+000

2.63901582154578e+004,-2.09202265735606e+001,-1.05926286995103e+000

2.67585510957221e+004,-2.09202560766177e+001,-1.07403904913668e+000

2.71320865489533e+004,-2.09202864017899e+001,-1.08902105094829e+000

2.75108363627948e+004,-2.09203175717769e+001,-1.10421172995151e+000

2.78948733270080e+004,-2.09203496098932e+001,-1.11961397979140e+000

2.82842712474618e+004,-2.09203825400842e+001,-1.13523073370528e+000

2.86791049603164e+004,-2.09204163869430e+001,-1.15106496504375e+000

2.90794503464061e+004,-2.09204511757265e+001,-1.16711968779699e+000

2.94853843458219e+004,-2.09204869323732e+001,-1.18339795712779e+000

2.98969849726987e+004,-2.09205236835204e+001,-1.19990286990759e+000

3.03143313302078e+004,-2.09205614565220e+001,-1.21663756526356e+000

3.07375036257601e+004,-2.09206002794675e+001,-1.23360522512753e+000

3.11665831864199e+004,-2.09206401812002e+001,-1.25080907479293e+000

3.16016524745350e+004,-2.09206811913368e+001,-1.26825238347884e+000

3.20427951035848e+004,-2.09207233402867e+001,-1.28593846489771e+000

3.24900958542493e+004,-2.09207666592725e+001,-1.30387067783203e+000

3.29436406907028e+004,-2.09208111803504e+001,-1.32205242671568e+000

3.34035167771346e+004,-2.09208569364310e+001,-1.34048716222149e+000

3.38698124945009e+004,-2.09209039613012e+001,-1.35917838185592e+000

3.43426174575100e+004,-2.09209522896455e+001,-1.37812963056099e+000

3.48220225318448e+004,-2.09210019570692e+001,-1.39734450131934e+000

3.53081198516260e+004,-2.09210530001207e+001,-1.41682663576986e+000

3.58010028371187e+004,-2.09211054563146e+001,-1.43657972482711e+000

3.63007662126863e+004,-2.09211593641567e+001,-1.45660750930641e+000

3.68075060249948e+004,-2.09212147631669e+001,-1.47691378055958e+000

3.73213196614721e+004,-2.09212716939052e+001,-1.49750238111204e+000

3.78423058690237e+004,-2.09213301979964e+001,-1.51837720530949e+000

3.83705647730104e+004,-2.09213903181561e+001,-1.53954219997110e+000

3.89061978964912e+004,-2.09214520982171e+001,-1.56100136504781e+000

3.94493081797342e+004,-2.09215155831563e+001,-1.58275875428844e+000

3.99999999999998e+004,-2.09215808191219e+001,-1.60481847591150e+000

4.05583791916010e+004,-2.09216478534618e+001,-1.62718469328356e+000

4.11245530662425e+004,-2.09217167347511e+001,-1.64986162560567e+000

4.16986304336447e+004,-2.09217875128221e+001,-1.67285354860423e+000

4.22807216224550e+004,-2.09218602387932e+001,-1.69616479522971e+000

4.28709385014515e+004,-2.09219349650989e+001,-1.71979975636155e+000

4.34693945010421e+004,-2.09220117455203e+001,-1.74376288152092e+000

4.40762046350642e+004,-2.09220906352165e+001,-1.76805867958716e+000

4.46914855228886e+004,-2.09221716907558e+001,-1.79269171952377e+000

4.53153554118317e+004,-2.09222549701479e+001,-1.81766663110945e+000

4.59479341998812e+004,-2.09223405328766e+001,-1.84298810567638e+000

4.65893434587380e+004,-2.09224284399327e+001,-1.86866089685455e+000

4.72397064571810e+004,-2.09225187538478e+001,-1.89468982132290e+000

4.78991481847569e+004,-2.09226115387283e+001,-1.92107975956775e+000

4.85677953758016e+004,-2.09227068602901e+001,-1.94783565664584e+000

4.92457765337964e+004,-2.09228047858937e+001,-1.97496252295735e+000

4.99332219560642e+004,-2.09229053845797e+001,-2.00246543502131e+000

5.06302637588109e+004,-2.09230087271048e+001,-2.03034953626113e+000

5.13370359025159e+004,-2.09231148859785e+001,-2.05862003779500e+000

5.20536742176771e+004,-2.09232239354999e+001,-2.08728221923336e+000

5.27803164309155e+004,-2.09233359517951e+001,-2.11634142948255e+000

5.35171021914442e+004,-2.09234510128550e+001,-2.14580308755604e+000

5.42641730979066e+004,-2.09235691985733e+001,-2.17567268339099e+000

5.50216727255895e+004,-2.09236905907855e+001,-2.20595577867261e+000

5.57897466540159e+004,-2.09238152733073e+001,-2.23665800766476e+000

5.65685424949235e+004,-2.09239433319744e+001,-2.26778507804708e+000

5.73582099206328e+004,-2.09240748546815e+001,-2.29934277175904e+000

5.81589006928121e+004,-2.09242099314226e+001,-2.33133694585117e+000

5.89707686916437e+004,-2.09243486543310e+001,-2.36377353334136e+000

5.97939699453972e+004,-2.09244911177198e+001,-2.39665854408126e+000

6.06286626604156e+004,-2.09246374181222e+001,-2.42999806562640e+000

6.14750072515201e+004,-2.09247876543325e+001,-2.46379826411471e+000

6.23331663728396e+004,-2.09249419274468e+001,-2.49806538515287e+000

6.32033049490698e+004,-2.09251003409044e+001,-2.53280575470768e+000

6.40855902071694e+004,-2.09252630005282e+001,-2.56802578000731e+000

6.49801917084985e+004,-2.09254300145668e+001,-2.60373195044735e+000

6.58872813814055e+004,-2.09256014937345e+001,-2.63993083850712e+000

6.68070335542691e+004,-2.09257775512532e+001,-2.67662910067067e+000

6.77396249890018e+004,-2.09259583028928e+001,-2.71383347835819e+000

6.86852349150199e+004,-2.09261438670125e+001,-2.75155079886370e+000

6.96440450636895e+004,-2.09263343646010e+001,-2.78978797630212e+000

7.06162397032520e+004,-2.09265299193169e+001,-2.82855201256343e+000

7.16020056742374e+004,-2.09267306575292e+001,-2.86784999827715e+000

7.26015324253724e+004,-2.09269367083562e+001,-2.90768911378436e+000

7.36150120499896e+004,-2.09271482037058e+001,-2.94807663011980e+000

7.46426393229441e+004,-2.09273652783133e+001,-2.98901991000281e+000

7.56846117380472e+004,-2.09275880697806e+001,-3.03052640883858e+000

7.67411295460207e+004,-2.09278167186133e+001,-3.07260367573014e+000

7.78123957929823e+004,-2.09280513682580e+001,-3.11525935449976e+000

7.88986163594682e+004,-2.09282921651387e+001,-3.15850118472253e+000

7.99999999999995e+004,-2.09285392586920e+001,-3.20233700277161e+000

8.11167583832018e+004,-2.09287928014024e+001,-3.24677474287437e+000

8.22491061324848e+004,-2.09290529488352e+001,-3.29182243818329e+000

8.33972608672892e+004,-2.09293198596702e+001,-3.33748822185760e+000

8.45614432449099e+004,-2.09295936957331e+001,-3.38378032816108e+000

8.57418770029029e+004,-2.09298746220256e+001,-3.43070709357351e+000

8.69387890020841e+004,-2.09301628067558e+001,-3.47827695791764e+000

8.81524092701283e+004,-2.09304584213656e+001,-3.52649846550172e+000

8.93829710457770e+004,-2.09307616405577e+001,-3.57538026628031e+000

9.06307108236633e+004,-2.09310726423216e+001,-3.62493111703173e+000

9.18958683997622e+004,-2.09313916079569e+001,-3.67515988255578e+000

9.31786869174758e+004,-2.09317187220960e+001,-3.72607553688961e+000

9.44794129143618e+004,-2.09320541727256e+001,-3.77768716454577e+000

9.57982963695136e+004,-2.09323981512053e+001,-3.83000396177231e+000

9.71355907516031e+004,-2.09327508522858e+001,-3.88303523783556e+000

9.84915530675926e+004,-2.09331124741246e+001,-3.93679041632809e+000

9.98664439121282e+004,-2.09334832183004e+001,-3.99127903650163e+000

1.01260527517622e+005,-2.09338632898254e+001,-4.04651075462893e+000

1.02674071805032e+005,-2.09342528971561e+001,-4.10249534539245e+000

1.04107348435354e+005,-2.09346522522021e+001,-4.15924270330449e+000

1.05560632861831e+005,-2.09350615703331e+001,-4.21676284415864e+000

1.07034204382888e+005,-2.09354810703841e+001,-4.27506590651549e+000

1.08528346195813e+005,-2.09359109746584e+001,-4.33416215322279e+000

1.10043345451179e+005,-2.09363515089302e+001,-4.39406197297284e+000

1.11579493308032e+005,-2.09368029024430e+001,-4.45477588189914e+000

1.13137084989847e+005,-2.09372653879089e+001,-4.51631452521373e+000

1.14716419841265e+005,-2.09377392015047e+001,-4.57868867888722e+000

1.16317801385624e+005,-2.09382245828661e+001,-4.64190925137409e+000

1.17941537383287e+005,-2.09387217750824e+001,-4.70598728538426e+000

1.19587939890794e+005,-2.09392310246874e+001,-4.77093395970465e+000

1.21257325320831e+005,-2.09397525816509e+001,-4.83676059107169e+000

1.22950014503040e+005,-2.09402866993681e+001,-4.90347863609767e+000

1.24666332745679e+005,-2.09408336346484e+001,-4.97109969325228e+000

1.26406609898139e+005,-2.09413936477039e+001,-5.03963550490358e+000

1.28171180414339e+005,-2.09419670021363e+001,-5.10909795941845e+000

1.29960383416997e+005,-2.09425539649249e+001,-5.17949909332687e+000

1.31774562762811e+005,-2.09431548064134e+001,-5.25085109355032e+000

1.33614067108538e+005,-2.09437698002979e+001,-5.32316629969953e+000

1.35479249978003e+005,-2.09443992236148e+001,-5.39645720644066e+000

1.37370469830040e+005,-2.09450433567302e+001,-5.47073646593463e+000

1.39288090127379e+005,-2.09457024833301e+001,-5.54601689035161e+000

1.41232479406504e+005,-2.09463768904129e+001,-5.62231145446104e+000

1.43204011348474e+005,-2.09470668682835e+001,-5.69963329830302e+000

1.45203064850745e+005,-2.09477727105508e+001,-5.77799572993827e+000

1.47230024099979e+005,-2.09484947141271e+001,-5.85741222828415e+000

1.49285278645888e+005,-2.09492331792323e+001,-5.93789644603429e+000

1.51369223476094e+005,-2.09499884094018e+001,-6.01946221266606e+000

1.53482259092041e+005,-2.09507607114994e+001,-6.10212353753658e+000

1.55624791585964e+005,-2.09515503957350e+001,-6.18589461306990e+000

1.57797232718936e+005,-2.09523577756891e+001,-6.27078981803535e+000

1.59999999999999e+005,-2.09531831683437e+001,-6.35682372091914e+000

1.62233516766403e+005,-2.09540268941206e+001,-6.44401108339087e+000

1.64498212264969e+005,-2.09548892769280e+001,-6.53236686386309e+000

1.66794521734578e+005,-2.09557706442156e+001,-6.62190622114897e+000

1.69122886489819e+005,-2.09566713270402e+001,-6.71264451821332e+000

1.71483754005805e+005,-2.09575916601410e+001,-6.80459732602171e+000

1.73877578004168e+005,-2.09585319820269e+001,-6.89778042748333e+000

1.76304818540256e+005,-2.09594926350753e+001,-6.99220982149062e+000

1.78765942091554e+005,-2.09604739656446e+001,-7.08790172705226e+000

1.81261421647326e+005,-2.09614763242003e+001,-7.18487258751938e+000

1.83791736799524e+005,-2.09625000654560e+001,-7.28313907490435e+000

1.86357373834951e+005,-2.09635455485300e+001,-7.38271809428797e+000

1.88958825828723e+005,-2.09646131371184e+001,-7.48362678831563e+000

1.91596592739027e+005,-2.09657031996864e+001,-7.58588254177720e+000

1.94271181503206e+005,-2.09668161096769e+001,-7.68950298626947e+000

1.96983106135185e+005,-2.09679522457394e+001,-7.79450600493777e+000

1.99732887824256e+005,-2.09691119919781e+001,-7.90090973729123e+000

2.02521055035243e+005,-2.09702957382223e+001,-8.00873258408909e+000

2.05348143610063e+005,-2.09715038803169e+001,-8.11799321229368e+000

2.08214696870707e+005,-2.09727368204373e+001,-8.22871056008388e+000

2.11121265723661e+005,-2.09739949674268e+001,-8.34090384192441e+000

2.14068408765776e+005,-2.09752787371583e+001,-8.45459255368542e+000

2.17056692391625e+005,-2.09765885529209e+001,-8.56979647780592e+000

2.20086690902357e+005,-2.09779248458324e+001,-8.68653568849459e+000

2.23158986616063e+005,-2.09792880552776e+001,-8.80483055696145e+000

2.26274169979693e+005,-2.09806786293738e+001,-8.92470175667323e+000

2.29432839682530e+005,-2.09820970254628e+001,-9.04617026862465e+000

2.32635602771247e+005,-2.09835437106317e+001,-9.16925738661840e+000

2.35883074766574e+005,-2.09850191622609e+001,-9.29398472254540e+000

2.39175879781588e+005,-2.09865238686012e+001,-9.42037421165804e+000

2.42514650641661e+005,-2.09880583293789e+001,-9.54844811782683e+000

2.45900029006080e+005,-2.09896230564305e+001,-9.67822903877303e+000

2.49332665491357e+005,-2.09912185743662e+001,-9.80973991126757e+000

2.52813219796278e+005,-2.09928454212618e+001,-9.94300401628915e+000

2.56342360828676e+005,-2.09945041493805e+001,-1.00780449841303e+001

2.59920766833993e+005,-2.09961953259232e+001,-1.02148867994453e+001

2.63549125525621e+005,-2.09979195338070e+001,-1.03535538062287e+001

2.67228134217075e+005,-2.09996773724727e+001,-1.04940707127181e+001

2.70958499956006e+005,-2.10014694587204e+001,-1.06364625962102e+001

2.74740939660078e+005,-2.10032964275719e+001,-1.07807549077837e+001

2.78576180254757e+005,-2.10051589331609e+001,-1.09269734769191e+001

2.82464958813007e+005,-2.10070576496497e+001,-1.10751445160086e+001

2.86408022696948e+005,-2.10089932721716e+001,-1.12252946247473e+001

2.90406129701488e+005,-2.10109665177981e+001,-1.13774507943991e+001

2.94460048199957e+005,-2.10129781265312e+001,-1.15316404119287e+001

2.98570557291775e+005,-2.10150288623193e+001,-1.16878912639940e+001

3.02738446952187e+005,-2.10171195140950e+001,-1.18462315407925e+001

3.06964518184081e+005,-2.10192508968351e+001,-1.20066898397538e+001

3.11249583171928e+005,-2.10214238526421e+001,-1.21692951690744e+001

3.15594465437872e+005,-2.10236392518447e+001,-1.23340769510890e+001

3.19999999999997e+005,-2.10258979941171e+001,-1.25010650254724e+001

3.24467033532806e+005,-2.10282010096167e+001,-1.26702896522688e+001

3.28996424529938e+005,-2.10305492601382e+001,-1.28417815147442e+001

3.33589043469155e+005,-2.10329437402827e+001,-1.30155717220577e+001

3.38245772979638e+005,-2.10353854786425e+001,-1.31916918117500e+001

3.42967508011610e+005,-2.10378755389987e+001,-1.33701737520440e+001

3.47755156008335e+005,-2.10404150215309e+001,-1.35510499439600e+001

3.52609637080511e+005,-2.10430050640391e+001,-1.37343532232362e+001

3.57531884183106e+005,-2.10456468431750e+001,-1.39201168620616e+001

3.62522843294651e+005,-2.10483415756835e+001,-1.41083745706141e+001

3.67583473599047e+005,-2.10510905196519e+001,-1.42991604984053e+001

3.72714747669902e+005,-2.10538949757665e+001,-1.44925092354319e+001

3.77917651657445e+005,-2.10567562885760e+001,-1.46884558131331e+001

3.83193185478053e+005,-2.10596758477606e+001,-1.48870357051540e+001

3.88542363006410e+005,-2.10626550894052e+001,-1.50882848279159e+001

3.93966212270369e+005,-2.10656954972774e+001,-1.52922395409931e+001

3.99465775648511e+005,-2.10687986041084e+001,-1.54989366472986e+001

4.05042110070485e+005,-2.10719659928767e+001,-1.57084133930764e+001

4.10696287220124e+005,-2.10751992980938e+001,-1.59207074677046e+001

4.16429393741414e+005,-2.10785002070908e+001,-1.61358570033084e+001

4.22242531447321e+005,-2.10818704613072e+001,-1.63539005741819e+001

4.28136817531551e+005,-2.10853118575788e+001,-1.65748771960236e+001

4.34113384783250e+005,-2.10888262494263e+001,-1.67988263249825e+001

4.40173381804713e+005,-2.10924155483435e+001,-1.70257878565159e+001

4.46317973232124e+005,-2.10960817250847e+001,-1.72558021240603e+001

4.52548339959385e+005,-2.10998268109514e+001,-1.74889098975138e+001

4.58865679365059e+005,-2.11036528990768e+001,-1.77251523815301e+001

4.65271205542494e+005,-2.11075621457104e+001,-1.79645712136241e+001

4.71766149533147e+005,-2.11115567714994e+001,-1.82072084620861e+001

4.78351759563174e+005,-2.11156390627686e+001,-1.84531066237056e+001

4.85029301283321e+005,-2.11198113727988e+001,-1.87023086213004e+001

4.91800058012158e+005,-2.11240761231022e+001,-1.89548578010506e+001

4.98665330982714e+005,-2.11284358046954e+001,-1.92107979296340e+001

5.05626439592555e+005,-2.11328929793699e+001,-1.94701731911594e+001

5.12684721657352e+005,-2.11374502809599e+001,-1.97330281838947e+001

5.19841533667984e+005,-2.11421104166064e+001,-1.99994079167857e+001

5.27098251051240e+005,-2.11468761680181e+001,-2.02693578057603e+001

5.34456268434150e+005,-2.11517503927292e+001,-2.05429236698143e+001

5.41916999912011e+005,-2.11567360253519e+001,-2.08201517268714e+001

