Freq.,VOut,OutRef

1.00000000000000e+004,-8.95080242155483e+000,-6.69812635981924e-002

1.01395947979003e+004,-8.95080292594185e+000,-6.79161748621338e-002

1.02811382665607e+004,-8.95080344447789e+000,-6.88641322391149e-002

1.04246576084112e+004,-8.95080397755956e+000,-6.98253176405355e-002

1.05701804056138e+004,-8.95080452559329e+000,-7.07999155166375e-002

1.07177346253629e+004,-8.95080508899814e+000,-7.17881128749495e-002

1.08673486252606e+004,-8.95080566820364e+000,-7.27900993319566e-002

1.10190511587661e+004,-8.95080626365205e+000,-7.38060671366934e-002

1.11728713807222e+004,-8.95080687579777e+000,-7.48362112127996e-002

1.13288388529580e+004,-8.95080750510752e+000,-7.58807291963195e-002

1.14869835499703e+004,-8.95080815206139e+000,-7.69398214691812e-002

1.16473358646846e+004,-8.95080881715268e+000,-7.80136911997496e-002

1.18099266142953e+004,-8.95080950088841e+000,-7.91025443804936e-002

1.19747870461893e+004,-8.95081020378991e+000,-8.02065898660540e-002

1.21419488439505e+004,-8.95081092639229e+000,-8.13260394177451e-002

1.23114441334492e+004,-8.95081166924615e+000,-8.24611077355582e-002

1.24833054890161e+004,-8.95081243291761e+000,-8.36120125015174e-002

1.26575659397028e+004,-8.95081321798767e+000,-8.47789744263717e-002

1.28342589756290e+004,-8.95081402505396e+000,-8.59622172840284e-002

1.30134185544193e+004,-8.95081485473084e+000,-8.71619679548967e-002

1.31950791077289e+004,-8.95081570764929e+000,-8.83784564726908e-002

1.33792755478611e+004,-8.95081658445786e+000,-8.96119160645810e-002

1.35660432744767e+004,-8.95081748582339e+000,-9.08625831937697e-002

1.37554181813974e+004,-8.95081841243085e+000,-9.21306976070284e-002

1.39474366635040e+004,-8.95081936498416e+000,-9.34165023793251e-002

1.41421356237309e+004,-8.95082034420708e+000,-9.47202439552610e-002

1.43395524801583e+004,-8.95082135084268e+000,-9.60421722037224e-002

1.45397251732031e+004,-8.95082238565552e+000,-9.73825404530963e-002

1.47426921729110e+004,-8.95082344943030e+000,-9.87416055516114e-002

1.49484924863494e+004,-8.95082454297399e+000,-1.00119627905303e-001

1.51571656651040e+004,-8.95082566711584e+000,-1.01516871529858e-001

1.53687518128801e+004,-8.95082682270785e+000,-1.02933604101871e-001

1.55832915932100e+004,-8.95082801062508e+000,-1.04370097009510e-001

1.58008262372675e+004,-8.95082923176722e+000,-1.05826625398699e-001

1.60213975517924e+004,-8.95083048705881e+000,-1.07303468225825e-001

1.62450479271247e+004,-8.95083177744933e+000,-1.08800908313977e-001

1.64718203453514e+004,-8.95083310391480e+000,-1.10319232400022e-001

1.67017583885674e+004,-8.95083446745786e+000,-1.11858731191331e-001

1.69349062472505e+004,-8.95083586910872e+000,-1.13419699418774e-001

1.71713087287550e+004,-8.95083730992575e+000,-1.15002435891844e-001

1.74110112659224e+004,-8.95083879099673e+000,-1.16607243551961e-001

1.76540599258131e+004,-8.95084031343884e+000,-1.18234429532450e-001

1.79005014185594e+004,-8.95084187840004e+000,-1.19884305212287e-001

1.81503831063432e+004,-8.95084348705948e+000,-1.21557186276207e-001

1.84037530124975e+004,-8.95084514062909e+000,-1.23253392768069e-001

1.86606598307361e+004,-8.95084684035333e+000,-1.24973249157249e-001

1.89211529345119e+004,-8.95084858751087e+000,-1.26717084392962e-001

1.91852823865052e+004,-8.95085038341523e+000,-1.28485231966449e-001

1.94530989482457e+004,-8.95085222941585e+000,-1.30278029972110e-001

1.97246540898671e+004,-8.95085412689872e+000,-1.32095821170522e-001

1.99999999999999e+004,-8.95085607728791e+000,-1.33938953048423e-001

2.02791895958005e+004,-8.95085808204547e+000,-1.35807777889319e-001

2.05622765331213e+004,-8.95086014267391e+000,-1.37702652828038e-001

2.08493152168224e+004,-8.95086226071604e+000,-1.39623939924440e-001

2.11403608112276e+004,-8.95086443775679e+000,-1.41572006223782e-001

2.14354692507258e+004,-8.95086667542356e+000,-1.43547223829111e-001

2.17346972505211e+004,-8.95086897538819e+000,-1.45549969962861e-001

2.20381023175322e+004,-8.95087133936748e+000,-1.47580627039782e-001

2.23457427614443e+004,-8.95087376912444e+000,-1.49639582735724e-001

2.26576777059159e+004,-8.95087626646965e+000,-1.51727230056290e-001

2.29739670999406e+004,-8.95087883326270e+000,-1.53843967407258e-001

2.32946717293690e+004,-8.95088147141267e+000,-1.55990198670912e-001

2.36198532285905e+004,-8.95088418288019e+000,-1.58166333273764e-001

2.39495740923785e+004,-8.95088696967855e+000,-1.60372786262055e-001

2.42838976879009e+004,-8.95088983387469e+000,-1.62609978377745e-001

2.46228882668982e+004,-8.95089277759072e+000,-1.64878336133569e-001

2.49666109780322e+004,-8.95089580300568e+000,-1.67178291886488e-001

2.53151318794055e+004,-8.95089891235651e+000,-1.69510283917977e-001

2.56685179512580e+004,-8.95090210793962e+000,-1.71874756511757e-001

2.60268371088386e+004,-8.95090539211279e+000,-1.74272160029990e-001

2.63901582154578e+004,-8.95090876729587e+000,-1.76702950997597e-001

2.67585510957221e+004,-8.95091223597290e+000,-1.79167592181186e-001

2.71320865489533e+004,-8.95091580069383e+000,-1.81666552668232e-001

2.75108363627948e+004,-8.95091946407569e+000,-1.84200307953908e-001

2.78948733270080e+004,-8.95092322880433e+000,-1.86769340023247e-001

2.82842712474618e+004,-8.95092709763628e+000,-1.89374137435067e-001

2.86791049603164e+004,-8.95093107340064e+000,-1.92015195406012e-001

2.90794503464061e+004,-8.95093515899993e+000,-1.94693015903623e-001

2.94853843458219e+004,-8.95093935741317e+000,-1.97408107724125e-001

2.98969849726987e+004,-8.95094367169657e+000,-2.00160986589169e-001

3.03143313302078e+004,-8.95094810498610e+000,-2.02952175230209e-001

3.07375036257601e+004,-8.95095266049897e+000,-2.05782203481046e-001

3.11665831864199e+004,-8.95095734153571e+000,-2.08651608368446e-001

3.16016524745350e+004,-8.95096215148173e+000,-2.11560934206824e-001

3.20427951035848e+004,-8.95096709381038e+000,-2.14510732684762e-001

3.24900958542493e+004,-8.95097217208355e+000,-2.17501562968146e-001

3.29436406907028e+004,-8.95097738995442e+000,-2.20533991790456e-001

3.34035167771346e+004,-8.95098275117010e+000,-2.23608593546109e-001

3.38698124945009e+004,-8.95098825957248e+000,-2.26725950395532e-001

3.43426174575100e+004,-8.95099391910125e+000,-2.29886652357215e-001

3.48220225318448e+004,-8.95099973379592e+000,-2.33091297408986e-001

3.53081198516260e+004,-8.95100570779801e+000,-2.36340491586891e-001

3.58010028371187e+004,-8.95101184535304e+000,-2.39634849088943e-001

3.63007662126863e+004,-8.95101815081309e+000,-2.42974992375018e-001

3.68075060249948e+004,-8.95102462863878e+000,-2.46361552272042e-001

3.73213196614721e+004,-8.95103128340204e+000,-2.49795168075410e-001

3.78423058690237e+004,-8.95103811978805e+000,-2.53276487656627e-001

3.83705647730104e+004,-8.95104514259778e+000,-2.56806167567823e-001

3.89061978964912e+004,-8.95105235675043e+000,-2.60384873149576e-001

3.94493081797342e+004,-8.95105976728531e+000,-2.64013278641608e-001

3.99999999999998e+004,-8.95106737936530e+000,-2.67692067286027e-001

4.05583791916010e+004,-8.95107519827825e+000,-2.71421931443442e-001

4.11245530662425e+004,-8.95108322944009e+000,-2.75203572700715e-001

4.16986304336447e+004,-8.95109147839708e+000,-2.79037701983510e-001

4.22807216224550e+004,-8.95109995082842e+000,-2.82925039670134e-001

4.28709385014515e+004,-8.95110865254855e+000,-2.86866315705216e-001

4.34693945010421e+004,-8.95111758950947e+000,-2.90862269716901e-001

4.40762046350642e+004,-8.95112676780408e+000,-2.94913651127707e-001

4.46914855228886e+004,-8.95113619366784e+000,-2.99021219276564e-001

4.53153554118317e+004,-8.95114587348131e+000,-3.03185743536023e-001

4.59479341998812e+004,-8.95115581377338e+000,-3.07408003427880e-001

4.65893434587380e+004,-8.95116602122304e+000,-3.11688788746503e-001

4.72397064571810e+004,-8.95117650266194e+000,-3.16028899679703e-001

4.78991481847569e+004,-8.95118726507720e+000,-3.20429146928074e-001

4.85677953758016e+004,-8.95119831561327e+000,-3.24890351831200e-001

4.92457765337964e+004,-8.95120966157508e+000,-3.29413346487355e-001

4.99332219560642e+004,-8.95122131042968e+000,-3.33998973882343e-001

5.06302637588109e+004,-8.95123326980872e+000,-3.38648088013514e-001

5.13370359025159e+004,-8.95124554751130e+000,-3.43361554013968e-001

5.20536742176771e+004,-8.95125815150529e+000,-3.48140248284732e-001

5.27803164309155e+004,-8.95127108993002e+000,-3.52985058621000e-001

5.35171021914442e+004,-8.95128437109842e+000,-3.57896884340139e-001

5.42641730979066e+004,-8.95129800349861e+000,-3.62876636415620e-001

5.50216727255895e+004,-8.95131199579634e+000,-3.67925237604930e-001

5.57897466540159e+004,-8.95132635683653e+000,-3.73043622584076e-001

5.65685424949235e+004,-8.95134109564482e+000,-3.78232738081552e-001

5.73582099206328e+004,-8.95135622142998e+000,-3.83493543008193e-001

5.81589006928121e+004,-8.95137174358427e+000,-3.88827008599688e-001

5.89707686916437e+004,-8.95138767168568e+000,-3.94234118547040e-001

5.97939699453972e+004,-8.95140401549912e+000,-3.99715869134319e-001

6.06286626604156e+004,-8.95142078497704e+000,-4.05273269380169e-001

6.14750072515201e+004,-8.95143799026081e+000,-4.10907341173476e-001

6.23331663728396e+004,-8.95145564168095e+000,-4.16619119417826e-001

6.32033049490698e+004,-8.95147374975845e+000,-4.22409652167166e-001

6.40855902071694e+004,-8.95149232520450e+000,-4.28280000772620e-001

6.49801917084985e+004,-8.95151137892079e+000,-4.34231240025320e-001

6.58872813814055e+004,-8.95153092199958e+000,-4.40264458299454e-001

6.68070335542691e+004,-8.95155096572318e+000,-4.46380757699400e-001

6.77396249890018e+004,-8.95157152156340e+000,-4.52581254206485e-001

6.86852349150199e+004,-8.95159260118096e+000,-4.58867077825737e-001

6.96440450636895e+004,-8.95161421642392e+000,-4.65239372737188e-001

7.06162397032520e+004,-8.95163637932610e+000,-4.71699297447651e-001

7.16020056742374e+004,-8.95165910210611e+000,-4.78248024938025e-001

7.26015324253724e+004,-8.95168239716412e+000,-4.84886742822778e-001

7.36150120499896e+004,-8.95170627708014e+000,-4.91616653500679e-001

7.46426393229441e+004,-8.95173075461072e+000,-4.98438974313348e-001

7.56846117380472e+004,-8.95175584268581e+000,-5.05354937702597e-001

7.67411295460207e+004,-8.95178155440493e+000,-5.12365791371399e-001

7.78123957929823e+004,-8.95180790303278e+000,-5.19472798445536e-001

7.88986163594682e+004,-8.95183490199507e+000,-5.26677237635725e-001

7.99999999999995e+004,-8.95186256487310e+000,-5.33980403403787e-001

8.11167583832018e+004,-8.95189090539786e+000,-5.41383606132264e-001

8.22491061324848e+004,-8.95191993744417e+000,-5.48888172292008e-001

8.33972608672892e+004,-8.95194967502367e+000,-5.56495444616084e-001

8.45614432449099e+004,-8.95198013227777e+000,-5.64206782273077e-001

8.57418770029029e+004,-8.95201132346916e+000,-5.72023561046682e-001

8.69387890020841e+004,-8.95204326297371e+000,-5.79947173514323e-001

8.81524092701283e+004,-8.95207596527097e+000,-5.87979029230704e-001

8.93829710457770e+004,-8.95210944493436e+000,-5.96120554914079e-001

9.06307108236633e+004,-8.95214371662019e+000,-6.04373194637952e-001

9.18958683997622e+004,-8.95217879505660e+000,-6.12738410022354e-001

9.31786869174758e+004,-8.95221469503127e+000,-6.21217680431999e-001

9.44794129143618e+004,-8.95225143137871e+000,-6.29812503176553e-001

9.57982963695136e+004,-8.95228901896622e+000,-6.38524393717499e-001

9.71355907516031e+004,-8.95232747267944e+000,-6.47354885877383e-001

9.84915530675926e+004,-8.95236680740705e+000,-6.56305532055246e-001

9.98664439121282e+004,-8.95240703802438e+000,-6.65377903445915e-001

1.01260527517622e+005,-8.95244817937634e+000,-6.74573590265675e-001

1.02674071805032e+005,-8.95249024625937e+000,-6.83894201982700e-001

1.04107348435354e+005,-8.95253325340226e+000,-6.93341367555628e-001

1.05560632861831e+005,-8.95257721544646e+000,-7.02916735675329e-001

1.07034204382888e+005,-8.95262214692481e+000,-7.12621975017443e-001

1.08528346195813e+005,-8.95266806223998e+000,-7.22458774497688e-001

1.10043345451179e+005,-8.95271497564157e+000,-7.32428843537657e-001

1.11579493308032e+005,-8.95276290120219e+000,-7.42533912337755e-001

1.13137084989847e+005,-8.95281185279232e+000,-7.52775732159464e-001

1.14716419841265e+005,-8.95286184405489e+000,-7.63156075613931e-001

1.16317801385624e+005,-8.95291288837806e+000,-7.73676736962508e-001

1.17941537383287e+005,-8.95296499886745e+000,-7.84339532425693e-001

1.19587939890794e+005,-8.95301818831716e+000,-7.95146300502338e-001

1.21257325320831e+005,-8.95307246917974e+000,-8.06098902300629e-001

1.22950014503040e+005,-8.95312785353551e+000,-8.17199221878528e-001

1.24666332745679e+005,-8.95318435306063e+000,-8.28449166596433e-001

1.26406609898139e+005,-8.95324197899396e+000,-8.39850667484375e-001

1.28171180414339e+005,-8.95330074210364e+000,-8.51405679618455e-001

1.29960383416997e+005,-8.95336065265206e+000,-8.63116182513334e-001

1.31774562762811e+005,-8.95342172036048e+000,-8.74984180527384e-001

1.33614067108538e+005,-8.95348395437251e+000,-8.87011703281970e-001

1.35479249978003e+005,-8.95354736321689e+000,-8.99200806096841e-001

1.37370469830040e+005,-8.95361195476933e+000,-9.11553570440800e-001

1.39288090127379e+005,-8.95367773621417e+000,-9.24072104395956e-001

1.41232479406504e+005,-8.95374471400459e+000,-9.36758543143216e-001

1.43204011348474e+005,-8.95381289382272e+000,-9.49615049461865e-001

1.45203064850745e+005,-8.95388228053953e+000,-9.62643814244796e-001

1.47230024099979e+005,-8.95395287817321e+000,-9.75847057038534e-001

1.49285278645888e+005,-8.95402468984866e+000,-9.89227026593272e-001

1.51369223476094e+005,-8.95409771775497e+000,-1.00278600144112e+000

1.53482259092041e+005,-8.95417196310431e+000,-1.01652629048580e+000

1.55624791585964e+005,-8.95424742608991e+000,-1.03045023361649e+000

1.57797232718936e+005,-8.95432410584364e+000,-1.04456020234399e+000

1.59999999999999e+005,-8.95440200039474e+000,-1.05885860045252e+000

1.62233516766403e+005,-8.95448110662793e+000,-1.07334786467585e+000

1.64498212264969e+005,-8.95456142024208e+000,-1.08803046539570e+000

1.66794521734578e+005,-8.95464293570955e+000,-1.10290890735861e+000

1.69122886489819e+005,-8.95472564623563e+000,-1.11798573041833e+000

1.71483754005805e+005,-8.95480954371940e+000,-1.13326351029616e+000

1.73877578004168e+005,-8.95489461871444e+000,-1.14874485936857e+000

1.76304818540256e+005,-8.95498086039144e+000,-1.16443242747203e+000

1.78765942091554e+005,-8.95506825650145e+000,-1.18032890273306e+000

1.81261421647326e+005,-8.95515679334047e+000,-1.19643701241970e+000

1.83791736799524e+005,-8.95524645571533e+000,-1.21275952381506e+000

1.86357373834951e+005,-8.95533722691131e+000,-1.22929924511240e+000

1.88958825828723e+005,-8.95542908866121e+000,-1.24605902633227e+000

1.91596592739027e+005,-8.95552202111645e+000,-1.26304176026115e+000

1.94271181503206e+005,-8.95561600282009e+000,-1.28025038340938e+000

1.96983106135185e+005,-8.95571101068157e+000,-1.29768787699287e+000

1.99732887824256e+005,-8.95580701995446e+000,-1.31535726793057e+000

2.02521055035243e+005,-8.95590400421576e+000,-1.33326162986496e+000

2.05348143610063e+005,-8.95600193534813e+000,-1.35140408419883e+000

2.08214696870707e+005,-8.95610078352473e+000,-1.36978780115121e+000

2.11121265723661e+005,-8.95620051719671e+000,-1.38841600082888e+000

2.14068408765776e+005,-8.95630110308336e+000,-1.40729195431767e+000

2.17056692391625e+005,-8.95640250616551e+000,-1.42641898478440e+000

2.20086690902357e+005,-8.95650468968181e+000,-1.44580046859618e+000

2.23158986616063e+005,-8.95660761512797e+000,-1.46543983645248e+000

2.26274169979693e+005,-8.95671124225955e+000,-1.48534057452819e+000

2.29432839682530e+005,-8.95681552909722e+000,-1.50550622563103e+000

2.32635602771247e+005,-8.95692043193645e+000,-1.52594039036235e+000

2.35883074766574e+005,-8.95702590535935e+000,-1.54664672829373e+000

2.39175879781588e+005,-8.95713190225031e+000,-1.56762895914701e+000

2.42514650641661e+005,-8.95723837381521e+000,-1.58889086397988e+000

2.45900029006080e+005,-8.95734526960343e+000,-1.61043628637815e+000

2.49332665491357e+005,-8.95745253753349e+000,-1.63226913364984e+000

2.52813219796278e+005,-8.95756012392160e+000,-1.65439337802299e+000

2.56342360828676e+005,-8.95766797351372e+000,-1.67681305784220e+000

2.59920766833993e+005,-8.95777602952028e+000,-1.69953227876706e+000

2.63549125525621e+005,-8.95788423365442e+000,-1.72255521496532e+000

2.67228134217075e+005,-8.95799252617256e+000,-1.74588611030708e+000

2.70958499956006e+005,-8.95810084591807e+000,-1.76952927955122e+000

2.74740939660078e+005,-8.95820913036740e+000,-1.79348910952891e+000

2.78576180254757e+005,-8.95831731567862e+000,-1.81777006031881e+000

2.82464958813007e+005,-8.95842533674252e+000,-1.84237666641548e+000

2.86408022696948e+005,-8.95853312723536e+000,-1.86731353788936e+000

2.90406129701488e+005,-8.95864061967373e+000,-1.89258536153763e+000

2.94460048199957e+005,-8.95874774547125e+000,-1.91819690202300e+000

2.98570557291775e+005,-8.95885443499651e+000,-1.94415300300434e+000

3.02738446952187e+005,-8.95896061763209e+000,-1.97045858825403e+000

3.06964518184081e+005,-8.95906622183499e+000,-1.99711866276264e+000

3.11249583171928e+005,-8.95917117519732e+000,-2.02413831383394e+000

3.15594465437872e+005,-8.95927540450781e+000,-2.05152271216435e+000

3.19999999999997e+005,-8.95937883581344e+000,-2.07927711291056e+000

3.24467033532806e+005,-8.95948139448062e+000,-2.10740685674590e+000

3.28996424529938e+005,-8.95958300525669e+000,-2.13591737090078e+000

3.33589043469155e+005,-8.95968359233044e+000,-2.16481417019311e+000

3.38245772979638e+005,-8.95978307939167e+000,-2.19410285804553e+000

3.42967508011610e+005,-8.95988138968971e+000,-2.22378912749165e+000

3.47755156008335e+005,-8.95997844609073e+000,-2.25387876216952e+000

3.52609637080511e+005,-8.96007417113312e+000,-2.28437763730577e+000

3.57531884183106e+005,-8.96016848708083e+000,-2.31529172069120e+000

3.62522843294651e+005,-8.96026131597507e+000,-2.34662707364409e+000

3.67583473599047e+005,-8.96035257968290e+000,-2.37838985197020e+000

3.72714747669902e+005,-8.96044219994372e+000,-2.41058630691334e+000

3.77917651657445e+005,-8.96053009841255e+000,-2.44322278610089e+000

3.83193185478053e+005,-8.96061619670052e+000,-2.47630573448628e+000

3.88542363006410e+005,-8.96070041641160e+000,-2.50984169528951e+000

3.93966212270369e+005,-8.96078267917663e+000,-2.54383731093310e+000

3.99465775648511e+005,-8.96086290668292e+000,-2.57829932398327e+000

4.05042110070485e+005,-8.96094102070056e+000,-2.61323457808975e+000

4.10696287220124e+005,-8.96101694310472e+000,-2.64865001893018e+000

4.16429393741414e+005,-8.96109059589381e+000,-2.68455269516084e+000

4.22242531447321e+005,-8.96116190120340e+000,-2.72094975937389e+000

4.28136817531551e+005,-8.96123078131627e+000,-2.75784846906310e+000

4.34113384783250e+005,-8.96129715866757e+000,-2.79525618760149e+000

4.40173381804713e+005,-8.96136095584608e+000,-2.83318038523018e+000

4.46317973232124e+005,-8.96142209559077e+000,-2.87162864006285e+000

4.52548339959385e+005,-8.96148050078292e+000,-2.91060863910549e+000

4.58865679365059e+005,-8.96153609443363e+000,-2.95012817929521e+000

4.65271205542494e+005,-8.96158879966726e+000,-2.99019516855632e+000

4.71766149533147e+005,-8.96163853969973e+000,-3.03081762688126e+000

4.78351759563174e+005,-8.96168523781285e+000,-3.07200368743209e+000

4.85029301283321e+005,-8.96172881732404e+000,-3.11376159766738e+000

4.91800058012158e+005,-8.96176920155156e+000,-3.15609972049678e+000

4.98665330982714e+005,-8.96180631377555e+000,-3.19902653546192e+000

5.05626439592555e+005,-8.96184007719477e+000,-3.24255063994776e+000

5.12684721657352e+005,-8.96187041487888e+000,-3.28668075042548e+000

5.19841533667984e+005,-8.96189724971704e+000,-3.33142570372657e+000

5.27098251051240e+005,-8.96192050436208e+000,-3.37679445835204e+000

5.34456268434150e+005,-8.96194010117081e+000,-3.42279609581603e+000

5.41916999912011e+005,-8.96195596214065e+000,-3.46943982202601e+000

