Freq.,VOut,OutRef

1.00000000000000e+004,-5.63135593669724e+000,-2.86198617546973e-002

1.01395947979003e+004,-5.63135831163719e+000,-2.90188794787127e-002

1.02811382665607e+004,-5.63136075320772e+000,-2.94234460516053e-002

1.04246576084112e+004,-5.63136326327364e+000,-2.98336380358698e-002

1.05701804056138e+004,-5.63136584375371e+000,-3.02495330132546e-002

1.07177346253629e+004,-5.63136849661713e+000,-3.06712096276133e-002

1.08673486252606e+004,-5.63137122389100e+000,-3.10987475603194e-002

1.10190511587661e+004,-5.63137402765635e+000,-3.15322275776153e-002

1.11728713807222e+004,-5.63137691005357e+000,-3.19717315199109e-002

1.13288388529580e+004,-5.63137987328326e+000,-3.24173423189269e-002

1.14869835499703e+004,-5.63138291960487e+000,-3.28691440306504e-002

1.16473358646846e+004,-5.63138605134409e+000,-3.33272218121470e-002

1.18099266142953e+004,-5.63138927088726e+000,-3.37916619820926e-002

1.19747870461893e+004,-5.63139258069083e+000,-3.42625519848769e-002

1.21419488439505e+004,-5.63139598327702e+000,-3.47399804443690e-002

1.23114441334492e+004,-5.63139948123925e+000,-3.52240371546132e-002

1.24833054890161e+004,-5.63140307724287e+000,-3.57148131009048e-002

1.26575659397028e+004,-5.63140677402748e+000,-3.62124004724035e-002

1.28342589756290e+004,-5.63141057440811e+000,-3.67168926814614e-002

1.30134185544193e+004,-5.63141448127822e+000,-3.72283843719963e-002

1.31950791077289e+004,-5.63141849761140e+000,-3.77469714355961e-002

1.33792755478611e+004,-5.63142262646358e+000,-3.82727510274478e-002

1.35660432744767e+004,-5.63142687097608e+000,-3.88058215739965e-002

1.37554181813974e+004,-5.63143123437671e+000,-3.93462827957314e-002

1.39474366635040e+004,-5.63143571998269e+000,-3.98942357195155e-002

1.41421356237309e+004,-5.63144033120354e+000,-4.04497826875742e-002

1.43395524801583e+004,-5.63144507154188e+000,-4.10130273855193e-002

1.45397251732031e+004,-5.63144994459907e+000,-4.15840748359477e-002

1.47426921729110e+004,-5.63145495407383e+000,-4.21630314395208e-002

1.49484924863494e+004,-5.63146010376977e+000,-4.27500049584519e-002

1.51571656651040e+004,-5.63146539759300e+000,-4.33451045645702e-002

1.53687518128801e+004,-5.63147083955914e+000,-4.39484408271186e-002

1.55832915932100e+004,-5.63147643379379e+000,-4.45601257437153e-002

1.58008262372675e+004,-5.63148218453658e+000,-4.51802727483068e-002

1.60213975517924e+004,-5.63148809614354e+000,-4.58089967302433e-002

1.62450479271247e+004,-5.63149417309172e+000,-4.64464140396662e-002

1.64718203453514e+004,-5.63150041998118e+000,-4.70926425107043e-002

1.67017583885674e+004,-5.63150684153731e+000,-4.77478014823020e-002

1.69349062472505e+004,-5.63151344261655e+000,-4.84120117984801e-002

1.71713087287550e+004,-5.63152022820936e+000,-4.90853958252893e-002

1.74110112659224e+004,-5.63152720344142e+000,-4.97680774818609e-002

1.76540599258131e+004,-5.63153437358028e+000,-5.04601822356506e-002

1.79005014185594e+004,-5.63154174403844e+000,-5.11618371202005e-002

1.81503831063432e+004,-5.63154932037533e+000,-5.18731707629173e-002

1.84037530124975e+004,-5.63155710830412e+000,-5.25943133801754e-002

1.86606598307361e+004,-5.63156511369304e+000,-5.33253968091334e-002

1.89211529345119e+004,-5.63157334257141e+000,-5.40665545100205e-002

1.91852823865052e+004,-5.63158180113312e+000,-5.48179215842011e-002

1.94530989482457e+004,-5.63159049574162e+000,-5.55796347845899e-002

1.97246540898671e+004,-5.63159943293303e+000,-5.63518325377543e-002

1.99999999999999e+004,-5.63160861942237e+000,-5.71346549457332e-002

2.02791895958005e+004,-5.63161806210710e+000,-5.79282438080954e-002

2.05622765331213e+004,-5.63162776807282e+000,-5.87327426269642e-002

2.08493152168224e+004,-5.63163774459701e+000,-5.95482966287779e-002

2.11403608112276e+004,-5.63164799915503e+000,-6.03750527702434e-002

2.14354692507258e+004,-5.63165853942471e+000,-6.12131597526245e-002

2.17346972505211e+004,-5.63166937329310e+000,-6.20627680261208e-002

2.20381023175322e+004,-5.63168050885943e+000,-6.29240298143634e-002

2.23457427614443e+004,-5.63169195444191e+000,-6.37970991196953e-002

2.26576777059159e+004,-5.63170371858499e+000,-6.46821317212167e-002

2.29739670999406e+004,-5.63171581006127e+000,-6.55792852120069e-002

2.32946717293690e+004,-5.63172823788184e+000,-6.64887189783669e-002

2.36198532285905e+004,-5.63174101129885e+000,-6.74105942332151e-002

2.39495740923785e+004,-5.63175413981387e+000,-6.83450740093046e-002

2.42838976879009e+004,-5.63176763318309e+000,-6.92923231764621e-002

2.46228882668982e+004,-5.63178150142504e+000,-7.02525084390851e-002

2.49666109780322e+004,-5.63179575482493e+000,-7.12257983593274e-002

2.53151318794055e+004,-5.63181040394452e+000,-7.22123633431602e-002

2.56685179512580e+004,-5.63182545962650e+000,-7.32123756618581e-002

2.60268371088386e+004,-5.63184093300258e+000,-7.42260094509545e-002

2.63901582154578e+004,-5.63185683550117e+000,-7.52534407109916e-002

2.67585510957221e+004,-5.63187317885428e+000,-7.62948473135050e-002

2.71320865489533e+004,-5.63188997510398e+000,-7.73504090116680e-002

2.75108363627948e+004,-5.63190723661308e+000,-7.84203074212684e-002

2.78948733270080e+004,-5.63192497606927e+000,-7.95047260462865e-002

2.82842712474618e+004,-5.63194320649668e+000,-8.06038502545249e-002

2.86791049603164e+004,-5.63196194126053e+000,-8.17178672999491e-002

2.90794503464061e+004,-5.63198119407947e+000,-8.28469662933656e-002

2.94853843458219e+004,-5.63200097903037e+000,-8.39913382237055e-002

2.98969849726987e+004,-5.63202131055964e+000,-8.51511759355132e-002

3.03143313302078e+004,-5.63204220349031e+000,-8.63266741333480e-002

3.07375036257601e+004,-5.63206367303211e+000,-8.75180293690273e-002

3.11665831864199e+004,-5.63208573479120e+000,-8.87254400271772e-002

3.16016524745350e+004,-5.63210840477714e+000,-8.99491063317312e-002

3.20427951035848e+004,-5.63213169941486e+000,-9.11892303171145e-002

3.24900958542493e+004,-5.63215563555361e+000,-9.24460158202660e-002

3.29436406907028e+004,-5.63218023047652e+000,-9.37196684657077e-002

3.34035167771346e+004,-5.63220550191006e+000,-9.50103956543676e-002

3.38698124945009e+004,-5.63223146803641e+000,-9.63184065290665e-002

3.43426174575100e+004,-5.63225814750094e+000,-9.76439119725664e-002

3.48220225318448e+004,-5.63228555942438e+000,-9.89871245747109e-002

3.53081198516260e+004,-5.63231372341390e+000,-1.00348258604517e-001

3.58010028371187e+004,-5.63234265957268e+000,-1.01727529991552e-001

3.63007662126863e+004,-5.63237238851147e+000,-1.03125156292723e-001

3.68075060249948e+004,-5.63240293135963e+000,-1.04541356662199e-001

3.73213196614721e+004,-5.63243430977686e+000,-1.05976351813712e-001

3.78423058690237e+004,-5.63246654596388e+000,-1.07430363989370e-001

3.83705647730104e+004,-5.63249966267451e+000,-1.08903616917211e-001

3.89061978964912e+004,-5.63253368322671e+000,-1.10396335773453e-001

3.94493081797342e+004,-5.63256863151596e+000,-1.11908747128141e-001

3.99999999999998e+004,-5.63260453202473e+000,-1.13441078913130e-001

4.05583791916010e+004,-5.63264140983615e+000,-1.14993560361324e-001

4.11245530662425e+004,-5.63267929064661e+000,-1.16566421950331e-001

4.16986304336447e+004,-5.63271820077643e+000,-1.18159895354731e-001

4.22807216224550e+004,-5.63275816718319e+000,-1.19774213380449e-001

4.28709385014515e+004,-5.63279921747348e+000,-1.21409609904203e-001

4.34693945010421e+004,-5.63284137991672e+000,-1.23066319798140e-001

4.40762046350642e+004,-5.63288468345571e+000,-1.24744578870418e-001

4.46914855228886e+004,-5.63292915772040e+000,-1.26444623783164e-001

4.53153554118317e+004,-5.63297483304024e+000,-1.28166691974370e-001

4.59479341998812e+004,-5.63302174045633e+000,-1.29911021577764e-001

4.65893434587380e+004,-5.63306991173521e+000,-1.31677851327452e-001

4.72397064571810e+004,-5.63311937937923e+000,-1.33467420480585e-001

4.78991481847569e+004,-5.63317017664080e+000,-1.35279968709120e-001

4.85677953758016e+004,-5.63322233753459e+000,-1.37115736000914e-001

4.92457765337964e+004,-5.63327589684938e+000,-1.38974962557459e-001

4.99332219560642e+004,-5.63333089015968e+000,-1.40857888686866e-001

5.06302637588109e+004,-5.63338735383929e+000,-1.42764754679034e-001

5.13370359025159e+004,-5.63344532507232e+000,-1.44695800690620e-001

5.20536742176771e+004,-5.63350484186532e+000,-1.46651266617048e-001

5.27803164309155e+004,-5.63356594305784e+000,-1.48631391966801e-001

5.35171021914442e+004,-5.63362866833479e+000,-1.50636415717382e-001

5.42641730979066e+004,-5.63369305823757e+000,-1.52666576171758e-001

5.50216727255895e+004,-5.63375915417307e+000,-1.54722110821546e-001

5.57897466540159e+004,-5.63382699842611e+000,-1.56803256177193e-001

5.65685424949235e+004,-5.63389663416815e+000,-1.58910247616950e-001

5.73582099206328e+004,-5.63396810546694e+000,-1.61043319218556e-001

5.81589006928121e+004,-5.63404145729581e+000,-1.63202703583954e-001

5.89707686916437e+004,-5.63411673554244e+000,-1.65388631659731e-001

5.97939699453972e+004,-5.63419398701600e+000,-1.67601332555157e-001

6.06286626604156e+004,-5.63427325945549e+000,-1.69841033343202e-001

6.14750072515201e+004,-5.63435460153558e+000,-1.72107958867431e-001

6.23331663728396e+004,-5.63443806287367e+000,-1.74402331528730e-001

6.32033049490698e+004,-5.63452369403430e+000,-1.76724371076796e-001

6.40855902071694e+004,-5.63461154653366e+000,-1.79074294389582e-001

6.49801917084985e+004,-5.63470167284347e+000,-1.81452315245170e-001

6.58872813814055e+004,-5.63479412639378e+000,-1.83858644084010e-001

6.68070335542691e+004,-5.63488896157389e+000,-1.86293487773782e-001

6.77396249890018e+004,-5.63498623373330e+000,-1.88757049356214e-001

6.86852349150199e+004,-5.63508599918102e+000,-1.91249527794186e-001

6.96440450636895e+004,-5.63518831518387e+000,-1.93771117705371e-001

7.06162397032520e+004,-5.63529323996347e+000,-1.96322009093981e-001

7.16020056742374e+004,-5.63540083269118e+000,-1.98902387075468e-001

7.26015324253724e+004,-5.63551115348239e+000,-2.01512431592537e-001

7.36150120499896e+004,-5.63562426339007e+000,-2.04152317117397e-001

7.46426393229441e+004,-5.63574022439373e+000,-2.06822212365883e-001

7.56846117380472e+004,-5.63585909939061e+000,-2.09522279982479e-001

7.67411295460207e+004,-5.63598095218142e+000,-2.12252676238610e-001

7.78123957929823e+004,-5.63610584745743e+000,-2.15013550707451e-001

7.88986163594682e+004,-5.63623385078273e+000,-2.17805045948174e-001

7.99999999999995e+004,-5.63636502857658e+000,-2.20627297173519e-001

8.11167583832018e+004,-5.63649944809254e+000,-2.23480431915379e-001

8.22491061324848e+004,-5.63663717739528e+000,-2.26364569688731e-001

8.33972608672892e+004,-5.63677828533516e+000,-2.29279821647776e-001

8.45614432449099e+004,-5.63692284152128e+000,-2.32226290232798e-001

8.57418770029029e+004,-5.63707091629049e+000,-2.35204068822212e-001

8.69387890020841e+004,-5.63722258067419e+000,-2.38213241378521e-001

8.81524092701283e+004,-5.63737790636309e+000,-2.41253882086737e-001

8.93829710457770e+004,-5.63753696566808e+000,-2.44326054996738e-001

9.06307108236633e+004,-5.63769983147894e+000,-2.47429813658266e-001

9.18958683997622e+004,-5.63786657721935e+000,-2.50565200761442e-001

9.31786869174758e+004,-5.63803727679883e+000,-2.53732247772385e-001

9.44794129143618e+004,-5.63821200456234e+000,-2.56930974567215e-001

9.57982963695136e+004,-5.63839083523419e+000,-2.60161389079623e-001

9.71355907516031e+004,-5.63857384386139e+000,-2.63423486934490e-001

9.84915530675926e+004,-5.63876110575132e+000,-2.66717251095386e-001

9.98664439121282e+004,-5.63895269640643e+000,-2.70042651515261e-001

1.01260527517622e+005,-5.63914869145498e+000,-2.73399644792113e-001

1.02674071805032e+005,-5.63934916657852e+000,-2.76788173828052e-001

1.04107348435354e+005,-5.63955419743523e+000,-2.80208167497626e-001

1.05560632861831e+005,-5.63976385957837e+000,-2.83659540332373e-001

1.07034204382888e+005,-5.63997822837189e+000,-2.87142192206302e-001

1.08528346195813e+005,-5.64019737890158e+000,-2.90656008038089e-001

1.10043345451179e+005,-5.64042138588238e+000,-2.94200857502727e-001

1.11579493308032e+005,-5.64065032355984e+000,-2.97776594769536e-001

1.13137084989847e+005,-5.64088426561028e+000,-3.01383058239705e-001

1.14716419841265e+005,-5.64112328503440e+000,-3.05020070314809e-001

1.16317801385624e+005,-5.64136745404721e+000,-3.08687437183727e-001

1.17941537383287e+005,-5.64161684396438e+000,-3.12384948626220e-001

1.19587939890794e+005,-5.64187152508426e+000,-3.16112377841371e-001

1.21257325320831e+005,-5.64213156656460e+000,-3.19869481309297e-001

1.22950014503040e+005,-5.64239703629715e+000,-3.23655998667791e-001

1.24666332745679e+005,-5.64266800077652e+000,-3.27471652627742e-001

1.26406609898139e+005,-5.64294452496627e+000,-3.31316148915535e-001

1.28171180414339e+005,-5.64322667216007e+000,-3.35189176253244e-001

1.29960383416997e+005,-5.64351450384055e+000,-3.39090406366275e-001

1.31774562762811e+005,-5.64380807953374e+000,-3.43019494035438e-001

1.33614067108538e+005,-5.64410745665958e+000,-3.46976077190167e-001

1.35479249978003e+005,-5.64441269038119e+000,-3.50959777031878e-001

1.37370469830040e+005,-5.64472383344869e+000,-3.54970198218371e-001

1.39288090127379e+005,-5.64504093604271e+000,-3.59006929075342e-001

1.41232479406504e+005,-5.64536404561351e+000,-3.63069541871689e-001

1.43204011348474e+005,-5.64569320671924e+000,-3.67157593133004e-001

1.45203064850745e+005,-5.64602846086083e+000,-3.71270624018743e-001

1.47230024099979e+005,-5.64636984631843e+000,-3.75408160732574e-001

1.49285278645888e+005,-5.64671739798174e+000,-3.79569715018382e-001

1.51369223476094e+005,-5.64707114718517e+000,-3.83754784679555e-001

1.53482259092041e+005,-5.64743112153791e+000,-3.87962854185832e-001

1.55624791585964e+005,-5.64779734475716e+000,-3.92193395320907e-001

1.57797232718936e+005,-5.64816983650037e+000,-3.96445867901065e-001

1.59999999999999e+005,-5.64854861219922e+000,-4.00719720552546e-001

1.62233516766403e+005,-5.64893368289427e+000,-4.05014391556618e-001

1.64498212264969e+005,-5.64932505507298e+000,-4.09329309752796e-001

1.66794521734578e+005,-5.64972273050909e+000,-4.13663895513547e-001

1.69122886489819e+005,-5.65012670610583e+000,-4.18017561781666e-001

1.71483754005805e+005,-5.65053697374331e+000,-4.22389715171312e-001

1.73877578004168e+005,-5.65095352012865e+000,-4.26779757143274e-001

1.76304818540256e+005,-5.65137632665345e+000,-4.31187085234135e-001

1.78765942091554e+005,-5.65180536925466e+000,-4.35611094362062e-001

1.81261421647326e+005,-5.65224061828369e+000,-4.40051178187112e-001

1.83791736799524e+005,-5.65268203838086e+000,-4.44506730541960e-001

1.86357373834951e+005,-5.65312958835793e+000,-4.48977146924433e-001

1.88958825828723e+005,-5.65358322108952e+000,-4.53461826044407e-001

1.91596592739027e+005,-5.65404288341257e+000,-4.57960171434187e-001

1.94271181503206e+005,-5.65450851603568e+000,-4.62471593114381e-001

1.96983106135185e+005,-5.65498005345810e+000,-4.66995509314364e-001

1.99732887824256e+005,-5.65545742390056e+000,-4.71531348239016e-001

2.02521055035243e+005,-5.65594054924644e+000,-4.76078549886280e-001

2.05348143610063e+005,-5.65642934499502e+000,-4.80636567911176e-001

2.08214696870707e+005,-5.65692372022782e+000,-4.85204871522990e-001

2.11121265723661e+005,-5.65742357758756e+000,-4.89782947423363e-001

2.14068408765776e+005,-5.65792881327015e+000,-4.94370301776877e-001

2.17056692391625e+005,-5.65843931703193e+000,-4.98966462201444e-001

2.20086690902357e+005,-5.65895497220991e+000,-5.03570979787851e-001

2.23158986616063e+005,-5.65947565575745e+000,-5.08183431132873e-001

2.26274169979693e+005,-5.66000123829527e+000,-5.12803420380085e-001

2.29432839682530e+005,-5.66053158417683e+000,-5.17430581271327e-001

2.32635602771247e+005,-5.66106655157033e+000,-5.22064579192723e-001

2.35883074766574e+005,-5.66160599255579e+000,-5.26705113214151e-001

2.39175879781588e+005,-5.66214975323802e+000,-5.31351918118029e-001

2.42514650641661e+005,-5.66269767387526e+000,-5.36004766406997e-001

2.45900029006080e+005,-5.66324958902369e+000,-5.40663470284969e-001

2.49332665491357e+005,-5.66380532769790e+000,-5.45327883604271e-001

2.52813219796278e+005,-5.66436471354644e+000,-5.49997903776606e-001

2.56342360828676e+005,-5.66492756504247e+000,-5.54673473636410e-001

2.59920766833993e+005,-5.66549369568978e+000,-5.59354583251914e-001

2.63549125525621e+005,-5.66606291424291e+000,-5.64041271679229e-001

2.67228134217075e+005,-5.66663502494148e+000,-5.68733628649759e-001

2.70958499956006e+005,-5.66720982775793e+000,-5.73431796188512e-001

2.74740939660078e+005,-5.66778711865835e+000,-5.78135970154418e-001

2.78576180254757e+005,-5.66836668987532e+000,-5.82846401699730e-001

2.82464958813007e+005,-5.66894833019262e+000,-5.87563398638996e-001

2.86408022696948e+005,-5.66953182523973e+000,-5.92287326732692e-001

2.90406129701488e+005,-5.67011695779783e+000,-5.97018610862861e-001

2.94460048199957e+005,-5.67070350811289e+000,-6.01757736117292e-001

2.98570557291775e+005,-5.67129125421848e+000,-6.06505248761460e-001

3.02738446952187e+005,-5.67187997226410e+000,-6.11261757107101e-001

3.06964518184081e+005,-5.67246943685084e+000,-6.16027932262965e-001

3.11249583171928e+005,-5.67305942137101e+000,-6.20804508777557e-001

3.15594465437872e+005,-5.67364969835190e+000,-6.25592285162215e-001

3.19999999999997e+005,-5.67424003980270e+000,-6.30392124294723e-001

3.24467033532806e+005,-5.67483021756237e+000,-6.35204953707969e-001

3.28996424529938e+005,-5.67542000364839e+000,-6.40031765756878e-001

3.33589043469155e+005,-5.67600917060437e+000,-6.44873617668341e-001

3.38245772979638e+005,-5.67659749184643e+000,-6.49731631470805e-001

3.42967508011610e+005,-5.67718474200673e+000,-6.54606993803461e-001

3.47755156008335e+005,-5.67777069727154e+000,-6.59500955619881e-001

3.52609637080511e+005,-5.67835513571624e+000,-6.64414831764992e-001

3.57531884183106e+005,-5.67893783763263e+000,-6.69350000450094e-001

3.62522843294651e+005,-5.67951858584953e+000,-6.74307902617464e-001

3.67583473599047e+005,-5.68009716604486e+000,-6.79290041201006e-001

3.72714747669902e+005,-5.68067336704926e+000,-6.84297980284413e-001

3.77917651657445e+005,-5.68124698113910e+000,-6.89333344166232e-001

3.83193185478053e+005,-5.68181780431815e+000,-6.94397816335621e-001

3.88542363006410e+005,-5.68238563658888e+000,-6.99493138355920e-001

3.93966212270369e+005,-5.68295028221049e+000,-7.04621108671876e-001

3.99465775648511e+005,-5.68351154994374e+000,-7.09783581344405e-001

4.05042110070485e+005,-5.68406925328237e+000,-7.14982464712887e-001

4.10696287220124e+005,-5.68462321067105e+000,-7.20219719993258e-001

4.16429393741414e+005,-5.68517324570752e+000,-7.25497359825727e-001

4.22242531447321e+005,-5.68571918733043e+000,-7.30817446768079e-001

4.28136817531551e+005,-5.68626086999223e+000,-7.36182091744259e-001

4.34113384783250e+005,-5.68679813381527e+000,-7.41593452463156e-001

4.40173381804713e+005,-5.68733082473372e+000,-7.47053731798549e-001

4.46317973232124e+005,-5.68785879461847e+000,-7.52565176151545e-001

4.52548339959385e+005,-5.68838190138687e+000,-7.58130073793326e-001

4.58865679365059e+005,-5.68890000909624e+000,-7.63750753198715e-001

4.65271205542494e+005,-5.68941298802202e+000,-7.69429581373386e-001

4.71766149533147e+005,-5.68992071472037e+000,-7.75168962183266e-001

4.78351759563174e+005,-5.69042307207487e+000,-7.80971334694514e-001

4.85029301283321e+005,-5.69091994932873e+000,-7.86839171524388e-001

4.91800058012158e+005,-5.69141124210220e+000,-7.92774977211264e-001

4.98665330982714e+005,-5.69189685239547e+000,-7.98781286610037e-001

5.05626439592555e+005,-5.69237668857753e+000,-8.04860663317313e-001

5.12684721657352e+005,-5.69285066536174e+000,-8.11015698130740e-001

5.19841533667984e+005,-5.69331870376851e+000,-8.17249007546159e-001

5.27098251051240e+005,-5.69378073107502e+000,-8.23563232299190e-001

5.34456268434150e+005,-5.69423668075356e+000,-8.29961035954105e-001

5.41916999912011e+005,-5.69468649239828e+000,-8.36445103541437e-001

