Freq.,VOut,OutRef

1.00000000000000e+004,-1.60691364609214e+001,-8.68287950719231e-002

1.01395947979003e+004,-1.60691395900954e+001,-8.80402252577801e-002

1.02811382665607e+004,-1.60691428070621e+001,-8.92685386175950e-002

1.04246576084112e+004,-1.60691461142790e+001,-9.05139696568718e-002

1.05701804056138e+004,-1.60691495142729e+001,-9.17767561025110e-002

1.07177346253629e+004,-1.60691530096403e+001,-9.30571389506388e-002

1.08673486252606e+004,-1.60691566030506e+001,-9.43553625051020e-002

1.10190511587661e+004,-1.60691602972472e+001,-9.56716744255597e-002

1.11728713807222e+004,-1.60691640950501e+001,-9.70063257684749e-002

1.13288388529580e+004,-1.60691679993578e+001,-9.83595710350735e-002

1.14869835499703e+004,-1.60691720131494e+001,-9.97316682159748e-002

1.16473358646846e+004,-1.60691761394870e+001,-1.01122878833961e-001

1.18099266142953e+004,-1.60691803815173e+001,-1.02533467999772e-001

1.19747870461893e+004,-1.60691847424758e+001,-1.03963704442665e-001

1.21419488439505e+004,-1.60691892256864e+001,-1.05413860579018e-001

1.23114441334492e+004,-1.60691938345666e+001,-1.06884212541551e-001

1.24833054890161e+004,-1.60691985726279e+001,-1.08375040241272e-001

1.26575659397028e+004,-1.60692034434805e+001,-1.09886627405722e-001

1.28342589756290e+004,-1.60692084508334e+001,-1.11419261641305e-001

1.30134185544193e+004,-1.60692135984994e+001,-1.12973234473507e-001

1.31950791077289e+004,-1.60692188903974e+001,-1.14548841397988e-001

1.33792755478611e+004,-1.60692243305539e+001,-1.16146381942011e-001

1.35660432744767e+004,-1.60692299231081e+001,-1.17766159703714e-001

1.37554181813974e+004,-1.60692356723130e+001,-1.19408482414389e-001

1.39474366635040e+004,-1.60692415825402e+001,-1.21073661983800e-001

1.41421356237309e+004,-1.60692476582816e+001,-1.22762014561580e-001

1.43395524801583e+004,-1.60692539041543e+001,-1.24473860583595e-001

1.45397251732031e+004,-1.60692603249023e+001,-1.26209524833094e-001

1.47426921729110e+004,-1.60692669254011e+001,-1.27969336492704e-001

1.49484924863494e+004,-1.60692737106610e+001,-1.29753629201338e-001

1.51571656651040e+004,-1.60692806858304e+001,-1.31562741110146e-001

1.53687518128801e+004,-1.60692878562006e+001,-1.33397014936809e-001

1.55832915932100e+004,-1.60692952272078e+001,-1.35256798030737e-001

1.58008262372675e+004,-1.60693028044393e+001,-1.37142442420326e-001

1.60213975517924e+004,-1.60693105936354e+001,-1.39054304881774e-001

1.62450479271247e+004,-1.60693186006954e+001,-1.40992746990444e-001

1.64718203453514e+004,-1.60693268316805e+001,-1.42958135184395e-001

1.67017583885674e+004,-1.60693352928189e+001,-1.44950840823086e-001

1.69349062472505e+004,-1.60693439905100e+001,-1.46971240250393e-001

1.71713087287550e+004,-1.60693529313291e+001,-1.49019714852233e-001

1.74110112659224e+004,-1.60693621220322e+001,-1.51096651119501e-001

1.76540599258131e+004,-1.60693715695607e+001,-1.53202440711514e-001

1.79005014185594e+004,-1.60693812810461e+001,-1.55337480518246e-001

1.81503831063432e+004,-1.60693912638161e+001,-1.57502172720189e-001

1.84037530124975e+004,-1.60694015253985e+001,-1.59696924857220e-001

1.86606598307361e+004,-1.60694120735274e+001,-1.61922149888958e-001

1.89211529345119e+004,-1.60694229161485e+001,-1.64178266260385e-001

1.91852823865052e+004,-1.60694340614239e+001,-1.66465697970108e-001

1.94530989482457e+004,-1.60694455177395e+001,-1.68784874627756e-001

1.97246540898671e+004,-1.60694572937100e+001,-1.71136231525262e-001

1.99999999999999e+004,-1.60694693981840e+001,-1.73520209706875e-001

2.02791895958005e+004,-1.60694818402520e+001,-1.75937256026810e-001

2.05622765331213e+004,-1.60694946292514e+001,-1.78387823222124e-001

2.08493152168224e+004,-1.60695077747741e+001,-1.80872369976792e-001

2.11403608112276e+004,-1.60695212866712e+001,-1.83391360997026e-001

2.14354692507258e+004,-1.60695351750623e+001,-1.85945267067690e-001

2.17346972505211e+004,-1.60695494503408e+001,-1.88534565128668e-001

2.20381023175322e+004,-1.60695641231817e+001,-1.91159738340850e-001

2.23457427614443e+004,-1.60695792045485e+001,-1.93821276156481e-001

2.26576777059159e+004,-1.60695947057008e+001,-1.96519674386723e-001

2.29739670999406e+004,-1.60696106382022e+001,-1.99255435271818e-001

2.32946717293690e+004,-1.60696270139284e+001,-2.02029067547719e-001

2.36198532285905e+004,-1.60696438450740e+001,-2.04841086522157e-001

2.39495740923785e+004,-1.60696611441622e+001,-2.07692014136367e-001

2.42838976879009e+004,-1.60696789240519e+001,-2.10582379043396e-001

2.46228882668982e+004,-1.60696971979472e+001,-2.13512716670075e-001

2.49666109780322e+004,-1.60697159794055e+001,-2.16483569293498e-001

2.53151318794055e+004,-1.60697352823471e+001,-2.19495486105287e-001

2.56685179512580e+004,-1.60697551210639e+001,-2.22549023286321e-001

2.60268371088386e+004,-1.60697755102284e+001,-2.25644744075718e-001

2.63901582154578e+004,-1.60697964649047e+001,-2.28783218835335e-001

2.67585510957221e+004,-1.60698180005563e+001,-2.31965025127012e-001

2.71320865489533e+004,-1.60698401330575e+001,-2.35190747778856e-001

2.75108363627948e+004,-1.60698628787032e+001,-2.38460978950413e-001

2.78948733270080e+004,-1.60698862542190e+001,-2.41776318207858e-001

2.82842712474618e+004,-1.60699102767723e+001,-2.45137372588114e-001

2.86791049603164e+004,-1.60699349639825e+001,-2.48544756669328e-001

2.90794503464061e+004,-1.60699603339327e+001,-2.51999092635971e-001

2.94853843458219e+004,-1.60699864051804e+001,-2.55501010349106e-001

2.98969849726987e+004,-1.60700131967695e+001,-2.59051147408794e-001

3.03143313302078e+004,-1.60700407282415e+001,-2.62650149224411e-001

3.07375036257601e+004,-1.60700690196475e+001,-2.66298669076923e-001

3.11665831864199e+004,-1.60700980915606e+001,-2.69997368184013e-001

3.16016524745350e+004,-1.60701279650883e+001,-2.73746915762206e-001

3.20427951035848e+004,-1.60701586618849e+001,-2.77547989092134e-001

3.24900958542493e+004,-1.60701902041640e+001,-2.81401273578021e-001

3.29436406907028e+004,-1.60702226147121e+001,-2.85307462810153e-001

3.34035167771346e+004,-1.60702559169016e+001,-2.89267258621182e-001

3.38698124945009e+004,-1.60702901347041e+001,-2.93281371148722e-001

3.43426174575100e+004,-1.60703252927044e+001,-2.97350518886570e-001

3.48220225318448e+004,-1.60703614161142e+001,-3.01475428745852e-001

3.53081198516260e+004,-1.60703985307861e+001,-3.05656836105539e-001

3.58010028371187e+004,-1.60704366632284e+001,-3.09895484864442e-001

3.63007662126863e+004,-1.60704758406190e+001,-3.14192127494277e-001

3.68075060249948e+004,-1.60705160908206e+001,-3.18547525086799e-001

3.73213196614721e+004,-1.60705574423951e+001,-3.22962447401360e-001

3.78423058690237e+004,-1.60705999246197e+001,-3.27437672908470e-001

3.83705647730104e+004,-1.60706435675007e+001,-3.31973988835382e-001

3.89061978964912e+004,-1.60706884017905e+001,-3.36572191203609e-001

3.94493081797342e+004,-1.60707344590022e+001,-3.41233084868728e-001

3.99999999999998e+004,-1.60707817714256e+001,-3.45957483557237e-001

4.05583791916010e+004,-1.60708303721438e+001,-3.50746209896243e-001

4.11245530662425e+004,-1.60708802950481e+001,-3.55600095447881e-001

4.16986304336447e+004,-1.60709315748554e+001,-3.60519980733777e-001

4.22807216224550e+004,-1.60709842471237e+001,-3.65506715262186e-001

4.28709385014515e+004,-1.60710383482687e+001,-3.70561157547350e-001

4.34693945010421e+004,-1.60710939155808e+001,-3.75684175128103e-001

4.40762046350642e+004,-1.60711509872412e+001,-3.80876644583995e-001

4.46914855228886e+004,-1.60712096023387e+001,-3.86139451545019e-001

4.53153554118317e+004,-1.60712698008862e+001,-3.91473490700678e-001

4.59479341998812e+004,-1.60713316238377e+001,-3.96879665802479e-001

4.65893434587380e+004,-1.60713951131046e+001,-4.02358889665053e-001

4.72397064571810e+004,-1.60714603115728e+001,-4.07912084160298e-001

4.78991481847569e+004,-1.60715272631192e+001,-4.13540180209708e-001

4.85677953758016e+004,-1.60715960126279e+001,-4.19244117771874e-001

4.92457765337964e+004,-1.60716666060070e+001,-4.25024845823113e-001

4.99332219560642e+004,-1.60717390902047e+001,-4.30883322337802e-001

5.06302637588109e+004,-1.60718135132255e+001,-4.36820514258091e-001

5.13370359025159e+004,-1.60718899241461e+001,-4.42837397463958e-001

5.20536742176771e+004,-1.60719683731312e+001,-4.48934956734827e-001

5.27803164309155e+004,-1.60720489114485e+001,-4.55114185707305e-001

5.35171021914442e+004,-1.60721315914844e+001,-4.61376086825631e-001

5.42641730979066e+004,-1.60722164667586e+001,-4.67721671288433e-001

5.50216727255895e+004,-1.60723035919380e+001,-4.74151958990309e-001

5.57897466540159e+004,-1.60723930228511e+001,-4.80667978453940e-001

5.65685424949235e+004,-1.60724848165013e+001,-4.87270766759018e-001

5.73582099206328e+004,-1.60725790310797e+001,-4.93961369465808e-001

5.81589006928121e+004,-1.60726757259775e+001,-5.00740840529016e-001

5.89707686916437e+004,-1.60727749617975e+001,-5.07610242206857e-001

5.97939699453972e+004,-1.60728768003651e+001,-5.14570644965934e-001

6.06286626604156e+004,-1.60729813047381e+001,-5.21623127376305e-001

6.14750072515201e+004,-1.60730885392167e+001,-5.28768775998919e-001

6.23331663728396e+004,-1.60731985693512e+001,-5.36008685270640e-001

6.32033049490698e+004,-1.60733114619497e+001,-5.43343957378648e-001

6.40855902071694e+004,-1.60734272850845e+001,-5.50775702129541e-001

6.49801917084985e+004,-1.60735461080969e+001,-5.58305036810411e-001

6.58872813814055e+004,-1.60736680016017e+001,-5.65933086043278e-001

6.68070335542691e+004,-1.60737930374893e+001,-5.73660981634129e-001

6.77396249890018e+004,-1.60739212889281e+001,-5.81489862409513e-001

6.86852349150199e+004,-1.60740528303627e+001,-5.89420874054986e-001

6.96440450636895e+004,-1.60741877375134e+001,-5.97455168939033e-001

7.06162397032520e+004,-1.60743260873724e+001,-6.05593905931787e-001

7.16020056742374e+004,-1.60744679581984e+001,-6.13838250220191e-001

7.26015324253724e+004,-1.60746134295099e+001,-6.22189373111490e-001

7.36150120499896e+004,-1.60747625820758e+001,-6.30648451836119e-001

7.46426393229441e+004,-1.60749154979045e+001,-6.39216669337364e-001

7.56846117380472e+004,-1.60750722602303e+001,-6.47895214062660e-001

7.67411295460207e+004,-1.60752329534982e+001,-6.56685279740961e-001

7.78123957929823e+004,-1.60753976633451e+001,-6.65588065162228e-001

7.88986163594682e+004,-1.60755664765798e+001,-6.74604773946408e-001

7.99999999999995e+004,-1.60757394811594e+001,-6.83736614308183e-001

8.11167583832018e+004,-1.60759167661627e+001,-6.92984798823069e-001

8.22491061324848e+004,-1.60760984217621e+001,-7.02350544178730e-001

8.33972608672892e+004,-1.60762845391903e+001,-7.11835070934399e-001

8.45614432449099e+004,-1.60764752107056e+001,-7.21439603271341e-001

8.57418770029029e+004,-1.60766705295534e+001,-7.31165368739186e-001

8.69387890020841e+004,-1.60768705899230e+001,-7.41013598008089e-001

8.81524092701283e+004,-1.60770754869032e+001,-7.50985524612742e-001

8.93829710457770e+004,-1.60772853164316e+001,-7.61082384701672e-001

9.06307108236633e+004,-1.60775001752420e+001,-7.71305416783293e-001

9.18958683997622e+004,-1.60777201608064e+001,-7.81655861479048e-001

9.31786869174758e+004,-1.60779453712741e+001,-7.92134961272956e-001

9.44794129143618e+004,-1.60781759054054e+001,-8.02743960272570e-001

9.57982963695136e+004,-1.60784118625015e+001,-8.13484103967950e-001

9.71355907516031e+004,-1.60786533423303e+001,-8.24356639002728e-001

9.84915530675926e+004,-1.60789004450461e+001,-8.35362812949326e-001

9.98664439121282e+004,-1.60791532711065e+001,-8.46503874095985e-001

1.01260527517622e+005,-1.60794119211829e+001,-8.57781071241256e-001

1.02674071805032e+005,-1.60796764960662e+001,-8.69195653505180e-001

1.04107348435354e+005,-1.60799470965690e+001,-8.80748870149220e-001

1.05560632861831e+005,-1.60802238234199e+001,-8.92441970416905e-001

1.07034204382888e+005,-1.60805067771556e+001,-9.04276203386421e-001

1.08528346195813e+005,-1.60807960580050e+001,-9.16252817848192e-001

1.10043345451179e+005,-1.60810917657699e+001,-9.28373062198915e-001

1.11579493308032e+005,-1.60813939996994e+001,-9.40638184362398e-001

1.13137084989847e+005,-1.60817028583586e+001,-9.53049431734609e-001

1.14716419841265e+005,-1.60820184394930e+001,-9.65608051154297e-001

1.16317801385624e+005,-1.60823408398858e+001,-9.78315288909092e-001

1.17941537383287e+005,-1.60826701552115e+001,-9.91172390768214e-001

1.19587939890794e+005,-1.60830064798827e+001,-1.00418060205392e+000

1.21257325320831e+005,-1.60833499068920e+001,-1.01734116774836e+000

1.22950014503040e+005,-1.60837005276495e+001,-1.03065533264048e+000

1.24666332745679e+005,-1.60840584318132e+001,-1.04412434151773e+000

1.26406609898139e+005,-1.60844237071165e+001,-1.05774943939933e+000

1.28171180414339e+005,-1.60847964391891e+001,-1.07153187182042e+000

1.29960383416997e+005,-1.60851767113739e+001,-1.08547288516704e+000

1.31774562762811e+005,-1.60855646045392e+001,-1.09957372706024e+000

1.33614067108538e+005,-1.60859601968870e+001,-1.11383564680370e+000

1.35479249978003e+005,-1.60863635637561e+001,-1.12825989588289e+000

1.37370469830040e+005,-1.60867747774230e+001,-1.14284772853061e+000

1.39288090127379e+005,-1.60871939068972e+001,-1.15760040235762e+000

1.41232479406504e+005,-1.60876210177161e+001,-1.17251917904420e+000

1.43204011348474e+005,-1.60880561717345e+001,-1.18760532511058e+000

1.45203064850745e+005,-1.60884994269132e+001,-1.20286011275300e+000

1.47230024099979e+005,-1.60889508371055e+001,-1.21828482075696e+000

1.49285278645888e+005,-1.60894104518421e+001,-1.23388073548753e+000

1.51369223476094e+005,-1.60898783161149e+001,-1.24964915196109e+000

1.53482259092041e+005,-1.60903544701609e+001,-1.26559137499498e+000

1.55624791585964e+005,-1.60908389492460e+001,-1.28170872044536e+000

1.57797232718936e+005,-1.60913317834493e+001,-1.29800251652708e+000

1.59999999999999e+005,-1.60918329974495e+001,-1.31447410522255e+000

1.62233516766403e+005,-1.60923426103129e+001,-1.33112484377979e+000

1.64498212264969e+005,-1.60928606352844e+001,-1.34795610629750e+000

1.66794521734578e+005,-1.60933870795819e+001,-1.36496928540505e+000

1.69122886489819e+005,-1.60939219441951e+001,-1.38216579403095e+000

1.71483754005805e+005,-1.60944652236895e+001,-1.39954706726451e+000

1.73877578004168e+005,-1.60950169060158e+001,-1.41711456430765e+000

1.76304818540256e+005,-1.60955769723261e+001,-1.43486977052157e+000

1.78765942091554e+005,-1.60961453967982e+001,-1.45281419956268e+000

1.81261421647326e+005,-1.60967221464671e+001,-1.47094939560752e+000

1.83791736799524e+005,-1.60973071810669e+001,-1.48927693567031e+000

1.86357373834951e+005,-1.60979004528817e+001,-1.50779843200308e+000

1.88958825828723e+005,-1.60985019066076e+001,-1.52651553458669e+000

1.91596592739027e+005,-1.60991114792274e+001,-1.54542993369837e+000

1.94271181503206e+005,-1.60997290998964e+001,-1.56454336256372e+000

1.96983106135185e+005,-1.61003546898426e+001,-1.58385760008367e+000

1.99732887824256e+005,-1.61009881622807e+001,-1.60337447363380e+000

2.02521055035243e+005,-1.61016294223414e+001,-1.62309586193341e+000

2.05348143610063e+005,-1.61022783670163e+001,-1.64302369797766e+000

2.08214696870707e+005,-1.61029348851190e+001,-1.66315997203066e+000

2.11121265723661e+005,-1.61035988572639e+001,-1.68350673466984e+000

2.14068408765776e+005,-1.61042701558627e+001,-1.70406609988016e+000

2.17056692391625e+005,-1.61049486451391e+001,-1.72484024819087e+000

2.20086690902357e+005,-1.61056341811625e+001,-1.74583142984572e+000

2.23158986616063e+005,-1.61063266119015e+001,-1.76704196800323e+000

2.26274169979693e+005,-1.61070257772969e+001,-1.78847426195903e+000

2.29432839682530e+005,-1.61077315093553e+001,-1.81013079037954e+000

2.32635602771247e+005,-1.61084436322622e+001,-1.83201411454616e+000

2.35883074766574e+005,-1.61091619625180e+001,-1.85412688159389e+000

2.39175879781588e+005,-1.61098863090918e+001,-1.87647182774422e+000

2.42514650641661e+005,-1.61106164735988e+001,-1.89905178151664e+000

2.45900029006080e+005,-1.61113522504969e+001,-1.92186966691680e+000

2.49332665491357e+005,-1.61120934273048e+001,-1.94492850658838e+000

2.52813219796278e+005,-1.61128397848397e+001,-1.96823142492353e+000

2.56342360828676e+005,-1.61135910974761e+001,-1.99178165112079e+000

2.59920766833993e+005,-1.61143471334234e+001,-2.01558252218319e+000

2.63549125525621e+005,-1.61151076550238e+001,-2.03963748585019e+000

2.67228134217075e+005,-1.61158724190672e+001,-2.06395010345225e+000

2.70958499956006e+005,-1.61166411771258e+001,-2.08852405268243e+000

2.74740939660078e+005,-1.61174136759046e+001,-2.11336313027592e+000

2.78576180254757e+005,-1.61181896576084e+001,-2.13847125459289e+000

2.82464958813007e+005,-1.61189688603247e+001,-2.16385246809602e+000

2.86408022696948e+005,-1.61197510184200e+001,-2.18951093971331e+000

2.90406129701488e+005,-1.61205358629500e+001,-2.21545096708867e+000

2.94460048199957e+005,-1.61213231220817e+001,-2.24167697870496e+000

2.98570557291775e+005,-1.61221125215258e+001,-2.26819353588085e+000

3.02738446952187e+005,-1.61229037849794e+001,-2.29500533463660e+000

3.06964518184081e+005,-1.61236966345761e+001,-2.32211720742157e+000

3.11249583171928e+005,-1.61244907913436e+001,-2.34953412470330e+000

3.15594465437872e+005,-1.61252859756660e+001,-2.37726119641696e+000

3.19999999999997e+005,-1.61260819077503e+001,-2.40530367326715e+000

3.24467033532806e+005,-1.61268783080959e+001,-2.43366694788936e+000

3.28996424529938e+005,-1.61276748979637e+001,-2.46235655586409e+000

3.33589043469155e+005,-1.61284713998464e+001,-2.49137817658613e+000

3.38245772979638e+005,-1.61292675379355e+001,-2.52073763399013e+000

3.42967508011610e+005,-1.61300630385857e+001,-2.55044089713519e+000

3.47755156008335e+005,-1.61308576307734e+001,-2.58049408064812e+000

3.52609637080511e+005,-1.61316510465508e+001,-2.61090344502936e+000

3.57531884183106e+005,-1.61324430214897e+001,-2.64167539682788e+000

3.62522843294651e+005,-1.61332332951190e+001,-2.67281648868342e+000

3.67583473599047e+005,-1.61340216113499e+001,-2.70433341924835e+000

3.72714747669902e+005,-1.61348077188910e+001,-2.73623303298753e+000

3.77917651657445e+005,-1.61355913716497e+001,-2.76852231986722e+000

3.83193185478053e+005,-1.61363723291207e+001,-2.80120841493641e+000

3.88542363006410e+005,-1.61371503567594e+001,-2.83429859780855e+000

3.93966212270369e+005,-1.61379252263396e+001,-2.86780029205228e+000

3.99465775648511e+005,-1.61386967162954e+001,-2.90172106449433e+000

4.05042110070485e+005,-1.61394646120444e+001,-2.93606862444995e+000

4.10696287220124e+005,-1.61402287062948e+001,-2.97085082288035e+000

4.16429393741414e+005,-1.61409887993328e+001,-3.00607565149266e+000

4.22242531447321e+005,-1.61417446992910e+001,-3.04175124178815e+000

4.28136817531551e+005,-1.61424962223986e+001,-3.07788586406611e+000

4.34113384783250e+005,-1.61432431932108e+001,-3.11448792639414e+000

4.40173381804713e+005,-1.61439854448184e+001,-3.15156597355525e+000

4.46317973232124e+005,-1.61447228190385e+001,-3.18912868597430e+000

4.52548339959385e+005,-1.61454551665842e+001,-3.22718487864061e+000

4.58865679365059e+005,-1.61461823472144e+001,-3.26574350002811e+000

4.65271205542494e+005,-1.61469042298649e+001,-3.30481363102719e+000

4.71766149533147e+005,-1.61476206927586e+001,-3.34440448389243e+000

4.78351759563174e+005,-1.61483316234971e+001,-3.38452540121574e+000

4.85029301283321e+005,-1.61490369191339e+001,-3.42518585493369e+000

4.91800058012158e+005,-1.61497364862285e+001,-3.46639544537460e+000

4.98665330982714e+005,-1.61504302408829e+001,-3.50816390035350e+000

5.05626439592555e+005,-1.61511181087607e+001,-3.55050107432163e+000

5.12684721657352e+005,-1.61518000250897e+001,-3.59341694757807e+000

5.19841533667984e+005,-1.61524759346484e+001,-3.63692162554648e+000

5.27098251051240e+005,-1.61531457917368e+001,-3.68102533812655e+000

5.34456268434150e+005,-1.61538095601340e+001,-3.72573843912209e+000

5.41916999912011e+005,-1.61544672130397e+001,-3.77107140575303e+000

