Freq.,VOut,OutRef

1.00000000000000e+004,-2.83611437199085e+001,-4.41983326625257e-001

1.01395947979003e+004,-2.83611490252581e+001,-4.48152545670612e-001

1.02811382665607e+004,-2.83611544795967e+001,-4.54407856734876e-001

1.04246576084112e+004,-2.83611600871037e+001,-4.60750460470935e-001

1.05701804056138e+004,-2.83611658520754e+001,-4.67181574243006e-001

1.07177346253629e+004,-2.83611717789283e+001,-4.73702432359059e-001

1.08673486252606e+004,-2.83611778722022e+001,-4.80314286305483e-001

1.10190511587661e+004,-2.83611841365644e+001,-4.87018404982032e-001

1.11728713807222e+004,-2.83611905768123e+001,-4.93816074945718e-001

1.13288388529580e+004,-2.83611971978778e+001,-5.00708600652806e-001

1.14869835499703e+004,-2.83612040048305e+001,-5.07697304707622e-001

1.16473358646846e+004,-2.83612110028818e+001,-5.14783528112159e-001

1.18099266142953e+004,-2.83612181973889e+001,-5.21968630520012e-001

1.19747870461893e+004,-2.83612255938586e+001,-5.29253990495431e-001

1.21419488439505e+004,-2.83612331979516e+001,-5.36641005772907e-001

1.23114441334492e+004,-2.83612410154868e+001,-5.44131093522063e-001

1.24833054890161e+004,-2.83612490524457e+001,-5.51725690616215e-001

1.26575659397028e+004,-2.83612573149767e+001,-5.59426253902964e-001

1.28342589756290e+004,-2.83612658094001e+001,-5.67234260481424e-001

1.30134185544193e+004,-2.83612745422127e+001,-5.75151207978207e-001

1.31950791077289e+004,-2.83612835200924e+001,-5.83178614834040e-001

1.33792755478611e+004,-2.83612927499037e+001,-5.91318020587244e-001

1.35660432744767e+004,-2.83613022387024e+001,-5.99570986166267e-001

1.37554181813974e+004,-2.83613119937416e+001,-6.07939094181570e-001

1.39474366635040e+004,-2.83613220224763e+001,-6.16423949226458e-001

1.41421356237309e+004,-2.83613323325696e+001,-6.25027178177525e-001

1.43395524801583e+004,-2.83613429318979e+001,-6.33750430502568e-001

1.45397251732031e+004,-2.83613538285577e+001,-6.42595378568085e-001

1.47426921729110e+004,-2.83613650308707e+001,-6.51563717956530e-001

1.49484924863494e+004,-2.83613765473906e+001,-6.60657167783497e-001

1.51571656651040e+004,-2.83613883869093e+001,-6.69877471020977e-001

1.53687518128801e+004,-2.83614005584635e+001,-6.79226394823148e-001

1.55832915932100e+004,-2.83614130713414e+001,-6.88705730861289e-001

1.58008262372675e+004,-2.83614259350899e+001,-6.98317295654736e-001

1.60213975517924e+004,-2.83614391595214e+001,-7.08062930914537e-001

1.62450479271247e+004,-2.83614527547210e+001,-7.17944503887100e-001

1.64718203453514e+004,-2.83614667310544e+001,-7.27963907703650e-001

1.67017583885674e+004,-2.83614810991757e+001,-7.38123061731815e-001

1.69349062472505e+004,-2.83614958700346e+001,-7.48423911938628e-001

1.71713087287550e+004,-2.83615110548853e+001,-7.58868431248511e-001

1.74110112659224e+004,-2.83615266652943e+001,-7.69458619914301e-001

1.76540599258131e+004,-2.83615427131494e+001,-7.80196505888402e-001

1.79005014185594e+004,-2.83615592106680e+001,-7.91084145201585e-001

1.81503831063432e+004,-2.83615761704066e+001,-8.02123622343490e-001

1.84037530124975e+004,-2.83615936052700e+001,-8.13317050650354e-001

1.86606598307361e+004,-2.83616115285204e+001,-8.24666572698894e-001

1.89211529345119e+004,-2.83616299537877e+001,-8.36174360700072e-001

1.91852823865052e+004,-2.83616488950791e+001,-8.47842616905809e-001

1.94530989482457e+004,-2.83616683667899e+001,-8.59673574012870e-001

1.97246540898671e+004,-2.83616883837134e+001,-8.71669495577471e-001

1.99999999999999e+004,-2.83617089610524e+001,-8.83832676431588e-001

2.02791895958005e+004,-2.83617301144296e+001,-8.96165443109987e-001

2.05622765331213e+004,-2.83617518599001e+001,-9.08670154273082e-001

2.08493152168224e+004,-2.83617742139617e+001,-9.21349201146435e-001

2.11403608112276e+004,-2.83617971935683e+001,-9.34205007956989e-001

2.14354692507258e+004,-2.83618208161412e+001,-9.47240032379025e-001

2.17346972505211e+004,-2.83618450995824e+001,-9.60456765985909e-001

2.20381023175322e+004,-2.83618700622872e+001,-9.73857734704136e-001

2.23457427614443e+004,-2.83618957231579e+001,-9.87445499276604e-001

2.26576777059159e+004,-2.83619221016169e+001,-1.00122265573086e+000

2.29739670999406e+004,-2.83619492176214e+001,-1.01519183585153e+000

2.32946717293690e+004,-2.83619770916773e+001,-1.02935570765959e+000

2.36198532285905e+004,-2.83620057448541e+001,-1.04371697589819e+000

2.39495740923785e+004,-2.83620351987998e+001,-1.05827838252320e+000

2.42838976879009e+004,-2.83620654757570e+001,-1.07304270720109e+000

2.46228882668982e+004,-2.83620965985781e+001,-1.08801276781099e+000

2.49666109780322e+004,-2.83621285907419e+001,-1.10319142095491e+000

2.53151318794055e+004,-2.83621614763706e+001,-1.11858156247308e+000

2.56685179512580e+004,-2.83621952802463e+001,-1.13418612796458e+000

2.60268371088386e+004,-2.83622300278291e+001,-1.15000809331673e+000

2.63901582154578e+004,-2.83622657452751e+001,-1.16605047523715e+000

2.67585510957221e+004,-2.83623024594544e+001,-1.18231633179579e+000

2.71320865489533e+004,-2.83623401979703e+001,-1.19880876297204e+000

2.75108363627948e+004,-2.83623789891788e+001,-1.21553091120625e+000

2.78948733270080e+004,-2.83624188622082e+001,-1.23248596196100e+000

2.82842712474618e+004,-2.83624598469796e+001,-1.24967714428678e+000

2.86791049603164e+004,-2.83625019742276e+001,-1.26710773139438e+000

2.90794503464061e+004,-2.83625452755218e+001,-1.28478104123500e+000

2.94853843458219e+004,-2.83625897832885e+001,-1.30270043708608e+000

2.98969849726987e+004,-2.83626355308334e+001,-1.32086932814316e+000

3.03143313302078e+004,-2.83626825523638e+001,-1.33929117012066e+000

3.07375036257601e+004,-2.83627308830130e+001,-1.35796946585719e+000

3.11665831864199e+004,-2.83627805588636e+001,-1.37690776592861e+000

3.16016524745350e+004,-2.83628316169724e+001,-1.39610966926803e+000

3.20427951035848e+004,-2.83628840953957e+001,-1.41557882379193e+000

3.24900958542493e+004,-2.83629380332145e+001,-1.43531892703479e+000

3.29436406907028e+004,-2.83629934705618e+001,-1.45533372678736e+000

3.34035167771346e+004,-2.83630504486482e+001,-1.47562702174783e+000

3.38698124945009e+004,-2.83631090097911e+001,-1.49620266217128e+000

3.43426174575100e+004,-2.83631691974413e+001,-1.51706455053605e+000

3.48220225318448e+004,-2.83632310562131e+001,-1.53821664220815e+000

3.53081198516260e+004,-2.83632946319132e+001,-1.55966294611930e+000

3.58010028371187e+004,-2.83633599715708e+001,-1.58140752544771e+000

3.63007662126863e+004,-2.83634271234685e+001,-1.60345449830975e+000

3.68075060249948e+004,-2.83634961371740e+001,-1.62580803845477e+000

3.73213196614721e+004,-2.83635670635721e+001,-1.64847237596971e+000

3.78423058690237e+004,-2.83636399548976e+001,-1.67145179799033e+000

3.83705647730104e+004,-2.83637148647687e+001,-1.69475064941910e+000

3.89061978964912e+004,-2.83637918482215e+001,-1.71837333365127e+000

3.94493081797342e+004,-2.83638709617450e+001,-1.74232431330674e+000

3.99999999999998e+004,-2.83639522633167e+001,-1.76660811096878e+000

4.05583791916010e+004,-2.83640358124392e+001,-1.79122930993402e+000

4.11245530662425e+004,-2.83641216701773e+001,-1.81619255496322e+000

4.16986304336447e+004,-2.83642098991962e+001,-1.84150255304432e+000

4.22807216224550e+004,-2.83643005637995e+001,-1.86716407416180e+000

4.28709385014515e+004,-2.83643937299700e+001,-1.89318195207018e+000

4.34693945010421e+004,-2.83644894654085e+001,-1.91956108507868e+000

4.40762046350642e+004,-2.83645878395758e+001,-1.94630643684082e+000

4.46914855228886e+004,-2.83646889237342e+001,-1.97342303715185e+000

4.53153554118317e+004,-2.83647927909899e+001,-2.00091598275404e+000

4.59479341998812e+004,-2.83648995163366e+001,-2.02879043814682e+000

4.65893434587380e+004,-2.83650091766996e+001,-2.05705163640698e+000

4.72397064571810e+004,-2.83651218509806e+001,-2.08570488001494e+000

4.78991481847569e+004,-2.83652376201037e+001,-2.11475554168745e+000

4.85677953758016e+004,-2.83653565670615e+001,-2.14420906521809e+000

4.92457765337964e+004,-2.83654787769629e+001,-2.17407096632498e+000

4.99332219560642e+004,-2.83656043370806e+001,-2.20434683350598e+000

5.06302637588109e+004,-2.83657333369004e+001,-2.23504232890045e+000

5.13370359025159e+004,-2.83658658681708e+001,-2.26616318915780e+000

5.20536742176771e+004,-2.83660020249532e+001,-2.29771522631463e+000

5.27803164309155e+004,-2.83661419036730e+001,-2.32970432867714e+000

5.35171021914442e+004,-2.83662856031721e+001,-2.36213646171226e+000

5.42641730979066e+004,-2.83664332247608e+001,-2.39501766894576e+000

5.50216727255895e+004,-2.83665848722717e+001,-2.42835407286537e+000

5.57897466540159e+004,-2.83667406521138e+001,-2.46215187583483e+000

5.65685424949235e+004,-2.83669006733273e+001,-2.49641736101150e+000

5.73582099206328e+004,-2.83670650476388e+001,-2.53115689327337e+000

5.81589006928121e+004,-2.83672338895184e+001,-2.56637692015241e+000

5.89707686916437e+004,-2.83674073162355e+001,-2.60208397277557e+000

5.97939699453972e+004,-2.83675854479172e+001,-2.63828466681284e+000

6.06286626604156e+004,-2.83677684076061e+001,-2.67498570343253e+000

6.14750072515201e+004,-2.83679563213189e+001,-2.71219387026411e+000

6.23331663728396e+004,-2.83681493181063e+001,-2.74991604236861e+000

6.32033049490698e+004,-2.83683475301123e+001,-2.78815918321650e+000

6.40855902071694e+004,-2.83685510926349e+001,-2.82693034567295e+000

6.49801917084985e+004,-2.83687601441869e+001,-2.86623667299100e+000

6.58872813814055e+004,-2.83689748265575e+001,-2.90608539981319e+000

6.68070335542691e+004,-2.83691952848737e+001,-2.94648385317894e+000

6.77396249890018e+004,-2.83694216676627e+001,-2.98743945354357e+000

6.86852349150199e+004,-2.83696541269148e+001,-3.02895971580234e+000

6.96440450636895e+004,-2.83698928181454e+001,-3.07105225032473e+000

7.06162397032520e+004,-2.83701379004590e+001,-3.11372476399688e+000

7.16020056742374e+004,-2.83703895366121e+001,-3.15698506127278e+000

7.26015324253724e+004,-2.83706478930768e+001,-3.20084104523499e+000

7.36150120499896e+004,-2.83709131401047e+001,-3.24530071866399e+000

7.46426393229441e+004,-2.83711854517904e+001,-3.29037218511901e+000

7.56846117380472e+004,-2.83714650061360e+001,-3.33606365002606e+000

7.67411295460207e+004,-2.83717519851139e+001,-3.38238342177942e+000

7.78123957929823e+004,-2.83720465747316e+001,-3.42933991285201e+000

7.88986163594682e+004,-2.83723489650949e+001,-3.47694164091687e+000

7.99999999999995e+004,-2.83726593504716e+001,-3.52519722998211e+000

8.11167583832018e+004,-2.83729779293549e+001,-3.57411541153617e+000

8.22491061324848e+004,-2.83733049045263e+001,-3.62370502570685e+000

8.33972608672892e+004,-2.83736404831186e+001,-3.67397502243319e+000

8.45614432449099e+004,-2.83739848766782e+001,-3.72493446265182e+000

8.57418770029029e+004,-2.83743383012271e+001,-3.77659251949814e+000

8.69387890020841e+004,-2.83747009773247e+001,-3.82895847952088e+000

8.81524092701283e+004,-2.83750731301282e+001,-3.88204174391630e+000

8.93829710457770e+004,-2.83754549894538e+001,-3.93585182977621e+000

9.06307108236633e+004,-2.83758467898360e+001,-3.99039837135568e+000

9.18958683997622e+004,-2.83762487705872e+001,-4.04569112135853e+000

9.31786869174758e+004,-2.83766611758557e+001,-4.10173995224365e+000

9.44794129143618e+004,-2.83770842546841e+001,-4.15855485755143e+000

9.57982963695136e+004,-2.83775182610658e+001,-4.21614595325276e+000

9.71355907516031e+004,-2.83779634540014e+001,-4.27452347912034e+000

9.84915530675926e+004,-2.83784200975542e+001,-4.33369780012549e+000

9.98664439121282e+004,-2.83788884609044e+001,-4.39367940786036e+000

1.01260527517622e+005,-2.83793688184036e+001,-4.45447892198677e+000

1.02674071805032e+005,-2.83798614496271e+001,-4.51610709171441e+000

1.04107348435354e+005,-2.83803666394258e+001,-4.57857479730909e+000

1.05560632861831e+005,-2.83808846779784e+001,-4.64189305163174e+000

1.07034204382888e+005,-2.83814158608411e+001,-4.70607300171215e+000

1.08528346195813e+005,-2.83819604889977e+001,-4.77112593035685e+000

1.10043345451179e+005,-2.83825188689086e+001,-4.83706325779403e+000

1.11579493308032e+005,-2.83830913125596e+001,-4.90389654335757e+000

1.13137084989847e+005,-2.83836781375095e+001,-4.97163748721108e+000

1.14716419841265e+005,-2.83842796669376e+001,-5.04029793211522e+000

1.16317801385624e+005,-2.83848962296916e+001,-5.10988986523875e+000

1.17941537383287e+005,-2.83855281603336e+001,-5.18042542001760e+000

1.19587939890794e+005,-2.83861757991881e+001,-5.25191687806123e+000

1.21257325320831e+005,-2.83868394923884e+001,-5.32437667111102e+000

1.22950014503040e+005,-2.83875195919247e+001,-5.39781738305201e+000

1.24666332745679e+005,-2.83882164556917e+001,-5.47225175197908e+000

1.26406609898139e+005,-2.83889304475377e+001,-5.54769267232213e+000

1.28171180414339e+005,-2.83896619373147e+001,-5.62415319703026e+000

1.29960383416997e+005,-2.83904113009291e+001,-5.70164653981873e+000

1.31774562762811e+005,-2.83911789203953e+001,-5.78018607748086e+000

1.33614067108538e+005,-2.83919651838903e+001,-5.85978535226607e+000

1.35479249978003e+005,-2.83927704858115e+001,-5.94045807432781e+000

1.37370469830040e+005,-2.83935952268363e+001,-6.02221812424295e+000

1.39288090127379e+005,-2.83944398139864e+001,-6.10507955560353e+000

1.41232479406504e+005,-2.83953046606942e+001,-6.18905659768636e+000

1.43204011348474e+005,-2.83961901868749e+001,-6.27416365819916e+000

1.45203064850745e+005,-2.83970968190025e+001,-6.36041532610611e+000

1.47230024099979e+005,-2.83980249901912e+001,-6.44782637453585e+000

1.49285278645888e+005,-2.83989751402830e+001,-6.53641176377348e+000

1.51369223476094e+005,-2.83999477159420e+001,-6.62618664433625e+000

1.53482259092041e+005,-2.84009431707556e+001,-6.71716636013653e+000

1.55624791585964e+005,-2.84019619653436e+001,-6.80936645173275e+000

1.57797232718936e+005,-2.84030045674765e+001,-6.90280265966928e+000

1.59999999999999e+005,-2.84040714522029e+001,-6.99749092790559e+000

1.62233516766403e+005,-2.84051631019871e+001,-7.09344740733726e+000

1.64498212264969e+005,-2.84062800068581e+001,-7.19068845940605e+000

1.66794521734578e+005,-2.84074226645699e+001,-7.28923065980324e+000

1.69122886489819e+005,-2.84085915807760e+001,-7.38909080226212e+000

1.71483754005805e+005,-2.84097872692157e+001,-7.49028590244316e+000

1.73877578004168e+005,-2.84110102519167e+001,-7.59283320190650e+000

1.76304818540256e+005,-2.84122610594128e+001,-7.69675017217594e+000

1.78765942091554e+005,-2.84135402309778e+001,-7.80205451888830e+000

1.81261421647326e+005,-2.84148483148774e+001,-7.90876418602958e+000

1.83791736799524e+005,-2.84161858686397e+001,-8.01689736025380e+000

1.86357373834951e+005,-2.84175534593452e+001,-8.12647247528285e+000

1.88958825828723e+005,-2.84189516639370e+001,-8.23750821638468e+000

1.91596592739027e+005,-2.84203810695533e+001,-8.35002352492492e+000

1.94271181503206e+005,-2.84218422738821e+001,-8.46403760298979e+000

1.96983106135185e+005,-2.84233358855390e+001,-8.57956991807467e+000

1.99732887824256e+005,-2.84248625244707e+001,-8.69664020783492e+000

2.02521055035243e+005,-2.84264228223831e+001,-8.81526848489160e+000

2.05348143610063e+005,-2.84280174231961e+001,-8.93547504169003e+000

2.08214696870707e+005,-2.84296469835261e+001,-9.05728045540028e+000

2.11121265723661e+005,-2.84313121731963e+001,-9.18070559285772e+000

2.14068408765776e+005,-2.84330136757761e+001,-9.30577161553373e+000

2.17056692391625e+005,-2.84347521891512e+001,-9.43249998453042e+000

2.20086690902357e+005,-2.84365284261233e+001,-9.56091246559094e+000

2.23158986616063e+005,-2.84383431150420e+001,-9.69103113411784e+000

2.26274169979693e+005,-2.84401970004681e+001,-9.82287838019000e+000

2.29432839682530e+005,-2.84420908438697e+001,-9.95647691357084e+000

2.32635602771247e+005,-2.84440254243518e+001,-1.00918497686965e+001

2.35883074766574e+005,-2.84460015394188e+001,-1.02290203096355e+001

2.39175879781588e+005,-2.84480200057714e+001,-1.03680122350112e+001

2.42514650641661e+005,-2.84500816601377e+001,-1.05088495828741e+001

2.45900029006080e+005,-2.84521873601383e+001,-1.06515567355165e+001

2.49332665491357e+005,-2.84543379851871e+001,-1.07961584242182e+001

2.52813219796278e+005,-2.84565344374249e+001,-1.09426797339113e+001

2.56342360828676e+005,-2.84587776426898e+001,-1.10911461077562e+001

2.59920766833993e+005,-2.84610685515204e+001,-1.12415833516144e+001

2.63549125525621e+005,-2.84634081401941e+001,-1.13940176384116e+001

2.67228134217075e+005,-2.84657974117993e+001,-1.15484755123763e+001

2.70958499956006e+005,-2.84682373973411e+001,-1.17049838931468e+001

2.74740939660078e+005,-2.84707291568802e+001,-1.18635700797327e+001

2.78576180254757e+005,-2.84732737807045e+001,-1.20242617543230e+001

2.82464958813007e+005,-2.84758723905325e+001,-1.21870869859302e+001

2.86408022696948e+005,-2.84785261407485e+001,-1.23520742338591e+001

2.90406129701488e+005,-2.84812362196673e+001,-1.25192523509914e+001

2.94460048199957e+005,-2.84840038508295e+001,-1.26886505868770e+001

2.98570557291775e+005,-2.84868302943252e+001,-1.28602985906225e+001

3.02738446952187e+005,-2.84897168481452e+001,-1.30342264135674e+001

3.06964518184081e+005,-2.84926648495590e+001,-1.32104645117416e+001

3.11249583171928e+005,-2.84956756765187e+001,-1.33890437480926e+001

3.15594465437872e+005,-2.84987507490869e+001,-1.35699953944798e+001

3.19999999999997e+005,-2.85018915308881e+001,-1.37533511334231e+001

3.24467033532806e+005,-2.85050995305818e+001,-1.39391430596045e+001

3.28996424529938e+005,-2.85083763033571e+001,-1.41274036811110e+001

3.33589043469155e+005,-2.85117234524459e+001,-1.43181659204181e+001

3.38245772979638e+005,-2.85151426306552e+001,-1.45114631151044e+001

3.42967508011610e+005,-2.85186355419155e+001,-1.47073290182947e+001

3.47755156008335e+005,-2.85222039428454e+001,-1.49057977988253e+001

3.52609637080511e+005,-2.85258496443300e+001,-1.51069040411293e+001

3.57531884183106e+005,-2.85295745131132e+001,-1.53106827448361e+001

3.62522843294651e+005,-2.85333804734002e+001,-1.55171693240831e+001

3.67583473599047e+005,-2.85372695084721e+001,-1.57263996065351e+001

3.72714747669902e+005,-2.85412436623085e+001,-1.59384098321105e+001

3.77917651657445e+005,-2.85453050412181e+001,-1.61532366514098e+001

3.83193185478053e+005,-2.85494558154770e+001,-1.63709171238458e+001

3.88542363006410e+005,-2.85536982209713e+001,-1.65914887154718e+001

3.93966212270369e+005,-2.85580345608445e+001,-1.68149892965075e+001

3.99465775648511e+005,-2.85624672071488e+001,-1.70414571385594e+001

4.05042110070485e+005,-2.85669986024975e+001,-1.72709309115352e+001

4.10696287220124e+005,-2.85716312617190e+001,-1.75034496802496e+001

4.16429393741414e+005,-2.85763677735110e+001,-1.77390529007213e+001

4.22242531447321e+005,-2.85812108020932e+001,-1.79777804161571e+001

4.28136817531551e+005,-2.85861630888586e+001,-1.82196724526241e+001

4.34113384783250e+005,-2.85912274540216e+001,-1.84647696144063e+001

4.40173381804713e+005,-2.85964067982617e+001,-1.87131128790450e+001

4.46317973232124e+005,-2.86017041043637e+001,-1.89647435920589e+001

4.52548339959385e+005,-2.86071224388508e+001,-1.92197034613447e+001

4.58865679365059e+005,-2.86126649536116e+001,-1.94780345512522e+001

4.65271205542494e+005,-2.86183348875197e+001,-1.97397792763339e+001

4.71766149533147e+005,-2.86241355680446e+001,-2.00049803947638e+001

4.78351759563174e+005,-2.86300704128527e+001,-2.02736810014243e+001

4.85029301283321e+005,-2.86361429313984e+001,-2.05459245206558e+001

4.91800058012158e+005,-2.86423567265040e+001,-2.08217546986652e+001

4.98665330982714e+005,-2.86487154959258e+001,-2.11012155955907e+001

5.05626439592555e+005,-2.86552230339082e+001,-2.13843515772157e+001

5.12684721657352e+005,-2.86618832327221e+001,-2.16712073063296e+001

5.19841533667984e+005,-2.86687000841873e+001,-2.19618277337283e+001

5.27098251051240e+005,-2.86756776811785e+001,-2.22562580888501e+001

5.34456268434150e+005,-2.86828202191120e+001,-2.25545438700413e+001

5.41916999912011e+005,-2.86901319974123e+001,-2.28567308344439e+001

