Freq.,VOut,OutRef

1.00000000000000e+004,-1.75474569382410e+001,-2.89584817355081e-001

1.01395947979003e+004,-1.75474594890908e+001,-2.93626851654387e-001

1.02811382665607e+004,-1.75474621115408e+001,-2.97725292876925e-001

1.04246576084112e+004,-1.75474648075978e+001,-3.01880927679679e-001

1.05701804056138e+004,-1.75474675793240e+001,-3.06094553671942e-001

1.07177346253629e+004,-1.75474704288397e+001,-3.10366979561603e-001

1.08673486252606e+004,-1.75474733583242e+001,-3.14699025312038e-001

1.10190511587661e+004,-1.75474763700177e+001,-3.19091522296450e-001

1.11728713807222e+004,-1.75474794662226e+001,-3.23545313457478e-001

1.13288388529580e+004,-1.75474826493062e+001,-3.28061253462777e-001

1.14869835499703e+004,-1.75474859217011e+001,-3.32640208873525e-001

1.16473358646846e+004,-1.75474892859084e+001,-3.37283058301852e-001

1.18099266142953e+004,-1.75474927444984e+001,-3.41990692582251e-001

1.19747870461893e+004,-1.75474963001135e+001,-3.46764014937865e-001

1.21419488439505e+004,-1.75474999554693e+001,-3.51603941153751e-001

1.23114441334492e+004,-1.75475037133576e+001,-3.56511399745806e-001

1.24833054890161e+004,-1.75475075766474e+001,-3.61487332142851e-001

1.26575659397028e+004,-1.75475115482880e+001,-3.66532692858470e-001

1.28342589756290e+004,-1.75475156313108e+001,-3.71648449674185e-001

1.30134185544193e+004,-1.75475198288315e+001,-3.76835583823379e-001

1.31950791077289e+004,-1.75475241440523e+001,-3.82095090174708e-001

1.33792755478611e+004,-1.75475285802648e+001,-3.87427977419945e-001

1.35660432744767e+004,-1.75475331408521e+001,-3.92835268265136e-001

1.37554181813974e+004,-1.75475378292911e+001,-3.98317999623170e-001

1.39474366635040e+004,-1.75475426491556e+001,-4.03877222809614e-001

1.41421356237309e+004,-1.75475476041187e+001,-4.09514003738433e-001

1.43395524801583e+004,-1.75475526979553e+001,-4.15229423125529e-001

1.45397251732031e+004,-1.75475579345454e+001,-4.21024576691226e-001

1.47426921729110e+004,-1.75475633178764e+001,-4.26900575365089e-001

1.49484924863494e+004,-1.75475688520465e+001,-4.32858545495520e-001

1.51571656651040e+004,-1.75475745412678e+001,-4.38899629061361e-001

1.53687518128801e+004,-1.75475803898687e+001,-4.45024983885752e-001

1.55832915932100e+004,-1.75475864022978e+001,-4.51235783854069e-001

1.58008262372675e+004,-1.75475925831271e+001,-4.57533219133304e-001

1.60213975517924e+004,-1.75475989370550e+001,-4.63918496394168e-001

1.62450479271247e+004,-1.75476054689100e+001,-4.70392839038597e-001

1.64718203453514e+004,-1.75476121836542e+001,-4.76957487426931e-001

1.67017583885674e+004,-1.75476190863870e+001,-4.83613699111467e-001

1.69349062472505e+004,-1.75476261823485e+001,-4.90362749070188e-001

1.71713087287550e+004,-1.75476334769241e+001,-4.97205929942787e-001

1.74110112659224e+004,-1.75476409756473e+001,-5.04144552275670e-001

1.76540599258131e+004,-1.75476486842049e+001,-5.11179944763035e-001

1.79005014185594e+004,-1.75476566084402e+001,-5.18313454494778e-001

1.81503831063432e+004,-1.75476647543578e+001,-5.25546447207706e-001

1.84037530124975e+004,-1.75476731281277e+001,-5.32880307538732e-001

1.86606598307361e+004,-1.75476817360898e+001,-5.40316439280655e-001

1.89211529345119e+004,-1.75476905847587e+001,-5.47856265645511e-001

1.91852823865052e+004,-1.75476996808279e+001,-5.55501229524806e-001

1.94530989482457e+004,-1.75477090311754e+001,-5.63252793758428e-001

1.97246540898671e+004,-1.75477186428676e+001,-5.71112441404665e-001

1.99999999999999e+004,-1.75477285231655e+001,-5.79081676014121e-001

2.02791895958005e+004,-1.75477386795287e+001,-5.87162021907457e-001

2.05622765331213e+004,-1.75477491196220e+001,-5.95355024454309e-001

2.08493152168224e+004,-1.75477598513198e+001,-6.03662250360540e-001

2.11403608112276e+004,-1.75477708827122e+001,-6.12085287953573e-001

2.14354692507258e+004,-1.75477822221107e+001,-6.20625747476442e-001

2.17346972505211e+004,-1.75477938780540e+001,-6.29285261380967e-001

2.20381023175322e+004,-1.75478058593141e+001,-6.38065484628014e-001

2.23457427614443e+004,-1.75478181749022e+001,-6.46968094989830e-001

2.26576777059159e+004,-1.75478308340757e+001,-6.55994793355338e-001

2.29739670999406e+004,-1.75478438463439e+001,-6.65147304042469e-001

2.32946717293690e+004,-1.75478572214749e+001,-6.74427375111283e-001

2.36198532285905e+004,-1.75478709695029e+001,-6.83836778680722e-001

2.39495740923785e+004,-1.75478851007345e+001,-6.93377311252738e-001

2.42838976879009e+004,-1.75478996257560e+001,-7.03050794035497e-001

2.46228882668982e+004,-1.75479145554410e+001,-7.12859073275667e-001

2.49666109780322e+004,-1.75479299009577e+001,-7.22804020589282e-001

2.53151318794055e+004,-1.75479456737764e+001,-7.32887533302843e-001

2.56685179512580e+004,-1.75479618856776e+001,-7.43111534791638e-001

2.60268371088386e+004,-1.75479785487599e+001,-7.53477974828345e-001

2.63901582154578e+004,-1.75479956754481e+001,-7.63988829931923e-001

2.67585510957221e+004,-1.75480132785022e+001,-7.74646103720956e-001

2.71320865489533e+004,-1.75480313710250e+001,-7.85451827273624e-001

2.75108363627948e+004,-1.75480499664717e+001,-7.96408059489728e-001

2.78948733270080e+004,-1.75480690786588e+001,-8.07516887456361e-001

2.82842712474618e+004,-1.75480887217727e+001,-8.18780426821739e-001

2.86791049603164e+004,-1.75481089103799e+001,-8.30200822167115e-001

2.90794503464061e+004,-1.75481296594363e+001,-8.41780247388802e-001

2.94853843458219e+004,-1.75481509842967e+001,-8.53520906082269e-001

2.98969849726987e+004,-1.75481729007254e+001,-8.65425031929364e-001

3.03143313302078e+004,-1.75481954249061e+001,-8.77494889092443e-001

3.07375036257601e+004,-1.75482185734524e+001,-8.89732772610765e-001

3.11665831864199e+004,-1.75482423634188e+001,-9.02141008803121e-001

3.16016524745350e+004,-1.75482668123113e+001,-9.14721955673218e-001

3.20427951035848e+004,-1.75482919380987e+001,-9.27478003321526e-001

3.24900958542493e+004,-1.75483177592238e+001,-9.40411574360274e-001

3.29436406907028e+004,-1.75483442946157e+001,-9.53525124332118e-001

3.34035167771346e+004,-1.75483715637007e+001,-9.66821142136894e-001

3.38698124945009e+004,-1.75483995864151e+001,-9.80302150458110e-001

3.43426174575100e+004,-1.75484283832172e+001,-9.93970706199488e-001

3.48220225318448e+004,-1.75484579750999e+001,-1.00782940092089e+000

3.53081198516260e+004,-1.75484883836038e+001,-1.02188086128230e+000

3.58010028371187e+004,-1.75485196308298e+001,-1.03612774949149e+000

3.63007662126863e+004,-1.75485517394528e+001,-1.05057276375593e+000

3.68075060249948e+004,-1.75485847327352e+001,-1.06521863874015e+000

3.73213196614721e+004,-1.75486186345401e+001,-1.08006814602829e+000

3.78423058690237e+004,-1.75486534693465e+001,-1.09512409458826e+000

3.83705647730104e+004,-1.75486892622622e+001,-1.11038933124529e+000

3.89061978964912e+004,-1.75487260390394e+001,-1.12586674115709e+000

3.94493081797342e+004,-1.75487638260888e+001,-1.14155924829389e+000

3.99999999999998e+004,-1.75488026504948e+001,-1.15746981592566e+000

4.05583791916010e+004,-1.75488425400308e+001,-1.17360144710993e+000

4.11245530662425e+004,-1.75488835231748e+001,-1.18995718518842e+000

4.16986304336447e+004,-1.75489256291246e+001,-1.20654011428745e+000

4.22807216224550e+004,-1.75489688878139e+001,-1.22335335982127e+000

4.28709385014515e+004,-1.75490133299289e+001,-1.24040008900148e+000

4.34693945010421e+004,-1.75490589869240e+001,-1.25768351135272e+000

4.40762046350642e+004,-1.75491058910386e+001,-1.27520687923033e+000

4.46914855228886e+004,-1.75491540753141e+001,-1.29297348834532e+000

4.53153554118317e+004,-1.75492035736106e+001,-1.31098667829149e+000

4.59479341998812e+004,-1.75492544206241e+001,-1.32924983308132e+000

4.65893434587380e+004,-1.75493066519039e+001,-1.34776638168247e+000

4.72397064571810e+004,-1.75493603038702e+001,-1.36653979856164e+000

4.78991481847569e+004,-1.75494154138317e+001,-1.38557360423305e+000

4.85677953758016e+004,-1.75494720200030e+001,-1.40487136581093e+000

4.92457765337964e+004,-1.75495301615236e+001,-1.42443669756722e+000

4.99332219560642e+004,-1.75495898784750e+001,-1.44427326149427e+000

5.06302637588109e+004,-1.75496512118995e+001,-1.46438476787343e+000

5.13370359025159e+004,-1.75497142038183e+001,-1.48477497584555e+000

5.20536742176771e+004,-1.75497788972499e+001,-1.50544769398979e+000

5.27803164309155e+004,-1.75498453362287e+001,-1.52640678090521e+000

5.35171021914442e+004,-1.75499135658235e+001,-1.54765614579831e+000

5.42641730979066e+004,-1.75499836321557e+001,-1.56919974907479e+000

5.50216727255895e+004,-1.75500555824185e+001,-1.59104160293659e+000

5.57897466540159e+004,-1.75501294648951e+001,-1.61318577198425e+000

5.65685424949235e+004,-1.75502053289769e+001,-1.63563637382370e+000

5.73582099206328e+004,-1.75502832251826e+001,-1.65839757967857e+000

5.81589006928121e+004,-1.75503632051761e+001,-1.68147361500768e+000

5.89707686916437e+004,-1.75504453217849e+001,-1.70486876012631e+000

5.97939699453972e+004,-1.75505296290181e+001,-1.72858735083576e+000

6.06286626604156e+004,-1.75506161820846e+001,-1.75263377905424e+000

6.14750072515201e+004,-1.75507050374106e+001,-1.77701249345544e+000

6.23331663728396e+004,-1.75507962526568e+001,-1.80172800011366e+000

6.32033049490698e+004,-1.75508898867364e+001,-1.82678486315042e+000

6.40855902071694e+004,-1.75509859998311e+001,-1.85218770539096e+000

6.49801917084985e+004,-1.75510846534081e+001,-1.87794120902326e+000

6.58872813814055e+004,-1.75511859102364e+001,-1.90405011626492e+000

6.68070335542691e+004,-1.75512898344020e+001,-1.93051923003476e+000

6.77396249890018e+004,-1.75513964913233e+001,-1.95735341463109e+000

6.86852349150199e+004,-1.75515059477660e+001,-1.98455759641504e+000

6.96440450636895e+004,-1.75516182718571e+001,-2.01213676450216e+000

7.06162397032520e+004,-1.75517335330981e+001,-2.04009597146023e+000

7.16020056742374e+004,-1.75518518023782e+001,-2.06844033401029e+000

7.26015324253724e+004,-1.75519731519860e+001,-2.09717503374133e+000

7.36150120499896e+004,-1.75520976556211e+001,-2.12630531782587e+000

7.46426393229441e+004,-1.75522253884043e+001,-2.15583649974642e+000

7.56846117380472e+004,-1.75523564268873e+001,-2.18577396002941e+000

7.67411295460207e+004,-1.75524908490610e+001,-2.21612314698604e+000

7.78123957929823e+004,-1.75526287343635e+001,-2.24688957746253e+000

7.88986163594682e+004,-1.75527701636860e+001,-2.27807883759912e+000

7.99999999999995e+004,-1.75529152193786e+001,-2.30969658359862e+000

8.11167583832018e+004,-1.75530639852541e+001,-2.34174854250237e+000

8.22491061324848e+004,-1.75532165465909e+001,-2.37424051298012e+000

8.33972608672892e+004,-1.75533729901346e+001,-2.40717836612681e+000

8.45614432449099e+004,-1.75535334040977e+001,-2.44056804627260e+000

8.57418770029029e+004,-1.75536978781586e+001,-2.47441557180392e+000

8.69387890020841e+004,-1.75538665034584e+001,-2.50872703599699e+000

8.81524092701283e+004,-1.75540393725965e+001,-2.54350860786289e+000

8.93829710457770e+004,-1.75542165796238e+001,-2.57876653300970e+000

9.06307108236633e+004,-1.75543982200356e+001,-2.61450713451396e+000

9.18958683997622e+004,-1.75545843907608e+001,-2.65073681381132e+000

9.31786869174758e+004,-1.75547751901511e+001,-2.68746205160176e+000

9.44794129143618e+004,-1.75549707179666e+001,-2.72468940877023e+000

9.57982963695136e+004,-1.75551710753606e+001,-2.76242552732670e+000

9.71355907516031e+004,-1.75553763648618e+001,-2.80067713136491e+000

9.84915530675926e+004,-1.75555866903545e+001,-2.83945102803796e+000

9.98664439121282e+004,-1.75558021570565e+001,-2.87875410855931e+000

1.01260527517622e+005,-1.75560228714951e+001,-2.91859334922033e+000

1.02674071805032e+005,-1.75562489414808e+001,-2.95897581243466e+000

1.04107348435354e+005,-1.75564804760782e+001,-2.99990864780530e+000

1.05560632861831e+005,-1.75567175855753e+001,-3.04139909321651e+000

1.07034204382888e+005,-1.75569603814499e+001,-3.08345447595442e+000

1.08528346195813e+005,-1.75572089763341e+001,-3.12608221385340e+000

1.10043345451179e+005,-1.75574634839759e+001,-3.16928981647390e+000

1.11579493308032e+005,-1.75577240191992e+001,-3.21308488631016e+000

1.13137084989847e+005,-1.75579906978603e+001,-3.25747512003229e+000

1.14716419841265e+005,-1.75582636368034e+001,-3.30246830975914e+000

1.16317801385624e+005,-1.75585429538124e+001,-3.34807234437184e+000

1.17941537383287e+005,-1.75588287675619e+001,-3.39429521086006e+000

1.19587939890794e+005,-1.75591211975644e+001,-3.44114499571146e+000

1.21257325320831e+005,-1.75594203641169e+001,-3.48862988633926e+000

1.22950014503040e+005,-1.75597263882438e+001,-3.53675817255517e+000

1.24666332745679e+005,-1.75600393916395e+001,-3.58553824808517e+000

1.26406609898139e+005,-1.75603594966076e+001,-3.63497861213233e+000

1.28171180414339e+005,-1.75606868259995e+001,-3.68508787098923e+000

1.29960383416997e+005,-1.75610215031508e+001,-3.73587473969960e+000

1.31774562762811e+005,-1.75613636518161e+001,-3.78734804377250e+000

1.33614067108538e+005,-1.75617133961033e+001,-3.83951672095144e+000

1.35479249978003e+005,-1.75620708604060e+001,-3.89238982303945e+000

1.37370469830040e+005,-1.75624361693352e+001,-3.94597651778228e+000

1.39288090127379e+005,-1.75628094476513e+001,-4.00028609081180e+000

1.41232479406504e+005,-1.75631908201942e+001,-4.05532794765123e+000

1.43204011348474e+005,-1.75635804118147e+001,-4.11111161578529e+000

1.45203064850745e+005,-1.75639783473054e+001,-4.16764674679458e+000

1.47230024099979e+005,-1.75643847513324e+001,-4.22494311855884e+000

1.49285278645888e+005,-1.75647997483678e+001,-4.28301063752848e+000

1.51369223476094e+005,-1.75652234626235e+001,-4.34185934106801e+000

1.53482259092041e+005,-1.75656560179870e+001,-4.40149939987090e+000

1.55624791585964e+005,-1.75660975379584e+001,-4.46194112044898e+000

1.57797232718936e+005,-1.75665481455912e+001,-4.52319494769660e+000

1.59999999999999e+005,-1.75670079634349e+001,-4.58527146753245e+000

1.62233516766403e+005,-1.75674771134816e+001,-4.64818140961689e+000

1.64498212264969e+005,-1.75679557171166e+001,-4.71193565015049e+000

1.66794521734578e+005,-1.75684438950734e+001,-4.77654521474876e+000

1.69122886489819e+005,-1.75689417673934e+001,-4.84202128139978e+000

1.71483754005805e+005,-1.75694494533917e+001,-4.90837518350087e+000

1.73877578004168e+005,-1.75699670716283e+001,-4.97561841297466e+000

1.76304818540256e+005,-1.75704947398868e+001,-5.04376262346879e+000

1.78765942091554e+005,-1.75710325751598e+001,-5.11281963363297e+000

1.81261421647326e+005,-1.75715806936424e+001,-5.18280143047808e+000

1.83791736799524e+005,-1.75721392107341e+001,-5.25372017281409e+000

1.86357373834951e+005,-1.75727082410498e+001,-5.32558819476594e+000

1.88958825828723e+005,-1.75732878984409e+001,-5.39841800936777e+000

1.91596592739027e+005,-1.75738782960258e+001,-5.47222231223269e+000

1.94271181503206e+005,-1.75744795462324e+001,-5.54701398529614e+000

1.96983106135185e+005,-1.75750917608517e+001,-5.62280610063294e+000

1.99732887824256e+005,-1.75757150511031e+001,-5.69961192434265e+000

2.02521055035243e+005,-1.75763495277131e+001,-5.77744492050491e+000

2.05348143610063e+005,-1.75769953010069e+001,-5.85631875519749e+000

2.08214696870707e+005,-1.75776524810143e+001,-5.93624730057721e+000

2.11121265723661e+005,-1.75783211775889e+001,-6.01724463901945e+000

2.14068408765776e+005,-1.75790015005436e+001,-6.09932506731283e+000

2.17056692391625e+005,-1.75796935598002e+001,-6.18250310090413e+000

2.20086690902357e+005,-1.75803974655557e+001,-6.26679347819148e+000

2.23158986616063e+005,-1.75811133284641e+001,-6.35221116486084e+000

2.26274169979693e+005,-1.75818412598350e+001,-6.43877135825916e+000

2.29432839682530e+005,-1.75825813718494e+001,-6.52648949180321e+000

2.32635602771247e+005,-1.75833337777920e+001,-6.61538123941688e+000

2.35883074766574e+005,-1.75840985923016e+001,-6.70546251999220e+000

2.39175879781588e+005,-1.75848759316388e+001,-6.79674950186907e+000

2.42514650641661e+005,-1.75856659139709e+001,-6.88925860732989e+000

2.45900029006080e+005,-1.75864686596758e+001,-6.98300651710096e+000

2.49332665491357e+005,-1.75872842916624e+001,-7.07801017485791e+000

2.52813219796278e+005,-1.75881129357101e+001,-7.17428679172843e+000

2.56342360828676e+005,-1.75889547208248e+001,-7.27185385078754e+000

2.59920766833993e+005,-1.75898097796138e+001,-7.37072911153849e+000

2.63549125525621e+005,-1.75906782486767e+001,-7.47093061437694e+000

2.67228134217075e+005,-1.75915602690148e+001,-7.57247668502978e+000

2.70958499956006e+005,-1.75924559864567e+001,-7.67538593896570e+000

2.74740939660078e+005,-1.75933655521002e+001,-7.77967728577253e+000

2.78576180254757e+005,-1.75942891227708e+001,-7.88536993349502e+000

2.82464958813007e+005,-1.75952268614957e+001,-7.99248339292966e+000

2.86408022696948e+005,-1.75961789379929e+001,-8.10103748187258e+000

2.90406129701488e+005,-1.75971455291747e+001,-8.21105232931465e+000

2.94460048199957e+005,-1.75981268196655e+001,-8.32254837958250e+000

2.98570557291775e+005,-1.75991230023331e+001,-8.43554639641896e+000

3.02738446952187e+005,-1.76001342788319e+001,-8.55006746700342e+000

3.06964518184081e+005,-1.76011608601596e+001,-8.66613300590430e+000

3.11249583171928e+005,-1.76022029672233e+001,-8.78376475896766e+000

3.15594465437872e+005,-1.76032608314179e+001,-8.90298480713267e+000

3.19999999999997e+005,-1.76043346952135e+001,-9.02381557017863e+000

3.24467033532806e+005,-1.76054248127516e+001,-9.14627981039776e+000

3.28996424529938e+005,-1.76065314504503e+001,-9.27040063619485e+000

3.33589043469155e+005,-1.76076548876165e+001,-9.39620150561333e+000

3.38245772979638e+005,-1.76087954170649e+001,-9.52370622978611e+000

3.42967508011610e+005,-1.76099533457435e+001,-9.65293897631364e+000

3.47755156008335e+005,-1.76111289953634e+001,-9.78392427256810e+000

3.52609637080511e+005,-1.76123227030341e+001,-9.91668700892480e+000

3.57531884183106e+005,-1.76135348219023e+001,-1.00512524419241e+001

3.62522843294651e+005,-1.76147657217935e+001,-1.01876461973620e+001

3.67583473599047e+005,-1.76160157898567e+001,-1.03258942733158e+001

3.72714747669902e+005,-1.76172854312110e+001,-1.04660230431032e+001

3.77917651657445e+005,-1.76185750695933e+001,-1.06080592581799e+001

3.83193185478053e+005,-1.76198851480070e+001,-1.07520300509778e+001

3.88542363006410e+005,-1.76212161293717e+001,-1.08979629376864e+001

3.93966212270369e+005,-1.76225684971720e+001,-1.10458858209816e+001

3.99465775648511e+005,-1.76239427561070e+001,-1.11958269927051e+001

4.05042110070485e+005,-1.76253394327384e+001,-1.13478151364967e+001

4.10696287220124e+005,-1.76267590761381e+001,-1.15018793303853e+001

4.16429393741414e+005,-1.76282022585351e+001,-1.16580490493402e+001

4.22242531447321e+005,-1.76296695759610e+001,-1.18163541677884e+001

4.28136817531551e+005,-1.76311616488936e+001,-1.19768249620997e+001

4.34113384783250e+005,-1.76326791229009e+001,-1.21394921130451e+001

4.40173381804713e+005,-1.76342226692825e+001,-1.23043867082300e+001

4.46317973232124e+005,-1.76357929857104e+001,-1.24715402445088e+001

4.52548339959385e+005,-1.76373907968695e+001,-1.26409846303808e+001

4.58865679365059e+005,-1.76390168550963e+001,-1.28127521883728e+001

4.65271205542494e+005,-1.76406719410183e+001,-1.29868756574110e+001

4.71766149533147e+005,-1.76423568641924e+001,-1.31633881951853e+001

4.78351759563174e+005,-1.76440724637444e+001,-1.33423233805071e+001

4.85029301283321e+005,-1.76458196090084e+001,-1.35237152156640e+001

4.91800058012158e+005,-1.76475992001677e+001,-1.37075981287743e+001

4.98665330982714e+005,-1.76494121688972e+001,-1.38940069761413e+001

5.05626439592555e+005,-1.76512594790075e+001,-1.40829770446081e+001

5.12684721657352e+005,-1.76531421270925e+001,-1.42745440539175e+001

5.19841533667984e+005,-1.76550611431792e+001,-1.44687441590732e+001

5.27098251051240e+005,-1.76570175913811e+001,-1.46656139527055e+001

5.34456268434150e+005,-1.76590125705573e+001,-1.48651904674400e+001

5.41916999912011e+005,-1.76610472149746e+001,-1.50675111782695e+001

