Freq.,VOut,OutRef

1.00000000000000e+004,-1.97278657241766e+001,-2.82135874071723e-001

1.01395947979003e+004,-1.97278686918218e+001,-2.86073862517422e-001

1.02811382665607e+004,-1.97278717427682e+001,-2.90066802810367e-001

1.04246576084112e+004,-1.97278748793504e+001,-2.94115461183671e-001

1.05701804056138e+004,-1.97278781039677e+001,-2.98220614532738e-001

1.07177346253629e+004,-1.97278814190873e+001,-3.02383050555517e-001

1.08673486252606e+004,-1.97278848272444e+001,-3.06603567910540e-001

1.10190511587661e+004,-1.97278883310456e+001,-3.10882976360839e-001

1.11728713807222e+004,-1.97278919331699e+001,-3.15222096931349e-001

1.13288388529580e+004,-1.97278956363713e+001,-3.19621762061884e-001

1.14869835499703e+004,-1.97278994434802e+001,-3.24082815768646e-001

1.16473358646846e+004,-1.97279033574066e+001,-3.28606113797388e-001

1.18099266142953e+004,-1.97279073811412e+001,-3.33192523791315e-001

1.19747870461893e+004,-1.97279115177582e+001,-3.37842925450547e-001

1.21419488439505e+004,-1.97279157704174e+001,-3.42558210702200e-001

1.23114441334492e+004,-1.97279201423668e+001,-3.47339283864485e-001

1.24833054890161e+004,-1.97279246369449e+001,-3.52187061820108e-001

1.26575659397028e+004,-1.97279292575830e+001,-3.57102474189651e-001

1.28342589756290e+004,-1.97279340078083e+001,-3.62086463502969e-001

1.30134185544193e+004,-1.97279388912457e+001,-3.67139985381614e-001

1.31950791077289e+004,-1.97279439116216e+001,-3.72264008714058e-001

1.33792755478611e+004,-1.97279490727655e+001,-3.77459515842947e-001

1.35660432744767e+004,-1.97279543786136e+001,-3.82727502744214e-001

1.37554181813974e+004,-1.97279598332118e+001,-3.88068979219030e-001

1.39474366635040e+004,-1.97279654407182e+001,-3.93484969079735e-001

1.41421356237309e+004,-1.97279712054067e+001,-3.98976510344349e-001

1.43395524801583e+004,-1.97279771316695e+001,-4.04544655431082e-001

1.45397251732031e+004,-1.97279832240213e+001,-4.10190471353822e-001

1.47426921729110e+004,-1.97279894871017e+001,-4.15915039923318e-001

1.49484924863494e+004,-1.97279959256793e+001,-4.21719457949750e-001

1.51571656651040e+004,-1.97280025446549e+001,-4.27604837446784e-001

1.53687518128801e+004,-1.97280093490653e+001,-4.33572305840042e-001

1.55832915932100e+004,-1.97280163440868e+001,-4.39623006177909e-001

1.58008262372675e+004,-1.97280235350393e+001,-4.45758097343286e-001

1.60213975517924e+004,-1.97280309273897e+001,-4.51978754271868e-001

1.62450479271247e+004,-1.97280385267568e+001,-4.58286168168328e-001

1.64718203453514e+004,-1.97280463389143e+001,-4.64681546730997e-001

1.67017583885674e+004,-1.97280543697961e+001,-4.71166114372643e-001

1.69349062472505e+004,-1.97280626254998e+001,-4.77741112452104e-001

1.71713087287550e+004,-1.97280711122918e+001,-4.84407799500370e-001

1.74110112659224e+004,-1.97280798366115e+001,-4.91167451457743e-001

1.76540599258131e+004,-1.97280888050761e+001,-4.98021361906697e-001

1.79005014185594e+004,-1.97280980244851e+001,-5.04970842315202e-001

1.81503831063432e+004,-1.97281075018261e+001,-5.12017222273413e-001

1.84037530124975e+004,-1.97281172442787e+001,-5.19161849745684e-001

1.86606598307361e+004,-1.97281272592210e+001,-5.26406091313295e-001

1.89211529345119e+004,-1.97281375542336e+001,-5.33751332430246e-001

1.91852823865052e+004,-1.97281481371060e+001,-5.41198977677046e-001

1.94530989482457e+004,-1.97281590158419e+001,-5.48750451016520e-001

1.97246540898671e+004,-1.97281701986651e+001,-5.56407196058190e-001

1.99999999999999e+004,-1.97281816940248e+001,-5.64170676322561e-001

2.02791895958005e+004,-1.97281935106027e+001,-5.72042375506842e-001

2.05622765331213e+004,-1.97282056573183e+001,-5.80023797758006e-001

2.08493152168224e+004,-1.97282181433357e+001,-5.88116467946695e-001

2.11403608112276e+004,-1.97282309780700e+001,-5.96321931945251e-001

2.14354692507258e+004,-1.97282441711939e+001,-6.04641756910814e-001

2.17346972505211e+004,-1.97282577326448e+001,-6.13077531566366e-001

2.20381023175322e+004,-1.97282716726315e+001,-6.21630866493055e-001

2.23457427614443e+004,-1.97282860016418e+001,-6.30303394419479e-001

2.26576777059159e+004,-1.97283007304493e+001,-6.39096770519191e-001

2.29739670999406e+004,-1.97283158701217e+001,-6.48012672706620e-001

2.32946717293690e+004,-1.97283314320278e+001,-6.57052801942575e-001

2.36198532285905e+004,-1.97283474278459e+001,-6.66218882539811e-001

2.39495740923785e+004,-1.97283638695717e+001,-6.75512662471483e-001

2.42838976879009e+004,-1.97283807695271e+001,-6.84935913685109e-001

2.46228882668982e+004,-1.97283981403677e+001,-6.94490432421801e-001

2.49666109780322e+004,-1.97284159950927e+001,-7.04178039533956e-001

2.53151318794055e+004,-1.97284343470530e+001,-7.14000580812346e-001

2.56685179512580e+004,-1.97284532099607e+001,-7.23959927314488e-001

2.60268371088386e+004,-1.97284725978985e+001,-7.34057975694867e-001

2.63901582154578e+004,-1.97284925253291e+001,-7.44296648543793e-001

2.67585510957221e+004,-1.97285130071049e+001,-7.54677894725833e-001

2.71320865489533e+004,-1.97285340584785e+001,-7.65203689723545e-001

2.75108363627948e+004,-1.97285556951124e+001,-7.75876035985856e-001

2.78948733270080e+004,-1.97285779330902e+001,-7.86696963278863e-001

2.82842712474618e+004,-1.97286007889262e+001,-7.97668529043962e-001

2.86791049603164e+004,-1.97286242795778e+001,-8.08792818753046e-001

2.90794503464061e+004,-1.97286484224554e+001,-8.20071946276467e-001

2.94853843458219e+004,-1.97286732354348e+001,-8.31508054247115e-001

2.98969849726987e+004,-1.97286987368687e+001,-8.43103314434320e-001

3.03143313302078e+004,-1.97287249455980e+001,-8.54859928119006e-001

3.07375036257601e+004,-1.97287518809653e+001,-8.66780126471717e-001

3.11665831864199e+004,-1.97287795628261e+001,-8.78866170938441e-001

3.16016524745350e+004,-1.97288080115625e+001,-8.91120353626847e-001

3.20427951035848e+004,-1.97288372480958e+001,-9.03544997698374e-001

3.24900958542493e+004,-1.97288672939000e+001,-9.16142457765337e-001

3.29436406907028e+004,-1.97288981710151e+001,-9.28915120288789e-001

3.34035167771346e+004,-1.97289299020612e+001,-9.41865403984682e-001

3.38698124945009e+004,-1.97289625102526e+001,-9.54995760230961e-001

3.43426174575100e+004,-1.97289960194121e+001,-9.68308673480410e-001

3.48220225318448e+004,-1.97290304539859e+001,-9.81806661676725e-001

3.53081198516260e+004,-1.97290658390583e+001,-9.95492276675286e-001

3.58010028371187e+004,-1.97291022003671e+001,-1.00936810466777e+000

3.63007662126863e+004,-1.97291395643193e+001,-1.02343676661184e+000

3.68075060249948e+004,-1.97291779580066e+001,-1.03770091866291e+000

3.73213196614721e+004,-1.97292174092218e+001,-1.05216325261225e+000

3.78423058690237e+004,-1.97292579464753e+001,-1.06682649632727e+000

3.83705647730104e+004,-1.97292995990112e+001,-1.08169341419807e+000

3.89061978964912e+004,-1.97293423968250e+001,-1.09676680758664e+000

3.94493081797342e+004,-1.97293863706806e+001,-1.11204951527911e+000

3.99999999999998e+004,-1.97294315521274e+001,-1.12754441394564e+000

4.05583791916010e+004,-1.97294779735189e+001,-1.14325441860031e+000

4.11245530662425e+004,-1.97295256680305e+001,-1.15918248306806e+000

4.16986304336447e+004,-1.97295746696774e+001,-1.17533160045444e+000

4.22807216224550e+004,-1.97296250133341e+001,-1.19170480361999e+000

4.28709385014515e+004,-1.97296767347525e+001,-1.20830516565670e+000

4.34693945010421e+004,-1.97297298705818e+001,-1.22513580037224e+000

4.40762046350642e+004,-1.97297844583873e+001,-1.24219986277473e+000

4.46914855228886e+004,-1.97298405366704e+001,-1.25950054956359e+000

4.53153554118317e+004,-1.97298981448887e+001,-1.27704109962221e+000

4.59479341998812e+004,-1.97299573234756e+001,-1.29482479451770e+000

4.65893434587380e+004,-1.97300181138614e+001,-1.31285495900228e+000

4.72397064571810e+004,-1.97300805584930e+001,-1.33113496151852e+000

4.78991481847569e+004,-1.97301447008555e+001,-1.34966821471055e+000

4.85677953758016e+004,-1.97302105854929e+001,-1.36845817593616e+000

4.92457765337964e+004,-1.97302782580289e+001,-1.38750834778541e+000

4.99332219560642e+004,-1.97303477651889e+001,-1.40682227860214e+000

5.06302637588109e+004,-1.97304191548207e+001,-1.42640356300949e+000

5.13370359025159e+004,-1.97304924759168e+001,-1.44625584243783e+000

5.20536742176771e+004,-1.97305677786357e+001,-1.46638280565933e+000

5.27803164309155e+004,-1.97306451143236e+001,-1.48678818932366e+000

5.35171021914442e+004,-1.97307245355368e+001,-1.50747577849897e+000

5.42641730979066e+004,-1.97308060960631e+001,-1.52844940721710e+000

5.50216727255895e+004,-1.97308898509438e+001,-1.54971295902040e+000

5.57897466540159e+004,-1.97309758564961e+001,-1.57127036751504e+000

5.65685424949235e+004,-1.97310641703346e+001,-1.59312561692549e+000

5.73582099206328e+004,-1.97311548513932e+001,-1.61528274265648e+000

5.81589006928121e+004,-1.97312479599474e+001,-1.63774583185362e+000

5.89707686916437e+004,-1.97313435576351e+001,-1.66051902397370e+000

5.97939699453972e+004,-1.97314417074789e+001,-1.68360651135419e+000

6.06286626604156e+004,-1.97315424739074e+001,-1.70701253978841e+000

6.14750072515201e+004,-1.97316459227759e+001,-1.73074140910649e+000

6.23331663728396e+004,-1.97317521213878e+001,-1.75479747375648e+000

6.32033049490698e+004,-1.97318611385146e+001,-1.77918514339368e+000

6.40855902071694e+004,-1.97319730444168e+001,-1.80390888347080e+000

6.49801917084985e+004,-1.97320879108635e+001,-1.82897321583460e+000

6.58872813814055e+004,-1.97322058111516e+001,-1.85438271932581e+000

6.68070335542691e+004,-1.97323268201253e+001,-1.88014203038357e+000

6.77396249890018e+004,-1.97324510141941e+001,-1.90625584365505e+000

6.86852349150199e+004,-1.97325784713508e+001,-1.93272891261023e+000

6.96440450636895e+004,-1.97327092711886e+001,-1.95956605015889e+000

7.06162397032520e+004,-1.97328434949181e+001,-1.98677212927655e+000

7.16020056742374e+004,-1.97329812253824e+001,-2.01435208363342e+000

7.26015324253724e+004,-1.97331225470727e+001,-2.04231090822854e+000

7.36150120499896e+004,-1.97332675461419e+001,-2.07065366003092e+000

7.46426393229441e+004,-1.97334163104182e+001,-2.09938545862653e+000

7.56846117380472e+004,-1.97335689294169e+001,-2.12851148687035e+000

7.67411295460207e+004,-1.97337254943517e+001,-2.15803699154747e+000

7.78123957929823e+004,-1.97338860981446e+001,-2.18796728403796e+000

7.88986163594682e+004,-1.97340508354347e+001,-2.21830774099275e+000

7.99999999999995e+004,-1.97342198025856e+001,-2.24906380501362e+000

8.11167583832018e+004,-1.97343930976914e+001,-2.28024098534455e+000

8.22491061324848e+004,-1.97345708205818e+001,-2.31184485856980e+000

8.33972608672892e+004,-1.97347530728247e+001,-2.34388106932241e+000

8.45614432449099e+004,-1.97349399577282e+001,-2.37635533100134e+000

8.57418770029029e+004,-1.97351315803404e+001,-2.40927342650053e+000

8.69387890020841e+004,-1.97353280474477e+001,-2.44264120894700e+000

8.81524092701283e+004,-1.97355294675710e+001,-2.47646460245330e+000

8.93829710457770e+004,-1.97357359509606e+001,-2.51074960287953e+000

9.06307108236633e+004,-1.97359476095882e+001,-2.54550227861067e+000

9.18958683997622e+004,-1.97361645571381e+001,-2.58072877134785e+000

9.31786869174758e+004,-1.97363869089951e+001,-2.61643529691305e+000

9.44794129143618e+004,-1.97366147822310e+001,-2.65262814607141e+000

9.57982963695136e+004,-1.97368482955885e+001,-2.68931368536996e+000

9.71355907516031e+004,-1.97370875694630e+001,-2.72649835799400e+000

9.84915530675926e+004,-1.97373327258819e+001,-2.76418868464227e+000

9.98664439121282e+004,-1.97375838884817e+001,-2.80239126442346e+000

1.01260527517622e+005,-1.97378411824821e+001,-2.84111277577301e+000

1.02674071805032e+005,-1.97381047346583e+001,-2.88035997739337e+000

1.04107348435354e+005,-1.97383746733100e+001,-2.92013970921808e+000

1.05560632861831e+005,-1.97386511282287e+001,-2.96045889340155e+000

1.07034204382888e+005,-1.97389342306613e+001,-3.00132453533519e+000

1.08528346195813e+005,-1.97392241132719e+001,-3.04274372469347e+000

1.10043345451179e+005,-1.97395209101005e+001,-3.08472363650811e+000

1.11579493308032e+005,-1.97398247565197e+001,-3.12727153227557e+000

1.13137084989847e+005,-1.97401357891875e+001,-3.17039476109764e+000

1.14716419841265e+005,-1.97404541459990e+001,-3.21410076085635e+000

1.16317801385624e+005,-1.97407799660343e+001,-3.25839705942780e+000

1.17941537383287e+005,-1.97411133895045e+001,-3.30329127593325e+000

1.19587939890794e+005,-1.97414545576952e+001,-3.34879112203150e+000

1.21257325320831e+005,-1.97418036129073e+001,-3.39490440325441e+000

1.22950014503040e+005,-1.97421606983958e+001,-3.44163902038735e+000

1.24666332745679e+005,-1.97425259583062e+001,-3.48900297089655e+000

1.26406609898139e+005,-1.97428995376090e+001,-3.53700435040461e+000

1.28171180414339e+005,-1.97432815820325e+001,-3.58565135421835e+000

1.29960383416997e+005,-1.97436722379929e+001,-3.63495227890886e+000

1.31774562762811e+005,-1.97440716525242e+001,-3.68491552394834e+000

1.33614067108538e+005,-1.97444799732057e+001,-3.73554959340322e+000

1.35479249978003e+005,-1.97448973480888e+001,-3.78686309768732e+000

1.37370469830040e+005,-1.97453239256232e+001,-3.83886475537727e+000

1.39288090127379e+005,-1.97457598545816e+001,-3.89156339509201e+000

1.41232479406504e+005,-1.97462052839852e+001,-3.94496795743774e+000

1.43204011348474e+005,-1.97466603630286e+001,-3.99908749702259e+000

1.45203064850745e+005,-1.97471252410053e+001,-4.05393118453924e+000

1.47230024099979e+005,-1.97476000672337e+001,-4.10950830892157e+000

1.49285278645888e+005,-1.97480849909850e+001,-4.16582827957543e+000

1.51369223476094e+005,-1.97485801614113e+001,-4.22290062868402e+000

1.53482259092041e+005,-1.97490857274776e+001,-4.28073501359130e+000

1.55624791585964e+005,-1.97496018378947e+001,-4.33934121926571e+000

1.57797232718936e+005,-1.97501286410563e+001,-4.39872916084256e+000

1.59999999999999e+005,-1.97506662849785e+001,-4.45890888625027e+000

1.62233516766403e+005,-1.97512149172447e+001,-4.51989057891839e+000

1.64498212264969e+005,-1.97517746849542e+001,-4.58168456057006e+000

1.66794521734578e+005,-1.97523457346767e+001,-4.64430129409986e+000

1.69122886489819e+005,-1.97529282124120e+001,-4.70775138653647e+000

1.71483754005805e+005,-1.97535222635571e+001,-4.77204559209180e+000

1.73877578004168e+005,-1.97541280328801e+001,-4.83719481529528e+000

1.76304818540256e+005,-1.97547456645014e+001,-4.90321011421576e+000

1.78765942091554e+005,-1.97553753018844e+001,-4.97010270376756e+000

1.81261421647326e+005,-1.97560170878346e+001,-5.03788395910276e+000

1.83791736799524e+005,-1.97566711645096e+001,-5.10656541908629e+000

1.86357373834951e+005,-1.97573376734385e+001,-5.17615878985614e+000

1.88958825828723e+005,-1.97580167555533e+001,-5.24667594846382e+000

1.91596592739027e+005,-1.97587085512329e+001,-5.31812894659442e+000

1.94271181503206e+005,-1.97594132003586e+001,-5.39053001436670e+000

1.96983106135185e+005,-1.97601308423840e+001,-5.46389156420614e+000

1.99732887824256e+005,-1.97608616164188e+001,-5.53822619479279e+000

2.02521055035243e+005,-1.97616056613271e+001,-5.61354669507758e+000

2.05348143610063e+005,-1.97623631158418e+001,-5.68986604836714e+000

2.08214696870707e+005,-1.97631341186945e+001,-5.76719743646977e+000

2.11121265723661e+005,-1.97639188087621e+001,-5.84555424390101e+000

2.14068408765776e+005,-1.97647173252315e+001,-5.92495006214556e+000

2.17056692391625e+005,-1.97655298077811e+001,-6.00539869396754e+000

2.20086690902357e+005,-1.97663563967811e+001,-6.08691415776772e+000

2.23158986616063e+005,-1.97671972335132e+001,-6.16951069198133e+000

2.26274169979693e+005,-1.97680524604081e+001,-6.25320275951107e+000

2.29432839682530e+005,-1.97689222213041e+001,-6.33800505218939e+000

2.32635602771247e+005,-1.97698066617249e+001,-6.42393249526657e+000

2.35883074766574e+005,-1.97707059291777e+001,-6.51100025191572e+000

2.39175879781588e+005,-1.97716201734721e+001,-6.59922372775033e+000

2.42514650641661e+005,-1.97725495470589e+001,-6.68861857534886e+000

2.45900029006080e+005,-1.97734942053905e+001,-6.77920069877784e+000

2.49332665491357e+005,-1.97744543073013e+001,-6.87098625811023e+000

2.52813219796278e+005,-1.97754300154094e+001,-6.96399167392913e+000

2.56342360828676e+005,-1.97764214965386e+001,-7.05823363181386e+000

2.59920766833993e+005,-1.97774289221611e+001,-7.15372908679972e+000

2.63549125525621e+005,-1.97784524688603e+001,-7.25049526780630e+000

2.67228134217075e+005,-1.97794923188138e+001,-7.34854968202747e+000

2.70958499956006e+005,-1.97805486602960e+001,-7.44791011927781e+000

2.74740939660078e+005,-1.97816216881997e+001,-7.54859465628913e+000

2.78576180254757e+005,-1.97827116045774e+001,-7.65062166095076e+000

2.82464958813007e+005,-1.97838186191993e+001,-7.75400979648957e+000

2.86408022696948e+005,-1.97849429501309e+001,-7.85877802558321e+000

2.90406129701488e+005,-1.97860848243260e+001,-7.96494561440291e+000

2.94460048199957e+005,-1.97872444782375e+001,-8.07253213657977e+000

2.98570557291775e+005,-1.97884221584427e+001,-8.18155747709160e+000

3.02738446952187e+005,-1.97896181222843e+001,-8.29204183606573e+000

3.06964518184081e+005,-1.97908326385255e+001,-8.40400573249487e+000

3.11249583171928e+005,-1.97920659880184e+001,-8.51747000786241e+000

3.15594465437872e+005,-1.97933184643842e+001,-8.63245582967481e+000

3.19999999999997e+005,-1.97945903747063e+001,-8.74898469489887e+000

3.24467033532806e+005,-1.97958820402334e+001,-8.86707843330220e+000

3.28996424529938e+005,-1.97971937970924e+001,-8.98675921069485e+000

3.33589043469155e+005,-1.97985259970105e+001,-9.10804953207299e+000

3.38245772979638e+005,-1.97998790080459e+001,-9.23097224466236e+000

3.42967508011610e+005,-1.98012532153251e+001,-9.35555054086179e+000

3.47755156008335e+005,-1.98026490217867e+001,-9.48180796108976e+000

3.52609637080511e+005,-1.98040668489317e+001,-9.60976839652957e+000

3.57531884183106e+005,-1.98055071375776e+001,-9.73945609178131e+000

3.62522843294651e+005,-1.98069703486167e+001,-9.87089564741657e+000

3.67583473599047e+005,-1.98084569637787e+001,-1.00041120224401e+001

3.72714747669902e+005,-1.98099674863951e+001,-1.01391305366617e+001

3.77917651657445e+005,-1.98115024421656e+001,-1.02759768729800e+001

3.83193185478053e+005,-1.98130623799267e+001,-1.04146770795802e+001

3.88542363006410e+005,-1.98146478724209e+001,-1.05552575720513e+001

3.93966212270369e+005,-1.98162595170661e+001,-1.06977451354242e+001

3.99465775648511e+005,-1.98178979367256e+001,-1.08421669261347e+001

4.05042110070485e+005,-1.98195637804779e+001,-1.09885504739170e+001

4.10696287220124e+005,-1.98212577243853e+001,-1.11369236836281e+001

4.16429393741414e+005,-1.98229804722628e+001,-1.12873148370104e+001

4.22242531447321e+005,-1.98247327564452e+001,-1.14397525943937e+001

4.28136817531551e+005,-1.98265153385542e+001,-1.15942659963434e+001

4.34113384783250e+005,-1.98283290102637e+001,-1.17508844652557e+001

4.40173381804713e+005,-1.98301745940647e+001,-1.19096378069055e+001

4.46317973232124e+005,-1.98320529440297e+001,-1.20705562119508e+001

4.52548339959385e+005,-1.98339649465757e+001,-1.22336702573955e+001

4.58865679365059e+005,-1.98359115212274e+001,-1.23990109080156e+001

4.65271205542494e+005,-1.98378936213805e+001,-1.25666095177512e+001

4.71766149533147e+005,-1.98399122350652e+001,-1.27364978310662e+001

4.78351759563174e+005,-1.98419683857097e+001,-1.29087079842802e+001

4.85029301283321e+005,-1.98440631329061e+001,-1.30832725068724e+001

4.91800058012158e+005,-1.98461975731766e+001,-1.32602243227625e+001

4.98665330982714e+005,-1.98483728407429e+001,-1.34395967515652e+001

5.05626439592555e+005,-1.98505901082980e+001,-1.36214235098258e+001

5.12684721657352e+005,-1.98528505877807e+001,-1.38057387122317e+001

5.19841533667984e+005,-1.98551555311549e+001,-1.39925768728032e+001

5.27098251051240e+005,-1.98575062311929e+001,-1.41819729060632e+001

5.34456268434150e+005,-1.98599040222641e+001,-1.43739621281841e+001

5.41916999912011e+005,-1.98623502811295e+001,-1.45685802581122e+001

