Freq.,VOut,OutRef

1.00000000000000e+004,-2.06078470793692e+001,-3.65013314022825e-001

1.01395947979003e+004,-2.06078513601886e+001,-3.70108059757675e-001

1.02811382665607e+004,-2.06078557611837e+001,-3.75273897916619e-001

1.04246576084112e+004,-2.06078602857229e+001,-3.80511819745061e-001

1.05701804056138e+004,-2.06078649372693e+001,-3.85822830274782e-001

1.07177346253629e+004,-2.06078697193824e+001,-3.91207948516991e-001

1.08673486252606e+004,-2.06078746357210e+001,-3.96668207654512e-001

1.10190511587661e+004,-2.06078796900464e+001,-4.02204655235634e-001

1.11728713807222e+004,-2.06078848862250e+001,-4.07818353373791e-001

1.13288388529580e+004,-2.06078902282306e+001,-4.13510378950374e-001

1.14869835499703e+004,-2.06078957201488e+001,-4.19281823811771e-001

1.16473358646846e+004,-2.06079013661784e+001,-4.25133794984491e-001

1.18099266142953e+004,-2.06079071706358e+001,-4.31067414877299e-001

1.19747870461893e+004,-2.06079131379577e+001,-4.37083821496210e-001

1.21419488439505e+004,-2.06079192727046e+001,-4.43184168658259e-001

1.23114441334492e+004,-2.06079255795642e+001,-4.49369626209323e-001

1.24833054890161e+004,-2.06079320633549e+001,-4.55641380244890e-001

1.26575659397028e+004,-2.06079387290291e+001,-4.62000633333810e-001

1.28342589756290e+004,-2.06079455816779e+001,-4.68448604741768e-001

1.30134185544193e+004,-2.06079526265333e+001,-4.74986530666233e-001

1.31950791077289e+004,-2.06079598689739e+001,-4.81615664463001e-001

1.33792755478611e+004,-2.06079673145275e+001,-4.88337276886106e-001

1.35660432744767e+004,-2.06079749688761e+001,-4.95152656323476e-001

1.37554181813974e+004,-2.06079828378595e+001,-5.02063109041295e-001

1.39474366635040e+004,-2.06079909274803e+001,-5.09069959427479e-001

1.41421356237309e+004,-2.06079992439080e+001,-5.16174550239173e-001

1.43395524801583e+004,-2.06080077934834e+001,-5.23378242856659e-001

1.45397251732031e+004,-2.06080165827240e+001,-5.30682417535588e-001

1.47426921729110e+004,-2.06080256183279e+001,-5.38088473667734e-001

1.49484924863494e+004,-2.06080349071794e+001,-5.45597830040825e-001

1.51571656651040e+004,-2.06080444563544e+001,-5.53211925102132e-001

1.53687518128801e+004,-2.06080542731246e+001,-5.60932217231449e-001

1.55832915932100e+004,-2.06080643649639e+001,-5.68760185007460e-001

1.58008262372675e+004,-2.06080747395534e+001,-5.76697327487813e-001

1.60213975517924e+004,-2.06080854047872e+001,-5.84745164484745e-001

1.62450479271247e+004,-2.06080963687781e+001,-5.92905236850306e-001

1.64718203453514e+004,-2.06081076398640e+001,-6.01179106761078e-001

1.67017583885674e+004,-2.06081192266132e+001,-6.09568358008867e-001

1.69349062472505e+004,-2.06081311378318e+001,-6.18074596292922e-001

1.71713087287550e+004,-2.06081433825690e+001,-6.26699449520662e-001

1.74110112659224e+004,-2.06081559701249e+001,-6.35444568104889e-001

1.76540599258131e+004,-2.06081689100561e+001,-6.44311625272150e-001

1.79005014185594e+004,-2.06081822121838e+001,-6.53302317369834e-001

1.81503831063432e+004,-2.06081958866001e+001,-6.62418364180414e-001

1.84037530124975e+004,-2.06082099436760e+001,-6.71661509237291e-001

1.86606598307361e+004,-2.06082243940684e+001,-6.81033520146203e-001

1.89211529345119e+004,-2.06082392487283e+001,-6.90536188910345e-001

1.91852823865052e+004,-2.06082545189083e+001,-7.00171332259093e-001

1.94530989482457e+004,-2.06082702161712e+001,-7.09940791980552e-001

1.97246540898671e+004,-2.06082863523981e+001,-7.19846435260580e-001

1.99999999999999e+004,-2.06083029397969e+001,-7.29890155022276e-001

2.02791895958005e+004,-2.06083199909112e+001,-7.40073870274042e-001

2.05622765331213e+004,-2.06083375186297e+001,-7.50399526455886e-001

2.08493152168224e+004,-2.06083555361942e+001,-7.60869095799192e-001

2.11403608112276e+004,-2.06083740572109e+001,-7.71484577679723e-001

2.14354692507258e+004,-2.06083930956585e+001,-7.82247998984553e-001

2.17346972505211e+004,-2.06084126658992e+001,-7.93161414477597e-001

2.20381023175322e+004,-2.06084327826882e+001,-8.04226907173360e-001

2.23457427614443e+004,-2.06084534611849e+001,-8.15446588710946e-001

2.26576777059159e+004,-2.06084747169629e+001,-8.26822599737467e-001

2.29739670999406e+004,-2.06084965660215e+001,-8.38357110291286e-001

2.32946717293690e+004,-2.06085190247968e+001,-8.50052320194098e-001

2.36198532285905e+004,-2.06085421101734e+001,-8.61910459445377e-001

2.39495740923785e+004,-2.06085658394958e+001,-8.73933788620241e-001

2.42838976879009e+004,-2.06085902305814e+001,-8.86124599275138e-001

2.46228882668982e+004,-2.06086153017317e+001,-8.98485214357214e-001

2.49666109780322e+004,-2.06086410717462e+001,-9.11017988615928e-001

2.53151318794055e+004,-2.06086675599346e+001,-9.23725309023150e-001

2.56685179512580e+004,-2.06086947861308e+001,-9.36609595195616e-001

2.60268371088386e+004,-2.06087227707060e+001,-9.49673299824305e-001

2.63901582154578e+004,-2.06087515345831e+001,-9.62918909105590e-001

2.67585510957221e+004,-2.06087810992507e+001,-9.76348943179827e-001

2.71320865489533e+004,-2.06088114867781e+001,-9.89965956575250e-001

2.75108363627948e+004,-2.06088427198301e+001,-1.00377253865482e+000

2.78948733270080e+004,-2.06088748216824e+001,-1.01777131406867e+000

2.82842712474618e+004,-2.06089078162372e+001,-1.03196494321277e+000

2.86791049603164e+004,-2.06089417280397e+001,-1.04635612269126e+000

2.90794503464061e+004,-2.06089765822938e+001,-1.06094758578517e+000

2.94853843458219e+004,-2.06090124048798e+001,-1.07574210292341e+000

2.98969849726987e+004,-2.06090492223708e+001,-1.09074248216291e+000

3.03143313302078e+004,-2.06090870620509e+001,-1.10595156967069e+000

3.07375036257601e+004,-2.06091259519326e+001,-1.12137225021294e+000

3.11665831864199e+004,-2.06091659207758e+001,-1.13700744764727e+000

3.16016524745350e+004,-2.06092069981060e+001,-1.15286012542127e+000

3.20427951035848e+004,-2.06092492142338e+001,-1.16893328707807e+000

3.24900958542493e+004,-2.06092926002744e+001,-1.18522997676288e+000

3.29436406907028e+004,-2.06093371881678e+001,-1.20175327973800e+000

3.34035167771346e+004,-2.06093830106985e+001,-1.21850632290327e+000

3.38698124945009e+004,-2.06094301015174e+001,-1.23549227531711e+000

3.43426174575100e+004,-2.06094784951624e+001,-1.25271434873024e+000

3.48220225318448e+004,-2.06095282270803e+001,-1.27017579811692e+000

3.53081198516260e+004,-2.06095793336487e+001,-1.28787992221737e+000

3.58010028371187e+004,-2.06096318521990e+001,-1.30583006408112e+000

3.63007662126863e+004,-2.06096858210394e+001,-1.32402961161790e+000

3.68075060249948e+004,-2.06097412794780e+001,-1.34248199815435e+000

3.73213196614721e+004,-2.06097982678470e+001,-1.36119070299172e+000

3.78423058690237e+004,-2.06098568275271e+001,-1.38015925197469e+000

3.83705647730104e+004,-2.06099170009722e+001,-1.39939121806016e+000

3.89061978964912e+004,-2.06099788317349e+001,-1.41889022189514e+000

3.94493081797342e+004,-2.06100423644920e+001,-1.43865993239460e+000

3.99999999999998e+004,-2.06101076450708e+001,-1.45870406733166e+000

4.05583791916010e+004,-2.06101747204757e+001,-1.47902639392634e+000

4.11245530662425e+004,-2.06102436389153e+001,-1.49963072944215e+000

4.16986304336447e+004,-2.06103144498302e+001,-1.52052094178756e+000

4.22807216224550e+004,-2.06103872039204e+001,-1.54170095012316e+000

4.28709385014515e+004,-2.06104619531743e+001,-1.56317472547132e+000

4.34693945010421e+004,-2.06105387508972e+001,-1.58494629133355e+000

4.40762046350642e+004,-2.06106176517409e+001,-1.60701972431183e+000

4.46914855228886e+004,-2.06106987117331e+001,-1.62939915473335e+000

4.53153554118317e+004,-2.06107819883077e+001,-1.65208876728264e+000

4.59479341998812e+004,-2.06108675403355e+001,-1.67509280163619e+000

4.65893434587380e+004,-2.06109554281547e+001,-1.69841555310353e+000

4.72397064571810e+004,-2.06110457136027e+001,-1.72206137327304e+000

4.78991481847569e+004,-2.06111384600475e+001,-1.74603467065990e+000

4.85677953758016e+004,-2.06112337324202e+001,-1.77033991136279e+000

4.92457765337964e+004,-2.06113315972467e+001,-1.79498161972205e+000

4.99332219560642e+004,-2.06114321226812e+001,-1.81996437898366e+000

5.06302637588109e+004,-2.06115353785388e+001,-1.84529283196827e+000

5.13370359025159e+004,-2.06116414363291e+001,-1.87097168174310e+000

5.20536742176771e+004,-2.06117503692897e+001,-1.89700569230048e+000

5.27803164309155e+004,-2.06118622524204e+001,-1.92339968924022e+000

5.35171021914442e+004,-2.06119771625169e+001,-1.95015856045468e+000

5.42641730979066e+004,-2.06120951782055e+001,-1.97728725682129e+000

5.50216727255895e+004,-2.06122163799775e+001,-2.00479079289733e+000

5.57897466540159e+004,-2.06123408502239e+001,-2.03267424761963e+000

5.65685424949235e+004,-2.06124686732702e+001,-2.06094276500989e+000

5.73582099206328e+004,-2.06125999354111e+001,-2.08960155488264e+000

5.81589006928121e+004,-2.06127347249458e+001,-2.11865589355823e+000

5.89707686916437e+004,-2.06128731322127e+001,-2.14811112458176e+000

5.97939699453972e+004,-2.06130152496242e+001,-2.17797265944362e+000

6.06286626604156e+004,-2.06131611717019e+001,-2.20824597830825e+000

6.14750072515201e+004,-2.06133109951110e+001,-2.23893663074331e+000

6.23331663728396e+004,-2.06134648186950e+001,-2.27005023645723e+000

6.32033049490698e+004,-2.06136227435104e+001,-2.30159248603822e+000

6.40855902071694e+004,-2.06137848728599e+001,-2.33356914170175e+000

6.49801917084985e+004,-2.06139513123275e+001,-2.36598603803839e+000

6.58872813814055e+004,-2.06141221698106e+001,-2.39884908277037e+000

6.68070335542691e+004,-2.06142975555540e+001,-2.43216425751208e+000

6.77396249890018e+004,-2.06144775821819e+001,-2.46593761853453e+000

6.86852349150199e+004,-2.06146623647300e+001,-2.50017529753727e+000

6.96440450636895e+004,-2.06148520206767e+001,-2.53488350242438e+000

7.06162397032520e+004,-2.06150466699739e+001,-2.57006851808759e+000

7.16020056742374e+004,-2.06152464350769e+001,-2.60573670719344e+000

7.26015324253724e+004,-2.06154514409732e+001,-2.64189451097967e+000

7.36150120499896e+004,-2.06156618152109e+001,-2.67854845005602e+000

7.46426393229441e+004,-2.06158776879257e+001,-2.71570512521221e+000

7.56846117380472e+004,-2.06160991918670e+001,-2.75337121823430e+000

7.67411295460207e+004,-2.06163264624227e+001,-2.79155349272847e+000

7.78123957929823e+004,-2.06165596376430e+001,-2.83025879495173e+000

7.88986163594682e+004,-2.06167988582630e+001,-2.86949405465322e+000

7.99999999999995e+004,-2.06170442677230e+001,-2.90926628592302e+000

8.11167583832018e+004,-2.06172960121884e+001,-2.94958258805221e+000

8.22491061324848e+004,-2.06175542405674e+001,-2.99045014640140e+000

8.33972608672892e+004,-2.06178191045274e+001,-3.03187623328186e+000

8.45614432449099e+004,-2.06180907585088e+001,-3.07386820884774e+000

8.57418770029029e+004,-2.06183693597381e+001,-3.11643352200068e+000

8.69387890020841e+004,-2.06186550682380e+001,-3.15957971130821e+000

8.81524092701283e+004,-2.06189480468364e+001,-3.20331440593478e+000

8.93829710457770e+004,-2.06192484611721e+001,-3.24764532659027e+000

9.06307108236633e+004,-2.06195564796993e+001,-3.29258028649284e+000

9.18958683997622e+004,-2.06198722736896e+001,-3.33812719234893e+000

9.31786869174758e+004,-2.06201960172307e+001,-3.38429404535276e+000

9.44794129143618e+004,-2.06205278872240e+001,-3.43108894220446e+000

9.57982963695136e+004,-2.06208680633783e+001,-3.47852007614877e+000

9.71355907516031e+004,-2.06212167282022e+001,-3.52659573803608e+000

9.84915530675926e+004,-2.06215740669922e+001,-3.57532431740792e+000

9.98664439121282e+004,-2.06219402678198e+001,-3.62471430360551e+000

1.01260527517622e+005,-2.06223155215140e+001,-3.67477428690727e+000

1.02674071805032e+005,-2.06227000216424e+001,-3.72551295969234e+000

1.04107348435354e+005,-2.06230939644885e+001,-3.77693911763565e+000

1.05560632861831e+005,-2.06234975490261e+001,-3.82906166093403e+000

1.07034204382888e+005,-2.06239109768915e+001,-3.88188959556628e+000

1.08528346195813e+005,-2.06243344523515e+001,-3.93543203458892e+000

1.10043345451179e+005,-2.06247681822693e+001,-3.98969819946926e+000

1.11579493308032e+005,-2.06252123760672e+001,-4.04469742145888e+000

1.13137084989847e+005,-2.06256672456862e+001,-4.10043914300882e+000

1.14716419841265e+005,-2.06261330055430e+001,-4.15693291922865e+000

1.16317801385624e+005,-2.06266098724838e+001,-4.21418841939300e+000

1.17941537383287e+005,-2.06270980657356e+001,-4.27221542849655e+000

1.19587939890794e+005,-2.06275978068549e+001,-4.33102384886036e+000

1.21257325320831e+005,-2.06281093196734e+001,-4.39062370179369e+000

1.22950014503040e+005,-2.06286328302420e+001,-4.45102512930969e+000

1.24666332745679e+005,-2.06291685667720e+001,-4.51223839590350e+000

1.26406609898139e+005,-2.06297167595744e+001,-4.57427389039020e+000

1.28171180414339e+005,-2.06302776409977e+001,-4.63714212780770e+000

1.29960383416997e+005,-2.06308514453637e+001,-4.70085375138753e+000

1.31774562762811e+005,-2.06314384089019e+001,-4.76541953459561e+000

1.33614067108538e+005,-2.06320387696836e+001,-4.83085038324586e+000

1.35479249978003e+005,-2.06326527675544e+001,-4.89715733768871e+000

1.37370469830040e+005,-2.06332806440668e+001,-4.96435157507929e+000

1.39288090127379e+005,-2.06339226424132e+001,-5.03244441172535e+000

1.41232479406504e+005,-2.06345790073583e+001,-5.10144730551971e+000

1.43204011348474e+005,-2.06352499851741e+001,-5.17137185845809e+000

1.45203064850745e+005,-2.06359358235746e+001,-5.24222981924690e+000

1.47230024099979e+005,-2.06366367716533e+001,-5.31403308600156e+000

1.49285278645888e+005,-2.06373530798233e+001,-5.38679370903792e+000

1.51369223476094e+005,-2.06380849997604e+001,-5.46052389376055e+000

1.53482259092041e+005,-2.06388327843496e+001,-5.53523600364747e+000

1.55624791585964e+005,-2.06395966876360e+001,-5.61094256333602e+000

1.57797232718936e+005,-2.06403769647816e+001,-5.68765626180908e+000

1.59999999999999e+005,-2.06411738720266e+001,-5.76538995568450e+000

1.62233516766403e+005,-2.06419876666583e+001,-5.84415667260960e+000

1.64498212264969e+005,-2.06428186069871e+001,-5.92396961475973e+000

1.66794521734578e+005,-2.06436669523299e+001,-6.00484216244365e+000

1.69122886489819e+005,-2.06445329630041e+001,-6.08678787781607e+000

1.71483754005805e+005,-2.06454169003296e+001,-6.16982050869670e+000

1.73877578004168e+005,-2.06463190266433e+001,-6.25395399249562e+000

1.76304818540256e+005,-2.06472396053237e+001,-6.33920246024700e+000

1.78765942091554e+005,-2.06481789008295e+001,-6.42558024074665e+000

1.81261421647326e+005,-2.06491371787512e+001,-6.51310186479535e+000

1.83791736799524e+005,-2.06501147058766e+001,-6.60178206954582e+000

1.86357373834951e+005,-2.06511117502731e+001,-6.69163580294961e+000

1.88958825828723e+005,-2.06521285813850e+001,-6.78267822830532e+000

1.91596592739027e+005,-2.06531654701497e+001,-6.87492472890075e+000

1.94271181503206e+005,-2.06542226891308e+001,-6.96839091275112e+000

1.96983106135185e+005,-2.06553005126719e+001,-7.06309261742471e+000

1.99732887824256e+005,-2.06563992170695e+001,-7.15904591495628e+000

2.02521055035243e+005,-2.06575190807680e+001,-7.25626711684090e+000

2.05348143610063e+005,-2.06586603845765e+001,-7.35477277910502e+000

2.08214696870707e+005,-2.06598234119079e+001,-7.45457970744895e+000

2.11121265723661e+005,-2.06610084490431e+001,-7.55570496245537e+000

2.14068408765776e+005,-2.06622157854186e+001,-7.65816586485670e+000

2.17056692391625e+005,-2.06634457139402e+001,-7.76198000085703e+000

2.20086690902357e+005,-2.06646985313222e+001,-7.86716522750015e+000

2.23158986616063e+005,-2.06659745384536e+001,-7.97373967807579e+000

2.26274169979693e+005,-2.06672740407918e+001,-8.08172176755888e+000

2.29432839682530e+005,-2.06685973487834e+001,-8.19113019807208e+000

2.32635602771247e+005,-2.06699447783138e+001,-8.30198396436403e+000

2.35883074766574e+005,-2.06713166511856e+001,-8.41430235929449e+000

2.39175879781588e+005,-2.06727132956253e+001,-8.52810497931854e+000

2.42514650641661e+005,-2.06741350468197e+001,-8.64341172996046e+000

2.45900029006080e+005,-2.06755822474816e+001,-8.76024283126809e+000

2.49332665491357e+005,-2.06770552484449e+001,-8.87861882323912e+000

2.52813219796278e+005,-2.06785544092885e+001,-8.99856057120998e+000

2.56342360828676e+005,-2.06800800989907e+001,-9.12008927119730e+000

2.59920766833993e+005,-2.06816326966116e+001,-9.24322645518434e+000

2.63549125525621e+005,-2.06832125920046e+001,-9.36799399634193e+000

2.67228134217075e+005,-2.06848201865570e+001,-9.49441411417542e+000

2.70958499956006e+005,-2.06864558939577e+001,-9.62250937958855e+000

2.74740939660078e+005,-2.06881201409927e+001,-9.75230271985617e+000

2.78576180254757e+005,-2.06898133683679e+001,-9.88381742349607e+000

2.82464958813007e+005,-2.06915360315575e+001,-1.00170771450335e+001

2.86408022696948e+005,-2.06932886016782e+001,-1.01521059096488e+001

2.90406129701488e+005,-2.06950715663875e+001,-1.02889281177023e+001

2.94460048199957e+005,-2.06968854308062e+001,-1.04275685491277e+001

2.98570557291775e+005,-2.06987307184633e+001,-1.05680523676890e+001

3.02738446952187e+005,-2.07006079722626e+001,-1.07104051250931e+001

3.06964518184081e+005,-2.07025177554702e+001,-1.08546527649542e+001

3.11249583171928e+005,-2.07044606527209e+001,-1.10008216266025e+001

3.15594465437872e+005,-2.07064372710436e+001,-1.11489384487356e+001

3.19999999999997e+005,-2.07084482409036e+001,-1.12990303729050e+001

3.24467033532806e+005,-2.07104942172608e+001,-1.14511249468364e+001

3.28996424529938e+005,-2.07125758806430e+001,-1.16052501275817e+001

3.33589043469155e+005,-2.07146939382327e+001,-1.17614342844958e+001

3.38245772979638e+005,-2.07168491249659e+001,-1.19197062020424e+001

3.42967508011610e+005,-2.07190422046426e+001,-1.20800950824224e+001

3.47755156008335e+005,-2.07212739710469e+001,-1.22426305480269e+001

3.52609637080511e+005,-2.07235452490764e+001,-1.24073426437134e+001

3.57531884183106e+005,-2.07258568958788e+001,-1.25742618389056e+001

3.62522843294651e+005,-2.07282098019955e+001,-1.27434190295181e+001

3.67583473599047e+005,-2.07306048925103e+001,-1.29148455397060e+001

3.72714747669902e+005,-2.07330431282035e+001,-1.30885731234413e+001

3.77917651657445e+005,-2.07355255067089e+001,-1.32646339659196e+001

3.83193185478053e+005,-2.07380530636738e+001,-1.34430606847960e+001

3.88542363006410e+005,-2.07406268739210e+001,-1.36238863312561e+001

3.93966212270369e+005,-2.07432480526120e+001,-1.38071443909224e+001

3.99465775648511e+005,-2.07459177564105e+001,-1.39928687846011e+001

4.05042110070485e+005,-2.07486371846462e+001,-1.41810938688699e+001

4.10696287220124e+005,-2.07514075804773e+001,-1.43718544365126e+001

4.16429393741414e+005,-2.07542302320529e+001,-1.45651857168014e+001

4.22242531447321e+005,-2.07571064736725e+001,-1.47611233756321e+001

4.28136817531551e+005,-2.07600376869450e+001,-1.49597035155137e+001

4.34113384783250e+005,-2.07630253019450e+001,-1.51609626754167e+001

4.40173381804713e+005,-2.07660707983666e+001,-1.53649378304824e+001

4.46317973232124e+005,-2.07691757066755e+001,-1.55716663915949e+001

4.52548339959385e+005,-2.07723416092581e+001,-1.57811862048207e+001

4.58865679365059e+005,-2.07755701415685e+001,-1.59935355507160e+001

4.65271205542494e+005,-2.07788629932730e+001,-1.62087531435037e+001

4.71766149533147e+005,-2.07822219093926e+001,-1.64268781301224e+001

4.78351759563174e+005,-2.07856486914429e+001,-1.66479500891475e+001

4.85029301283321e+005,-2.07891451985725e+001,-1.68720090295865e+001

4.91800058012158e+005,-2.07927133487002e+001,-1.70990953895457e+001

4.98665330982714e+005,-2.07963551196497e+001,-1.73292500347717e+001

5.05626439592555e+005,-2.08000725502840e+001,-1.75625142570633e+001

5.12684721657352e+005,-2.08038677416385e+001,-1.77989297725546e+001

5.19841533667984e+005,-2.08077428580542e+001,-1.80385387198674e+001

5.27098251051240e+005,-2.08117001283098e+001,-1.82813836581273e+001

5.34456268434150e+005,-2.08157418467541e+001,-1.85275075648452e+001

5.41916999912011e+005,-2.08198703744388e+001,-1.87769538336565e+001

