Freq.,VOut,OutRef

1.00000000000000e+004,-1.83466144700262e+001,-8.28192405642557e-002

1.01395947979003e+004,-1.83466163671707e+001,-8.39749634601438e-002

1.02811382665607e+004,-1.83466183175437e+001,-8.51468030812955e-002

1.04246576084112e+004,-1.83466203226352e+001,-8.63349837083675e-002

1.05701804056138e+004,-1.83466223839774e+001,-8.75397327198855e-002

1.07177346253629e+004,-1.83466245031447e+001,-8.87612806412301e-002

1.08673486252606e+004,-1.83466266817560e+001,-8.99998611784828e-002

1.10190511587661e+004,-1.83466289214741e+001,-9.12557112744545e-002

1.11728713807222e+004,-1.83466312240094e+001,-9.25290711368498e-002

1.13288388529580e+004,-1.83466335911193e+001,-9.38201842931698e-002

1.14869835499703e+004,-1.83466360246102e+001,-9.51292976336229e-002

1.16473358646846e+004,-1.83466385263386e+001,-9.64566614542906e-002

1.18099266142953e+004,-1.83466410982131e+001,-9.78025295023741e-002

1.19747870461893e+004,-1.83466437421951e+001,-9.91671590254428e-002

1.21419488439505e+004,-1.83466464603005e+001,-1.00550810818061e-001

1.23114441334492e+004,-1.83466492546014e+001,-1.01953749266216e-001

1.24833054890161e+004,-1.83466521272272e+001,-1.03376242402172e-001

1.26575659397028e+004,-1.83466550803666e+001,-1.04818561945600e-001

1.28342589756290e+004,-1.83466581162694e+001,-1.06280983355250e-001

1.30134185544193e+004,-1.83466612372474e+001,-1.07763785883050e-001

1.31950791077289e+004,-1.83466644456765e+001,-1.09267252621524e-001

1.33792755478611e+004,-1.83466677439989e+001,-1.10791670553493e-001

1.35660432744767e+004,-1.83466711347245e+001,-1.12337330605273e-001

1.37554181813974e+004,-1.83466746204324e+001,-1.13904527700897e-001

1.39474366635040e+004,-1.83466782037736e+001,-1.15493560812814e-001

1.41421356237309e+004,-1.83466818874718e+001,-1.17104733018310e-001

1.43395524801583e+004,-1.83466856743271e+001,-1.18738351548116e-001

1.45397251732031e+004,-1.83466895672163e+001,-1.20394727849180e-001

1.47426921729110e+004,-1.83466935690959e+001,-1.22074177634246e-001

1.49484924863494e+004,-1.83466976830046e+001,-1.23777020939892e-001

1.51571656651040e+004,-1.83467019120645e+001,-1.25503582183979e-001

1.53687518128801e+004,-1.83467062594845e+001,-1.27254190221658e-001

1.55832915932100e+004,-1.83467107285611e+001,-1.29029178409973e-001

1.58008262372675e+004,-1.83467153226831e+001,-1.30828884652940e-001

1.60213975517924e+004,-1.83467200453317e+001,-1.32653651475935e-001

1.62450479271247e+004,-1.83467249000842e+001,-1.34503826078501e-001

1.64718203453514e+004,-1.83467298906171e+001,-1.36379760393519e-001

1.67017583885674e+004,-1.83467350207073e+001,-1.38281811153714e-001

1.69349062472505e+004,-1.83467402942363e+001,-1.40210339948816e-001

1.71713087287550e+004,-1.83467457151914e+001,-1.42165713296170e-001

1.74110112659224e+004,-1.83467512876707e+001,-1.44148302691943e-001

1.76540599258131e+004,-1.83467570158837e+001,-1.46158484687954e-001

1.79005014185594e+004,-1.83467629041561e+001,-1.48196640947994e-001

1.81503831063432e+004,-1.83467689569320e+001,-1.50263158317639e-001

1.84037530124975e+004,-1.83467751787775e+001,-1.52358428886994e-001

1.86606598307361e+004,-1.83467815743831e+001,-1.54482850062686e-001

1.89211529345119e+004,-1.83467881485686e+001,-1.56636824628536e-001

1.91852823865052e+004,-1.83467949062847e+001,-1.58820760821769e-001

1.94530989482457e+004,-1.83468018526179e+001,-1.61035072393425e-001

1.97246540898671e+004,-1.83468089927933e+001,-1.63280178684245e-001

1.99999999999999e+004,-1.83468163321787e+001,-1.65556504692308e-001

2.02791895958005e+004,-1.83468238762880e+001,-1.67864481144478e-001

2.05622765331213e+004,-1.83468316307854e+001,-1.70204544566503e-001

2.08493152168224e+004,-1.83468396014890e+001,-1.72577137357011e-001

2.11403608112276e+004,-1.83468477943749e+001,-1.74982707861778e-001

2.14354692507258e+004,-1.83468562155819e+001,-1.77421710440425e-001

2.17346972505211e+004,-1.83468648714147e+001,-1.79894605550058e-001

2.20381023175322e+004,-1.83468737683496e+001,-1.82401859810505e-001

2.23457427614443e+004,-1.83468829130375e+001,-1.84943946087235e-001

2.26576777059159e+004,-1.83468923123093e+001,-1.87521343564262e-001

2.29739670999406e+004,-1.83469019731804e+001,-1.90134537819598e-001

2.32946717293690e+004,-1.83469119028555e+001,-1.92784020904482e-001

2.36198532285905e+004,-1.83469221087336e+001,-1.95470291418267e-001

2.39495740923785e+004,-1.83469325984120e+001,-1.98193854593769e-001

2.42838976879009e+004,-1.83469433796933e+001,-2.00955222364975e-001

2.46228882668982e+004,-1.83469544605884e+001,-2.03754913458410e-001

2.49666109780322e+004,-1.83469658493239e+001,-2.06593453463653e-001

2.53151318794055e+004,-1.83469775543459e+001,-2.09471374920014e-001

2.56685179512580e+004,-1.83469895843268e+001,-2.12389217393500e-001

2.60268371088386e+004,-1.83470019481698e+001,-2.15347527563291e-001

2.63901582154578e+004,-1.83470146550160e+001,-2.18346859297986e-001

2.67585510957221e+004,-1.83470277142490e+001,-2.21387773743947e-001

2.71320865489533e+004,-1.83470411355029e+001,-2.24470839400680e-001

2.75108363627948e+004,-1.83470549286658e+001,-2.27596632214785e-001

2.78948733270080e+004,-1.83470691038886e+001,-2.30765735653318e-001

2.82842712474618e+004,-1.83470836715901e+001,-2.33978740795987e-001

2.86791049603164e+004,-1.83470986424641e+001,-2.37236246413925e-001

2.90794503464061e+004,-1.83471140274860e+001,-2.40538859057550e-001

2.94853843458219e+004,-1.83471298379195e+001,-2.43887193142072e-001

2.98969849726987e+004,-1.83471460853239e+001,-2.47281871031013e-001

3.03143313302078e+004,-1.83471627815609e+001,-2.50723523125091e-001

3.07375036257601e+004,-1.83471799388024e+001,-2.54212787944424e-001

3.11665831864199e+004,-1.83471975695370e+001,-2.57750312217319e-001

3.16016524745350e+004,-1.83472156865787e+001,-2.61336750966483e-001

3.20427951035848e+004,-1.83472343030735e+001,-2.64972767593355e-001

3.24900958542493e+004,-1.83472534325080e+001,-2.68659033966779e-001

3.29436406907028e+004,-1.83472730887168e+001,-2.72396230510965e-001

3.34035167771346e+004,-1.83472932858910e+001,-2.76185046288202e-001

3.38698124945009e+004,-1.83473140385863e+001,-2.80026179086939e-001

3.43426174575100e+004,-1.83473353617312e+001,-2.83920335511381e-001

3.48220225318448e+004,-1.83473572706356e+001,-2.87868231063959e-001

3.53081198516260e+004,-1.83473797809995e+001,-2.91870590233628e-001

3.58010028371187e+004,-1.83474029089218e+001,-2.95928146581112e-001

3.63007662126863e+004,-1.83474266709091e+001,-3.00041642824995e-001

3.68075060249948e+004,-1.83474510838845e+001,-3.04211830928901e-001

3.73213196614721e+004,-1.83474761651970e+001,-3.08439472183574e-001

3.78423058690237e+004,-1.83475019326308e+001,-3.12725337294837e-001

3.83705647730104e+004,-1.83475284044144e+001,-3.17070206465428e-001

3.89061978964912e+004,-1.83475555992306e+001,-3.21474869479812e-001

3.94493081797342e+004,-1.83475835362254e+001,-3.25940125788623e-001

3.99999999999998e+004,-1.83476122350180e+001,-3.30466784589132e-001

4.05583791916010e+004,-1.83476417157109e+001,-3.35055664908947e-001

4.11245530662425e+004,-1.83476719988991e+001,-3.39707595686957e-001

4.16986304336447e+004,-1.83477031056810e+001,-3.44423415851076e-001

4.22807216224550e+004,-1.83477350576675e+001,-3.49203974402631e-001

4.28709385014515e+004,-1.83477678769926e+001,-3.54050130490274e-001

4.34693945010421e+004,-1.83478015863236e+001,-3.58962753489537e-001

4.40762046350642e+004,-1.83478362088711e+001,-3.63942723080191e-001

4.46914855228886e+004,-1.83478717683995e+001,-3.68990929317870e-001

4.53153554118317e+004,-1.83479082892371e+001,-3.74108272713076e-001

4.59479341998812e+004,-1.83479457962866e+001,-3.79295664298871e-001

4.65893434587380e+004,-1.83479843150353e+001,-3.84554025705512e-001

4.72397064571810e+004,-1.83480238715654e+001,-3.89884289229448e-001

4.78991481847569e+004,-1.83480644925642e+001,-3.95287397900463e-001

4.85677953758016e+004,-1.83481062053349e+001,-4.00764305549500e-001

4.92457765337964e+004,-1.83481490378061e+001,-4.06315976872397e-001

4.99332219560642e+004,-1.83481930185424e+001,-4.11943387494664e-001

5.06302637588109e+004,-1.83482381767543e+001,-4.17647524031581e-001

5.13370359025159e+004,-1.83482845423081e+001,-4.23429384147511e-001

5.20536742176771e+004,-1.83483321457358e+001,-4.29289976614102e-001

5.27803164309155e+004,-1.83483810182450e+001,-4.35230321363797e-001

5.35171021914442e+004,-1.83484311917279e+001,-4.41251449545197e-001

5.42641730979066e+004,-1.83484826987710e+001,-4.47354403572306e-001

5.50216727255895e+004,-1.83485355726640e+001,-4.53540237173882e-001

5.57897466540159e+004,-1.83485898474086e+001,-4.59810015439039e-001

5.65685424949235e+004,-1.83486455577273e+001,-4.66164814861556e-001

5.73582099206328e+004,-1.83487027390713e+001,-4.72605723380621e-001

5.81589006928121e+004,-1.83487614276288e+001,-4.79133840419189e-001

5.89707686916437e+004,-1.83488216603321e+001,-4.85750276920868e-001

5.97939699453972e+004,-1.83488834748649e+001,-4.92456155384439e-001

6.06286626604156e+004,-1.83489469096693e+001,-4.99252609890066e-001

6.14750072515201e+004,-1.83490120039512e+001,-5.06140786133252e-001

6.23331663728396e+004,-1.83490787976868e+001,-5.13121841445247e-001

6.32033049490698e+004,-1.83491473316270e+001,-5.20196944818045e-001

6.40855902071694e+004,-1.83492176473027e+001,-5.27367276921867e-001

6.49801917084985e+004,-1.83492897870275e+001,-5.34634030124647e-001

6.58872813814055e+004,-1.83493637939018e+001,-5.41998408502531e-001

6.68070335542691e+004,-1.83494397118148e+001,-5.49461627853595e-001

6.77396249890018e+004,-1.83495175854457e+001,-5.57024915705730e-001

6.86852349150199e+004,-1.83495974602652e+001,-5.64689511319377e-001

6.96440450636895e+004,-1.83496793825345e+001,-5.72456665694436e-001

7.06162397032520e+004,-1.83497633993043e+001,-5.80327641568256e-001

7.16020056742374e+004,-1.83498495584130e+001,-5.88303713411895e-001

7.26015324253724e+004,-1.83499379084826e+001,-5.96386167428791e-001

7.36150120499896e+004,-1.83500284989153e+001,-6.04576301542870e-001

7.46426393229441e+004,-1.83501213798865e+001,-6.12875425393921e-001

7.56846117380472e+004,-1.83502166023386e+001,-6.21284860322461e-001

7.67411295460207e+004,-1.83503142179726e+001,-6.29805939358449e-001

7.78123957929823e+004,-1.83504142792384e+001,-6.38440007203583e-001

7.88986163594682e+004,-1.83505168393227e+001,-6.47188420218337e-001

7.99999999999995e+004,-1.83506219521375e+001,-6.56052546400852e-001

8.11167583832018e+004,-1.83507296723041e+001,-6.65033765370517e-001

8.22491061324848e+004,-1.83508400551382e+001,-6.74133468346367e-001

8.33972608672892e+004,-1.83509531566308e+001,-6.83353058129945e-001

8.45614432449099e+004,-1.83510690334292e+001,-6.92693949082379e-001

8.57418770029029e+004,-1.83511877428142e+001,-7.02157567109821e-001

8.69387890020841e+004,-1.83513093426772e+001,-7.11745349639235e-001

8.81524092701283e+004,-1.83514338914929e+001,-7.21458745608021e-001

8.93829710457770e+004,-1.83515614482927e+001,-7.31299215442509e-001

9.06307108236633e+004,-1.83516920726325e+001,-7.41268231051464e-001

9.18958683997622e+004,-1.83518258245610e+001,-7.51367275811849e-001

9.31786869174758e+004,-1.83519627645841e+001,-7.61597844564885e-001

9.44794129143618e+004,-1.83521029536269e+001,-7.71961443614803e-001

9.57982963695136e+004,-1.83522464529933e+001,-7.82459590732485e-001

9.71355907516031e+004,-1.83523933243236e+001,-7.93093815162481e-001

9.84915530675926e+004,-1.83525436295477e+001,-8.03865657642355e-001

9.98664439121282e+004,-1.83526974308372e+001,-8.14776670423731e-001

1.01260527517622e+005,-1.83528547905538e+001,-8.25828417305046e-001

1.02674071805032e+005,-1.83530157711951e+001,-8.37022473672304e-001

1.04107348435354e+005,-1.83531804353368e+001,-8.48360426552161e-001

1.05560632861831e+005,-1.83533488455726e+001,-8.59843874673069e-001

1.07034204382888e+005,-1.83535210644509e+001,-8.71474428542132e-001

1.08528346195813e+005,-1.83536971544077e+001,-8.83253710534614e-001

1.10043345451179e+005,-1.83538771776976e+001,-8.95183354997405e-001

1.11579493308032e+005,-1.83540611963199e+001,-9.07265008371152e-001

1.13137084989847e+005,-1.83542492719433e+001,-9.19500329326235e-001

1.14716419841265e+005,-1.83544414658265e+001,-9.31890988920603e-001

1.16317801385624e+005,-1.83546378387349e+001,-9.44438670778893e-001

1.17941537383287e+005,-1.83548384508556e+001,-9.57145071288603e-001

1.19587939890794e+005,-1.83550433617083e+001,-9.70011899823467e-001

1.21257325320831e+005,-1.83552526300528e+001,-9.83040878991387e-001

1.22950014503040e+005,-1.83554663137946e+001,-9.96233744905924e-001

1.24666332745679e+005,-1.83556844698857e+001,-1.00959224749057e+000

1.26406609898139e+005,-1.83559071542243e+001,-1.02311815080610e+000

1.28171180414339e+005,-1.83561344215501e+001,-1.03681323341478e+000

1.29960383416997e+005,-1.83563663253377e+001,-1.05067928877560e+000

1.31774562762811e+005,-1.83566029176870e+001,-1.06471812567290e+000

1.33614067108538e+005,-1.83568442492110e+001,-1.07893156868329e+000

1.35479249978003e+005,-1.83570903689216e+001,-1.09332145867794e+000

1.37370469830040e+005,-1.83573413241127e+001,-1.10788965336936e+000

1.39288090127379e+005,-1.83575971602417e+001,-1.12263802789211e+000

1.41232479406504e+005,-1.83578579208087e+001,-1.13756847543517e+000

1.43204011348474e+005,-1.83581236472348e+001,-1.15268290791090e+000

1.45203064850745e+005,-1.83583943787385e+001,-1.16798325667659e+000

1.47230024099979e+005,-1.83586701522109e+001,-1.18347147330000e+000

1.49285278645888e+005,-1.83589510020910e+001,-1.19914953037614e+000

1.51369223476094e+005,-1.83592369602394e+001,-1.21501942239210e+000

1.53482259092041e+005,-1.83595280558125e+001,-1.23108316664828e+000

1.55624791585964e+005,-1.83598243151368e+001,-1.24734280422849e+000

1.57797232718936e+005,-1.83601257615838e+001,-1.26380040102768e+000

1.59999999999999e+005,-1.83604324154453e+001,-1.28045804883295e+000

1.62233516766403e+005,-1.83607442938110e+001,-1.29731786646178e+000

1.64498212264969e+005,-1.83610614104469e+001,-1.31438200095799e+000

1.66794521734578e+005,-1.83613837756764e+001,-1.33165262884484e+000

1.69122886489819e+005,-1.83617113962641e+001,-1.34913195743607e+000

1.71483754005805e+005,-1.83620442753022e+001,-1.36682222620658e+000

1.73877578004168e+005,-1.83623824121012e+001,-1.38472570821983e+000

1.76304818540256e+005,-1.83627258020842e+001,-1.40284471161599e+000

1.78765942091554e+005,-1.83630744366857e+001,-1.42118158115733e+000

1.81261421647326e+005,-1.83634283032557e+001,-1.43973869983177e+000

1.83791736799524e+005,-1.83637873849693e+001,-1.45851849051267e+000

1.86357373834951e+005,-1.83641516607429e+001,-1.47752341767570e+000

1.88958825828723e+005,-1.83645211051558e+001,-1.49675598917117e+000

1.91596592739027e+005,-1.83648956883802e+001,-1.51621875804853e+000

1.94271181503206e+005,-1.83652753761183e+001,-1.53591432443336e+000

1.96983106135185e+005,-1.83656601295473e+001,-1.55584533745654e+000

1.99732887824256e+005,-1.83660499052737e+001,-1.57601449722645e+000

2.02521055035243e+005,-1.83664446552959e+001,-1.59642455685259e+000

2.05348143610063e+005,-1.83668443269773e+001,-1.61707832450681e+000

2.08214696870707e+005,-1.83672488630285e+001,-1.63797866552904e+000

2.11121265723661e+005,-1.83676582015007e+001,-1.65912850456499e+000

2.14068408765776e+005,-1.83680722757891e+001,-1.68053082774303e+000

2.17056692391625e+005,-1.83684910146486e+001,-1.70218868487541e+000

2.20086690902357e+005,-1.83689143422200e+001,-1.72410519168977e+000

2.23158986616063e+005,-1.83693421780691e+001,-1.74628353207927e+000

2.26274169979693e+005,-1.83697744372360e+001,-1.76872696037414e+000

2.29432839682530e+005,-1.83702110302996e+001,-1.79143880362320e+000

2.32635602771247e+005,-1.83706518634515e+001,-1.81442246388747e+000

2.35883074766574e+005,-1.83710968385851e+001,-1.83768142053573e+000

2.39175879781588e+005,-1.83715458533953e+001,-1.86121923254084e+000

2.42514650641661e+005,-1.83719988014929e+001,-1.88503954077034e+000

2.45900029006080e+005,-1.83724555725301e+001,-1.90914607026699e+000

2.49332665491357e+005,-1.83729160523393e+001,-1.93354263251444e+000

2.52813219796278e+005,-1.83733801230848e+001,-1.95823312768109e+000

2.56342360828676e+005,-1.83738476634261e+001,-1.98322154684182e+000

2.59920766833993e+005,-1.83743185486938e+001,-2.00851197416626e+000

2.63549125525621e+005,-1.83747926510771e+001,-2.03410858907505e+000

2.67228134217075e+005,-1.83752698398229e+001,-2.06001566835374e+000

2.70958499956006e+005,-1.83757499814456e+001,-2.08623758822630e+000

2.74740939660078e+005,-1.83762329399485e+001,-2.11277882637469e+000

2.78576180254757e+005,-1.83767185770538e+001,-2.13964396391057e+000

2.82464958813007e+005,-1.83772067524434e+001,-2.16683768728662e+000

2.86408022696948e+005,-1.83776973240082e+001,-2.19436479014931e+000

2.90406129701488e+005,-1.83781901481056e+001,-2.22223017512478e+000

2.94460048199957e+005,-1.83786850798249e+001,-2.25043885554037e+000

2.98570557291775e+005,-1.83791819732594e+001,-2.27899595707299e+000

3.02738446952187e+005,-1.83796806817846e+001,-2.30790671932611e+000

3.06964518184081e+005,-1.83801810583418e+001,-2.33717649733149e+000

3.11249583171928e+005,-1.83806829557265e+001,-2.36681076297164e+000

3.15594465437872e+005,-1.83811862268800e+001,-2.39681510632760e+000

3.19999999999997e+005,-1.83816907251843e+001,-2.42719523694414e+000

3.24467033532806e+005,-1.83821963047585e+001,-2.45795698501566e+000

3.28996424529938e+005,-1.83827028207573e+001,-2.48910630249131e+000

3.33589043469155e+005,-1.83832101296679e+001,-2.52064926410207e+000

3.38245772979638e+005,-1.83837180896085e+001,-2.55259206830382e+000

3.42967508011610e+005,-1.83842265606237e+001,-2.58494103814717e+000

3.47755156008335e+005,-1.83847354049780e+001,-2.61770262206496e+000

3.52609637080511e+005,-1.83852444874461e+001,-2.65088339458870e+000

3.57531884183106e+005,-1.83857536756000e+001,-2.68449005698779e+000

3.62522843294651e+005,-1.83862628400895e+001,-2.71852943784342e+000

3.67583473599047e+005,-1.83867718549191e+001,-2.75300849354842e+000

3.72714747669902e+005,-1.83872805977178e+001,-2.78793430874875e+000

3.77917651657445e+005,-1.83877889500016e+001,-2.82331409672044e+000

3.83193185478053e+005,-1.83882967974292e+001,-2.85915519969110e+000

3.88542363006410e+005,-1.83888040300492e+001,-2.89546508910843e+000

3.93966212270369e+005,-1.83893105425387e+001,-2.93225136586140e+000

3.99465775648511e+005,-1.83898162344324e+001,-2.96952176045619e+000

4.05042110070485e+005,-1.83903210103429e+001,-3.00728413315475e+000

4.10696287220124e+005,-1.83908247801700e+001,-3.04554647407833e+000

4.16429393741414e+005,-1.83913274593003e+001,-3.08431690328418e+000

4.22242531447321e+005,-1.83918289687960e+001,-3.12360367081610e+000

4.28136817531551e+005,-1.83923292355731e+001,-3.16341515673946e+000

4.34113384783250e+005,-1.83928281925683e+001,-3.20375987116148e+000

4.40173381804713e+005,-1.83933257788950e+001,-3.24464645424440e+000

4.46317973232124e+005,-1.83938219399882e+001,-3.28608367621767e+000

4.52548339959385e+005,-1.83943166277378e+001,-3.32808043739127e+000

4.58865679365059e+005,-1.83948098006122e+001,-3.37064576817869e+000

4.65271205542494e+005,-1.83953014237687e+001,-3.41378882913344e+000

4.71766149533147e+005,-1.83957914691552e+001,-3.45751891100321e+000

4.78351759563174e+005,-1.83962799156007e+001,-3.50184543480739e+000

4.85029301283321e+005,-1.83967667488942e+001,-3.54677795194458e+000

4.91800058012158e+005,-1.83972519618556e+001,-3.59232614432969e+000

4.98665330982714e+005,-1.83977355543950e+001,-3.63849982457145e+000

5.05626439592555e+005,-1.83982175335642e+001,-3.68530893618762e+000

5.12684721657352e+005,-1.83986979135979e+001,-3.73276355386877e+000

5.19841533667984e+005,-1.83991767159474e+001,-3.78087388378858e+000

5.27098251051240e+005,-1.83996539693055e+001,-3.82965026396730e+000

5.34456268434150e+005,-1.84001297096243e+001,-3.87910316469121e+000

5.41916999912011e+005,-1.84006039801257e+001,-3.92924318899016e+000

