Freq.,VOut,OutRef

1.00000000000000e+004,-3.33725766717172e+001,-1.35142561084411e-001

1.01395947979003e+004,-3.33725781846177e+001,-1.37028809858697e-001

1.02811382665607e+004,-3.33725797399774e+001,-1.38941378188957e-001

1.04246576084112e+004,-3.33725813389855e+001,-1.40880632996388e-001

1.05701804056138e+004,-3.33725829828649e+001,-1.42846946301760e-001

1.07177346253629e+004,-3.33725846728723e+001,-1.44840695298270e-001

1.08673486252606e+004,-3.33725864102997e+001,-1.46862262422166e-001

1.10190511587661e+004,-3.33725881964746e+001,-1.48912035427110e-001

1.11728713807222e+004,-3.33725900327622e+001,-1.50990407451521e-001

1.13288388529580e+004,-3.33725919205655e+001,-1.53097777098795e-001

1.14869835499703e+004,-3.33725938613265e+001,-1.55234548510323e-001

1.16473358646846e+004,-3.33725958565273e+001,-1.57401131440960e-001

1.18099266142953e+004,-3.33725979076918e+001,-1.59597941336609e-001

1.19747870461893e+004,-3.33726000163855e+001,-1.61825399414285e-001

1.21419488439505e+004,-3.33726021842185e+001,-1.64083932737090e-001

1.23114441334492e+004,-3.33726044128448e+001,-1.66373974300378e-001

1.24833054890161e+004,-3.33726067039653e+001,-1.68695963106626e-001

1.26575659397028e+004,-3.33726090593274e+001,-1.71050344255136e-001

1.28342589756290e+004,-3.33726114807276e+001,-1.73437569019089e-001

1.30134185544193e+004,-3.33726139700124e+001,-1.75858094933935e-001

1.31950791077289e+004,-3.33726165290791e+001,-1.78312385882963e-001

1.33792755478611e+004,-3.33726191598785e+001,-1.80800912181060e-001

1.35660432744767e+004,-3.33726218644149e+001,-1.83324150668247e-001

1.37554181813974e+004,-3.33726246447487e+001,-1.85882584793148e-001

1.39474366635040e+004,-3.33726275029973e+001,-1.88476704708493e-001

1.41421356237309e+004,-3.33726304413369e+001,-1.91107007359455e-001

1.43395524801583e+004,-3.33726334620042e+001,-1.93773996575406e-001

1.45397251732031e+004,-3.33726365672977e+001,-1.96478183168813e-001

1.47426921729110e+004,-3.33726397595795e+001,-1.99220085026293e-001

1.49484924863494e+004,-3.33726430412779e+001,-2.02000227204133e-001

1.51571656651040e+004,-3.33726464148875e+001,-2.04819142031406e-001

1.53687518128801e+004,-3.33726498829727e+001,-2.07677369203258e-001

1.55832915932100e+004,-3.33726534481683e+001,-2.10575455883966e-001

1.58008262372675e+004,-3.33726571131824e+001,-2.13513956808312e-001

1.60213975517924e+004,-3.33726608807980e+001,-2.16493434383577e-001

1.62450479271247e+004,-3.33726647538743e+001,-2.19514458795642e-001

1.64718203453514e+004,-3.33726687353507e+001,-2.22577608109727e-001

1.67017583885674e+004,-3.33726728282466e+001,-2.25683468384368e-001

1.69349062472505e+004,-3.33726770356653e+001,-2.28832633772679e-001

1.71713087287550e+004,-3.33726813607956e+001,-2.32025706636435e-001

1.74110112659224e+004,-3.33726858069143e+001,-2.35263297654805e-001

1.76540599258131e+004,-3.33726903773884e+001,-2.38546025937110e-001

1.79005014185594e+004,-3.33726950756772e+001,-2.41874519139123e-001

1.81503831063432e+004,-3.33726999053359e+001,-2.45249413573357e-001

1.84037530124975e+004,-3.33727048700170e+001,-2.48671354329144e-001

1.86606598307361e+004,-3.33727099734735e+001,-2.52140995390213e-001

1.89211529345119e+004,-3.33727152195614e+001,-2.55658999754552e-001

1.91852823865052e+004,-3.33727206122428e+001,-2.59226039552372e-001

1.94530989482457e+004,-3.33727261555884e+001,-2.62842796172332e-001

1.97246540898671e+004,-3.33727318537800e+001,-2.66509960386317e-001

1.99999999999999e+004,-3.33727377111146e+001,-2.70228232469637e-001

2.02791895958005e+004,-3.33727437320064e+001,-2.73998322333111e-001

2.05622765331213e+004,-3.33727499209905e+001,-2.77820949649703e-001

2.08493152168224e+004,-3.33727562827259e+001,-2.81696843983737e-001

2.11403608112276e+004,-3.33727628219988e+001,-2.85626744925764e-001

2.14354692507258e+004,-3.33727695437258e+001,-2.89611402222762e-001

2.17346972505211e+004,-3.33727764529578e+001,-2.93651575914608e-001

2.20381023175322e+004,-3.33727835548832e+001,-2.97748036469134e-001

2.23457427614443e+004,-3.33727908548316e+001,-3.01901564921937e-001

2.26576777059159e+004,-3.33727983582772e+001,-3.06112953015926e-001

2.29739670999406e+004,-3.33728060708431e+001,-3.10383003343010e-001

2.32946717293690e+004,-3.33728139983050e+001,-3.14712529483790e-001

2.36198532285905e+004,-3.33728221465952e+001,-3.19102356157282e-001

2.39495740923785e+004,-3.33728305218063e+001,-3.23553319364269e-001

2.42838976879009e+004,-3.33728391301960e+001,-3.28066266535310e-001

2.46228882668982e+004,-3.33728479781910e+001,-3.32642056681759e-001

2.49666109780322e+004,-3.33728570723912e+001,-3.37281560547373e-001

2.53151318794055e+004,-3.33728664195747e+001,-3.41985660759182e-001

2.56685179512580e+004,-3.33728760267020e+001,-3.46755251984591e-001

2.60268371088386e+004,-3.33728859009206e+001,-3.51591241087380e-001

2.63901582154578e+004,-3.33728960495702e+001,-3.56494547285198e-001

2.67585510957221e+004,-3.33729064801869e+001,-3.61466102312369e-001

2.71320865489533e+004,-3.33729172005090e+001,-3.66506850577252e-001

2.75108363627948e+004,-3.33729282184819e+001,-3.71617749328242e-001

2.78948733270080e+004,-3.33729395422626e+001,-3.76799768822000e-001

2.82842712474618e+004,-3.33729511802261e+001,-3.82053892484381e-001

2.86791049603164e+004,-3.33729631409703e+001,-3.87381117082787e-001

2.90794503464061e+004,-3.33729754333215e+001,-3.92782452899374e-001

2.94853843458219e+004,-3.33729880663403e+001,-3.98258923897398e-001

2.98969849726987e+004,-3.33730010493276e+001,-4.03811567899453e-001

3.03143313302078e+004,-3.33730143918301e+001,-4.09441436762630e-001

3.07375036257601e+004,-3.33730281036465e+001,-4.15149596557717e-001

3.11665831864199e+004,-3.33730421948340e+001,-4.20937127743547e-001

3.16016524745350e+004,-3.33730566757141e+001,-4.26805125355611e-001

3.20427951035848e+004,-3.33730715568797e+001,-4.32754699182667e-001

3.24900958542493e+004,-3.33730868492007e+001,-4.38786973955898e-001

3.29436406907028e+004,-3.33731025638318e+001,-4.44903089533480e-001

3.34035167771346e+004,-3.33731187122183e+001,-4.51104201089749e-001

3.38698124945009e+004,-3.33731353061038e+001,-4.57391479305059e-001

3.43426174575100e+004,-3.33731523575372e+001,-4.63766110556906e-001

3.48220225318448e+004,-3.33731698788791e+001,-4.70229297117060e-001

3.53081198516260e+004,-3.33731878828104e+001,-4.76782257341520e-001

3.58010028371187e+004,-3.33732063823384e+001,-4.83426225873176e-001

3.63007662126863e+004,-3.33732253908058e+001,-4.90162453836941e-001

3.68075060249948e+004,-3.33732449218970e+001,-4.96992209043635e-001

3.73213196614721e+004,-3.33732649896471e+001,-5.03916776189785e-001

3.78423058690237e+004,-3.33732856084493e+001,-5.10937457062020e-001

3.83705647730104e+004,-3.33733067930631e+001,-5.18055570744961e-001

3.89061978964912e+004,-3.33733285586224e+001,-5.25272453827712e-001

3.94493081797342e+004,-3.33733509206442e+001,-5.32589460612374e-001

3.99999999999998e+004,-3.33733738950365e+001,-5.40007963325411e-001

4.05583791916010e+004,-3.33733974981075e+001,-5.47529352331048e-001

4.11245530662425e+004,-3.33734217465739e+001,-5.55155036343645e-001

4.16986304336447e+004,-3.33734466575695e+001,-5.62886442647276e-001

4.22807216224550e+004,-3.33734722486547e+001,-5.70725017308334e-001

4.28709385014515e+004,-3.33734985378252e+001,-5.78672225397797e-001

4.34693945010421e+004,-3.33735255435210e+001,-5.86729551210982e-001

4.40762046350642e+004,-3.33735532846355e+001,-5.94898498490816e-001

4.46914855228886e+004,-3.33735817805253e+001,-6.03180590649114e-001

4.53153554118317e+004,-3.33736110510192e+001,-6.11577370994670e-001

4.59479341998812e+004,-3.33736411164277e+001,-6.20090402957724e-001

4.65893434587380e+004,-3.33736719975524e+001,-6.28721270320173e-001

4.72397064571810e+004,-3.33737037156959e+001,-6.37471577444193e-001

4.78991481847569e+004,-3.33737362926712e+001,-6.46342949503046e-001

4.85677953758016e+004,-3.33737697508115e+001,-6.55337032715494e-001

4.92457765337964e+004,-3.33738041129799e+001,-6.64455494577529e-001

4.99332219560642e+004,-3.33738394025790e+001,-6.73700024100086e-001

5.06302637588109e+004,-3.33738756435609e+001,-6.83072332043337e-001

5.13370359025159e+004,-3.33739128604368e+001,-6.92574151157792e-001

5.20536742176771e+004,-3.33739510782870e+001,-7.02207236421547e-001

5.27803164309155e+004,-3.33739903227702e+001,-7.11973365281825e-001

5.35171021914442e+004,-3.33740306201339e+001,-7.21874337897139e-001

5.42641730979066e+004,-3.33740719972231e+001,-7.31911977381924e-001

5.50216727255895e+004,-3.33741144814912e+001,-7.42088130048165e-001

5.57897466540159e+004,-3.33741581010083e+001,-7.52404665655181e-001

5.65685424949235e+004,-3.33742028844711e+001,-7.62863477654556e-001

5.73582099206328e+004,-3.33742488612126e+001,-7.73466483439181e-001

5.81589006928121e+004,-3.33742960612106e+001,-7.84215624593878e-001

5.89707686916437e+004,-3.33743445150971e+001,-7.95112867146113e-001

5.97939699453972e+004,-3.33743942541673e+001,-8.06160201817200e-001

6.06286626604156e+004,-3.33744453103879e+001,-8.17359644278414e-001

6.14750072515201e+004,-3.33744977164056e+001,-8.28713235404391e-001

6.23331663728396e+004,-3.33745515055556e+001,-8.40223041528766e-001

6.32033049490698e+004,-3.33746067118690e+001,-8.51891154705276e-001

6.40855902071694e+004,-3.33746633700810e+001,-8.63719692962732e-001

6.49801917084985e+004,-3.33747215156375e+001,-8.75710800567878e-001

6.58872813814055e+004,-3.33747811847025e+001,-8.87866648287875e-001

6.68070335542691e+004,-3.33748424141650e+001,-9.00189433651331e-001

6.77396249890018e+004,-3.33749052416438e+001,-9.12681381217962e-001

6.86852349150199e+004,-3.33749697054948e+001,-9.25344742839392e-001

6.96440450636895e+004,-3.33750358448149e+001,-9.38181797932879e-001

7.06162397032520e+004,-3.33751036994473e+001,-9.51194853750061e-001

7.16020056742374e+004,-3.33751733099854e+001,-9.64386245647876e-001

7.26015324253724e+004,-3.33752447177765e+001,-9.77758337365374e-001

7.36150120499896e+004,-3.33753179649243e+001,-9.91313521298163e-001

7.46426393229441e+004,-3.33753930942911e+001,-1.00505421878005e+000

7.56846117380472e+004,-3.33754701494999e+001,-1.01898288036109e+000

7.67411295460207e+004,-3.33755491749342e+001,-1.03310198609457e+000

7.78123957929823e+004,-3.33756302157384e+001,-1.04741404582329e+000

7.88986163594682e+004,-3.33757133178169e+001,-1.06192159946809e+000

7.99999999999995e+004,-3.33757985278321e+001,-1.07662721732289e+000

8.11167583832018e+004,-3.33758858932014e+001,-1.09153350035165e+000

8.22491061324848e+004,-3.33759754620936e+001,-1.10664308048819e+000

8.33972608672892e+004,-3.33760672834242e+001,-1.12195862094090e+000

8.45614432449099e+004,-3.33761614068495e+001,-1.13748281650211e+000

8.57418770029029e+004,-3.33762578827591e+001,-1.15321839386290e+000

8.69387890020841e+004,-3.33763567622682e+001,-1.16916811193044e+000

8.81524092701283e+004,-3.33764580972079e+001,-1.18533476215462e+000

8.93829710457770e+004,-3.33765619401145e+001,-1.20172116885582e+000

9.06307108236633e+004,-3.33766683442175e+001,-1.21833018956349e+000

9.18958683997622e+004,-3.33767773634260e+001,-1.23516471535948e+000

9.31786869174758e+004,-3.33768890523138e+001,-1.25222767122830e+000

9.44794129143618e+004,-3.33770034661034e+001,-1.26952201641588e+000

9.57982963695136e+004,-3.33771206606477e+001,-1.28705074479687e+000

9.71355907516031e+004,-3.33772406924112e+001,-1.30481688524966e+000

9.84915530675926e+004,-3.33773636184483e+001,-1.32282350204368e+000

9.98664439121282e+004,-3.33774894963810e+001,-1.34107369523412e+000

1.01260527517622e+005,-3.33776183843746e+001,-1.35957060106943e+000

1.02674071805032e+005,-3.33777503411117e+001,-1.37831739240805e+000

1.04107348435354e+005,-3.33778854257643e+001,-1.39731727915229e+000

1.05560632861831e+005,-3.33780236979642e+001,-1.41657350869105e+000

1.07034204382888e+005,-3.33781652177720e+001,-1.43608936635738e+000

1.08528346195813e+005,-3.33783100456436e+001,-1.45586817590364e+000

1.10043345451179e+005,-3.33784582423955e+001,-1.47591329998908e+000

1.11579493308032e+005,-3.33786098691677e+001,-1.49622814068816e+000

1.13137084989847e+005,-3.33787649873855e+001,-1.51681614001123e+000

1.14716419841265e+005,-3.33789236587188e+001,-1.53768078045005e+000

1.16317801385624e+005,-3.33790859450398e+001,-1.55882558553908e+000

1.17941537383287e+005,-3.33792519083789e+001,-1.58025412043933e+000

1.19587939890794e+005,-3.33794216108791e+001,-1.60196999254389e+000

1.21257325320831e+005,-3.33795951147479e+001,-1.62397685210662e+000

1.22950014503040e+005,-3.33797724822088e+001,-1.64627839289506e+000

1.24666332745679e+005,-3.33799537754494e+001,-1.66887835286985e+000

1.26406609898139e+005,-3.33801390565697e+001,-1.69178051488925e+000

1.28171180414339e+005,-3.33803283875273e+001,-1.71498870744339e+000

1.29960383416997e+005,-3.33805218300830e+001,-1.73850680541524e+000

1.31774562762811e+005,-3.33807194457427e+001,-1.76233873087556e+000

1.33614067108538e+005,-3.33809212957002e+001,-1.78648845390676e+000

1.35479249978003e+005,-3.33811274407779e+001,-1.81095999346001e+000

1.37370469830040e+005,-3.33813379413667e+001,-1.83575741824720e+000

1.39288090127379e+005,-3.33815528573649e+001,-1.86088484766968e+000

1.41232479406504e+005,-3.33817722481166e+001,-1.88634645278058e+000

1.43204011348474e+005,-3.33819961723499e+001,-1.91214645728694e+000

1.45203064850745e+005,-3.33822246881141e+001,-1.93828913859146e+000

1.47230024099979e+005,-3.33824578527174e+001,-1.96477882887283e+000

1.49285278645888e+005,-3.33826957226643e+001,-1.99161991620870e+000

1.51369223476094e+005,-3.33829383535935e+001,-2.01881684574088e+000

1.53482259092041e+005,-3.33831858002166e+001,-2.04637412088279e+000

1.55624791585964e+005,-3.33834381162573e+001,-2.07429630457236e+000

1.57797232718936e+005,-3.33836953543916e+001,-2.10258802057118e+000

1.59999999999999e+005,-3.33839575661899e+001,-2.13125395480692e+000

1.62233516766403e+005,-3.33842248020604e+001,-2.16029885676499e+000

1.64498212264969e+005,-3.33844971111947e+001,-2.18972754092600e+000

1.66794521734578e+005,-3.33847745415152e+001,-2.21954488825331e+000

1.69122886489819e+005,-3.33850571396260e+001,-2.24975584772607e+000

1.71483754005805e+005,-3.33853449507665e+001,-2.28036543792215e+000

1.73877578004168e+005,-3.33856380187676e+001,-2.31137874865159e+000

1.76304818540256e+005,-3.33859363860130e+001,-2.34280094263586e+000

1.78765942091554e+005,-3.33862400934033e+001,-2.37463725723781e+000

1.81261421647326e+005,-3.33865491803254e+001,-2.40689300623970e+000

1.83791736799524e+005,-3.33868636846264e+001,-2.43957358166947e+000

1.86357373834951e+005,-3.33871836425928e+001,-2.47268445567397e+000

1.88958825828723e+005,-3.33875090889351e+001,-2.50623118244019e+000

1.91596592739027e+005,-3.33878400567792e+001,-2.54021940016057e+000

1.94271181503206e+005,-3.33881765776626e+001,-2.57465483304573e+000

1.96983106135185e+005,-3.33885186815395e+001,-2.60954329337852e+000

1.99732887824256e+005,-3.33888663967910e+001,-2.64489068361177e+000

2.02521055035243e+005,-3.33892197502443e+001,-2.68070299850619e+000

2.05348143610063e+005,-3.33895787671984e+001,-2.71698632730755e+000

2.08214696870707e+005,-3.33899434714596e+001,-2.75374685596139e+000

2.11121265723661e+005,-3.33903138853840e+001,-2.79099086936024e+000

2.14068408765776e+005,-3.33906900299298e+001,-2.82872475362773e+000

2.17056692391625e+005,-3.33910719247181e+001,-2.86695499842955e+000

2.20086690902357e+005,-3.33914595881036e+001,-2.90568819931319e+000

2.23158986616063e+005,-3.33918530372549e+001,-2.94493106007379e+000

2.26274169979693e+005,-3.33922522882439e+001,-2.98469039514122e+000

2.29432839682530e+005,-3.33926573561462e+001,-3.02497313198620e+000

2.32635602771247e+005,-3.33930682551512e+001,-3.06578631354405e+000

2.35883074766574e+005,-3.33934849986829e+001,-3.10713710065005e+000

2.39175879781588e+005,-3.33939075995306e+001,-3.14903277448637e+000

2.42514650641661e+005,-3.33943360699906e+001,-3.19148073903349e+000

2.45900029006080e+005,-3.33947704220183e+001,-3.23448852352687e+000

2.49332665491357e+005,-3.33952106673909e+001,-3.27806378491227e+000

2.52813219796278e+005,-3.33956568178804e+001,-3.32221431029845e+000

2.56342360828676e+005,-3.33961088854376e+001,-3.36694801940227e+000

2.59920766833993e+005,-3.33965668823855e+001,-3.41227296698335e+000

2.63549125525621e+005,-3.33970308216240e+001,-3.45819734526732e+000

2.67228134217075e+005,-3.33975007168436e+001,-3.50472948634867e+000

2.70958499956006e+005,-3.33979765827498e+001,-3.55187786457770e+000

2.74740939660078e+005,-3.33984584352961e+001,-3.59965109892141e+000

2.78576180254757e+005,-3.33989462919270e+001,-3.64805795530008e+000

2.82464958813007e+005,-3.33994401718295e+001,-3.69710734889503e+000

2.86408022696948e+005,-3.33999400961932e+001,-3.74680834642526e+000

2.90406129701488e+005,-3.34004460884791e+001,-3.79717016838948e+000

2.94460048199957e+005,-3.34009581746951e+001,-3.84820219127377e+000

2.98570557291775e+005,-3.34014763836800e+001,-3.89991394972059e+000

3.02738446952187e+005,-3.34020007473937e+001,-3.95231513865780e+000

3.06964518184081e+005,-3.34025313012137e+001,-4.00541561538734e+000

3.11249583171928e+005,-3.34030680842384e+001,-4.05922540163053e+000

3.15594465437872e+005,-3.34036111395945e+001,-4.11375468553117e+000

3.19999999999997e+005,-3.34041605147504e+001,-4.16901382361293e+000

3.24467033532806e+005,-3.34047162618337e+001,-4.22501334269268e+000

3.28996424529938e+005,-3.34052784379518e+001,-4.28176394174987e+000

3.33589043469155e+005,-3.34058471055173e+001,-4.33927649374902e+000

3.38245772979638e+005,-3.34064223325745e+001,-4.39756204741970e+000

3.42967508011610e+005,-3.34070041931296e+001,-4.45663182899132e+000

3.47755156008335e+005,-3.34075927674821e+001,-4.51649724388616e+000

3.52609637080511e+005,-3.34081881425572e+001,-4.57716987836956e+000

3.57531884183106e+005,-3.34087904122396e+001,-4.63866150116080e+000

3.62522843294651e+005,-3.34093996777076e+001,-4.70098406500438e+000

3.67583473599047e+005,-3.34100160477667e+001,-4.76414970820582e+000

3.72714747669902e+005,-3.34106396391833e+001,-4.82817075613154e+000

3.77917651657445e+005,-3.34112705770172e+001,-4.89305972267829e+000

3.83193185478053e+005,-3.34119089949533e+001,-4.95882931171120e+000

3.88542363006410e+005,-3.34125550356317e+001,-5.02549241847558e+000

3.93966212270369e+005,-3.34132088509757e+001,-5.09306213098566e+000

3.99465775648511e+005,-3.34138706025185e+001,-5.16155173139138e+000

4.05042110070485e+005,-3.34145404617274e+001,-5.23097469732653e+000

4.10696287220124e+005,-3.34152186103255e+001,-5.30134470324464e+000

4.16429393741414e+005,-3.34159052406117e+001,-5.37267562174082e+000

4.22242531447321e+005,-3.34166005557773e+001,-5.44498152486799e+000

4.28136817531551e+005,-3.34173047702206e+001,-5.51827668544692e+000

4.34113384783250e+005,-3.34180181098591e+001,-5.59257557837570e+000

4.40173381804713e+005,-3.34187408124390e+001,-5.66789288194189e+000

4.46317973232124e+005,-3.34194731278423e+001,-5.74424347913939e+000

4.52548339959385e+005,-3.34202153183918e+001,-5.82164245899502e+000

4.58865679365059e+005,-3.34209676591544e+001,-5.90010511790670e+000

4.65271205542494e+005,-3.34217304382418e+001,-5.97964696099735e+000

4.71766149533147e+005,-3.34225039571101e+001,-6.06028370348732e+000

4.78351759563174e+005,-3.34232885308583e+001,-6.14203127208752e+000

4.85029301283321e+005,-3.34240844885252e+001,-6.22490580641749e+000

4.91800058012158e+005,-3.34248921733863e+001,-6.30892366045001e+000

4.98665330982714e+005,-3.34257119432501e+001,-6.39410140398483e+000

5.05626439592555e+005,-3.34265441707542e+001,-6.48045582415435e+000

5.12684721657352e+005,-3.34273892436633e+001,-6.56800392696318e+000

5.19841533667984e+005,-3.34282475651667e+001,-6.65676293886293e+000

5.27098251051240e+005,-3.34291195541779e+001,-6.74675030836612e+000

5.34456268434150e+005,-3.34300056456368e+001,-6.83798370769695e+000

5.41916999912011e+005,-3.34309062908138e+001,-6.93048103448438e+000

