Freq.,VOut,OutRef

1.00000000000000e+004,-2.44403292874692e+001,-6.31616608742918e-002

1.01395947979003e+004,-2.44403296977281e+001,-6.40432885342995e-002

1.02811382665607e+004,-2.44403301195002e+001,-6.49372200230205e-002

1.04246576084112e+004,-2.44403305531076e+001,-6.58436269591659e-002

1.05701804056138e+004,-2.44403309988821e+001,-6.67626833505045e-002

1.07177346253629e+004,-2.44403314571641e+001,-6.76945656282444e-002

1.08673486252606e+004,-2.44403319283041e+001,-6.86394526795943e-002

1.10190511587661e+004,-2.44403324126619e+001,-6.95975258832116e-002

1.11728713807222e+004,-2.44403329106079e+001,-7.05689691405716e-002

1.13288388529580e+004,-2.44403334225220e+001,-7.15539689172011e-002

1.14869835499703e+004,-2.44403339487956e+001,-7.25527142697654e-002

1.16473358646846e+004,-2.44403344898302e+001,-7.35653968902910e-002

1.18099266142953e+004,-2.44403350460386e+001,-7.45922111381506e-002

1.19747870461893e+004,-2.44403356178458e+001,-7.56333540727843e-002

1.21419488439505e+004,-2.44403362056881e+001,-7.66890255007991e-002

1.23114441334492e+004,-2.44403368100139e+001,-7.77594280067550e-002

1.24833054890161e+004,-2.44403374312841e+001,-7.88447669946462e-002

1.26575659397028e+004,-2.44403380699724e+001,-7.99452507257566e-002

1.28342589756290e+004,-2.44403387265660e+001,-8.10610903567923e-002

1.30134185544193e+004,-2.44403394015651e+001,-8.21924999844686e-002

1.31950791077289e+004,-2.44403400954845e+001,-8.33396966778396e-002

1.33792755478611e+004,-2.44403408088525e+001,-8.45029005296522e-002

1.35660432744767e+004,-2.44403415422129e+001,-8.56823346890258e-002

1.37554181813974e+004,-2.44403422961236e+001,-8.68782254117301e-002

1.39474366635040e+004,-2.44403430711591e+001,-8.80908020937637e-002

1.41421356237309e+004,-2.44403438679087e+001,-8.93202973238698e-002

1.43395524801583e+004,-2.44403446869793e+001,-9.05669469187090e-002

1.45397251732031e+004,-2.44403455289933e+001,-9.18309899774463e-002

1.47426921729110e+004,-2.44403463945913e+001,-9.31126689166684e-002

1.49484924863494e+004,-2.44403472844311e+001,-9.44122295235300e-002

1.51571656651040e+004,-2.44403481991893e+001,-9.57299209970543e-002

1.53687518128801e+004,-2.44403491395607e+001,-9.70659959983879e-002

1.55832915932100e+004,-2.44403501062593e+001,-9.84207106993305e-002

1.58008262372675e+004,-2.44403511000189e+001,-9.97943248262387e-002

1.60213975517924e+004,-2.44403521215941e+001,-1.01187101710324e-001

1.62450479271247e+004,-2.44403531717598e+001,-1.02599308339713e-001

1.64718203453514e+004,-2.44403542513121e+001,-1.04031215408408e-001

1.67017583885674e+004,-2.44403553610696e+001,-1.05483097366295e-001

1.69349062472505e+004,-2.44403565018733e+001,-1.06955232468523e-001

1.71713087287550e+004,-2.44403576745871e+001,-1.08447902833974e-001

1.74110112659224e+004,-2.44403588800989e+001,-1.09961394492043e-001

1.76540599258131e+004,-2.44403601193214e+001,-1.11495997436823e-001

1.79005014185594e+004,-2.44403613931919e+001,-1.13052005685965e-001

1.81503831063432e+004,-2.44403627026735e+001,-1.14629717332393e-001

1.84037530124975e+004,-2.44403640487560e+001,-1.16229434597765e-001

1.86606598307361e+004,-2.44403654324562e+001,-1.17851463894082e-001

1.89211529345119e+004,-2.44403668548188e+001,-1.19496115877284e-001

1.91852823865052e+004,-2.44403683169175e+001,-1.21163705504626e-001

1.94530989482457e+004,-2.44403698198548e+001,-1.22854552096362e-001

1.97246540898671e+004,-2.44403713647640e+001,-1.24568979392362e-001

1.99999999999999e+004,-2.44403729528090e+001,-1.26307315614810e-001

2.02791895958005e+004,-2.44403745851858e+001,-1.28069893526375e-001

2.05622765331213e+004,-2.44403762631227e+001,-1.29857050494760e-001

2.08493152168224e+004,-2.44403779878818e+001,-1.31669128552842e-001

2.11403608112276e+004,-2.44403797607598e+001,-1.33506474462700e-001

2.14354692507258e+004,-2.44403815830880e+001,-1.35369439782770e-001

2.17346972505211e+004,-2.44403834562348e+001,-1.37258380927424e-001

2.20381023175322e+004,-2.44403853816057e+001,-1.39173659234465e-001

2.23457427614443e+004,-2.44403873606437e+001,-1.41115641037519e-001

2.26576777059159e+004,-2.44403893948316e+001,-1.43084697725008e-001

2.29739670999406e+004,-2.44403914856922e+001,-1.45081205813144e-001

2.32946717293690e+004,-2.44403936347899e+001,-1.47105547014685e-001

2.36198532285905e+004,-2.44403958437306e+001,-1.49158108309881e-001

2.39495740923785e+004,-2.44403981141645e+001,-1.51239282013580e-001

2.42838976879009e+004,-2.44404004477858e+001,-1.53349465852650e-001

2.46228882668982e+004,-2.44404028463348e+001,-1.55489063032771e-001

2.49666109780322e+004,-2.44404053115985e+001,-1.57658482317070e-001

2.53151318794055e+004,-2.44404078454117e+001,-1.59858138100125e-001

2.56685179512580e+004,-2.44404104496589e+001,-1.62088450478321e-001

2.60268371088386e+004,-2.44404131262751e+001,-1.64349845332412e-001

2.63901582154578e+004,-2.44404158772471e+001,-1.66642754402342e-001

2.67585510957221e+004,-2.44404187046147e+001,-1.68967615365963e-001

2.71320865489533e+004,-2.44404216104726e+001,-1.71324871916429e-001

2.75108363627948e+004,-2.44404245969710e+001,-1.73714973845838e-001

2.78948733270080e+004,-2.44404276663178e+001,-1.76138377122732e-001

2.82842712474618e+004,-2.44404308207791e+001,-1.78595543979686e-001

2.86791049603164e+004,-2.44404340626818e+001,-1.81086942988004e-001

2.90794503464061e+004,-2.44404373944142e+001,-1.83613049149921e-001

2.94853843458219e+004,-2.44404408184278e+001,-1.86174343980129e-001

2.98969849726987e+004,-2.44404443372387e+001,-1.88771315593378e-001

3.03143313302078e+004,-2.44404479534301e+001,-1.91404458787564e-001

3.07375036257601e+004,-2.44404516696524e+001,-1.94074275139296e-001

3.11665831864199e+004,-2.44404554886262e+001,-1.96781273086021e-001

3.16016524745350e+004,-2.44404594131429e+001,-1.99525968021238e-001

3.20427951035848e+004,-2.44404634460679e+001,-2.02308882380937e-001

3.24900958542493e+004,-2.44404675903403e+001,-2.05130545743647e-001

3.29436406907028e+004,-2.44404718489767e+001,-2.07991494915292e-001

3.34035167771346e+004,-2.44404762250717e+001,-2.10892274030105e-001

3.38698124945009e+004,-2.44404807218006e+001,-2.13833434641832e-001

3.43426174575100e+004,-2.44404853424202e+001,-2.16815535824899e-001

3.48220225318448e+004,-2.44404900902722e+001,-2.19839144267015e-001

3.53081198516260e+004,-2.44404949687841e+001,-2.22904834372405e-001

3.58010028371187e+004,-2.44404999814711e+001,-2.26013188361641e-001

3.63007662126863e+004,-2.44405051319390e+001,-2.29164796368119e-001

3.68075060249948e+004,-2.44405104238854e+001,-2.32360256546840e-001

3.73213196614721e+004,-2.44405158611023e+001,-2.35600175172735e-001

3.78423058690237e+004,-2.44405214474781e+001,-2.38885166746220e-001

3.83705647730104e+004,-2.44405271869996e+001,-2.42215854101196e-001

3.89061978964912e+004,-2.44405330837540e+001,-2.45592868510804e-001

3.94493081797342e+004,-2.44405391419320e+001,-2.49016849792020e-001

3.99999999999998e+004,-2.44405453658293e+001,-2.52488446418343e-001

4.05583791916010e+004,-2.44405517598483e+001,-2.56008315631812e-001

4.11245530662425e+004,-2.44405583285022e+001,-2.59577123548439e-001

4.16986304336447e+004,-2.44405650764153e+001,-2.63195545276441e-001

4.22807216224550e+004,-2.44405720083269e+001,-2.66864265024969e-001

4.28709385014515e+004,-2.44405791290928e+001,-2.70583976224949e-001

4.34693945010421e+004,-2.44405864436880e+001,-2.74355381640019e-001

4.40762046350642e+004,-2.44405939572090e+001,-2.78179193486813e-001

4.46914855228886e+004,-2.44406016748767e+001,-2.82056133551562e-001

4.53153554118317e+004,-2.44406096020379e+001,-2.85986933311926e-001

4.59479341998812e+004,-2.44406177441689e+001,-2.89972334056293e-001

4.65893434587380e+004,-2.44406261068772e+001,-2.94013087006330e-001

4.72397064571810e+004,-2.44406346959042e+001,-2.98109953441594e-001

4.78991481847569e+004,-2.44406435171281e+001,-3.02263704821163e-001

4.85677953758016e+004,-2.44406525765657e+001,-3.06475122913346e-001

4.92457765337964e+004,-2.44406618803755e+001,-3.10744999920007e-001

4.99332219560642e+004,-2.44406714348603e+001,-3.15074138604997e-001

5.06302637588109e+004,-2.44406812464690e+001,-3.19463352426462e-001

5.13370359025159e+004,-2.44406913217998e+001,-3.23913465664392e-001

5.20536742176771e+004,-2.44407016676028e+001,-3.28425313553700e-001

5.27803164309155e+004,-2.44407122907817e+001,-3.32999742419073e-001

5.35171021914442e+004,-2.44407231983972e+001,-3.37637609807701e-001

5.42641730979066e+004,-2.44407343976690e+001,-3.42339784627085e-001

5.50216727255895e+004,-2.44407458959780e+001,-3.47107147280704e-001

5.57897466540159e+004,-2.44407577008694e+001,-3.51940589807598e-001

5.65685424949235e+004,-2.44407698200543e+001,-3.56841016023011e-001

5.73582099206328e+004,-2.44407822614127e+001,-3.61809341657457e-001

5.81589006928121e+004,-2.44407950329954e+001,-3.66846494501245e-001

5.89707686916437e+004,-2.44408081430263e+001,-3.71953414547377e-001

5.97939699453972e+004,-2.44408215999048e+001,-3.77131054137937e-001

6.06286626604156e+004,-2.44408354122074e+001,-3.82380378110886e-001

6.14750072515201e+004,-2.44408495886902e+001,-3.87702363947768e-001

6.23331663728396e+004,-2.44408641382909e+001,-3.93098001922434e-001

6.32033049490698e+004,-2.44408790701302e+001,-3.98568295254119e-001

6.40855902071694e+004,-2.44408943935139e+001,-4.04114260259996e-001

6.49801917084985e+004,-2.44409101179348e+001,-4.09736926506626e-001

6.58872813814055e+004,-2.44409262530738e+001,-4.15437336969230e-001

6.68070335542691e+004,-2.44409428088016e+001,-4.21216548186295e-001

6.77396249890018e+004,-2.44409597951799e+001,-4.27075630420731e-001

6.86852349150199e+004,-2.44409772224628e+001,-4.33015667818433e-001

6.96440450636895e+004,-2.44409951010974e+001,-4.39037758570741e-001

7.06162397032520e+004,-2.44410134417253e+001,-4.45143015080498e-001

7.16020056742374e+004,-2.44410322551825e+001,-4.51332564125144e-001

7.26015324253724e+004,-2.44410515525007e+001,-4.57607547025285e-001

7.36150120499896e+004,-2.44410713449070e+001,-4.63969119815783e-001

7.46426393229441e+004,-2.44410916438245e+001,-4.70418453413731e-001

7.56846117380472e+004,-2.44411124608716e+001,-4.76956733796405e-001

7.67411295460207e+004,-2.44411338078625e+001,-4.83585162171271e-001

7.78123957929823e+004,-2.44411556968058e+001,-4.90304955158604e-001

7.88986163594682e+004,-2.44411781399040e+001,-4.97117344969144e-001

7.99999999999995e+004,-2.44412011495527e+001,-5.04023579585447e-001

8.11167583832018e+004,-2.44412247383386e+001,-5.11024922948714e-001

8.22491061324848e+004,-2.44412489190384e+001,-5.18122655143253e-001

8.33972608672892e+004,-2.44412737046166e+001,-5.25318072588375e-001

8.45614432449099e+004,-2.44412991082228e+001,-5.32612488229340e-001

8.57418770029029e+004,-2.44413251431899e+001,-5.40007231733076e-001

8.69387890020841e+004,-2.44413518230300e+001,-5.47503649686619e-001

8.81524092701283e+004,-2.44413791614323e+001,-5.55103105796498e-001

8.93829710457770e+004,-2.44414071722581e+001,-5.62806981095912e-001

9.06307108236633e+004,-2.44414358695374e+001,-5.70616674150734e-001

9.18958683997622e+004,-2.44414652674644e+001,-5.78533601269640e-001

9.31786869174758e+004,-2.44414953803920e+001,-5.86559196721509e-001

9.44794129143618e+004,-2.44415262228266e+001,-5.94694912953668e-001

9.57982963695136e+004,-2.44415578094226e+001,-6.02942220811955e-001

9.71355907516031e+004,-2.44415901549755e+001,-6.11302609771218e-001

9.84915530675926e+004,-2.44416232744154e+001,-6.19777588164974e-001

9.98664439121282e+004,-2.44416571827998e+001,-6.28368683421511e-001

1.01260527517622e+005,-2.44416918953054e+001,-6.37077442304924e-001

1.02674071805032e+005,-2.44417274272202e+001,-6.45905431161045e-001

1.04107348435354e+005,-2.44417637939346e+001,-6.54854236169269e-001

1.05560632861831e+005,-2.44418010109318e+001,-6.63925463598400e-001

1.07034204382888e+005,-2.44418390937781e+001,-6.73120740069628e-001

1.08528346195813e+005,-2.44418780581127e+001,-6.82441712826338e-001

1.10043345451179e+005,-2.44419179196363e+001,-6.91890050008587e-001

1.11579493308032e+005,-2.44419586940995e+001,-7.01467440934552e-001

1.13137084989847e+005,-2.44420003972917e+001,-7.11175596389868e-001

1.14716419841265e+005,-2.44420430450270e+001,-7.21016248924981e-001

1.16317801385624e+005,-2.44420866531322e+001,-7.30991153156859e-001

1.17941537383287e+005,-2.44421312374328e+001,-7.41102086081823e-001

1.19587939890794e+005,-2.44421768137383e+001,-7.51350847397283e-001

1.21257325320831e+005,-2.44422233978279e+001,-7.61739259827590e-001

1.22950014503040e+005,-2.44422710054351e+001,-7.72269169464534e-001

1.24666332745679e+005,-2.44423196522317e+001,-7.82942446112342e-001

1.26406609898139e+005,-2.44423693538118e+001,-7.93760983646974e-001

1.28171180414339e+005,-2.44424201256746e+001,-8.04726700381938e-001

1.29960383416997e+005,-2.44424719832077e+001,-8.15841539445313e-001

1.31774562762811e+005,-2.44425249416692e+001,-8.27107469170521e-001

1.33614067108538e+005,-2.44425790161694e+001,-8.38526483494537e-001

1.35479249978003e+005,-2.44426342216530e+001,-8.50100602370019e-001

1.37370469830040e+005,-2.44426905728800e+001,-8.61831872188480e-001

1.39288090127379e+005,-2.44427480844066e+001,-8.73722366218082e-001

1.41232479406504e+005,-2.44428067705662e+001,-8.85774185050888e-001

1.43204011348474e+005,-2.44428666454501e+001,-8.97989457066000e-001

1.45203064850745e+005,-2.44429277228876e+001,-9.10370338904869e-001

1.47230024099979e+005,-2.44429900164262e+001,-9.22919015963200e-001

1.49285278645888e+005,-2.44430535393125e+001,-9.35637702891688e-001

1.51369223476094e+005,-2.44431183044720e+001,-9.48528644118607e-001

1.53482259092041e+005,-2.44431843244897e+001,-9.61594114381025e-001

1.55624791585964e+005,-2.44432516115910e+001,-9.74836419275408e-001

1.57797232718936e+005,-2.44433201776220e+001,-9.88257895821932e-001

1.59999999999999e+005,-2.44433900340310e+001,-1.00186091304627e+000

1.62233516766403e+005,-2.44434611918504e+001,-1.01564787257379e+000

1.64498212264969e+005,-2.44435336616781e+001,-1.02962120924719e+000

1.66794521734578e+005,-2.44436074536607e+001,-1.04378339175218e+000

1.69122886489819e+005,-2.44436825774768e+001,-1.05813692326569e+000

1.71483754005805e+005,-2.44437590423208e+001,-1.07268434211986e+000

1.73877578004168e+005,-2.44438368568883e+001,-1.08742822248113e+000

1.76304818540256e+005,-2.44439160293618e+001,-1.10237117504933e+000

1.78765942091554e+005,-2.44439965673979e+001,-1.11751584776917e+000

1.81261421647326e+005,-2.44440784781153e+001,-1.13286492656547e+000

1.83791736799524e+005,-2.44441617680846e+001,-1.14842113608780e+000

1.86357373834951e+005,-2.44442464433189e+001,-1.16418724047917e+000

1.88958825828723e+005,-2.44443325092664e+001,-1.18016604415524e+000

1.91596592739027e+005,-2.44444199708043e+001,-1.19636039260560e+000

1.94271181503206e+005,-2.44445088322346e+001,-1.21277317320520e+000

1.96983106135185e+005,-2.44445990972814e+001,-1.22940731604863e+000

1.99732887824256e+005,-2.44446907690906e+001,-1.24626579479482e+000

2.02521055035243e+005,-2.44447838502311e+001,-1.26335162752884e+000

2.05348143610063e+005,-2.44448783426985e+001,-1.28066787763951e+000

2.08214696870707e+005,-2.44449742479210e+001,-1.29821765470954e+000

2.11121265723661e+005,-2.44450715667673e+001,-1.31600411542138e+000

2.14068408765776e+005,-2.44451702995569e+001,-1.33403046447472e+000

2.17056692391625e+005,-2.44452704460735e+001,-1.35229995551845e+000

2.20086690902357e+005,-2.44453720055799e+001,-1.37081589209164e+000

2.23158986616063e+005,-2.44454749768365e+001,-1.38958162858074e+000

2.26274169979693e+005,-2.44455793581219e+001,-1.40860057118257e+000

2.29432839682530e+005,-2.44456851472562e+001,-1.42787617887932e+000

2.32635602771247e+005,-2.44457923416274e+001,-1.44741196442320e+000

2.35883074766574e+005,-2.44459009382203e+001,-1.46721149532812e+000

2.39175879781588e+005,-2.44460109336483e+001,-1.48727839486944e+000

2.42514650641661e+005,-2.44461223241882e+001,-1.50761634309017e+000

2.45900029006080e+005,-2.44462351058176e+001,-1.52822907781224e+000

2.49332665491357e+005,-2.44463492742552e+001,-1.54912039565484e+000

2.52813219796278e+005,-2.44464648250043e+001,-1.57029415305297e+000

2.56342360828676e+005,-2.44465817533982e+001,-1.59175426728310e+000

2.59920766833993e+005,-2.44467000546498e+001,-1.61350471748714e+000

2.63549125525621e+005,-2.44468197239021e+001,-1.63554954570277e+000

2.67228134217075e+005,-2.44469407562833e+001,-1.65789285788796e+000

2.70958499956006e+005,-2.44470631469630e+001,-1.68053882495170e+000

2.74740939660078e+005,-2.44471868912116e+001,-1.70349168377811e+000

2.78576180254757e+005,-2.44473119844623e+001,-1.72675573825350e+000

2.82464958813007e+005,-2.44474384223748e+001,-1.75033536028750e+000

2.86408022696948e+005,-2.44475662009019e+001,-1.77423499083401e+000

2.90406129701488e+005,-2.44476953163580e+001,-1.79845914090490e+000

2.94460048199957e+005,-2.44478257654893e+001,-1.82301239258403e+000

2.98570557291775e+005,-2.44479575455467e+001,-1.84789940003248e+000

3.02738446952187e+005,-2.44480906543594e+001,-1.87312489049126e+000

3.06964518184081e+005,-2.44482250904110e+001,-1.89869366527870e+000

3.11249583171928e+005,-2.44483608529165e+001,-1.92461060077989e+000

3.15594465437872e+005,-2.44484979419010e+001,-1.95088064943323e+000

3.19999999999997e+005,-2.44486363582794e+001,-1.97750884070992e+000

3.24467033532806e+005,-2.44487761039370e+001,-2.00450028208648e+000

3.28996424529938e+005,-2.44489171818113e+001,-2.03186016001378e+000

3.33589043469155e+005,-2.44490595959742e+001,-2.05959374087743e+000

3.38245772979638e+005,-2.44492033517150e+001,-2.08770637195688e+000

3.42967508011610e+005,-2.44493484556235e+001,-2.11620348237431e+000

3.47755156008335e+005,-2.44494949156736e+001,-2.14509058404331e+000

3.52609637080511e+005,-2.44496427413074e+001,-2.17437327261030e+000

3.57531884183106e+005,-2.44497919435181e+001,-2.20405722839438e+000

3.62522843294651e+005,-2.44499425349343e+001,-2.23414821732230e+000

3.67583473599047e+005,-2.44500945299027e+001,-2.26465209186253e+000

3.72714747669902e+005,-2.44502479445709e+001,-2.29557479195710e+000

3.77917651657445e+005,-2.44504027969704e+001,-2.32692234595184e+000

3.83193185478053e+005,-2.44505591070974e+001,-2.35870087152892e+000

3.88542363006410e+005,-2.44507168969944e+001,-2.39091657663839e+000

3.93966212270369e+005,-2.44508761908305e+001,-2.42357576043197e+000

3.99465775648511e+005,-2.44510370149803e+001,-2.45668481420163e+000

4.05042110070485e+005,-2.44511993981027e+001,-2.49025022232061e+000

4.10696287220124e+005,-2.44513633712183e+001,-2.52427856319024e+000

4.16429393741414e+005,-2.44515289677859e+001,-2.55877651019302e+000

4.22242531447321e+005,-2.44516962237778e+001,-2.59375083265443e+000

4.28136817531551e+005,-2.44518651777546e+001,-2.62920839681097e+000

4.34113384783250e+005,-2.44520358709380e+001,-2.66515616679111e+000

4.40173381804713e+005,-2.44522083472834e+001,-2.70160120560446e+000

4.46317973232124e+005,-2.44523826535512e+001,-2.73855067614612e+000

4.52548339959385e+005,-2.44525588393770e+001,-2.77601184221174e+000

4.58865679365059e+005,-2.44527369573409e+001,-2.81399206952896e+000

4.65271205542494e+005,-2.44529170630361e+001,-2.85249882680392e+000

4.71766149533147e+005,-2.44530992151361e+001,-2.89153968678515e+000

4.78351759563174e+005,-2.44532834754623e+001,-2.93112232734457e+000

4.85029301283321e+005,-2.44534699090494e+001,-2.97125453257835e+000

4.91800058012158e+005,-2.44536585842116e+001,-3.01194419392736e+000

4.98665330982714e+005,-2.44538495726070e+001,-3.05319931131938e+000

5.05626439592555e+005,-2.44540429493034e+001,-3.09502799433238e+000

5.12684721657352e+005,-2.44542387928417e+001,-3.13743846338143e+000

5.19841533667984e+005,-2.44544371853014e+001,-3.18043905092881e+000

5.27098251051240e+005,-2.44546382123637e+001,-3.22403820272014e+000

5.34456268434150e+005,-2.44548419633776e+001,-3.26824447904400e+000

5.41916999912011e+005,-2.44550485314231e+001,-3.31306655601867e+000

