Freq.,VOut,OutRef

1.00000000000000e+004,-1.44788511700295e+001,-8.27060497191228e-002

1.01395947979003e+004,-1.44788540227452e+001,-8.38599844362142e-002

1.02811382665607e+004,-1.44788569554965e+001,-8.50300020919101e-002

1.04246576084112e+004,-1.44788599705239e+001,-8.62163261222761e-002

1.05701804056138e+004,-1.44788630701310e+001,-8.74191830312448e-002

1.07177346253629e+004,-1.44788662566848e+001,-8.86388024430894e-002

1.08673486252606e+004,-1.44788695326188e+001,-8.98754171346112e-002

1.10190511587661e+004,-1.44788729004341e+001,-9.11292630807696e-002

1.11728713807222e+004,-1.44788763627016e+001,-9.24005794981688e-002

1.13288388529580e+004,-1.44788799220633e+001,-9.36896088871573e-002

1.14869835499703e+004,-1.44788835812350e+001,-9.49965970752231e-002

1.16473358646846e+004,-1.44788873430084e+001,-9.63217932576262e-002

1.18099266142953e+004,-1.44788912102526e+001,-9.76654500466354e-002

1.19747870461893e+004,-1.44788951859161e+001,-9.90278235176377e-002

1.21419488439505e+004,-1.44788992730297e+001,-1.00409173249582e-001

1.23114441334492e+004,-1.44789034747090e+001,-1.01809762370312e-001

1.24833054890161e+004,-1.44789077941551e+001,-1.03229857612710e-001

1.26575659397028e+004,-1.44789122346585e+001,-1.04669729349986e-001

1.28342589756290e+004,-1.44789167996012e+001,-1.06129651651541e-001

1.30134185544193e+004,-1.44789214924589e+001,-1.07609902325566e-001

1.31950791077289e+004,-1.44789263168038e+001,-1.09110762972158e-001

1.33792755478611e+004,-1.44789312763066e+001,-1.10632519032213e-001

1.35660432744767e+004,-1.44789363747410e+001,-1.12175459830711e-001

1.37554181813974e+004,-1.44789416159839e+001,-1.13739878636605e-001

1.39474366635040e+004,-1.44789470040203e+001,-1.15326072707889e-001

1.41421356237309e+004,-1.44789525429455e+001,-1.16934343342188e-001

1.43395524801583e+004,-1.44789582369682e+001,-1.18564995931137e-001

1.45397251732031e+004,-1.44789640904132e+001,-1.20218340013141e-001

1.47426921729110e+004,-1.44789701077249e+001,-1.21894689325814e-001

1.49484924863494e+004,-1.44789762934708e+001,-1.23594361856070e-001

1.51571656651040e+004,-1.44789826523447e+001,-1.25317679898371e-001

1.53687518128801e+004,-1.44789891891694e+001,-1.27064970110229e-001

1.55832915932100e+004,-1.44789959089012e+001,-1.28836563561415e-001

1.58008262372675e+004,-1.44790028166329e+001,-1.30632795795447e-001

1.60213975517924e+004,-1.44790099175980e+001,-1.32454006882269e-001

1.62450479271247e+004,-1.44790172171739e+001,-1.34300541476633e-001

1.64718203453514e+004,-1.44790247208860e+001,-1.36172748874462e-001

1.67017583885674e+004,-1.44790324344120e+001,-1.38070983070486e-001

1.69349062472505e+004,-1.44790403635855e+001,-1.39995602817569e-001

1.71713087287550e+004,-1.44790485144005e+001,-1.41946971684127e-001

1.74110112659224e+004,-1.44790568930159e+001,-1.43925458112771e-001

1.76540599258131e+004,-1.44790655057591e+001,-1.45931435483678e-001

1.79005014185594e+004,-1.44790743591317e+001,-1.47965282168509e-001

1.81503831063432e+004,-1.44790834598129e+001,-1.50027381598692e-001

1.84037530124975e+004,-1.44790928146649e+001,-1.52118122321178e-001

1.86606598307361e+004,-1.44791024307384e+001,-1.54237898059697e-001

1.89211529345119e+004,-1.44791123152759e+001,-1.56387107781871e-001

1.91852823865052e+004,-1.44791224757185e+001,-1.58566155757060e-001

1.94530989482457e+004,-1.44791329197105e+001,-1.60775451619546e-001

1.97246540898671e+004,-1.44791436551041e+001,-1.63015410437156e-001

1.99999999999999e+004,-1.44791546899662e+001,-1.65286452767635e-001

2.02791895958005e+004,-1.44791660325832e+001,-1.67589004727681e-001

2.05622765331213e+004,-1.44791776914666e+001,-1.69923498057928e-001

2.08493152168224e+004,-1.44791896753597e+001,-1.72290370183286e-001

2.11403608112276e+004,-1.44792019932432e+001,-1.74690064284203e-001

2.14354692507258e+004,-1.44792146543412e+001,-1.77123029358602e-001

2.17346972505211e+004,-1.44792276681277e+001,-1.79589720289329e-001

2.20381023175322e+004,-1.44792410443339e+001,-1.82090597907576e-001

2.23457427614443e+004,-1.44792547929531e+001,-1.84626129065570e-001

2.26576777059159e+004,-1.44792689242496e+001,-1.87196786697178e-001

2.29739670999406e+004,-1.44792834487636e+001,-1.89803049890416e-001

2.32946717293690e+004,-1.44792983773200e+001,-1.92445403949856e-001

2.36198532285905e+004,-1.44793137210354e+001,-1.95124340465350e-001

2.39495740923785e+004,-1.44793294913243e+001,-1.97840357384649e-001

2.42838976879009e+004,-1.44793456999086e+001,-2.00593959072120e-001

2.46228882668982e+004,-1.44793623588236e+001,-2.03385656388912e-001

2.49666109780322e+004,-1.44793794804276e+001,-2.06215966747063e-001

2.53151318794055e+004,-1.44793970774088e+001,-2.09085414190978e-001

2.56685179512580e+004,-1.44794151627947e+001,-2.11994529452382e-001

2.60268371088386e+004,-1.44794337499596e+001,-2.14943850032021e-001

2.63901582154578e+004,-1.44794528526339e+001,-2.17933920256300e-001

2.67585510957221e+004,-1.44794724849129e+001,-2.20965291353970e-001

2.71320865489533e+004,-1.44794926612662e+001,-2.24038521514797e-001

2.75108363627948e+004,-1.44795133965460e+001,-2.27154175967782e-001

2.78948733270080e+004,-1.44795347059977e+001,-2.30312827039543e-001

2.82842712474618e+004,-1.44795566052688e+001,-2.33515054227986e-001

2.86791049603164e+004,-1.44795791104192e+001,-2.36761444263993e-001

2.90794503464061e+004,-1.44796022379310e+001,-2.40052591181417e-001

2.94853843458219e+004,-1.44796260047188e+001,-2.43389096382770e-001

2.98969849726987e+004,-1.44796504281399e+001,-2.46771568704673e-001

3.03143313302078e+004,-1.44796755260059e+001,-2.50200624480562e-001

3.07375036257601e+004,-1.44797013165923e+001,-2.53676887609066e-001

3.11665831864199e+004,-1.44797278186502e+001,-2.57200989617412e-001

3.16016524745350e+004,-1.44797550514176e+001,-2.60773569720763e-001

3.20427951035848e+004,-1.44797830346309e+001,-2.64395274888163e-001

3.24900958542493e+004,-1.44798117885359e+001,-2.68066759905733e-001

3.29436406907028e+004,-1.44798413339006e+001,-2.71788687433097e-001

3.34035167771346e+004,-1.44798716920270e+001,-2.75561728063714e-001

3.38698124945009e+004,-1.44799028847624e+001,-2.79386560389554e-001

3.43426174575100e+004,-1.44799349345135e+001,-2.83263871049413e-001

3.48220225318448e+004,-1.44799678642576e+001,-2.87194354793004e-001

3.53081198516260e+004,-1.44800016975564e+001,-2.91178714531327e-001

3.58010028371187e+004,-1.44800364585685e+001,-2.95217661393291e-001

3.63007662126863e+004,-1.44800721720627e+001,-2.99311914776619e-001

3.68075060249948e+004,-1.44801088634317e+001,-3.03462202396885e-001

3.73213196614721e+004,-1.44801465587051e+001,-3.07669260341397e-001

3.78423058690237e+004,-1.44801852845641e+001,-3.11933833108559e-001

3.83705647730104e+004,-1.44802250683542e+001,-3.16256673663602e-001

3.89061978964912e+004,-1.44802659381002e+001,-3.20638543471674e-001

3.94493081797342e+004,-1.44803079225200e+001,-3.25080212546364e-001

3.99999999999998e+004,-1.44803510510393e+001,-3.29582459485734e-001

4.05583791916010e+004,-1.44803953538054e+001,-3.34146071510391e-001

4.11245530662425e+004,-1.44804408617029e+001,-3.38771844495834e-001

4.16986304336447e+004,-1.44804876063674e+001,-3.43460583008912e-001

4.22807216224550e+004,-1.44805356202008e+001,-3.48213100333288e-001

4.28709385014515e+004,-1.44805849363866e+001,-3.53030218495708e-001

4.34693945010421e+004,-1.44806355889042e+001,-3.57912768292976e-001

4.40762046350642e+004,-1.44806876125443e+001,-3.62861589311160e-001

4.46914855228886e+004,-1.44807410429243e+001,-3.67877529941405e-001

4.53153554118317e+004,-1.44807959165030e+001,-3.72961447397352e-001

4.59479341998812e+004,-1.44808522705957e+001,-3.78114207725025e-001

4.65893434587380e+004,-1.44809101433902e+001,-3.83336685806907e-001

4.72397064571810e+004,-1.44809695739609e+001,-3.88629765371242e-001

4.78991481847569e+004,-1.44810306022843e+001,-3.93994338989131e-001

4.85677953758016e+004,-1.44810932692543e+001,-3.99431308069417e-001

4.92457765337964e+004,-1.44811576166966e+001,-4.04941582852127e-001

4.99332219560642e+004,-1.44812236873838e+001,-4.10526082396946e-001

5.06302637588109e+004,-1.44812915250498e+001,-4.16185734563691e-001

5.13370359025159e+004,-1.44813611744044e+001,-4.21921475994870e-001

5.20536742176771e+004,-1.44814326811477e+001,-4.27734252085793e-001

5.27803164309155e+004,-1.44815060919835e+001,-4.33625016958213e-001

5.35171021914442e+004,-1.44815814546335e+001,-4.39594733421010e-001

5.42641730979066e+004,-1.44816588178504e+001,-4.45644372932619e-001

5.50216727255895e+004,-1.44817382314309e+001,-4.51774915553084e-001

5.57897466540159e+004,-1.44818197462284e+001,-4.57987349894651e-001

5.65685424949235e+004,-1.44819034141651e+001,-4.64282673064307e-001

5.73582099206328e+004,-1.44819892882434e+001,-4.70661890602489e-001

5.81589006928121e+004,-1.44820774225571e+001,-4.77126016415252e-001

5.89707686916437e+004,-1.44821678723021e+001,-4.83676072699563e-001

5.97939699453972e+004,-1.44822606937857e+001,-4.90313089867192e-001

6.06286626604156e+004,-1.44823559444361e+001,-4.97038106455563e-001

6.14750072515201e+004,-1.44824536828102e+001,-5.03852169040324e-001

6.23331663728396e+004,-1.44825539686022e+001,-5.10756332134269e-001

6.32033049490698e+004,-1.44826568626485e+001,-5.17751658086851e-001

6.40855902071694e+004,-1.44827624269349e+001,-5.24839216971959e-001

6.49801917084985e+004,-1.44828707246001e+001,-5.32020086473299e-001

6.58872813814055e+004,-1.44829818199393e+001,-5.39295351762639e-001

6.68070335542691e+004,-1.44830957784069e+001,-5.46666105369048e-001

6.77396249890018e+004,-1.44832126666170e+001,-5.54133447045402e-001

6.86852349150199e+004,-1.44833325523430e+001,-5.61698483627388e-001

6.96440450636895e+004,-1.44834555045162e+001,-5.69362328884935e-001

7.06162397032520e+004,-1.44835815932218e+001,-5.77126103369390e-001

7.16020056742374e+004,-1.44837108896945e+001,-5.84990934253714e-001

7.26015324253724e+004,-1.44838434663111e+001,-5.92957955167040e-001

7.36150120499896e+004,-1.44839793965827e+001,-6.01028306023698e-001

7.46426393229441e+004,-1.44841187551436e+001,-6.09203132845059e-001

7.56846117380472e+004,-1.44842616177392e+001,-6.17483587578474e-001

7.67411295460207e+004,-1.44844080612111e+001,-6.25870827909447e-001

7.78123957929823e+004,-1.44845581634803e+001,-6.34366017069338e-001

7.88986163594682e+004,-1.44847120035284e+001,-6.42970323637258e-001

7.99999999999995e+004,-1.44848696613750e+001,-6.51684921341294e-001

8.11167583832018e+004,-1.44850312180546e+001,-6.60510988850704e-001

8.22491061324848e+004,-1.44851967555888e+001,-6.69449709569557e-001

8.33972608672892e+004,-1.44853663569565e+001,-6.78502271425321e-001

8.45614432449099e+004,-1.44855401060619e+001,-6.87669866654172e-001

8.57418770029029e+004,-1.44857180876980e+001,-6.96953691585717e-001

8.69387890020841e+004,-1.44859003875080e+001,-7.06354946427581e-001

8.81524092701283e+004,-1.44860870919429e+001,-7.15874835046997e-001

8.93829710457770e+004,-1.44862782882159e+001,-7.25514564754152e-001

9.06307108236633e+004,-1.44864740642533e+001,-7.35275346087475e-001

9.18958683997622e+004,-1.44866745086411e+001,-7.45158392598627e-001

9.31786869174758e+004,-1.44868797105687e+001,-7.55164920642932e-001

9.44794129143618e+004,-1.44870897597681e+001,-7.65296149171365e-001

9.57982963695136e+004,-1.44873047464493e+001,-7.75553299528827e-001

9.71355907516031e+004,-1.44875247612315e+001,-7.85937595258244e-001

9.84915530675926e+004,-1.44877498950696e+001,-7.96450261913229e-001

9.98664439121282e+004,-1.44879802391778e+001,-8.07092526875192e-001

1.01260527517622e+005,-1.44882158849464e+001,-8.17865619186315e-001

1.02674071805032e+005,-1.44884569238563e+001,-8.28770769390070e-001

1.04107348435354e+005,-1.44887034473874e+001,-8.39809209384397e-001

1.05560632861831e+005,-1.44889555469229e+001,-8.50982172291764e-001

1.07034204382888e+005,-1.44892133136485e+001,-8.62290892344422e-001

1.08528346195813e+005,-1.44894768384475e+001,-8.73736604784590e-001

1.10043345451179e+005,-1.44897462117892e+001,-8.85320545790586e-001

1.11579493308032e+005,-1.44900215236146e+001,-8.97043952419553e-001

1.13137084989847e+005,-1.44903028632154e+001,-9.08908062574188e-001

1.14716419841265e+005,-1.44905903191087e+001,-9.20914114997306e-001

1.16317801385624e+005,-1.44908839789066e+001,-9.33063349293394e-001

1.17941537383287e+005,-1.44911839291808e+001,-9.45357005978229e-001

1.19587939890794e+005,-1.44914902553221e+001,-9.57796326563637e-001

1.21257325320831e+005,-1.44918030413952e+001,-9.70382553673809e-001

1.22950014503040e+005,-1.44921223699885e+001,-9.83116931199726e-001

1.24666332745679e+005,-1.44924483220588e+001,-9.96000704495823e-001

1.26406609898139e+005,-1.44927809767725e+001,-1.00903512060989e+000

1.28171180414339e+005,-1.44931204113405e+001,-1.02222142856802e+000

1.29960383416997e+005,-1.44934667008504e+001,-1.03556087969743e+000

1.31774562762811e+005,-1.44938199180933e+001,-1.04905472800276e+000

1.33614067108538e+005,-1.44941801333874e+001,-1.06270423059307e+000

1.35479249978003e+005,-1.44945474143975e+001,-1.07651064816382e+000

1.37370469830040e+005,-1.44949218259508e+001,-1.09047524553331e+000

1.39288090127379e+005,-1.44953034298502e+001,-1.10459929224124e+000

1.41232479406504e+005,-1.44956922846833e+001,-1.11888406320906e+000

1.43204011348474e+005,-1.44960884456307e+001,-1.13333083946096e+000

1.45203064850745e+005,-1.44964919642705e+001,-1.14794090891586e+000

1.47230024099979e+005,-1.44969028883821e+001,-1.16271556724506e+000

1.49285278645888e+005,-1.44973212617477e+001,-1.17765611880326e+000

1.51369223476094e+005,-1.44977471239539e+001,-1.19276387763112e+000

1.53482259092041e+005,-1.44981805101923e+001,-1.20804016853382e+000

1.55624791585964e+005,-1.44986214510599e+001,-1.22348632823672e+000

1.57797232718936e+005,-1.44990699723615e+001,-1.23910370661906e+000

1.59999999999999e+005,-1.44995260949117e+001,-1.25489366802876e+000

1.62233516766403e+005,-1.44999898343402e+001,-1.27085759267643e+000

1.64498212264969e+005,-1.45004612008986e+001,-1.28699687811707e+000

1.66794521734578e+005,-1.45009401992710e+001,-1.30331294080778e+000

1.69122886489819e+005,-1.45014268283881e+001,-1.31980721775775e+000

1.71483754005805e+005,-1.45019210812463e+001,-1.33648116825565e+000

1.73877578004168e+005,-1.45024229447316e+001,-1.35333627568606e+000

1.76304818540256e+005,-1.45029323994494e+001,-1.37037404942960e+000

1.78765942091554e+005,-1.45034494195622e+001,-1.38759602684466e+000

1.81261421647326e+005,-1.45039739726337e+001,-1.40500377533414e+000

1.83791736799524e+005,-1.45045060194813e+001,-1.42259889449551e+000

1.86357373834951e+005,-1.45050455140390e+001,-1.44038301834602e+000

1.88958825828723e+005,-1.45055924032279e+001,-1.45835781763324e+000

1.91596592739027e+005,-1.45061466268401e+001,-1.47652500221512e+000

1.94271181503206e+005,-1.45067081174316e+001,-1.49488632352019e+000

1.96983106135185e+005,-1.45072768002291e+001,-1.51344357707129e+000

1.99732887824256e+005,-1.45078525930489e+001,-1.53219860508290e+000

2.02521055035243e+005,-1.45084354062296e+001,-1.55115329911828e+000

2.05348143610063e+005,-1.45090251425792e+001,-1.57030960280624e+000

2.08214696870707e+005,-1.45096216973374e+001,-1.58966951461479e+000

2.11121265723661e+005,-1.45102249581535e+001,-1.60923509066973e+000

2.14068408765776e+005,-1.45108348050798e+001,-1.62900844762541e+000

2.17056692391625e+005,-1.45114511105835e+001,-1.64899176556727e+000

2.20086690902357e+005,-1.45120737395739e+001,-1.66918729095108e+000

2.23158986616063e+005,-1.45127025494485e+001,-1.68959733956896e+000

2.26274169979693e+005,-1.45133373901573e+001,-1.71022429953471e+000

2.29432839682530e+005,-1.45139781042847e+001,-1.73107063428371e+000

2.32635602771247e+005,-1.45146245271509e+001,-1.75213888557795e+000

2.35883074766574e+005,-1.45152764869318e+001,-1.77343167651144e+000

2.39175879781588e+005,-1.45159338047977e+001,-1.79495171450854e+000

2.42514650641661e+005,-1.45165962950714e+001,-1.81670179430487e+000

2.45900029006080e+005,-1.45172637654051e+001,-1.83868480090515e+000

2.49332665491357e+005,-1.45179360169759e+001,-1.86090371251203e+000

2.52813219796278e+005,-1.45186128447008e+001,-1.88336160341363e+000

2.56342360828676e+005,-1.45192940374681e+001,-1.90606164682900e+000

2.59920766833993e+005,-1.45199793783894e+001,-1.92900711769386e+000

2.63549125525621e+005,-1.45206686450667e+001,-1.95220139539072e+000

2.67228134217075e+005,-1.45213616098778e+001,-1.97564796640760e+000

2.70958499956006e+005,-1.45220580402776e+001,-1.99935042692051e+000

2.74740939660078e+005,-1.45227576991147e+001,-2.02331248529594e+000

2.78576180254757e+005,-1.45234603449636e+001,-2.04753796450016e+000

2.82464958813007e+005,-1.45241657324697e+001,-2.07203080441855e+000

2.86408022696948e+005,-1.45248736127082e+001,-2.09679506406729e+000

2.90406129701488e+005,-1.45255837335544e+001,-2.12183492370447e+000

2.94460048199957e+005,-1.45262958400653e+001,-2.14715468682481e+000

2.98570557291775e+005,-1.45270096748707e+001,-2.17275878204092e+000

3.02738446952187e+005,-1.45277249785731e+001,-2.19865176484294e+000

3.06964518184081e+005,-1.45284414901545e+001,-2.22483831923541e+000

3.11249583171928e+005,-1.45291589473897e+001,-2.25132325924787e+000

3.15594465437872e+005,-1.45298770872647e+001,-2.27811153031441e+000

3.19999999999997e+005,-1.45305956463976e+001,-2.30520821052633e+000

3.24467033532806e+005,-1.45313143614624e+001,-2.33261851175083e+000

3.28996424529938e+005,-1.45320329696132e+001,-2.36034778061848e+000

3.33589043469155e+005,-1.45327512089083e+001,-2.38840149937961e+000

3.38245772979638e+005,-1.45334688187314e+001,-2.41678528662880e+000

3.42967508011610e+005,-1.45341855402104e+001,-2.44550489790179e+000

3.47755156008335e+005,-1.45349011166311e+001,-2.47456622614376e+000

3.52609637080511e+005,-1.45356152938455e+001,-2.50397530205380e+000

3.57531884183106e+005,-1.45363278206720e+001,-2.53373829430862e+000

3.62522843294651e+005,-1.45370384492881e+001,-2.56386150966855e+000

3.67583473599047e+005,-1.45377469356133e+001,-2.59435139297119e+000

3.72714747669902e+005,-1.45384530396810e+001,-2.62521452701763e+000

3.77917651657445e+005,-1.45391565259987e+001,-2.65645763235571e+000

3.83193185478053e+005,-1.45398571638962e+001,-2.68808756696627e+000

3.88542363006410e+005,-1.45405547278589e+001,-2.72011132586119e+000

3.93966212270369e+005,-1.45412489978477e+001,-2.75253604059674e+000

3.99465775648511e+005,-1.45419397596028e+001,-2.78536897870999e+000

4.05042110070485e+005,-1.45426268049321e+001,-2.81861754308674e+000

4.10696287220124e+005,-1.45433099319824e+001,-2.85228927126848e+000

4.16429393741414e+005,-1.45439889454941e+001,-2.88639183470374e+000

4.22242531447321e+005,-1.45446636570377e+001,-2.92093303795517e+000

4.28136817531551e+005,-1.45453338852325e+001,-2.95592081786747e+000

4.34113384783250e+005,-1.45459994559474e+001,-2.99136324270557e+000

4.40173381804713e+005,-1.45466602024829e+001,-3.02726851127144e+000

4.46317973232124e+005,-1.45473159657350e+001,-3.06364495200580e+000

4.52548339959385e+005,-1.45479665943392e+001,-3.10050102208677e+000

4.58865679365059e+005,-1.45486119447984e+001,-3.13784530652619e+000

4.65271205542494e+005,-1.45492518815897e+001,-3.17568651728032e+000

4.71766149533147e+005,-1.45498862772550e+001,-3.21403349237498e+000

4.78351759563174e+005,-1.45505150124730e+001,-3.25289519505599e+000

4.85029301283321e+005,-1.45511379761128e+001,-3.29228071297326e+000

4.91800058012158e+005,-1.45517550652724e+001,-3.33219925740033e+000

4.98665330982714e+005,-1.45523661852979e+001,-3.37266016250259e+000

5.05626439592555e+005,-1.45529712497885e+001,-3.41367288465557e+000

5.12684721657352e+005,-1.45535701805847e+001,-3.45524700182130e+000

5.19841533667984e+005,-1.45541629077425e+001,-3.49739221298572e+000

5.27098251051240e+005,-1.45547493694916e+001,-3.54011833766930e+000

5.34456268434150e+005,-1.45553295121818e+001,-3.58343531550564e+000

5.41916999912011e+005,-1.45559032902149e+001,-3.62735320590110e+000

