Freq.,VOut,OutRef

1.00000000000000e+004,-4.31362221094849e+001,-5.10088558466958e-001

1.01395947979003e+004,-4.31362289311283e+001,-5.17208349877609e-001

1.02811382665607e+004,-4.31362359443572e+001,-5.24427496811586e-001

1.04246576084112e+004,-4.31362431545466e+001,-5.31747384819484e-001

1.05701804056138e+004,-4.31362505672220e+001,-5.39169418734356e-001

1.07177346253629e+004,-4.31362581880637e+001,-5.46695022936539e-001

1.08673486252606e+004,-4.31362660229105e+001,-5.54325641628708e-001

1.10190511587661e+004,-4.31362740777652e+001,-5.62062739103482e-001

1.11728713807222e+004,-4.31362823587980e+001,-5.69907800026813e-001

1.13288388529580e+004,-4.31362908723524e+001,-5.77862329715101e-001

1.14869835499703e+004,-4.31362996249485e+001,-5.85927854424133e-001

1.16473358646846e+004,-4.31363086232895e+001,-5.94105921634482e-001

1.18099266142953e+004,-4.31363178742659e+001,-6.02398100346728e-001

1.19747870461893e+004,-4.31363273849605e+001,-6.10805981378177e-001

1.21419488439505e+004,-4.31363371626544e+001,-6.19331177664055e-001

1.23114441334492e+004,-4.31363472148323e+001,-6.27975324561029e-001

1.24833054890161e+004,-4.31363575491880e+001,-6.36740080157520e-001

1.26575659397028e+004,-4.31363681736303e+001,-6.45627125586489e-001

1.28342589756290e+004,-4.31363790962888e+001,-6.54638165343184e-001

1.30134185544193e+004,-4.31363903255205e+001,-6.63774927606145e-001

1.31950791077289e+004,-4.31364018699155e+001,-6.73039164565054e-001

1.33792755478611e+004,-4.31364137383041e+001,-6.82432652747181e-001

1.35660432744767e+004,-4.31364259397628e+001,-6.91957193356993e-001

1.37554181813974e+004,-4.31364384836216e+001,-7.01614612611743e-001

1.39474366635040e+004,-4.31364513794710e+001,-7.11406762086878e-001

1.41421356237309e+004,-4.31364646371689e+001,-7.21335519063237e-001

1.43395524801583e+004,-4.31364782668483e+001,-7.31402786880914e-001

1.45397251732031e+004,-4.31364922789247e+001,-7.41610495297549e-001

1.47426921729110e+004,-4.31365066841042e+001,-7.51960600848595e-001

1.49484924863494e+004,-4.31365214933913e+001,-7.62455087214790e-001

1.51571656651040e+004,-4.31365367180971e+001,-7.73095965597237e-001

1.53687518128801e+004,-4.31365523698478e+001,-7.83885275090161e-001

1.55832915932100e+004,-4.31365684605938e+001,-7.94825083064450e-001

1.58008262372675e+004,-4.31365850026180e+001,-8.05917485555217e-001

1.60213975517924e+004,-4.31366020085454e+001,-8.17164607652872e-001

1.62450479271247e+004,-4.31366194913526e+001,-8.28568603900163e-001

1.64718203453514e+004,-4.31366374643768e+001,-8.40131658694917e-001

1.67017583885674e+004,-4.31366559413268e+001,-8.51855986696817e-001

1.69349062472505e+004,-4.31366749362922e+001,-8.63743833240892e-001

1.71713087287550e+004,-4.31366944637547e+001,-8.75797474755206e-001

1.74110112659224e+004,-4.31367145385982e+001,-8.88019219185184e-001

1.76540599258131e+004,-4.31367351761202e+001,-9.00411406421063e-001

1.79005014185594e+004,-4.31367563920432e+001,-9.12976408734756e-001

1.81503831063432e+004,-4.31367782025262e+001,-9.25716631217857e-001

1.84037530124975e+004,-4.31368006241767e+001,-9.38634512228561e-001

1.86606598307361e+004,-4.31368236740630e+001,-9.51732523843520e-001

1.89211529345119e+004,-4.31368473697269e+001,-9.65013172314949e-001

1.91852823865052e+004,-4.31368717291963e+001,-9.78478998533353e-001

1.94530989482457e+004,-4.31368967709990e+001,-9.92132578496686e-001

1.97246540898671e+004,-4.31369225141761e+001,-1.00597652378585e+000

1.99999999999999e+004,-4.31369489782956e+001,-1.02001348204590e+000

2.02791895958005e+004,-4.31369761834678e+001,-1.03424613747237e+000

2.05622765331213e+004,-4.31370041503587e+001,-1.04867721130508e+000

2.08493152168224e+004,-4.31370329002065e+001,-1.06330946232715e+000

2.11403608112276e+004,-4.31370624548361e+001,-1.07814568737174e+000

2.14354692507258e+004,-4.31370928366755e+001,-1.09318872183263e+000

2.17346972505211e+004,-4.31371240687720e+001,-1.10844144018413e+000

2.20381023175322e+004,-4.31371561748094e+001,-1.12390675650392e+000

2.23457427614443e+004,-4.31371891791245e+001,-1.13958762500620e+000

2.26576777059159e+004,-4.31372231067256e+001,-1.15548704057906e+000

2.29739670999406e+004,-4.31372579833098e+001,-1.17160803932803e+000

2.32946717293690e+004,-4.31372938352823e+001,-1.18795369912809e+000

2.36198532285905e+004,-4.31373306897750e+001,-1.20452714018139e+000

2.39495740923785e+004,-4.31373685746664e+001,-1.22133152558140e+000

2.42838976879009e+004,-4.31374075186013e+001,-1.23837006188435e+000

2.46228882668982e+004,-4.31374475510120e+001,-1.25564599968789e+000

2.49666109780322e+004,-4.31374887021387e+001,-1.27316263421630e+000

2.53151318794055e+004,-4.31375310030515e+001,-1.29092330591200e+000

2.56685179512580e+004,-4.31375744856727e+001,-1.30893140103542e+000

2.60268371088386e+004,-4.31376191827994e+001,-1.32719035227071e+000

2.63901582154578e+004,-4.31376651281268e+001,-1.34570363934052e+000

2.67585510957221e+004,-4.31377123562722e+001,-1.36447478962454e+000

2.71320865489533e+004,-4.31377609027995e+001,-1.38350737878900e+000

2.75108363627948e+004,-4.31378108042444e+001,-1.40280503142142e+000

2.78948733270080e+004,-4.31378620981401e+001,-1.42237142167247e+000

2.82842712474618e+004,-4.31379148230435e+001,-1.44221027390711e+000

2.86791049603164e+004,-4.31379690185626e+001,-1.46232536336061e+000

2.90794503464061e+004,-4.31380247253840e+001,-1.48272051680350e+000

2.94853843458219e+004,-4.31380819853012e+001,-1.50339961321414e+000

2.98969849726987e+004,-4.31381408412442e+001,-1.52436658445850e+000

3.03143313302078e+004,-4.31382013373084e+001,-1.54562541597724e+000

3.07375036257601e+004,-4.31382635187859e+001,-1.56718014748047e+000

3.11665831864199e+004,-4.31383274321965e+001,-1.58903487365130e+000

3.16016524745350e+004,-4.31383931253195e+001,-1.61119374485444e+000

3.20427951035848e+004,-4.31384606472266e+001,-1.63366096785614e+000

3.24900958542493e+004,-4.31385300483155e+001,-1.65644080654865e+000

3.29436406907028e+004,-4.31386013803441e+001,-1.67953758268389e+000

3.34035167771346e+004,-4.31386746964659e+001,-1.70295567661469e+000

3.38698124945009e+004,-4.31387500512653e+001,-1.72669952804457e+000

3.43426174575100e+004,-4.31388275007952e+001,-1.75077363678380e+000

3.48220225318448e+004,-4.31389071026140e+001,-1.77518256351474e+000

3.53081198516260e+004,-4.31389889158245e+001,-1.79993093056464e+000

3.58010028371187e+004,-4.31390730011131e+001,-1.82502342268537e+000

3.63007662126863e+004,-4.31391594207898e+001,-1.85046478784281e+000

3.68075060249948e+004,-4.31392482388299e+001,-1.87625983801277e+000

3.73213196614721e+004,-4.31393395209156e+001,-1.90241344998548e+000

3.78423058690237e+004,-4.31394333344794e+001,-1.92893056617773e+000

3.83705647730104e+004,-4.31395297487477e+001,-1.95581619545283e+000

3.89061978964912e+004,-4.31396288347861e+001,-1.98307541394920e+000

3.94493081797342e+004,-4.31397306655448e+001,-2.01071336591532e+000

3.99999999999998e+004,-4.31398353159059e+001,-2.03873526455520e+000

4.05583791916010e+004,-4.31399428627311e+001,-2.06714639287892e+000

4.11245530662425e+004,-4.31400533849106e+001,-2.09595210456325e+000

4.16986304336447e+004,-4.31401669634128e+001,-2.12515782481858e+000

4.22807216224550e+004,-4.31402836813357e+001,-2.15476905126490e+000

4.28709385014515e+004,-4.31404036239582e+001,-2.18479135481528e+000

4.34693945010421e+004,-4.31405268787939e+001,-2.21523038056663e+000

4.40762046350642e+004,-4.31406535356443e+001,-2.24609184869952e+000

4.46914855228886e+004,-4.31407836866548e+001,-2.27738155538434e+000

4.53153554118317e+004,-4.31409174263702e+001,-2.30910537369684e+000

4.59479341998812e+004,-4.31410548517925e+001,-2.34126925453905e+000

4.65893434587380e+004,-4.31411960624391e+001,-2.37387922757161e+000

4.72397064571810e+004,-4.31413411604023e+001,-2.40694140214989e+000

4.78991481847569e+004,-4.31414902504099e+001,-2.44046196827024e+000

4.85677953758016e+004,-4.31416434398869e+001,-2.47444719752331e+000

4.92457765337964e+004,-4.31418008390184e+001,-2.50890344405452e+000

4.99332219560642e+004,-4.31419625608135e+001,-2.54383714553285e+000

5.06302637588109e+004,-4.31421287211701e+001,-2.57925482412701e+000

5.13370359025159e+004,-4.31422994389414e+001,-2.61516308748773e+000

5.20536742176771e+004,-4.31424748360031e+001,-2.65156862974034e+000

5.27803164309155e+004,-4.31426550373214e+001,-2.68847823248250e+000

5.35171021914442e+004,-4.31428401710230e+001,-2.72589876579019e+000

5.42641730979066e+004,-4.31430303684655e+001,-2.76383718923046e+000

5.50216727255895e+004,-4.31432257643087e+001,-2.80230055288372e+000

5.57897466540159e+004,-4.31434264965879e+001,-2.84129599837036e+000

5.65685424949235e+004,-4.31436327067874e+001,-2.88083075988673e+000

5.73582099206328e+004,-4.31438445399155e+001,-2.92091216524852e+000

5.81589006928121e+004,-4.31440621445804e+001,-2.96154763694040e+000

5.89707686916437e+004,-4.31442856730672e+001,-3.00274469317358e+000

5.97939699453972e+004,-4.31445152814158e+001,-3.04451094895126e+000

6.06286626604156e+004,-4.31447511295000e+001,-3.08685411714058e+000

6.14750072515201e+004,-4.31449933811076e+001,-3.12978200955253e+000

6.23331663728396e+004,-4.31452422040211e+001,-3.17330253802906e+000

6.32033049490698e+004,-4.31454977700994e+001,-3.21742371553846e+000

6.40855902071694e+004,-4.31457602553613e+001,-3.26215365727635e+000

6.49801917084985e+004,-4.31460298400682e+001,-3.30750058177733e+000

6.58872813814055e+004,-4.31463067088093e+001,-3.35347281203118e+000

6.68070335542691e+004,-4.31465910505868e+001,-3.40007877660926e+000

6.77396249890018e+004,-4.31468830589016e+001,-3.44732701079821e+000

6.86852349150199e+004,-4.31471829318407e+001,-3.49522615774079e+000

6.96440450636895e+004,-4.31474908721643e+001,-3.54378496958662e+000

7.06162397032520e+004,-4.31478070873944e+001,-3.59301230865020e+000

7.16020056742374e+004,-4.31481317899036e+001,-3.64291714857773e+000

7.26015324253724e+004,-4.31484651970041e+001,-3.69350857552414e+000

7.36150120499896e+004,-4.31488075310384e+001,-3.74479578933731e+000

7.46426393229441e+004,-4.31491590194692e+001,-3.79678810475321e+000

7.56846117380472e+004,-4.31495198949707e+001,-3.84949495260057e+000

7.67411295460207e+004,-4.31498903955196e+001,-3.90292588101576e+000

7.78123957929823e+004,-4.31502707644872e+001,-3.95709055666762e+000

7.88986163594682e+004,-4.31506612507311e+001,-4.01199876599435e+000

7.99999999999995e+004,-4.31510621086872e+001,-4.06766041645149e+000

8.11167583832018e+004,-4.31514735984628e+001,-4.12408553777153e+000

8.22491061324848e+004,-4.31518959859284e+001,-4.18128428323681e+000

8.33972608672892e+004,-4.31523295428109e+001,-4.23926693096542e+000

8.45614432449099e+004,-4.31527745467859e+001,-4.29804388521074e+000

8.57418770029029e+004,-4.31532312815706e+001,-4.35762567767603e+000

8.69387890020841e+004,-4.31537000370164e+001,-4.41802296884421e+000

8.81524092701283e+004,-4.31541811092012e+001,-4.47924654932341e+000

8.93829710457770e+004,-4.31546748005222e+001,-4.54130734121138e+000

9.06307108236633e+004,-4.31551814197875e+001,-4.60421639947528e+000

9.18958683997622e+004,-4.31557012823082e+001,-4.66798491335320e+000

9.31786869174758e+004,-4.31562347099903e+001,-4.73262420777409e+000

9.44794129143618e+004,-4.31567820314257e+001,-4.79814574479983e+000

9.57982963695136e+004,-4.31573435819836e+001,-4.86456112509005e+000

9.71355907516031e+004,-4.31579197039006e+001,-4.93188208938997e+000

9.84915530675926e+004,-4.31585107463715e+001,-5.00012052004443e+000

9.98664439121282e+004,-4.31591170656393e+001,-5.06928844253765e+000

1.01260527517622e+005,-4.31597390250844e+001,-5.13939802706224e+000

1.02674071805032e+005,-4.31603769953142e+001,-5.21046159011658e+000

1.04107348435354e+005,-4.31610313542517e+001,-5.28249159613521e+000

1.05560632861831e+005,-4.31617024872248e+001,-5.35550065915121e+000

1.07034204382888e+005,-4.31623907870542e+001,-5.42950154449345e+000

1.08528346195813e+005,-4.31630966541416e+001,-5.50450717052221e+000

1.10043345451179e+005,-4.31638204965585e+001,-5.58053061040145e+000

1.11579493308032e+005,-4.31645627301340e+001,-5.65758509391364e+000

1.13137084989847e+005,-4.31653237785429e+001,-5.73568400931665e+000

1.14716419841265e+005,-4.31661040733951e+001,-5.81484090524613e+000

1.16317801385624e+005,-4.31669040543238e+001,-5.89506949266473e+000

1.17941537383287e+005,-4.31677241690754e+001,-5.97638364686167e+000

1.19587939890794e+005,-4.31685648736001e+001,-6.05879740950274e+000

1.21257325320831e+005,-4.31694266321430e+001,-6.14232499073654e+000

1.22950014503040e+005,-4.31703099173368e+001,-6.22698077135597e+000

1.24666332745679e+005,-4.31712152102962e+001,-6.31277930501920e+000

1.26406609898139e+005,-4.31721430007136e+001,-6.39973532053198e+000

1.28171180414339e+005,-4.31730937869577e+001,-6.48786372419468e+000

1.29960383416997e+005,-4.31740680761737e+001,-6.57717960221545e+000

1.31774562762811e+005,-4.31750663843873e+001,-6.66769822319207e+000

1.33614067108538e+005,-4.31760892366117e+001,-6.75943504066502e+000

1.35479249978003e+005,-4.31771371669583e+001,-6.85240569574586e+000

1.37370469830040e+005,-4.31782107187521e+001,-6.94662601982013e+000

1.39288090127379e+005,-4.31793104446516e+001,-7.04211203732916e+000

1.41232479406504e+005,-4.31804369067742e+001,-7.13887996863328e+000

1.43204011348474e+005,-4.31815906768279e+001,-7.23694623295725e+000

1.45203064850745e+005,-4.31827723362495e+001,-7.33632745142060e+000

1.47230024099979e+005,-4.31839824763506e+001,-7.43704045015461e+000

1.49285278645888e+005,-4.31852216984706e+001,-7.53910226350779e+000

1.51369223476094e+005,-4.31864906141405e+001,-7.64253013734194e+000

1.53482259092041e+005,-4.31877898452543e+001,-7.74734153241812e+000

1.55624791585964e+005,-4.31891200242529e+001,-7.85355412787633e+000

1.57797232718936e+005,-4.31904817943178e+001,-7.96118582480826e+000

1.59999999999999e+005,-4.31918758095784e+001,-8.07025474992361e+000

1.62233516766403e+005,-4.31933027353323e+001,-8.18077925931084e+000

1.64498212264969e+005,-4.31947632482792e+001,-8.29277794229280e+000

1.66794521734578e+005,-4.31962580367712e+001,-8.40626962537613e+000

1.69122886489819e+005,-4.31977878010794e+001,-8.52127337629331e+000

1.71483754005805e+005,-4.31993532536767e+001,-8.63780850813862e+000

1.73877578004168e+005,-4.32009551195414e+001,-8.75589458359377e+000

1.76304818540256e+005,-4.32025941364784e+001,-8.87555141924353e+000

1.78765942091554e+005,-4.32042710554626e+001,-8.99679908997774e+000

1.81261421647326e+005,-4.32059866410041e+001,-9.11965793347735e+000

1.83791736799524e+005,-4.32077416715365e+001,-9.24414855478168e+000

1.86357373834951e+005,-4.32095369398296e+001,-9.37029183093322e+000

1.88958825828723e+005,-4.32113732534277e+001,-9.49810891569414e+000

1.91596592739027e+005,-4.32132514351152e+001,-9.62762124433194e+000

1.94271181503206e+005,-4.32151723234094e+001,-9.75885053846820e+000

1.96983106135185e+005,-4.32171367730830e+001,-9.89181881098350e+000

1.99732887824256e+005,-4.32191456557168e+001,-1.00265483709737e+001

2.02521055035243e+005,-4.32211998602837e+001,-1.01630618287501e+001

2.05348143610063e+005,-4.32233002937652e+001,-1.03013821008747e+001

2.08214696870707e+005,-4.32254478818017e+001,-1.04415324152252e+001

2.11121265723661e+005,-4.32276435693772e+001,-1.05835363160792e+001

2.14068408765776e+005,-4.32298883215395e+001,-1.07274176692079e+001

2.17056692391625e+005,-4.32321831241569e+001,-1.08732006669718e+001

2.20086690902357e+005,-4.32345289847125e+001,-1.10209098334068e+001

2.23158986616063e+005,-4.32369269331363e+001,-1.11705700292904e+001

2.26274169979693e+005,-4.32393780226759e+001,-1.13222064571763e+001

2.29432839682530e+005,-4.32418833308073e+001,-1.14758446663873e+001

2.32635602771247e+005,-4.32444439601849e+001,-1.16315105579525e+001

2.35883074766574e+005,-4.32470610396332e+001,-1.17892303894791e+001

2.39175879781588e+005,-4.32497357251773e+001,-1.19490307799426e+001

2.42514650641661e+005,-4.32524692011168e+001,-1.21109387143861e+001

2.45900029006080e+005,-4.32552626811394e+001,-1.22749815485129e+001

2.49332665491357e+005,-4.32581174094764e+001,-1.24411870131591e+001

2.52813219796278e+005,-4.32610346620994e+001,-1.26095832186349e+001

2.56342360828676e+005,-4.32640157479584e+001,-1.27801986589160e+001

2.59920766833993e+005,-4.32670620102605e+001,-1.29530622156781e+001

2.63549125525621e+005,-4.32701748277890e+001,-1.31282031621525e+001

2.67228134217075e+005,-4.32733556162631e+001,-1.33056511667965e+001

2.70958499956006e+005,-4.32766058297365e+001,-1.34854362967589e+001

2.74740939660078e+005,-4.32799269620349e+001,-1.36675890211300e+001

2.78576180254757e+005,-4.32833205482314e+001,-1.38521402139624e+001

2.82464958813007e+005,-4.32867881661590e+001,-1.40391211570469e+001

2.86408022696948e+005,-4.32903314379591e+001,-1.42285635424334e+001

2.90406129701488e+005,-4.32939520316641e+001,-1.44204994746823e+001

2.94460048199957e+005,-4.32976516628148e+001,-1.46149614728327e+001

2.98570557291775e+005,-4.33014320961090e+001,-1.48119824720791e+001

3.02738446952187e+005,-4.33052951470815e+001,-1.50115958251403e+001

3.06964518184081e+005,-4.33092426838132e+001,-1.52138353033129e+001

3.11249583171928e+005,-4.33132766286682e+001,-1.54187350971961e+001

3.15594465437872e+005,-4.33173989600566e+001,-1.56263298170788e+001

3.19999999999997e+005,-4.33216117142225e+001,-1.58366544929797e+001

3.24467033532806e+005,-4.33259169870536e+001,-1.60497445743290e+001

3.28996424529938e+005,-4.33303169359127e+001,-1.62656359292852e+001

3.33589043469155e+005,-4.33348137814872e+001,-1.64843648436777e+001

3.38245772979638e+005,-4.33394098096566e+001,-1.67059680195684e+001

3.42967508011610e+005,-4.33441073733744e+001,-1.69304825734231e+001

3.47755156008335e+005,-4.33489088945633e+001,-1.71579460338897e+001

3.52609637080511e+005,-4.33538168660221e+001,-1.73883963391736e+001

3.57531884183106e+005,-4.33588338533409e+001,-1.76218718340075e+001

3.62522843294651e+005,-4.33639624968246e+001,-1.78584112662079e+001

3.67583473599047e+005,-4.33692055134206e+001,-1.80980537828175e+001

3.72714747669902e+005,-4.33745656986501e+001,-1.83408389258255e+001

3.77917651657445e+005,-4.33800459285407e+001,-1.85868066274639e+001

3.83193185478053e+005,-4.33856491615578e+001,-1.88359972050772e+001

3.88542363006410e+005,-4.33913784405333e+001,-1.90884513555611e+001

3.93966212270369e+005,-4.33972368945900e+001,-1.93442101493681e+001

3.99465775648511e+005,-4.34032277410583e+001,-1.96033150240777e+001

4.05042110070485e+005,-4.34093542873849e+001,-1.98658077775295e+001

4.10696287220124e+005,-4.34156199330304e+001,-2.01317305605155e+001

4.16429393741414e+005,-4.34220281713545e+001,-2.04011258690325e+001

4.22242531447321e+005,-4.34285825914868e+001,-2.06740365360907e+001

4.28136817531551e+005,-4.34352868801802e+001,-2.09505057230785e+001

4.34113384783250e+005,-4.34421448236474e+001,-2.12305769106802e+001

4.40173381804713e+005,-4.34491603093753e+001,-2.15142938893480e+001

4.46317973232124e+005,-4.34563373279186e+001,-2.18017007493245e+001

4.52548339959385e+005,-4.34636799746681e+001,-2.20928418702152e+001

4.58865679365059e+005,-4.34711924515932e+001,-2.23877619101100e+001

4.65271205542494e+005,-4.34788790689562e+001,-2.26865057942521e+001

4.71766149533147e+005,-4.34867442469958e+001,-2.29891187032529e+001

4.78351759563174e+005,-4.34947925175790e+001,-2.32956460608509e+001

4.85029301283321e+005,-4.35030285258178e+001,-2.36061335212151e+001

4.91800058012158e+005,-4.35114570316493e+001,-2.39206269557889e+001

4.98665330982714e+005,-4.35200829113775e+001,-2.42391724396759e+001

5.05626439592555e+005,-4.35289111591726e+001,-2.45618162375627e+001

5.12684721657352e+005,-4.35379468885283e+001,-2.48886047891821e+001

5.19841533667984e+005,-4.35471953336710e+001,-2.52195846943119e+001

5.27098251051240e+005,-4.35566618509220e+001,-2.55548026973085e+001

5.34456268434150e+005,-4.35663519200075e+001,-2.58943056711769e+001

5.41916999912011e+005,-4.35762711453142e+001,-2.62381406011745e+001

