Freq.,VOut,OutRef

1.00000000000000e+004,-1.58556664714668e+000,-1.08232206618566e-001

1.01395947979003e+004,-1.58556665161807e+000,-1.09743061126471e-001

1.02811382665607e+004,-1.58556665621206e+000,-1.11275005920064e-001

1.04246576084112e+004,-1.58556666093211e+000,-1.12828335388276e-001

1.05701804056138e+004,-1.58556666578131e+000,-1.14403348031171e-001

1.07177346253629e+004,-1.58556667076328e+000,-1.16000346512845e-001

1.08673486252606e+004,-1.58556667588140e+000,-1.17619637722726e-001

1.10190511587661e+004,-1.58556668113960e+000,-1.19261532831280e-001

1.11728713807222e+004,-1.58556668654119e+000,-1.20926347355393e-001

1.13288388529580e+004,-1.58556669209036e+000,-1.22614401211200e-001

1.14869835499703e+004,-1.58556669779058e+000,-1.24326018783946e-001

1.16473358646846e+004,-1.58556670364611e+000,-1.26061528982674e-001

1.18099266142953e+004,-1.58556670966093e+000,-1.27821265308025e-001

1.19747870461893e+004,-1.58556671583931e+000,-1.29605565914325e-001

1.21419488439505e+004,-1.58556672218549e+000,-1.31414773676067e-001

1.23114441334492e+004,-1.58556672870375e+000,-1.33249236252560e-001

1.24833054890161e+004,-1.58556673539865e+000,-1.35109306154477e-001

1.26575659397028e+004,-1.58556674227481e+000,-1.36995340811699e-001

1.28342589756290e+004,-1.58556674933686e+000,-1.38907702643430e-001

1.30134185544193e+004,-1.58556675658967e+000,-1.40846759125195e-001

1.31950791077289e+004,-1.58556676403805e+000,-1.42812882861690e-001

1.33792755478611e+004,-1.58556677168717e+000,-1.44806451656201e-001

1.35660432744767e+004,-1.58556677954214e+000,-1.46827848585203e-001

1.37554181813974e+004,-1.58556678760815e+000,-1.48877462070831e-001

1.39474366635040e+004,-1.58556679589079e+000,-1.50955685954254e-001

1.41421356237309e+004,-1.58556680439519e+000,-1.53062919575827e-001

1.43395524801583e+004,-1.58556681312734e+000,-1.55199567843696e-001

1.45397251732031e+004,-1.58556682209261e+000,-1.57366041321330e-001

1.47426921729110e+004,-1.58556683129728e+000,-1.59562756295797e-001

1.49484924863494e+004,-1.58556684074700e+000,-1.61790134868249e-001

1.51571656651040e+004,-1.58556685044819e+000,-1.64048605025456e-001

1.53687518128801e+004,-1.58556686040688e+000,-1.66338600729090e-001

1.55832915932100e+004,-1.58556687062950e+000,-1.68660561995217e-001

1.58008262372675e+004,-1.58556688112250e+000,-1.71014934979710e-001

1.60213975517924e+004,-1.58556689189281e+000,-1.73402172061637e-001

1.62450479271247e+004,-1.58556690294683e+000,-1.75822731936123e-001

1.64718203453514e+004,-1.58556691429178e+000,-1.78277079694543e-001

1.67017583885674e+004,-1.58556692593438e+000,-1.80765686920854e-001

1.69349062472505e+004,-1.58556693788206e+000,-1.83289031775755e-001

1.71713087287550e+004,-1.58556695014210e+000,-1.85847599092633e-001

1.74110112659224e+004,-1.58556696272178e+000,-1.88441880470356e-001

1.76540599258131e+004,-1.58556697562878e+000,-1.91072374365143e-001

1.79005014185594e+004,-1.58556698887087e+000,-1.93739586187075e-001

1.81503831063432e+004,-1.58556700245575e+000,-1.96444028399281e-001

1.84037530124975e+004,-1.58556701639152e+000,-1.99186220612433e-001

1.86606598307361e+004,-1.58556703068620e+000,-2.01966689687537e-001

1.89211529345119e+004,-1.58556704534800e+000,-2.04785969835588e-001

1.91852823865052e+004,-1.58556706038533e+000,-2.07644602719028e-001

1.94530989482457e+004,-1.58556707580675e+000,-2.10543137557338e-001

1.97246540898671e+004,-1.58556709162061e+000,-2.13482131233069e-001

1.99999999999999e+004,-1.58556710783588e+000,-2.16462148394094e-001

2.02791895958005e+004,-1.58556712446128e+000,-2.19483761567338e-001

2.05622765331213e+004,-1.58556714150562e+000,-2.22547551265961e-001

2.08493152168224e+004,-1.58556715897814e+000,-2.25654106098528e-001

2.11403608112276e+004,-1.58556717688797e+000,-2.28804022885660e-001

2.14354692507258e+004,-1.58556719524425e+000,-2.31997906772542e-001

2.17346972505211e+004,-1.58556721405625e+000,-2.35236371345200e-001

2.20381023175322e+004,-1.58556723333363e+000,-2.38520038745921e-001

2.23457427614443e+004,-1.58556725308557e+000,-2.41849539797333e-001

2.26576777059159e+004,-1.58556727332180e+000,-2.45225514117397e-001

2.29739670999406e+004,-1.58556729405185e+000,-2.48648610246317e-001

2.32946717293690e+004,-1.58556731528537e+000,-2.52119485768515e-001

2.36198532285905e+004,-1.58556733703199e+000,-2.55638807439879e-001

2.39495740923785e+004,-1.58556735930143e+000,-2.59207251313613e-001

2.42838976879009e+004,-1.58556738210338e+000,-2.62825502871356e-001

2.46228882668982e+004,-1.58556740544754e+000,-2.66494257153788e-001

2.49666109780322e+004,-1.58556742934343e+000,-2.70214218894630e-001

2.53151318794055e+004,-1.58556745380089e+000,-2.73986102651812e-001

2.56685179512580e+004,-1.58556747882927e+000,-2.77810632950247e-001

2.60268371088386e+004,-1.58556750443827e+000,-2.81688544414037e-001

2.63901582154578e+004,-1.58556753063704e+000,-2.85620581913119e-001

2.67585510957221e+004,-1.58556755743488e+000,-2.89607500701303e-001

2.71320865489533e+004,-1.58556758484079e+000,-2.93650066562690e-001

2.75108363627948e+004,-1.58556761286388e+000,-2.97749055956402e-001

2.78948733270080e+004,-1.58556764151287e+000,-3.01905256167031e-001

2.82842712474618e+004,-1.58556767079594e+000,-3.06119465456459e-001

2.86791049603164e+004,-1.58556770072150e+000,-3.10392493211348e-001

2.90794503464061e+004,-1.58556773129737e+000,-3.14725160103144e-001

2.94853843458219e+004,-1.58556776253107e+000,-3.19118298241915e-001

2.98969849726987e+004,-1.58556779442978e+000,-3.23572751336239e-001

3.03143313302078e+004,-1.58556782700019e+000,-3.28089374854945e-001

3.07375036257601e+004,-1.58556786024850e+000,-3.32669036189593e-001

3.11665831864199e+004,-1.58556789418032e+000,-3.37312614821322e-001

3.16016524745350e+004,-1.58556792880092e+000,-3.42021002486742e-001

3.20427951035848e+004,-1.58556796411462e+000,-3.46795103351141e-001

3.24900958542493e+004,-1.58556800012537e+000,-3.51635834177709e-001

3.29436406907028e+004,-1.58556803683593e+000,-3.56544124507194e-001

3.34035167771346e+004,-1.58556807424861e+000,-3.61520916829873e-001

3.38698124945009e+004,-1.58556811236454e+000,-3.66567166769756e-001

3.43426174575100e+004,-1.58556815118398e+000,-3.71683843264870e-001

3.48220225318448e+004,-1.58556819070611e+000,-3.76871928752057e-001

3.53081198516260e+004,-1.58556823092898e+000,-3.82132419355192e-001

3.58010028371187e+004,-1.58556827184928e+000,-3.87466325075170e-001

3.63007662126863e+004,-1.58556831346231e+000,-3.92874669982010e-001

3.68075060249948e+004,-1.58556835576207e+000,-3.98358492409627e-001

3.73213196614721e+004,-1.58556839874077e+000,-4.03918845155647e-001

3.78423058690237e+004,-1.58556844238902e+000,-4.09556795679531e-001

3.83705647730104e+004,-1.58556848669560e+000,-4.15273426307784e-001

3.89061978964912e+004,-1.58556853164732e+000,-4.21069834439636e-001

3.94493081797342e+004,-1.58556857722885e+000,-4.26947132754957e-001

3.99999999999998e+004,-1.58556862342256e+000,-4.32906449429008e-001

4.05583791916010e+004,-1.58556867020829e+000,-4.38948928344495e-001

4.11245530662425e+004,-1.58556871756356e+000,-4.45075729309427e-001

4.16986304336447e+004,-1.58556876546283e+000,-4.51288028279861e-001

4.22807216224550e+004,-1.58556881387768e+000,-4.57587017581914e-001

4.28709385014515e+004,-1.58556886277637e+000,-4.63973906139722e-001

4.34693945010421e+004,-1.58556891212398e+000,-4.70449919703262e-001

4.40762046350642e+004,-1.58556896188176e+000,-4.77016301084554e-001

4.46914855228886e+004,-1.58556901200711e+000,-4.83674310391596e-001

4.53153554118317e+004,-1.58556906245330e+000,-4.90425225268636e-001

4.59479341998812e+004,-1.58556911316912e+000,-4.97270341139085e-001

4.65893434587380e+004,-1.58556916409871e+000,-5.04210971451518e-001

4.72397064571810e+004,-1.58556921518123e+000,-5.11248447928637e-001

4.78991481847569e+004,-1.58556926635042e+000,-5.18384120821060e-001

4.85677953758016e+004,-1.58556931753438e+000,-5.25619359163280e-001

4.92457765337964e+004,-1.58556936865509e+000,-5.32955551033556e-001

4.99332219560642e+004,-1.58556941962834e+000,-5.40394103816479e-001

5.06302637588109e+004,-1.58556947036269e+000,-5.47936444472396e-001

5.13370359025159e+004,-1.58556952075977e+000,-5.55584019805463e-001

5.20536742176771e+004,-1.58556957071348e+000,-5.63338296738661e-001

5.27803164309155e+004,-1.58556962010940e+000,-5.71200762593322e-001

5.35171021914442e+004,-1.58556966882462e+000,-5.79172925369126e-001

5.42641730979066e+004,-1.58556971672689e+000,-5.87256314031924e-001

5.50216727255895e+004,-1.58556976367422e+000,-5.95452478801662e-001

5.57897466540159e+004,-1.58556980951432e+000,-6.03762991446946e-001

5.65685424949235e+004,-1.58556985408407e+000,-6.12189445581825e-001

5.73582099206328e+004,-1.58556989720847e+000,-6.20733456969760e-001

5.81589006928121e+004,-1.58556993870052e+000,-6.29396663826428e-001

5.89707686916437e+004,-1.58556997836004e+000,-6.38180727132092e-001

5.97939699453972e+004,-1.58557001597317e+000,-6.47087330945056e-001

6.06286626604156e+004,-1.58557005131138e+000,-6.56118182720891e-001

6.14750072515201e+004,-1.58557008413097e+000,-6.65275013633852e-001

6.23331663728396e+004,-1.58557011417169e+000,-6.74559578906627e-001

6.32033049490698e+004,-1.58557014115629e+000,-6.83973658139946e-001

6.40855902071694e+004,-1.58557016478926e+000,-6.93519055650540e-001

6.49801917084985e+004,-1.58557018475587e+000,-7.03197600811786e-001

6.58872813814055e+004,-1.58557020072116e+000,-7.13011148399103e-001

6.68070335542691e+004,-1.58557021232874e+000,-7.22961578941176e-001

6.77396249890018e+004,-1.58557021919961e+000,-7.33050799074345e-001

6.86852349150199e+004,-1.58557022093093e+000,-7.43280741903666e-001

6.96440450636895e+004,-1.58557021709468e+000,-7.53653367367936e-001

7.06162397032520e+004,-1.58557020723646e+000,-7.64170662608748e-001

7.16020056742374e+004,-1.58557019087370e+000,-7.74834642348064e-001

7.26015324253724e+004,-1.58557016749454e+000,-7.85647349266092e-001

7.36150120499896e+004,-1.58557013655594e+000,-7.96610854389143e-001

7.46426393229441e+004,-1.58557009748221e+000,-8.07727257479738e-001

7.56846117380472e+004,-1.58557004966316e+000,-8.18998687433107e-001

7.67411295460207e+004,-1.58556999245251e+000,-8.30427302679123e-001

7.78123957929823e+004,-1.58556992516563e+000,-8.42015291590247e-001

7.88986163594682e+004,-1.58556984707776e+000,-8.53764872895200e-001

7.99999999999995e+004,-1.58556975742204e+000,-8.65678296096120e-001

8.11167583832018e+004,-1.58556965538701e+000,-8.77757841896050e-001

8.22491061324848e+004,-1.58556954011467e+000,-8.90005822627534e-001

8.33972608672892e+004,-1.58556941069787e+000,-9.02424582690362e-001

8.45614432449099e+004,-1.58556926617802e+000,-9.15016498994025e-001

8.57418770029029e+004,-1.58556910554220e+000,-9.27783981408572e-001

8.69387890020841e+004,-1.58556892772081e+000,-9.40729473217301e-001

8.81524092701283e+004,-1.58556873158444e+000,-9.53855451581155e-001

8.93829710457770e+004,-1.58556851594114e+000,-9.67164428005850e-001

9.06307108236633e+004,-1.58556827953334e+000,-9.80658948816782e-001

9.18958683997622e+004,-1.58556802103444e+000,-9.94341595642170e-001

9.31786869174758e+004,-1.58556773904562e+000,-1.00821498590069e+000

9.44794129143618e+004,-1.58556743209246e+000,-1.02228177329721e+000

9.57982963695136e+004,-1.58556709862122e+000,-1.03654464832566e+000

9.71355907516031e+004,-1.58556673699505e+000,-1.05100633877953e+000

9.84915530675926e+004,-1.58556634549019e+000,-1.06566961026783e+000

9.98664439121282e+004,-1.58556592229189e+000,-1.08053726674153e+000

1.01260527517622e+005,-1.58556546549005e+000,-1.09561215102471e+000

1.02674071805032e+005,-1.58556497307511e+000,-1.11089714535488e+000

1.04107348435354e+005,-1.58556444293327e+000,-1.12639517193105e+000

1.05560632861831e+005,-1.58556387284193e+000,-1.14210919346995e+000

1.07034204382888e+005,-1.58556326046477e+000,-1.15804221376892e+000

1.08528346195813e+005,-1.58556260334672e+000,-1.17419727827943e+000

1.10043345451179e+005,-1.58556189890860e+000,-1.19057747468729e+000

1.11579493308032e+005,-1.58556114444189e+000,-1.20718593350182e+000

1.13137084989847e+005,-1.58556033710304e+000,-1.22402582865435e+000

1.14716419841265e+005,-1.58555947390769e+000,-1.24110037810448e+000

1.16317801385624e+005,-1.58555855172464e+000,-1.25841284445657e+000

1.17941537383287e+005,-1.58555756726989e+000,-1.27596653558387e+000

1.19587939890794e+005,-1.58555651709986e+000,-1.29376480526505e+000

1.21257325320831e+005,-1.58555539760537e+000,-1.31181105382551e+000

1.22950014503040e+005,-1.58555420500434e+000,-1.33010872879358e+000

1.24666332745679e+005,-1.58555293533529e+000,-1.34866132556184e+000

1.26406609898139e+005,-1.58555158444973e+000,-1.36747238806332e+000

1.28171180414339e+005,-1.58555014800530e+000,-1.38654550945266e+000

1.29960383416997e+005,-1.58554862145764e+000,-1.40588433280245e+000

1.31774562762811e+005,-1.58554700005310e+000,-1.42549255180686e+000

1.33614067108538e+005,-1.58554527882046e+000,-1.44537391149782e+000

1.35479249978003e+005,-1.58554345256282e+000,-1.46553220897180e+000

1.37370469830040e+005,-1.58554151584929e+000,-1.48597129412681e+000

1.39288090127379e+005,-1.58553946300631e+000,-1.50669507041245e+000

1.41232479406504e+005,-1.58553728810902e+000,-1.52770749558925e+000

1.43204011348474e+005,-1.58553498497206e+000,-1.54901258250277e+000

1.45203064850745e+005,-1.58553254714049e+000,-1.57061439986661e+000

1.47230024099979e+005,-1.58552996788055e+000,-1.59251707305897e+000

1.49285278645888e+005,-1.58552724017001e+000,-1.61472478493182e+000

1.51369223476094e+005,-1.58552435668842e+000,-1.63724177663201e+000

1.53482259092041e+005,-1.58552130980717e+000,-1.66007234843531e+000

1.55624791585964e+005,-1.58551809157959e+000,-1.68322086059293e+000

1.57797232718936e+005,-1.58551469373047e+000,-1.70669173419224e+000

1.59999999999999e+005,-1.58551110764584e+000,-1.73048945202933e+000

1.62233516766403e+005,-1.58550732436240e+000,-1.75461855949608e+000

1.64498212264969e+005,-1.58550333455654e+000,-1.77908366548150e+000

1.66794521734578e+005,-1.58549912853389e+000,-1.80388944328493e+000

1.69122886489819e+005,-1.58549469621798e+000,-1.82904063154527e+000

1.71483754005805e+005,-1.58549002713937e+000,-1.85454203518366e+000

1.73877578004168e+005,-1.58548511042438e+000,-1.88039852636027e+000

1.76304818540256e+005,-1.58547993478345e+000,-1.90661504544733e+000

1.78765942091554e+005,-1.58547448850024e+000,-1.93319660201426e+000

1.81261421647326e+005,-1.58546875941950e+000,-1.96014827583097e+000

1.83791736799524e+005,-1.58546273493592e+000,-1.98747521788339e+000

1.86357373834951e+005,-1.58545640198199e+000,-2.01518265140724e+000

1.88958825828723e+005,-1.58544974701665e+000,-2.04327587293393e+000

1.91596592739027e+005,-1.58544275601310e+000,-2.07176025335547e+000

1.94271181503206e+005,-1.58543541444695e+000,-2.10064123900372e+000

1.96983106135185e+005,-1.58542770728447e+000,-2.12992435274473e+000

1.99732887824256e+005,-1.58541961897041e+000,-2.15961519509056e+000

2.02521055035243e+005,-1.58541113341586e+000,-2.18971944532833e+000

2.05348143610063e+005,-1.58540223398647e+000,-2.22024286266220e+000

2.08214696870707e+005,-1.58539290349004e+000,-2.25119128737612e+000

2.11121265723661e+005,-1.58538312416467e+000,-2.28257064200988e+000

2.14068408765776e+005,-1.58537287766628e+000,-2.31438693255528e+000

2.17056692391625e+005,-1.58536214505676e+000,-2.34664624966529e+000

2.20086690902357e+005,-1.58535090679160e+000,-2.37935476988456e+000

2.23158986616063e+005,-1.58533914270762e+000,-2.41251875689427e+000

2.26274169979693e+005,-1.58532683201085e+000,-2.44614456277556e+000

2.29432839682530e+005,-1.58531395326417e+000,-2.48023862929015e+000

2.32635602771247e+005,-1.58530048437502e+000,-2.51480748917888e+000

2.35883074766574e+005,-1.58528640258305e+000,-2.54985776747767e+000

2.39175879781588e+005,-1.58527168444770e+000,-2.58539618285153e+000

2.42514650641661e+005,-1.58525630583574e+000,-2.62142954894699e+000

2.45900029006080e+005,-1.58524024190879e+000,-2.65796477576159e+000

2.49332665491357e+005,-1.58522346711059e+000,-2.69500887103323e+000

2.52813219796278e+005,-1.58520595515431e+000,-2.73256894164673e+000

2.56342360828676e+005,-1.58518767900979e+000,-2.77065219505930e+000

2.59920766833993e+005,-1.58516861089040e+000,-2.80926594074538e+000

2.63549125525621e+005,-1.58514872224016e+000,-2.84841759165853e+000

2.67228134217075e+005,-1.58512798371998e+000,-2.88811466571553e+000

2.70958499956006e+005,-1.58510636519460e+000,-2.92836478729618e+000

2.74740939660078e+005,-1.58508383571850e+000,-2.96917568876516e+000

2.78576180254757e+005,-1.58506036352207e+000,-3.01055521201202e+000

2.82464958813007e+005,-1.58503591599695e+000,-3.05251131001278e+000

2.86408022696948e+005,-1.58501045968182e+000,-3.09505204840805e+000

2.90406129701488e+005,-1.58498396024699e+000,-3.13818560710563e+000

2.94460048199957e+005,-1.58495638247923e+000,-3.18192028190140e+000

2.98570557291775e+005,-1.58492769026575e+000,-3.22626448612054e+000

3.02738446952187e+005,-1.58489784657788e+000,-3.27122675228165e+000

3.06964518184081e+005,-1.58486681345444e+000,-3.31681573377986e+000

3.11249583171928e+005,-1.58483455198400e+000,-3.36304020659482e+000

3.15594465437872e+005,-1.58480102228708e+000,-3.40990907101707e+000

3.19999999999997e+005,-1.58476618349752e+000,-3.45743135339961e+000

3.24467033532806e+005,-1.58472999374307e+000,-3.50561620793084e+000

3.28996424529938e+005,-1.58469241012534e+000,-3.55447291843105e+000

3.33589043469155e+005,-1.58465338869899e+000,-3.60401090017204e+000

3.38245772979638e+005,-1.58461288445002e+000,-3.65423970172156e+000

3.42967508011610e+005,-1.58457085127332e+000,-3.70516900681101e+000

3.47755156008335e+005,-1.58452724194920e+000,-3.75680863622876e+000

3.52609637080511e+005,-1.58448200811893e+000,-3.80916854973862e+000

3.57531884183106e+005,-1.58443510025930e+000,-3.86225884802469e+000

3.62522843294651e+005,-1.58438646765634e+000,-3.91608977466105e+000

3.67583473599047e+005,-1.58433605837745e+000,-3.97067171811043e+000

3.72714747669902e+005,-1.58428381924296e+000,-4.02601521374878e+000

3.77917651657445e+005,-1.58422969579609e+000,-4.08213094591855e+000

3.83193185478053e+005,-1.58417363227171e+000,-4.13902975001113e+000

3.88542363006410e+005,-1.58411557156410e+000,-4.19672261457700e+000

3.93966212270369e+005,-1.58405545519312e+000,-4.25522068346763e+000

3.99465775648511e+005,-1.58399322326898e+000,-4.31453525800682e+000

4.05042110070485e+005,-1.58392881445580e+000,-4.37467779919421e+000

4.10696287220124e+005,-1.58386216593374e+000,-4.43565992993880e+000

4.16429393741414e+005,-1.58379321335928e+000,-4.49749343732750e+000

4.22242531447321e+005,-1.58372189082446e+000,-4.56019027492550e+000

4.28136817531551e+005,-1.58364813081410e+000,-4.62376256511146e+000

4.34113384783250e+005,-1.58357186416175e+000,-4.68822260144634e+000

4.40173381804713e+005,-1.58349302000388e+000,-4.75358285107931e+000

4.46317973232124e+005,-1.58341152573230e+000,-4.81985595718882e+000

4.52548339959385e+005,-1.58332730694499e+000,-4.88705474146151e+000

4.58865679365059e+005,-1.58324028739520e+000,-4.95519220660831e+000

4.65271205542494e+005,-1.58315038893857e+000,-5.02428153891978e+000

4.71766149533147e+005,-1.58305753147868e+000,-5.09433611086064e+000

4.78351759563174e+005,-1.58296163291064e+000,-5.16536948370498e+000

4.85029301283321e+005,-1.58286260906269e+000,-5.23739541021205e+000

4.91800058012158e+005,-1.58276037363614e+000,-5.31042783734454e+000

4.98665330982714e+005,-1.58265483814312e+000,-5.38448090902954e+000

5.05626439592555e+005,-1.58254591184253e+000,-5.45956896896335e+000

5.12684721657352e+005,-1.58243350167383e+000,-5.53570656346064e+000

5.19841533667984e+005,-1.58231751218889e+000,-5.61290844434913e+000

5.27098251051240e+005,-1.58219784548183e+000,-5.69118957191100e+000

5.34456268434150e+005,-1.58207440111648e+000,-5.77056511787159e+000

5.41916999912011e+005,-1.58194707605206e+000,-5.85105046843566e+000

