Freq.,VOut,OutRef

1.00000000000000e+004,-8.18957536647887e+000,-9.24378602148396e-002

1.01395947979003e+004,-8.18957584896703e+000,-9.37281292894468e-002

1.02811382665607e+004,-8.18957634498790e+000,-9.50364049570071e-002

1.04246576084112e+004,-8.18957685492033e+000,-9.63629383716692e-002

1.05701804056138e+004,-8.18957737915307e+000,-9.77079841886524e-002

1.07177346253629e+004,-8.18957791808658e+000,-9.90718006036745e-002

1.08673486252606e+004,-8.18957847213197e+000,-1.00454649410061e-001

1.10190511587661e+004,-8.18957904171137e+000,-1.01856796048231e-001

1.11728713807222e+004,-8.18957962725970e+000,-1.03278509647330e-001

1.13288388529580e+004,-8.18958022922296e+000,-1.04720063088860e-001

1.14869835499703e+004,-8.18958084806022e+000,-1.06181733048194e-001

1.16473358646846e+004,-8.18958148424304e+000,-1.07663800052664e-001

1.18099266142953e+004,-8.18958213825593e+000,-1.09166548534615e-001

1.19747870461893e+004,-8.18958281059687e+000,-1.10690266884106e-001

1.21419488439505e+004,-8.18958350177818e+000,-1.12235247500282e-001

1.23114441334492e+004,-8.18958421232599e+000,-1.13801786852751e-001

1.24833054890161e+004,-8.18958494278080e+000,-1.15390185537002e-001

1.26575659397028e+004,-8.18958569369840e+000,-1.17000748327364e-001

1.28342589756290e+004,-8.18958646565004e+000,-1.18633784236865e-001

1.30134185544193e+004,-8.18958725922262e+000,-1.20289606577083e-001

1.31950791077289e+004,-8.18958807501932e+000,-1.21968533015939e-001

1.33792755478611e+004,-8.18958891366006e+000,-1.23670885638141e-001

1.35660432744767e+004,-8.18958977578187e+000,-1.25396991005784e-001

1.37554181813974e+004,-8.18959066203949e+000,-1.27147180220789e-001

1.39474366635040e+004,-8.18959157310556e+000,-1.28921788987330e-001

1.41421356237309e+004,-8.18959250967145e+000,-1.30721157674660e-001

1.43395524801583e+004,-8.18959347244783e+000,-1.32545631380009e-001

1.45397251732031e+004,-8.18959446216430e+000,-1.34395560000045e-001

1.47426921729110e+004,-8.18959547957155e+000,-1.36271298286041e-001

1.49484924863494e+004,-8.18959652544004e+000,-1.38173205922424e-001

1.51571656651040e+004,-8.18959760056203e+000,-1.40101647585732e-001

1.53687518128801e+004,-8.18959870575157e+000,-1.42056993016616e-001

1.55832915932100e+004,-8.18959984184458e+000,-1.44039617092730e-001

1.58008262372675e+004,-8.18960100970068e+000,-1.46049899891196e-001

1.60213975517924e+004,-8.18960221020290e+000,-1.48088226766555e-001

1.62450479271247e+004,-8.18960344425796e+000,-1.50154988424015e-001

1.64718203453514e+004,-8.18960471279848e+000,-1.52250580984829e-001

1.67017583885674e+004,-8.18960601678169e+000,-1.54375406070908e-001

1.69349062472505e+004,-8.18960735719181e+000,-1.56529870870929e-001

1.71713087287550e+004,-8.18960873503951e+000,-1.58714388224241e-001

1.74110112659224e+004,-8.18961015136339e+000,-1.60929376691846e-001

1.76540599258131e+004,-8.18961160723033e+000,-1.63175260639785e-001

1.79005014185594e+004,-8.18961310373653e+000,-1.65452470313642e-001

1.81503831063432e+004,-8.18961464200784e+000,-1.67761441925042e-001

1.84037530124975e+004,-8.18961622320115e+000,-1.70102617725563e-001

1.86606598307361e+004,-8.18961784850467e+000,-1.72476446095976e-001

1.89211529345119e+004,-8.18961951913911e+000,-1.74883381625225e-001

1.91852823865052e+004,-8.18962123635807e+000,-1.77323885199643e-001

1.94530989482457e+004,-8.18962300144993e+000,-1.79798424080895e-001

1.97246540898671e+004,-8.18962481573737e+000,-1.82307472002337e-001

1.99999999999999e+004,-8.18962668057907e+000,-1.84851509251792e-001

2.02791895958005e+004,-8.18962859737098e+000,-1.87431022758577e-001

2.05622765331213e+004,-8.18963056754643e+000,-1.90046506189058e-001

2.08493152168224e+004,-8.18963259257753e+000,-1.92698460035342e-001

2.11403608112276e+004,-8.18963467397641e+000,-1.95387391706684e-001

2.14354692507258e+004,-8.18963681329578e+000,-1.98113815625658e-001

2.17346972505211e+004,-8.18963901213021e+000,-2.00878253322415e-001

2.20381023175322e+004,-8.18964127211733e+000,-2.03681233529326e-001

2.23457427614443e+004,-8.18964359493880e+000,-2.06523292279656e-001

2.26576777059159e+004,-8.18964598232134e+000,-2.09404973006424e-001

2.29739670999406e+004,-8.18964843603811e+000,-2.12326826641554e-001

2.32946717293690e+004,-8.18965095790940e+000,-2.15289411718737e-001

2.36198532285905e+004,-8.18965354980464e+000,-2.18293294472342e-001

2.39495740923785e+004,-8.18965621364287e+000,-2.21339048944408e-001

2.42838976879009e+004,-8.18965895139443e+000,-2.24427257087689e-001

2.46228882668982e+004,-8.18966176508215e+000,-2.27558508872537e-001

2.49666109780322e+004,-8.18966465678222e+000,-2.30733402396637e-001

2.53151318794055e+004,-8.18966762862657e+000,-2.33952543988020e-001

2.56685179512580e+004,-8.18967068280314e+000,-2.37216548321785e-001

2.60268371088386e+004,-8.18967382155792e+000,-2.40526038527972e-001

2.63901582154578e+004,-8.18967704719606e+000,-2.43881646305662e-001

2.67585510957221e+004,-8.18968036208355e+000,-2.47284012037342e-001

2.71320865489533e+004,-8.18968376864849e+000,-2.50733784904778e-001

2.75108363627948e+004,-8.18968726938276e+000,-2.54231623005586e-001

2.78948733270080e+004,-8.18969086684357e+000,-2.57778193471485e-001

2.82842712474618e+004,-8.18969456365483e+000,-2.61374172589476e-001

2.86791049603164e+004,-8.18969836250892e+000,-2.65020245922891e-001

2.90794503464061e+004,-8.18970226616838e+000,-2.68717108432644e-001

2.94853843458219e+004,-8.18970627746716e+000,-2.72465464605194e-001

2.98969849726987e+004,-8.18971039931294e+000,-2.76266028573705e-001

3.03143313302078e+004,-8.18971463468844e+000,-2.80119524247896e-001

3.07375036257601e+004,-8.18971898665323e+000,-2.84026685442810e-001

3.11665831864199e+004,-8.18972345834529e+000,-2.87988256009696e-001

3.16016524745350e+004,-8.18972805298343e+000,-2.92004989964707e-001

3.20427951035848e+004,-8.18973277386828e+000,-2.96077651626696e-001

3.24900958542493e+004,-8.18973762438505e+000,-3.00207015746633e-001

3.29436406907028e+004,-8.18974260800466e+000,-3.04393867649026e-001

3.34035167771346e+004,-8.18974772828596e+000,-3.08639003367605e-001

3.38698124945009e+004,-8.18975298887793e+000,-3.12943229783473e-001

3.43426174575100e+004,-8.18975839352110e+000,-3.17307364768637e-001

3.48220225318448e+004,-8.18976394605003e+000,-3.21732237326907e-001

3.53081198516260e+004,-8.18976965039508e+000,-3.26218687738722e-001

3.58010028371187e+004,-8.18977551058432e+000,-3.30767567707981e-001

3.63007662126863e+004,-8.18978153074609e+000,-3.35379740506569e-001

3.68075060249948e+004,-8.18978771511064e+000,-3.40056081125885e-001

3.73213196614721e+004,-8.18979406801226e+000,-3.44797476427832e-001

3.78423058690237e+004,-8.18980059389155e+000,-3.49604825295151e-001

3.83705647730104e+004,-8.18980729729775e+000,-3.54479038785186e-001

3.89061978964912e+004,-8.18981418289023e+000,-3.59421040289166e-001

3.94493081797342e+004,-8.18982125544149e+000,-3.64431765684437e-001

3.99999999999998e+004,-8.18982851983880e+000,-3.69512163496499e-001

4.05583791916010e+004,-8.18983598108665e+000,-3.74663195058211e-001

4.11245530662425e+004,-8.18984364430846e+000,-3.79885834674853e-001

4.16986304336447e+004,-8.18985151474961e+000,-3.85181069782581e-001

4.22807216224550e+004,-8.18985959777880e+000,-3.90549901120666e-001

4.28709385014515e+004,-8.18986789889119e+000,-3.95993342891191e-001

4.34693945010421e+004,-8.18987642370934e+000,-4.01512422937082e-001

4.40762046350642e+004,-8.18988517798665e+000,-4.07108182904710e-001

4.46914855228886e+004,-8.18989416760881e+000,-4.12781678421199e-001

4.53153554118317e+004,-8.18990339859625e+000,-4.18533979266536e-001

4.59479341998812e+004,-8.18991287710596e+000,-4.24366169551306e-001

4.65893434587380e+004,-8.18992260943417e+000,-4.30279347891989e-001

4.72397064571810e+004,-8.18993260201770e+000,-4.36274627593664e-001

4.78991481847569e+004,-8.18994286143696e+000,-4.42353136826351e-001

4.85677953758016e+004,-8.18995339441709e+000,-4.48516018813063e-001

4.92457765337964e+004,-8.18996420783028e+000,-4.54764432012714e-001

4.99332219560642e+004,-8.18997530869798e+000,-4.61099550304512e-001

5.06302637588109e+004,-8.18998670419239e+000,-4.67522563179179e-001

5.13370359025159e+004,-8.18999840163826e+000,-4.74034675928612e-001

5.20536742176771e+004,-8.19001040851500e+000,-4.80637109836054e-001

5.27803164309155e+004,-8.19002273245798e+000,-4.87331102372097e-001

5.35171021914442e+004,-8.19003538126005e+000,-4.94117907390018e-001

5.42641730979066e+004,-8.19004836287380e+000,-5.00998795319518e-001

5.50216727255895e+004,-8.19006168541160e+000,-5.07975053373853e-001

5.57897466540159e+004,-8.19007535714829e+000,-5.15047985741895e-001

5.65685424949235e+004,-8.19008938652124e+000,-5.22218913798784e-001

5.73582099206328e+004,-8.19010378213211e+000,-5.29489176306047e-001

5.81589006928121e+004,-8.19011855274718e+000,-5.36860129622203e-001

5.89707686916437e+004,-8.19013370729842e+000,-5.44333147909388e-001

5.97939699453972e+004,-8.19014925488404e+000,-5.51909623344434e-001

6.06286626604156e+004,-8.19016520476878e+000,-5.59590966332593e-001

6.14750072515201e+004,-8.19018156638402e+000,-5.67378605723082e-001

6.23331663728396e+004,-8.19019834932817e+000,-5.75273989023571e-001

6.32033049490698e+004,-8.19021556336575e+000,-5.83278582623791e-001

6.40855902071694e+004,-8.19023321842774e+000,-5.91393872011799e-001

6.49801917084985e+004,-8.19025132461050e+000,-5.99621362000295e-001

6.58872813814055e+004,-8.19026989217456e+000,-6.07962576953093e-001

6.68070335542691e+004,-8.19028893154410e+000,-6.16419061009992e-001

6.77396249890018e+004,-8.19030845330463e+000,-6.24992378320254e-001

6.86852349150199e+004,-8.19032846820167e+000,-6.33684113273577e-001

6.96440450636895e+004,-8.19034898713855e+000,-6.42495870734873e-001

7.06162397032520e+004,-8.19037002117375e+000,-6.51429276282544e-001

7.16020056742374e+004,-8.19039158151798e+000,-6.60485976449438e-001

7.26015324253724e+004,-8.19041367953113e+000,-6.69667638963791e-001

7.36150120499896e+004,-8.19043632671851e+000,-6.78975952995543e-001

7.46426393229441e+004,-8.19045953472665e+000,-6.88412629405454e-001

7.56846117380472e+004,-8.19048331533891e+000,-6.97979400994447e-001

7.67411295460207e+004,-8.19050768047022e+000,-7.07678022761036e-001

7.78123957929823e+004,-8.19053264216205e+000,-7.17510272153622e-001

7.88986163594682e+004,-8.19055821257578e+000,-7.27477949336604e-001

7.99999999999995e+004,-8.19058440398647e+000,-7.37582877450759e-001

8.11167583832018e+004,-8.19061122877575e+000,-7.47826902880947e-001

8.22491061324848e+004,-8.19063869942384e+000,-7.58211895528922e-001

8.33972608672892e+004,-8.19066682850147e+000,-7.68739749086127e-001

8.45614432449099e+004,-8.19069562866056e+000,-7.79412381314963e-001

8.57418770029029e+004,-8.19072511262508e+000,-7.90231734327882e-001

8.69387890020841e+004,-8.19075529318027e+000,-8.01199774877814e-001

8.81524092701283e+004,-8.19078618316126e+000,-8.12318494650837e-001

8.93829710457770e+004,-8.19081779544236e+000,-8.23589910557540e-001

9.06307108236633e+004,-8.19085014292313e+000,-8.35016065040471e-001

9.18958683997622e+004,-8.19088323851606e+000,-8.46599026376184e-001

9.31786869174758e+004,-8.19091709513170e+000,-8.58340888989422e-001

9.44794129143618e+004,-8.19095172566375e+000,-8.70243773771220e-001

9.57982963695136e+004,-8.19098714297342e+000,-8.82309828399999e-001

9.71355907516031e+004,-8.19102335987205e+000,-8.94541227674898e-001

9.84915530675926e+004,-8.19106038910386e+000,-9.06940173848902e-001

9.98664439121282e+004,-8.19109824332682e+000,-9.19508896975063e-001

1.01260527517622e+005,-8.19113693509315e+000,-9.32249655255326e-001

1.02674071805032e+005,-8.19117647682874e+000,-9.45164735398914e-001

1.04107348435354e+005,-8.19121688081109e+000,-9.58256452989393e-001

1.05560632861831e+005,-8.19125815914698e+000,-9.71527152857437e-001

1.07034204382888e+005,-8.19130032374838e+000,-9.84979209465600e-001

1.08528346195813e+005,-8.19134338630795e+000,-9.98615027298848e-001

1.10043345451179e+005,-8.19138735827255e+000,-1.01243704126873e+000

1.11579493308032e+005,-8.19143225081674e+000,-1.02644771712352e+000

1.13137084989847e+005,-8.19147807481442e+000,-1.04064955187000e+000

1.14716419841265e+005,-8.19152484080955e+000,-1.05504507420931e+000

1.16317801385624e+005,-8.19157255898597e+000,-1.06963684497925e+000

1.17941537383287e+005,-8.19162123913568e+000,-1.08442745761224e+000

1.19587939890794e+005,-8.19167089062635e+000,-1.09941953860505e+000

1.21257325320831e+005,-8.19172152236775e+000,-1.11461574799998e+000

1.22950014503040e+005,-8.19177314277680e+000,-1.13001877988118e+000

1.24666332745679e+005,-8.19182575974166e+000,-1.14563136288512e+000

1.26406609898139e+005,-8.19187938058476e+000,-1.16145626072507e+000

1.28171180414339e+005,-8.19193401202493e+000,-1.17749627273087e+000

1.29960383416997e+005,-8.19198966013820e+000,-1.19375423440476e+000

1.31774562762811e+005,-8.19204633031766e+000,-1.21023301799485e+000

1.33614067108538e+005,-8.19210402723249e+000,-1.22693553308395e+000

1.35479249978003e+005,-8.19216275478622e+000,-1.24386472719557e+000

1.37370469830040e+005,-8.19222251607357e+000,-1.26102358642083e+000

1.39288090127379e+005,-8.19228331333687e+000,-1.27841513606271e+000

1.41232479406504e+005,-8.19234514792172e+000,-1.29604244129817e+000

1.43204011348474e+005,-8.19240802023166e+000,-1.31390860786354e+000

1.45203064850745e+005,-8.19247192968238e+000,-1.33201678275774e+000

1.47230024099979e+005,-8.19253687465524e+000,-1.35037015496868e+000

1.49285278645888e+005,-8.19260285245049e+000,-1.36897195621906e+000

1.51369223476094e+005,-8.19266985923985e+000,-1.38782546173683e+000

1.53482259092041e+005,-8.19273789001864e+000,-1.40693399104773e+000

1.55624791585964e+005,-8.19280693855819e+000,-1.42630090878880e+000

1.57797232718936e+005,-8.19287699735738e+000,-1.44592962554967e+000

1.59999999999999e+005,-8.19294805759492e+000,-1.46582359873392e+000

1.62233516766403e+005,-8.19302010908113e+000,-1.48598633344709e+000

1.64498212264969e+005,-8.19309314020991e+000,-1.50642138341063e+000

1.66794521734578e+005,-8.19316713791164e+000,-1.52713235189710e+000

1.69122886489819e+005,-8.19324208760575e+000,-1.54812289269448e+000

1.71483754005805e+005,-8.19331797315433e+000,-1.56939671109463e+000

1.73877578004168e+005,-8.19339477681611e+000,-1.59095756490842e+000

1.76304818540256e+005,-8.19347247920188e+000,-1.61280926550357e+000

1.78765942091554e+005,-8.19355105922986e+000,-1.63495567887403e+000

1.81261421647326e+005,-8.19363049408333e+000,-1.65740072672946e+000

1.83791736799524e+005,-8.19371075916854e+000,-1.68014838761473e+000

1.86357373834951e+005,-8.19379182807462e+000,-1.70320269805340e+000

1.88958825828723e+005,-8.19387367253492e+000,-1.72656775371583e+000

1.91596592739027e+005,-8.19395626238963e+000,-1.75024771061505e+000

1.94271181503206e+005,-8.19403956555073e+000,-1.77424678632560e+000

1.96983106135185e+005,-8.19412354796866e+000,-1.79856926122673e+000

1.99732887824256e+005,-8.19420817360090e+000,-1.82321947977146e+000

2.02521055035243e+005,-8.19429340438341e+000,-1.84820185177571e+000

2.05348143610063e+005,-8.19437920020320e+000,-1.87352085373512e+000

2.08214696870707e+005,-8.19446551887488e+000,-1.89918103015865e+000

2.11121265723661e+005,-8.19455231611849e+000,-1.92518699492735e+000

2.14068408765776e+005,-8.19463954554073e+000,-1.95154343267197e+000

2.17056692391625e+005,-8.19472715861848e+000,-1.97825510017113e+000

2.20086690902357e+005,-8.19481510468585e+000,-2.00532682776626e+000

2.23158986616063e+005,-8.19490333092341e+000,-2.03276352079582e+000

2.26274169979693e+005,-8.19499178235075e+000,-2.06057016104638e+000

2.29432839682530e+005,-8.19508040182207e+000,-2.08875180821803e+000

2.32635602771247e+005,-8.19516913002482e+000,-2.11731360140376e+000

2.35883074766574e+005,-8.19525790548154e+000,-2.14626076058282e+000

2.39175879781588e+005,-8.19534666455436e+000,-2.17559858812672e+000

2.42514650641661e+005,-8.19543534145341e+000,-2.20533247031253e+000

2.45900029006080e+005,-8.19552386824724e+000,-2.23546787885013e+000

2.49332665491357e+005,-8.19561217487732e+000,-2.26601037241280e+000

2.52813219796278e+005,-8.19570018917465e+000,-2.29696559817876e+000

2.56342360828676e+005,-8.19578783688000e+000,-2.32833929337430e+000

2.59920766833993e+005,-8.19587504166624e+000,-2.36013728682500e+000

2.63549125525621e+005,-8.19596172516408e+000,-2.39236550050577e+000

2.67228134217075e+005,-8.19604780698968e+000,-2.42502995109735e+000

2.70958499956006e+005,-8.19613320477541e+000,-2.45813675153858e+000

2.74740939660078e+005,-8.19621783420232e+000,-2.49169211258258e+000

2.78576180254757e+005,-8.19630160903486e+000,-2.52570234434861e+000

2.82464958813007e+005,-8.19638444115792e+000,-2.56017385787177e+000

2.86408022696948e+005,-8.19646624061486e+000,-2.59511316665107e+000

2.90406129701488e+005,-8.19654691564764e+000,-2.63052688819141e+000

2.94460048199957e+005,-8.19662637273797e+000,-2.66642174554133e+000

2.98570557291775e+005,-8.19670451664951e+000,-2.70280456882578e+000

3.02738446952187e+005,-8.19678125047070e+000,-2.73968229677231e+000

3.06964518184081e+005,-8.19685647565850e+000,-2.77706197823028e+000

3.11249583171928e+005,-8.19693009208187e+000,-2.81495077368437e+000

3.15594465437872e+005,-8.19700199806548e+000,-2.85335595676185e+000

3.19999999999997e+005,-8.19707209043314e+000,-2.89228491572966e+000

3.24467033532806e+005,-8.19714026455035e+000,-2.93174515498945e+000

3.28996424529938e+005,-8.19720641436628e+000,-2.97174429656134e+000

3.33589043469155e+005,-8.19727043245405e+000,-3.01229008156529e+000

3.38245772979638e+005,-8.19733221005023e+000,-3.05339037169355e+000

3.42967508011610e+005,-8.19739163709172e+000,-3.09505315068050e+000

3.47755156008335e+005,-8.19744860225133e+000,-3.13728652576557e+000

3.52609637080511e+005,-8.19750299297011e+000,-3.18009872915571e+000

3.57531884183106e+005,-8.19755469548810e+000,-3.22349811948148e+000

3.62522843294651e+005,-8.19760359487107e+000,-3.26749318325549e+000

3.67583473599047e+005,-8.19764957503497e+000,-3.31209253632661e+000

3.72714747669902e+005,-8.19769251876614e+000,-3.35730492533971e+000

3.77917651657445e+005,-8.19773230773851e+000,-3.40313922919375e+000

3.83193185478053e+005,-8.19776882252644e+000,-3.44960446050649e+000

3.88542363006410e+005,-8.19780194261359e+000,-3.49670976708358e+000

3.93966212270369e+005,-8.19783154639725e+000,-3.54446443339596e+000

3.99465775648511e+005,-8.19785751118840e+000,-3.59287788206559e+000

4.05042110070485e+005,-8.19787971320672e+000,-3.64195967536218e+000

4.10696287220124e+005,-8.19789802757089e+000,-3.69171951671378e+000

4.16429393741414e+005,-8.19791232828376e+000,-3.74216725223051e+000

4.22242531447321e+005,-8.19792248821224e+000,-3.79331287224715e+000

4.28136817531551e+005,-8.19792837906211e+000,-3.84516651288276e+000

4.34113384783250e+005,-8.19792987134717e+000,-3.89773845762199e+000

4.40173381804713e+005,-8.19792683435298e+000,-3.95103913891967e+000

4.46317973232124e+005,-8.19791913609494e+000,-4.00507913982998e+000

4.52548339959385e+005,-8.19790664327081e+000,-4.05986919566296e+000

4.58865679365059e+005,-8.19788922120738e+000,-4.11542019567047e+000

4.65271205542494e+005,-8.19786673380175e+000,-4.17174318476240e+000

4.71766149533147e+005,-8.19783904345638e+000,-4.22884936525790e+000

4.78351759563174e+005,-8.19780601100858e+000,-4.28675009867094e+000

4.85029301283321e+005,-8.19776749565452e+000,-4.34545690753254e+000

4.91800058012158e+005,-8.19772335486699e+000,-4.40498147725426e+000

4.98665330982714e+005,-8.19767344430790e+000,-4.46533565803095e+000

5.05626439592555e+005,-8.19761761773467e+000,-4.52653146678775e+000

5.12684721657352e+005,-8.19755572690129e+000,-4.58858108917199e+000

5.19841533667984e+005,-8.19748762145384e+000,-4.65149688159033e+000

5.27098251051240e+005,-8.19741314881988e+000,-4.71529137329742e+000

5.34456268434150e+005,-8.19733215409329e+000,-4.77997726853050e+000

5.41916999912011e+005,-8.19724447991280e+000,-4.84556744869974e+000

