Freq.,VOut,OutRef

1.00000000000000e+004,-2.35998656198709e+001,-1.79923407696579e-001

1.01395947979003e+004,-2.35998683732062e+001,-1.82434533054728e-001

1.02811382665607e+004,-2.35998712038079e+001,-1.84980690711419e-001

1.04246576084112e+004,-2.35998741138402e+001,-1.87562368780394e-001

1.05701804056138e+004,-2.35998771055276e+001,-1.90180062150068e-001

1.07177346253629e+004,-2.35998801811573e+001,-1.92834272574542e-001

1.08673486252606e+004,-2.35998833430792e+001,-1.95525508773041e-001

1.10190511587661e+004,-2.35998865937095e+001,-1.98254286522217e-001

1.11728713807222e+004,-2.35998899355319e+001,-2.01021128748516e-001

1.13288388529580e+004,-2.35998933710986e+001,-2.03826565635144e-001

1.14869835499703e+004,-2.35998969030336e+001,-2.06671134713977e-001

1.16473358646846e+004,-2.35999005340337e+001,-2.09555380969634e-001

1.18099266142953e+004,-2.35999042668706e+001,-2.12479856940466e-001

1.19747870461893e+004,-2.35999081043937e+001,-2.15445122820684e-001

1.21419488439505e+004,-2.35999120495315e+001,-2.18451746565587e-001

1.23114441334492e+004,-2.35999161052937e+001,-2.21500303998986e-001

1.24833054890161e+004,-2.35999202747741e+001,-2.24591378917847e-001

1.26575659397028e+004,-2.35999245611522e+001,-2.27725563203014e-001

1.28342589756290e+004,-2.35999289676964e+001,-2.30903456927663e-001

1.30134185544193e+004,-2.35999334977656e+001,-2.34125668469365e-001

1.31950791077289e+004,-2.35999381548120e+001,-2.37392814623916e-001

1.33792755478611e+004,-2.35999429423838e+001,-2.40705520718526e-001

1.35660432744767e+004,-2.35999478641278e+001,-2.44064420727177e-001

1.37554181813974e+004,-2.35999529237918e+001,-2.47470157389400e-001

1.39474366635040e+004,-2.35999581252278e+001,-2.50923382328184e-001

1.41421356237309e+004,-2.35999634723947e+001,-2.54424756169601e-001

1.43395524801583e+004,-2.35999689693609e+001,-2.57974948668026e-001

1.45397251732031e+004,-2.35999746203078e+001,-2.61574638822511e-001

1.47426921729110e+004,-2.35999804295323e+001,-2.65224515010891e-001

1.49484924863494e+004,-2.35999864014509e+001,-2.68925275107626e-001

1.51571656651040e+004,-2.35999925406018e+001,-2.72677626617309e-001

1.53687518128801e+004,-2.35999988516490e+001,-2.76482286802806e-001

1.55832915932100e+004,-2.36000053393855e+001,-2.80339982815621e-001

1.58008262372675e+004,-2.36000120087367e+001,-2.84251451829896e-001

1.60213975517924e+004,-2.36000188647643e+001,-2.88217441176267e-001

1.62450479271247e+004,-2.36000259126694e+001,-2.92238708479939e-001

1.64718203453514e+004,-2.36000331577971e+001,-2.96316021794124e-001

1.67017583885674e+004,-2.36000406056399e+001,-3.00450159744366e-001

1.69349062472505e+004,-2.36000482618414e+001,-3.04641911668788e-001

1.71713087287550e+004,-2.36000561322010e+001,-3.08892077757546e-001

1.74110112659224e+004,-2.36000642226778e+001,-3.13201469202119e-001

1.76540599258131e+004,-2.36000725393951e+001,-3.17570908338415e-001

1.79005014185594e+004,-2.36000810886444e+001,-3.22001228797186e-001

1.81503831063432e+004,-2.36000898768901e+001,-3.26493275652959e-001

1.84037530124975e+004,-2.36000989107748e+001,-3.31047905574064e-001

1.86606598307361e+004,-2.36001081971226e+001,-3.35665986980797e-001

1.89211529345119e+004,-2.36001177429458e+001,-3.40348400194662e-001

1.91852823865052e+004,-2.36001275554482e+001,-3.45096037600857e-001

1.94530989482457e+004,-2.36001376420315e+001,-3.49909803803635e-001

1.97246540898671e+004,-2.36001480102998e+001,-3.54790615788606e-001

1.99999999999999e+004,-2.36001586680654e+001,-3.59739403085841e-001

2.02791895958005e+004,-2.36001696233542e+001,-3.64757107932163e-001

2.05622765331213e+004,-2.36001808844113e+001,-3.69844685438910e-001

2.08493152168224e+004,-2.36001924597066e+001,-3.75003103762229e-001

2.11403608112276e+004,-2.36002043579417e+001,-3.80233344267434e-001

2.14354692507258e+004,-2.36002165880545e+001,-3.85536401707568e-001

2.17346972505211e+004,-2.36002291592267e+001,-3.90913284392830e-001

2.20381023175322e+004,-2.36002420808897e+001,-3.96365014367366e-001

2.23457427614443e+004,-2.36002553627309e+001,-4.01892627588202e-001

2.26576777059159e+004,-2.36002690147012e+001,-4.07497174102512e-001

2.29739670999406e+004,-2.36002830470209e+001,-4.13179718231394e-001

2.32946717293690e+004,-2.36002974701874e+001,-4.18941338751502e-001

2.36198532285905e+004,-2.36003122949822e+001,-4.24783129082431e-001

2.39495740923785e+004,-2.36003275324783e+001,-4.30706197471008e-001

2.42838976879009e+004,-2.36003431940475e+001,-4.36711667183579e-001

2.46228882668982e+004,-2.36003592913687e+001,-4.42800676694319e-001

2.49666109780322e+004,-2.36003758364350e+001,-4.48974379880520e-001

2.53151318794055e+004,-2.36003928415625e+001,-4.55233946217045e-001

2.56685179512580e+004,-2.36004103193982e+001,-4.61580560972094e-001

2.60268371088386e+004,-2.36004282829284e+001,-4.68015425406779e-001

2.63901582154578e+004,-2.36004467454877e+001,-4.74539756976551e-001

2.67585510957221e+004,-2.36004657207675e+001,-4.81154789531588e-001

2.71320865489533e+004,-2.36004852228251e+001,-4.87861773524097e-001

2.75108363627948e+004,-2.36005052660929e+001,-4.94661976214378e-001

2.78948733270080e+004,-2.36005258653880e+001,-5.01556681876727e-001

2.82842712474618e+004,-2.36005470359218e+001,-5.08547192011761e-001

2.86791049603164e+004,-2.36005687933098e+001,-5.15634825558108e-001

2.90794503464061e+004,-2.36005911535816e+001,-5.22820919105702e-001

2.94853843458219e+004,-2.36006141331909e+001,-5.30106827113890e-001

2.98969849726987e+004,-2.36006377490267e+001,-5.37493922125321e-001

3.03143313302078e+004,-2.36006620184235e+001,-5.44983594987415e-001

3.07375036257601e+004,-2.36006869591720e+001,-5.52577255075131e-001

3.11665831864199e+004,-2.36007125895309e+001,-5.60276330510667e-001

3.16016524745350e+004,-2.36007389282376e+001,-5.68082268390330e-001

3.20427951035848e+004,-2.36007659945201e+001,-5.75996535010583e-001

3.24900958542493e+004,-2.36007938081088e+001,-5.84020616095981e-001

3.29436406907028e+004,-2.36008223892483e+001,-5.92156017028883e-001

3.34035167771346e+004,-2.36008517587100e+001,-6.00404263081119e-001

3.38698124945009e+004,-2.36008819378040e+001,-6.08766899647984e-001

3.43426174575100e+004,-2.36009129483925e+001,-6.17245492481000e-001

3.48220225318448e+004,-2.36009448129023e+001,-6.25841627925185e-001

3.53081198516260e+004,-2.36009775543378e+001,-6.34556913157390e-001

3.58010028371187e+004,-2.36010111962946e+001,-6.43392976424975e-001

3.63007662126863e+004,-2.36010457629733e+001,-6.52351467285479e-001

3.68075060249948e+004,-2.36010812791926e+001,-6.61434056851026e-001

3.73213196614721e+004,-2.36011177704043e+001,-6.70642438028208e-001

3.78423058690237e+004,-2.36011552627065e+001,-6.79978325767445e-001

3.83705647730104e+004,-2.36011937828591e+001,-6.89443457303372e-001

3.89061978964912e+004,-2.36012333582972e+001,-6.99039592408233e-001

3.94493081797342e+004,-2.36012740171473e+001,-7.08768513634833e-001

3.99999999999998e+004,-2.36013157882414e+001,-7.18632026568865e-001

4.05583791916010e+004,-2.36013587011328e+001,-7.28631960079240e-001

4.11245530662425e+004,-2.36014027861110e+001,-7.38770166568615e-001

4.16986304336447e+004,-2.36014480742182e+001,-7.49048522225884e-001

4.22807216224550e+004,-2.36014945972641e+001,-7.59468927280596e-001

4.28709385014515e+004,-2.36015423878424e+001,-7.70033306257727e-001

4.34693945010421e+004,-2.36015914793470e+001,-7.80743608229260e-001

4.40762046350642e+004,-2.36016419059882e+001,-7.91601807072810e-001

4.46914855228886e+004,-2.36016937028088e+001,-8.02609901727780e-001

4.53153554118317e+004,-2.36017469057011e+001,-8.13769916450291e-001

4.59479341998812e+004,-2.36018015514231e+001,-8.25083901072262e-001

4.65893434587380e+004,-2.36018576776157e+001,-8.36553931258197e-001

4.72397064571810e+004,-2.36019153228191e+001,-8.48182108764107e-001

4.78991481847569e+004,-2.36019745264900e+001,-8.59970561694571e-001

4.85677953758016e+004,-2.36020353290186e+001,-8.71921444762517e-001

4.92457765337964e+004,-2.36020977717451e+001,-8.84036939548287e-001

4.99332219560642e+004,-2.36021618969773e+001,-8.96319254757061e-001

5.06302637588109e+004,-2.36022277480072e+001,-9.08770626478636e-001

5.13370359025159e+004,-2.36022953691282e+001,-9.21393318445660e-001

5.20536742176771e+004,-2.36023648056515e+001,-9.34189622294394e-001

5.27803164309155e+004,-2.36024361039238e+001,-9.47161857819025e-001

5.35171021914442e+004,-2.36025093113433e+001,-9.60312373234584e-001

5.42641730979066e+004,-2.36025844763763e+001,-9.73643545432111e-001

5.50216727255895e+004,-2.36026616485741e+001,-9.87157780236052e-001

5.57897466540159e+004,-2.36027408785888e+001,-1.00085751266370e+000

5.65685424949235e+004,-2.36028222181894e+001,-1.01474520717897e+000

5.73582099206328e+004,-2.36029057202775e+001,-1.02882335795076e+000

5.81589006928121e+004,-2.36029914389028e+001,-1.04309448910802e+000

5.89707686916437e+004,-2.36030794292780e+001,-1.05756115499403e+000

5.97939699453972e+004,-2.36031697477936e+001,-1.07222594042163e+000

6.06286626604156e+004,-2.36032624520322e+001,-1.08709146092622e+000

6.14750072515201e+004,-2.36033576007820e+001,-1.10216036302014e+000

6.23331663728396e+004,-2.36034552540504e+001,-1.11743532444313e+000

6.32033049490698e+004,-2.36035554730765e+001,-1.13291905441632e+000

6.40855902071694e+004,-2.36036583203429e+001,-1.14861429389186e+000

6.49801917084985e+004,-2.36037638595873e+001,-1.16452381580453e+000

6.58872813814055e+004,-2.36038721558134e+001,-1.18065042531975e+000

6.68070335542691e+004,-2.36039832753000e+001,-1.19699696008602e+000

6.77396249890018e+004,-2.36040972856106e+001,-1.21356629048178e+000

6.86852349150199e+004,-2.36042142556008e+001,-1.23036131986552e+000

6.96440450636895e+004,-2.36043342554261e+001,-1.24738498482252e+000

7.06162397032520e+004,-2.36044573565470e+001,-1.26464025541564e+000

7.16020056742374e+004,-2.36045836317344e+001,-1.28213013543153e+000

7.26015324253724e+004,-2.36047131550731e+001,-1.29985766263045e+000

7.36150120499896e+004,-2.36048460019640e+001,-1.31782590899507e+000

7.46426393229441e+004,-2.36049822491248e+001,-1.33603798098068e+000

7.56846117380472e+004,-2.36051219745903e+001,-1.35449701976462e+000

7.67411295460207e+004,-2.36052652577094e+001,-1.37320620149878e+000

7.78123957929823e+004,-2.36054121791423e+001,-1.39216873756249e+000

7.88986163594682e+004,-2.36055628208546e+001,-1.41138787481799e+000

7.99999999999995e+004,-2.36057172661104e+001,-1.43086689586604e+000

8.11167583832018e+004,-2.36058755994632e+001,-1.45060911930766e+000

8.22491061324848e+004,-2.36060379067451e+001,-1.47061790000546e+000

8.33972608672892e+004,-2.36062042750535e+001,-1.49089662934962e+000

8.45614432449099e+004,-2.36063747927361e+001,-1.51144873552910e+000

8.57418770029029e+004,-2.36065495493735e+001,-1.53227768380588e+000

8.69387890020841e+004,-2.36067286357589e+001,-1.55338697679499e+000

8.81524092701283e+004,-2.36069121438766e+001,-1.57478015475156e+000

8.93829710457770e+004,-2.36071001668766e+001,-1.59646079586073e+000

9.06307108236633e+004,-2.36072927990477e+001,-1.61843251654025e+000

9.18958683997622e+004,-2.36074901357869e+001,-1.64069897174809e+000

9.31786869174758e+004,-2.36076922735668e+001,-1.66326385529785e+000

9.44794129143618e+004,-2.36078993098994e+001,-1.68613090018911e+000

9.57982963695136e+004,-2.36081113432979e+001,-1.70930387894194e+000

9.71355907516031e+004,-2.36083284732338e+001,-1.73278660395100e+000

9.84915530675926e+004,-2.36085508000926e+001,-1.75658292784601e+000

9.98664439121282e+004,-2.36087784251253e+001,-1.78069674387111e+000

1.01260527517622e+005,-2.36090114503966e+001,-1.80513198627778e+000

1.02674071805032e+005,-2.36092499787298e+001,-1.82989263073592e+000

1.04107348435354e+005,-2.36094941136487e+001,-1.85498269476114e+000

1.05560632861831e+005,-2.36097439593153e+001,-1.88040623816477e+000

1.07034204382888e+005,-2.36099996204644e+001,-1.90616736352216e+000

1.08528346195813e+005,-2.36102612023347e+001,-1.93227021666534e+000

1.10043345451179e+005,-2.36105288105957e+001,-1.95871898720065e+000

1.11579493308032e+005,-2.36108025512717e+001,-1.98551790905142e+000

1.13137084989847e+005,-2.36110825306616e+001,-2.01267126102805e+000

1.14716419841265e+005,-2.36113688552555e+001,-2.04018336742976e+000

1.16317801385624e+005,-2.36116616316471e+001,-2.06805859867721e+000

1.17941537383287e+005,-2.36119609664432e+001,-2.09630137197698e+000

1.19587939890794e+005,-2.36122669661690e+001,-2.12491615202509e+000

1.21257325320831e+005,-2.36125797371704e+001,-2.15390745174470e+000

1.22950014503040e+005,-2.36128993855125e+001,-2.18327983306549e+000

1.24666332745679e+005,-2.36132260168752e+001,-2.21303790774551e+000

1.26406609898139e+005,-2.36135597364448e+001,-2.24318633823469e+000

1.28171180414339e+005,-2.36139006488039e+001,-2.27372983858723e+000

1.29960383416997e+005,-2.36142488578165e+001,-2.30467317542127e+000

1.31774562762811e+005,-2.36146044665121e+001,-2.33602116892964e+000

1.33614067108538e+005,-2.36149675769663e+001,-2.36777869394299e+000

1.35479249978003e+005,-2.36153382901790e+001,-2.39995068105005e+000

1.37370469830040e+005,-2.36157167059512e+001,-2.43254211777282e+000

1.39288090127379e+005,-2.36161029227591e+001,-2.46555804980472e+000

1.41232479406504e+005,-2.36164970376272e+001,-2.49900358230836e+000

1.43204011348474e+005,-2.36168991460001e+001,-2.53288388127829e+000

1.45203064850745e+005,-2.36173093416135e+001,-2.56720417497040e+000

1.47230024099979e+005,-2.36177277163642e+001,-2.60196975540038e+000

1.49285278645888e+005,-2.36181543601808e+001,-2.63718597990996e+000

1.51369223476094e+005,-2.36185893608938e+001,-2.67285827280932e+000

1.53482259092041e+005,-2.36190328041076e+001,-2.70899212709010e+000

1.55624791585964e+005,-2.36194847730723e+001,-2.74559310621694e+000

1.57797232718936e+005,-2.36199453485584e+001,-2.78266684599379e+000

1.59999999999999e+005,-2.36204146087335e+001,-2.82021905651076e+000

1.62233516766403e+005,-2.36208926290416e+001,-2.85825552417104e+000

1.64498212264969e+005,-2.36213794820860e+001,-2.89678211379635e+000

1.66794521734578e+005,-2.36218752375158e+001,-2.93580477081828e+000

1.69122886489819e+005,-2.36223799619178e+001,-2.97532952354777e+000

1.71483754005805e+005,-2.36228937187128e+001,-3.01536248553111e+000

1.73877578004168e+005,-2.36234165680585e+001,-3.05590985798661e+000

1.76304818540256e+005,-2.36239485667586e+001,-3.09697793232559e+000

1.78765942091554e+005,-2.36244897681792e+001,-3.13857309275573e+000

1.81261421647326e+005,-2.36250402221730e+001,-3.18070181896698e+000

1.83791736799524e+005,-2.36255999750130e+001,-3.22337068889713e+000

1.86357373834951e+005,-2.36261690693345e+001,-3.26658638157959e+000

1.88958825828723e+005,-2.36267475440875e+001,-3.31035568006866e+000

1.91596592739027e+005,-2.36273354345007e+001,-3.35468547444047e+000

1.94271181503206e+005,-2.36279327720557e+001,-3.39958276487092e+000

1.96983106135185e+005,-2.36285395844741e+001,-3.44505466478337e+000

1.99732887824256e+005,-2.36291558957179e+001,-3.49110840406728e+000

2.02521055035243e+005,-2.36297817260024e+001,-3.53775133236208e+000

2.05348143610063e+005,-2.36304170918239e+001,-3.58499092240436e+000

2.08214696870707e+005,-2.36310620060023e+001,-3.63283477343400e+000

2.11121265723661e+005,-2.36317164777392e+001,-3.68129061465452e+000

2.14068408765776e+005,-2.36323805126907e+001,-3.73036630874589e+000

2.17056692391625e+005,-2.36330541130590e+001,-3.78006985542036e+000

2.20086690902357e+005,-2.36337372776986e+001,-3.83040939502188e+000

2.23158986616063e+005,-2.36344300022412e+001,-3.88139321215925e+000

2.26274169979693e+005,-2.36351322792387e+001,-3.93302973937053e+000

2.29432839682530e+005,-2.36358440983229e+001,-3.98532756081131e+000

2.32635602771247e+005,-2.36365654463852e+001,-4.03829541596238e+000

2.35883074766574e+005,-2.36372963077739e+001,-4.09194220334786e+000

2.39175879781588e+005,-2.36380366645109e+001,-4.14627698426228e+000

2.42514650641661e+005,-2.36387864965268e+001,-4.20130898649534e+000

2.45900029006080e+005,-2.36395457819156e+001,-4.25704760805027e+000

2.49332665491357e+005,-2.36403144972073e+001,-4.31350242085089e+000

2.52813219796278e+005,-2.36410926176609e+001,-4.37068317442648e+000

2.56342360828676e+005,-2.36418801175741e+001,-4.42859979957183e+000

2.59920766833993e+005,-2.36426769706132e+001,-4.48726241197451e+000

2.63549125525621e+005,-2.36434831501596e+001,-4.54668131580307e+000

2.67228134217075e+005,-2.36442986296754e+001,-4.60686700724899e+000

2.70958499956006e+005,-2.36451233830849e+001,-4.66783017801930e+000

2.74740939660078e+005,-2.36459573851740e+001,-4.72958171876982e+000

2.78576180254757e+005,-2.36468006120047e+001,-4.79213272247621e+000

2.82464958813007e+005,-2.36476530413460e+001,-4.85549448773760e+000

2.86408022696948e+005,-2.36485146531195e+001,-4.91967852200536e+000

2.90406129701488e+005,-2.36493854298580e+001,-4.98469654473474e+000

2.94460048199957e+005,-2.36502653571790e+001,-5.05056049045407e+000

2.98570557291775e+005,-2.36511544242691e+001,-5.11728251174750e+000

3.02738446952187e+005,-2.36520526243806e+001,-5.18487498214724e+000

3.06964518184081e+005,-2.36529599553387e+001,-5.25335049893426e+000

3.11249583171928e+005,-2.36538764200579e+001,-5.32272188584193e+000

3.15594465437872e+005,-2.36548020270670e+001,-5.39300219566389e+000

3.19999999999997e+005,-2.36557367910422e+001,-5.46420471276050e+000

3.24467033532806e+005,-2.36566807333457e+001,-5.53634295546713e+000

3.28996424529938e+005,-2.36576338825709e+001,-5.60943067840122e+000

3.33589043469155e+005,-2.36585962750914e+001,-5.68348187466742e+000

3.38245772979638e+005,-2.36595679556133e+001,-5.75851077796385e+000

3.42967508011610e+005,-2.36605489777306e+001,-5.83453186458847e+000

3.47755156008335e+005,-2.36615394044812e+001,-5.91155985534787e+000

3.52609637080511e+005,-2.36625393089040e+001,-5.98960971737087e+000

3.57531884183106e+005,-2.36635487745949e+001,-6.06869666582815e+000

3.62522843294651e+005,-2.36645678962620e+001,-6.14883616556287e+000

3.67583473599047e+005,-2.36655967802783e+001,-6.23004393263319e+000

3.72714747669902e+005,-2.36666355452310e+001,-6.31233593577348e+000

3.77917651657445e+005,-2.36676843224675e+001,-6.39572839777678e+000

3.83193185478053e+005,-2.36687432566365e+001,-6.48023779680146e+000

3.88542363006410e+005,-2.36698125062240e+001,-6.56588086761176e+000

3.93966212270369e+005,-2.36708922440840e+001,-6.65267460275161e+000

3.99465775648511e+005,-2.36719826579622e+001,-6.74063625366281e+000

4.05042110070485e+005,-2.36730839510135e+001,-6.82978333174810e+000

4.10696287220124e+005,-2.36741963423126e+001,-6.92013360938980e+000

4.16429393741414e+005,-2.36753200673568e+001,-7.01170512092524e+000

4.22242531447321e+005,-2.36764553785617e+001,-7.10451616358954e+000

4.28136817531551e+005,-2.36776025457491e+001,-7.19858529842917e+000

4.34113384783250e+005,-2.36787618566270e+001,-7.29393135119249e+000

4.40173381804713e+005,-2.36799336172622e+001,-7.39057341320525e+000

4.46317973232124e+005,-2.36811181525449e+001,-7.48853084223546e+000

4.52548339959385e+005,-2.36823158066465e+001,-7.58782326335409e+000

4.58865679365059e+005,-2.36835269434691e+001,-7.68847056979799e+000

4.65271205542494e+005,-2.36847519470894e+001,-7.79049292383997e+000

4.71766149533147e+005,-2.36859912221952e+001,-7.89391075767213e+000

4.78351759563174e+005,-2.36872451945156e+001,-7.99874477430785e+000

4.85029301283321e+005,-2.36885143112463e+001,-8.10501594850689e+000

4.91800058012158e+005,-2.36897990414697e+001,-8.21274552772809e+000

4.98665330982714e+005,-2.36910998765699e+001,-8.32195503311631e+000

5.05626439592555e+005,-2.36924173306441e+001,-8.43266626052507e+000

5.12684721657352e+005,-2.36937519409120e+001,-8.54490128157950e+000

5.19841533667984e+005,-2.36951042681208e+001,-8.65868244478433e+000

5.27098251051240e+005,-2.36964748969504e+001,-8.77403237667894e+000

5.34456268434150e+005,-2.36978644364166e+001,-8.89097398304169e+000

5.41916999912011e+005,-2.36992735202751e+001,-9.00953045014714e+000

