Freq.,VOut,OutRef

1.00000000000000e+004,-1.24174835544034e+001,-9.29900217443546e-002

1.01395947979003e+004,-1.24174852985916e+001,-9.42877455334318e-002

1.02811382665607e+004,-1.24174870917141e+001,-9.56035692426929e-002

1.04246576084112e+004,-1.24174889351408e+001,-9.69377448756899e-002

1.05701804056138e+004,-1.24174908302796e+001,-9.82905279268065e-002

1.07177346253629e+004,-1.24174927785782e+001,-9.96621774247295e-002

1.08673486252606e+004,-1.24174947815243e+001,-1.01052955985379e-001

1.10190511587661e+004,-1.24174968406468e+001,-1.02463129860583e-001

1.11728713807222e+004,-1.24174989575176e+001,-1.03892968983361e-001

1.13288388529580e+004,-1.24175011337520e+001,-1.05342747022624e-001

1.14869835499703e+004,-1.24175033710107e+001,-1.06812741428294e-001

1.16473358646846e+004,-1.24175056710001e+001,-1.08303233489124e-001

1.18099266142953e+004,-1.24175080354743e+001,-1.09814508381766e-001

1.19747870461893e+004,-1.24175104662364e+001,-1.11346855219545e-001

1.21419488439505e+004,-1.24175129651391e+001,-1.12900567114263e-001

1.23114441334492e+004,-1.24175155340868e+001,-1.14475941222649e-001

1.24833054890161e+004,-1.24175181750373e+001,-1.16073278801458e-001

1.26575659397028e+004,-1.24175208900017e+001,-1.17692885270472e-001

1.28342589756290e+004,-1.24175236810481e+001,-1.19335070257439e-001

1.30134185544193e+004,-1.24175265503013e+001,-1.21000147663443e-001

1.31950791077289e+004,-1.24175294999452e+001,-1.22688435716623e-001

1.33792755478611e+004,-1.24175325322243e+001,-1.24400257030957e-001

1.35660432744767e+004,-1.24175356494450e+001,-1.26135938666083e-001

1.37554181813974e+004,-1.24175388539783e+001,-1.27895812182681e-001

1.39474366635040e+004,-1.24175421482600e+001,-1.29680213710796e-001

1.41421356237309e+004,-1.24175455347941e+001,-1.31489484001654e-001

1.43395524801583e+004,-1.24175490161533e+001,-1.33323968497220e-001

1.45397251732031e+004,-1.24175525949818e+001,-1.35184017386717e-001

1.47426921729110e+004,-1.24175562739969e+001,-1.37069985674772e-001

1.49484924863494e+004,-1.24175600559907e+001,-1.38982233241536e-001

1.51571656651040e+004,-1.24175639438331e+001,-1.40921124908459e-001

1.53687518128801e+004,-1.24175679404722e+001,-1.42887030508829e-001

1.55832915932100e+004,-1.24175720489381e+001,-1.44880324944992e-001

1.58008262372675e+004,-1.24175762723445e+001,-1.46901388263118e-001

1.60213975517924e+004,-1.24175806138909e+001,-1.48950605715938e-001

1.62450479271247e+004,-1.24175850768644e+001,-1.51028367837872e-001

1.64718203453514e+004,-1.24175896646433e+001,-1.53135070505522e-001

1.67017583885674e+004,-1.24175943806983e+001,-1.55271115016754e-001

1.69349062472505e+004,-1.24175992285961e+001,-1.57436908155159e-001

1.71713087287550e+004,-1.24176042120007e+001,-1.59632862268235e-001

1.74110112659224e+004,-1.24176093346774e+001,-1.61859395331276e-001

1.76540599258131e+004,-1.24176146004944e+001,-1.64116931030207e-001

1.79005014185594e+004,-1.24176200134261e+001,-1.66405898831066e-001

1.81503831063432e+004,-1.24176255775561e+001,-1.68726734053869e-001

1.84037530124975e+004,-1.24176312970790e+001,-1.71079877954135e-001

1.86606598307361e+004,-1.24176371763051e+001,-1.73465777793314e-001

1.89211529345119e+004,-1.24176432196620e+001,-1.75884886919918e-001

1.91852823865052e+004,-1.24176494316989e+001,-1.78337664845013e-001

1.94530989482457e+004,-1.24176558170882e+001,-1.80824577329239e-001

1.97246540898671e+004,-1.24176623806305e+001,-1.83346096452122e-001

1.99999999999999e+004,-1.24176691272571e+001,-1.85902700699766e-001

2.02791895958005e+004,-1.24176760620334e+001,-1.88494875045001e-001

2.05622765331213e+004,-1.24176831901624e+001,-1.91123111032068e-001

2.08493152168224e+004,-1.24176905169890e+001,-1.93787906854672e-001

2.11403608112276e+004,-1.24176980480032e+001,-1.96489767443538e-001

2.14354692507258e+004,-1.24177057888431e+001,-1.99229204555755e-001

2.17346972505211e+004,-1.24177137453007e+001,-2.02006736849868e-001

2.20381023175322e+004,-1.24177219233239e+001,-2.04822889984283e-001

2.23457427614443e+004,-1.24177303290217e+001,-2.07678196697344e-001

2.26576777059159e+004,-1.24177389686682e+001,-2.10573196897531e-001

2.29739670999406e+004,-1.24177478487067e+001,-2.13508437752412e-001

2.32946717293690e+004,-1.24177569757537e+001,-2.16484473781503e-001

2.36198532285905e+004,-1.24177663566046e+001,-2.19501866940702e-001

2.39495740923785e+004,-1.24177759982363e+001,-2.22561186722648e-001

2.42838976879009e+004,-1.24177859078142e+001,-2.25663010237587e-001

2.46228882668982e+004,-1.24177960926947e+001,-2.28807922319364e-001

2.49666109780322e+004,-1.24178065604314e+001,-2.31996515609000e-001

2.53151318794055e+004,-1.24178173187803e+001,-2.35229390653432e-001

2.56685179512580e+004,-1.24178283757038e+001,-2.38507156001716e-001

2.60268371088386e+004,-1.24178397393768e+001,-2.41830428299177e-001

2.63901582154578e+004,-1.24178514181917e+001,-2.45199832384053e-001

2.67585510957221e+004,-1.24178634207636e+001,-2.48616001387865e-001

2.71320865489533e+004,-1.24178757559364e+001,-2.52079576831122e-001

2.75108363627948e+004,-1.24178884327879e+001,-2.55591208722421e-001

2.78948733270080e+004,-1.24179014606359e+001,-2.59151555658828e-001

2.82842712474618e+004,-1.24179148490442e+001,-2.62761284925157e-001

2.86791049603164e+004,-1.24179286078281e+001,-2.66421072596182e-001

2.90794503464061e+004,-1.24179427470611e+001,-2.70131603637430e-001

2.94853843458219e+004,-1.24179572770809e+001,-2.73893572005789e-001

2.98969849726987e+004,-1.24179722084958e+001,-2.77707680755225e-001

3.03143313302078e+004,-1.24179875521911e+001,-2.81574642136541e-001

3.07375036257601e+004,-1.24180033193358e+001,-2.85495177705009e-001

3.11665831864199e+004,-1.24180195213895e+001,-2.89470018420805e-001

3.16016524745350e+004,-1.24180361701091e+001,-2.93499904755357e-001

3.20427951035848e+004,-1.24180532775557e+001,-2.97585586797614e-001

3.24900958542493e+004,-1.24180708561021e+001,-3.01727824356001e-001

3.29436406907028e+004,-1.24180889184393e+001,-3.05927387069777e-001

3.34035167771346e+004,-1.24181074775848e+001,-3.10185054509712e-001

3.38698124945009e+004,-1.24181265468894e+001,-3.14501616288674e-001

3.43426174575100e+004,-1.24181461400449e+001,-3.18877872166311e-001

3.48220225318448e+004,-1.24181662710920e+001,-3.23314632158648e-001

3.53081198516260e+004,-1.24181869544280e+001,-3.27812716640730e-001

3.58010028371187e+004,-1.24182082048147e+001,-3.32372956461601e-001

3.63007662126863e+004,-1.24182300373868e+001,-3.36996193042943e-001

3.68075060249948e+004,-1.24182524676594e+001,-3.41683278495090e-001

3.73213196614721e+004,-1.24182755115367e+001,-3.46435075720688e-001

3.78423058690237e+004,-1.24182991853208e+001,-3.51252458520784e-001

3.83705647730104e+004,-1.24183235057191e+001,-3.56136311707697e-001

3.89061978964912e+004,-1.24183484898538e+001,-3.61087531209118e-001

3.94493081797342e+004,-1.24183741552702e+001,-3.66107024175763e-001

3.99999999999998e+004,-1.24184005199452e+001,-3.71195709090480e-001

4.05583791916010e+004,-1.24184276022971e+001,-3.76354515872398e-001

4.11245530662425e+004,-1.24184554211927e+001,-3.81584385989158e-001

4.16986304336447e+004,-1.24184839959585e+001,-3.86886272556159e-001

4.22807216224550e+004,-1.24185133463876e+001,-3.92261140448971e-001

4.28709385014515e+004,-1.24185434927505e+001,-3.97709966405174e-001

4.34693945010421e+004,-1.24185744558031e+001,-4.03233739129660e-001

4.40762046350642e+004,-1.24186062567965e+001,-4.08833459400853e-001

4.46914855228886e+004,-1.24186389174856e+001,-4.14510140174247e-001

4.53153554118317e+004,-1.24186724601390e+001,-4.20264806683208e-001

4.59479341998812e+004,-1.24187069075475e+001,-4.26098496544421e-001

4.65893434587380e+004,-1.24187422830339e+001,-4.32012259856379e-001

4.72397064571810e+004,-1.24187786104618e+001,-4.38007159302250e-001

4.78991481847569e+004,-1.24188159142448e+001,-4.44084270248819e-001

4.85677953758016e+004,-1.24188542193559e+001,-4.50244680843413e-001

4.92457765337964e+004,-1.24188935513360e+001,-4.56489492114023e-001

4.99332219560642e+004,-1.24189339363029e+001,-4.62819818064696e-001

5.06302637588109e+004,-1.24189754009610e+001,-4.69236785768778e-001

5.13370359025159e+004,-1.24190179726088e+001,-4.75741535464938e-001

5.20536742176771e+004,-1.24190616791483e+001,-4.82335220647656e-001

5.27803164309155e+004,-1.24191065490932e+001,-4.89019008160562e-001

5.35171021914442e+004,-1.24191526115770e+001,-4.95794078283241e-001

5.42641730979066e+004,-1.24191998963612e+001,-5.02661624821002e-001

5.50216727255895e+004,-1.24192484338433e+001,-5.09622855189272e-001

5.57897466540159e+004,-1.24192982550637e+001,-5.16678990500978e-001

5.65685424949235e+004,-1.24193493917136e+001,-5.23831265646469e-001

5.73582099206328e+004,-1.24194018761418e+001,-5.31080929377154e-001

5.81589006928121e+004,-1.24194557413609e+001,-5.38429244382408e-001

5.89707686916437e+004,-1.24195110210543e+001,-5.45877487367755e-001

5.97939699453972e+004,-1.24195677495813e+001,-5.53426949132061e-001

6.06286626604156e+004,-1.24196259619825e+001,-5.61078934639701e-001

6.14750072515201e+004,-1.24196856939853e+001,-5.68834763090157e-001

6.23331663728396e+004,-1.24197469820077e+001,-5.76695767991987e-001

6.32033049490698e+004,-1.24198098631622e+001,-5.84663297226407e-001

6.40855902071694e+004,-1.24198743752589e+001,-5.92738713115763e-001

6.49801917084985e+004,-1.24199405568084e+001,-6.00923392484933e-001

6.58872813814055e+004,-1.24200084470235e+001,-6.09218726723532e-001

6.68070335542691e+004,-1.24200780858198e+001,-6.17626121847106e-001

6.77396249890018e+004,-1.24201495138167e+001,-6.26146998551986e-001

6.86852349150199e+004,-1.24202227723365e+001,-6.34782792273295e-001

6.96440450636895e+004,-1.24202979034030e+001,-6.43534953237791e-001

7.06162397032520e+004,-1.24203749497391e+001,-6.52404946517110e-001

7.16020056742374e+004,-1.24204539547633e+001,-6.61394252075658e-001

7.26015324253724e+004,-1.24205349625857e+001,-6.70504364822651e-001

7.36150120499896e+004,-1.24206180180016e+001,-6.79736794656847e-001

7.46426393229441e+004,-1.24207031664855e+001,-6.89093066514388e-001

7.56846117380472e+004,-1.24207904541823e+001,-6.98574720413884e-001

7.67411295460207e+004,-1.24208799278987e+001,-7.08183311497580e-001

7.78123957929823e+004,-1.24209716350916e+001,-7.17920410077693e-001

7.88986163594682e+004,-1.24210656238567e+001,-7.27787601676526e-001

7.99999999999995e+004,-1.24211619429139e+001,-7.37786487071562e-001

8.11167583832018e+004,-1.24212606415927e+001,-7.47918682333417e-001

8.22491061324848e+004,-1.24213617698147e+001,-7.58185818871853e-001

8.33972608672892e+004,-1.24214653780750e+001,-7.68589543476194e-001

8.45614432449099e+004,-1.24215715174215e+001,-7.79131518362294e-001

8.57418770029029e+004,-1.24216802394325e+001,-7.89813421213667e-001

8.69387890020841e+004,-1.24217915961919e+001,-8.00636945231646e-001

8.81524092701283e+004,-1.24219056402632e+001,-8.11603799183355e-001

8.93829710457770e+004,-1.24220224246605e+001,-8.22715707452876e-001

9.06307108236633e+004,-1.24221420028173e+001,-8.33974410098814e-001

9.18958683997622e+004,-1.24222644285543e+001,-8.45381662909056e-001

9.31786869174758e+004,-1.24223897560428e+001,-8.56939237468981e-001

9.44794129143618e+004,-1.24225180397676e+001,-8.68648921225903e-001

9.57982963695136e+004,-1.24226493344860e+001,-8.80512517564949e-001

9.71355907516031e+004,-1.24227836951851e+001,-8.92531845889699e-001

9.84915530675926e+004,-1.24229211770360e+001,-9.04708741709442e-001

9.98664439121282e+004,-1.24230618353455e+001,-9.17045056736929e-001

1.01260527517622e+005,-1.24232057255047e+001,-9.29542658990841e-001

1.02674071805032e+005,-1.24233529029356e+001,-9.42203432912636e-001

1.04107348435354e+005,-1.24235034230334e+001,-9.55029279492723e-001

1.05560632861831e+005,-1.24236573411074e+001,-9.68022116405943e-001

1.07034204382888e+005,-1.24238147123179e+001,-9.81183878165703e-001

1.08528346195813e+005,-1.24239755916103e+001,-9.94516516285848e-001

1.10043345451179e+005,-1.24241400336464e+001,-1.00802199946225e+000

1.11579493308032e+005,-1.24243080927320e+001,-1.02170231376940e+000

1.13137084989847e+005,-1.24244798227427e+001,-1.03555946287345e+000

1.14716419841265e+005,-1.24246552770444e+001,-1.04959546826891e+000

1.16317801385624e+005,-1.24248345084132e+001,-1.06381236952684e+000

1.17941537383287e+005,-1.24250175689502e+001,-1.07821222457609e+000

1.19587939890794e+005,-1.24252045099940e+001,-1.09279710999851e+000

1.21257325320831e+005,-1.24253953820306e+001,-1.10756912135266e+000

1.22950014503040e+005,-1.24255902345991e+001,-1.12253037352443e+000

1.24666332745679e+005,-1.24257891161953e+001,-1.13768300110365e+000

1.26406609898139e+005,-1.24259920741722e+001,-1.15302915879055e+000

1.28171180414339e+005,-1.24261991546377e+001,-1.16857102183322e+000

1.29960383416997e+005,-1.24264104023492e+001,-1.18431078649617e+000

1.31774562762811e+005,-1.24266258606059e+001,-1.20025067056607e+000

1.33614067108538e+005,-1.24268455711389e+001,-1.21639291389020e+000

1.35479249978003e+005,-1.24270695739978e+001,-1.23273977895275e+000

1.37370469830040e+005,-1.24272979074364e+001,-1.24929355149090e+000

1.39288090127379e+005,-1.24275306077959e+001,-1.26605654115171e+000

1.41232479406504e+005,-1.24277677093854e+001,-1.28303108218886e+000

1.43204011348474e+005,-1.24280092443623e+001,-1.30021953420673e+000

1.45203064850745e+005,-1.24282552426100e+001,-1.31762428294562e+000

1.47230024099979e+005,-1.24285057316152e+001,-1.33524774111651e+000

1.49285278645888e+005,-1.24287607363437e+001,-1.35309234928388e+000

1.51369223476094e+005,-1.24290202791164e+001,-1.37116057679463e+000

1.53482259092041e+005,-1.24292843794839e+001,-1.38945492276370e+000

1.55624791585964e+005,-1.24295530541021e+001,-1.40797791710564e+000

1.57797232718936e+005,-1.24298263166078e+001,-1.42673212162292e+000

1.59999999999999e+005,-1.24301041774946e+001,-1.44572013114696e+000

1.62233516766403e+005,-1.24303866439907e+001,-1.46494457473439e+000

1.64498212264969e+005,-1.24306737199372e+001,-1.48440811691973e+000

1.66794521734578e+005,-1.24309654056692e+001,-1.50411345902286e+000

1.69122886489819e+005,-1.24312616978987e+001,-1.52406334051443e+000

1.71483754005805e+005,-1.24315625896001e+001,-1.54426054043830e+000

1.73877578004168e+005,-1.24318680698994e+001,-1.56470787889086e+000

1.76304818540256e+005,-1.24321781239663e+001,-1.58540821855797e+000

1.78765942091554e+005,-1.24324927329114e+001,-1.60636446630822e+000

1.81261421647326e+005,-1.24328118736867e+001,-1.62757957484430e+000

1.83791736799524e+005,-1.24331355189926e+001,-1.64905654440813e+000

1.86357373834951e+005,-1.24334636371888e+001,-1.67079842454225e+000

1.88958825828723e+005,-1.24337961922129e+001,-1.69280831590616e+000

1.91596592739027e+005,-1.24341331435038e+001,-1.71508937214355e+000

1.94271181503206e+005,-1.24344744459338e+001,-1.73764480180074e+000

1.96983106135185e+005,-1.24348200497463e+001,-1.76047787029755e+000

1.99732887824256e+005,-1.24351699005031e+001,-1.78359190194112e+000

2.02521055035243e+005,-1.24355239390387e+001,-1.80699028198840e+000

2.05348143610063e+005,-1.24358821014240e+001,-1.83067645875053e+000

2.08214696870707e+005,-1.24362443189391e+001,-1.85465394573551e+000

2.11121265723661e+005,-1.24366105180554e+001,-1.87892632383166e+000

2.14068408765776e+005,-1.24369806204283e+001,-1.90349724351997e+000

2.17056692391625e+005,-1.24373545428988e+001,-1.92837042712338e+000

2.20086690902357e+005,-1.24377321975073e+001,-1.95354967107697e+000

2.23158986616063e+005,-1.24381134915169e+001,-1.97903884822560e+000

2.26274169979693e+005,-1.24384983274485e+001,-2.00484191013977e+000

2.29432839682530e+005,-1.24388866031269e+001,-2.03096288944691e+000

2.32635602771247e+005,-1.24392782117385e+001,-2.05740590217296e+000

2.35883074766574e+005,-1.24396730419001e+001,-2.08417515009228e+000

2.39175879781588e+005,-1.24400709777398e+001,-2.11127492307838e+000

2.42514650641661e+005,-1.24404718989892e+001,-2.13870960145452e+000

2.45900029006080e+005,-1.24408756810875e+001,-2.16648365833393e+000

2.49332665491357e+005,-1.24412821952968e+001,-2.19460166195321e+000

2.52813219796278e+005,-1.24416913088286e+001,-2.22306827798632e+000

2.56342360828676e+005,-1.24421028849822e+001,-2.25188827183859e+000

2.59920766833993e+005,-1.24425167832935e+001,-2.28106651091604e+000

2.63549125525621e+005,-1.24429328596946e+001,-2.31060796686464e+000

2.67228134217075e+005,-1.24433509666835e+001,-2.34051771777569e+000

2.70958499956006e+005,-1.24437709535046e+001,-2.37080095035103e+000

2.74740939660078e+005,-1.24441926663373e+001,-2.40146296202923e+000

2.78576180254757e+005,-1.24446159484952e+001,-2.43250916306040e+000

2.82464958813007e+005,-1.24450406406322e+001,-2.46394507853517e+000

2.86408022696948e+005,-1.24454665809579e+001,-2.49577635035682e+000

2.90406129701488e+005,-1.24458936054592e+001,-2.52800873915759e+000

2.94460048199957e+005,-1.24463215481291e+001,-2.56064812615460e+000

2.98570557291775e+005,-1.24467502412009e+001,-2.59370051494396e+000

3.02738446952187e+005,-1.24471795153888e+001,-2.62717203322718e+000

3.06964518184081e+005,-1.24476092001307e+001,-2.66106893447399e+000

3.11249583171928e+005,-1.24480391238368e+001,-2.69539759951362e+000

3.15594465437872e+005,-1.24484691141398e+001,-2.73016453805794e+000

3.19999999999997e+005,-1.24488989981477e+001,-2.76537639015129e+000

3.24467033532806e+005,-1.24493286026969e+001,-2.80103992755250e+000

3.28996424529938e+005,-1.24497577546067e+001,-2.83716205504074e+000

3.33589043469155e+005,-1.24501862809323e+001,-2.87374981165453e+000

3.38245772979638e+005,-1.24506140092175e+001,-2.91081037185620e+000

3.42967508011610e+005,-1.24510407677436e+001,-2.94835104662997e+000

3.47755156008335e+005,-1.24514663857771e+001,-2.98637928450949e+000

3.52609637080511e+005,-1.24518906938120e+001,-3.02490267254011e+000

3.57531884183106e+005,-1.24523135238087e+001,-3.06392893717682e+000

3.62522843294651e+005,-1.24527347094263e+001,-3.10346594512066e+000

3.67583473599047e+005,-1.24531540862501e+001,-3.14352170409608e+000

3.72714747669902e+005,-1.24535714920109e+001,-3.18410436357301e+000

3.77917651657445e+005,-1.24539867667980e+001,-3.22522221543719e+000

3.83193185478053e+005,-1.24543997532635e+001,-3.26688369461113e+000

3.88542363006410e+005,-1.24548102968174e+001,-3.30909737963334e+000

3.93966212270369e+005,-1.24552182458150e+001,-3.35187199319398e+000

3.99465775648511e+005,-1.24556234517328e+001,-3.39521640263942e+000

4.05042110070485e+005,-1.24560257693352e+001,-3.43913962044226e+000

4.10696287220124e+005,-1.24564250568308e+001,-3.48365080464799e+000

4.16429393741414e+005,-1.24568211760170e+001,-3.52875925929977e+000

4.22242531447321e+005,-1.24572139924140e+001,-3.57447443484741e+000

4.28136817531551e+005,-1.24576033753874e+001,-3.62080592854631e+000

4.34113384783250e+005,-1.24579891982586e+001,-3.66776348484922e+000

4.40173381804713e+005,-1.24583713384042e+001,-3.71535699580018e+000

4.46317973232124e+005,-1.24587496773430e+001,-3.76359650143084e+000

4.52548339959385e+005,-1.24591241008114e+001,-3.81249219016820e+000

4.58865679365059e+005,-1.24594944988267e+001,-3.86205439925804e+000

4.65271205542494e+005,-1.24598607657391e+001,-3.91229361520644e+000

4.71766149533147e+005,-1.24602228002715e+001,-3.96322047424890e+000

4.78351759563174e+005,-1.24605805055480e+001,-4.01484576284661e+000

4.85029301283321e+005,-1.24609337891112e+001,-4.06718041822018e+000

4.91800058012158e+005,-1.24612825629281e+001,-4.12023552892039e+000

4.98665330982714e+005,-1.24616267433856e+001,-4.17402233544260e+000

5.05626439592555e+005,-1.24619662512749e+001,-4.22855223088964e+000

5.12684721657352e+005,-1.24623010117664e+001,-4.28383676168469e+000

5.19841533667984e+005,-1.24626309543741e+001,-4.33988762834123e+000

5.27098251051240e+005,-1.24629560129110e+001,-4.39671668629006e+000

5.34456268434150e+005,-1.24632761254353e+001,-4.45433594676904e+000

5.41916999912011e+005,-1.24635912341880e+001,-4.51275757777814e+000

