Freq.,VOut,OutRef

1.00000000000000e+004,-3.62927768781663e+001,-1.42874719586682e-001

1.01395947979003e+004,-3.62927796123240e+001,-1.44868647070278e-001

1.02811382665607e+004,-3.62927824232038e+001,-1.46890386299298e-001

1.04246576084112e+004,-3.62927853129543e+001,-1.48940324560489e-001

1.05701804056138e+004,-3.62927882837842e+001,-1.51018854505722e-001

1.07177346253629e+004,-3.62927913379637e+001,-1.53126374227267e-001

1.08673486252606e+004,-3.62927944778262e+001,-1.55263287331176e-001

1.10190511587661e+004,-3.62927977057702e+001,-1.57430003011374e-001

1.11728713807222e+004,-3.62928010242613e+001,-1.59626936125725e-001

1.13288388529580e+004,-3.62928044358332e+001,-1.61854507275945e-001

1.14869835499703e+004,-3.62928079430909e+001,-1.64113142881737e-001

1.16473358646846e+004,-3.62928115487115e+001,-1.66403275262098e-001

1.18099266142953e+004,-3.62928152554466e+001,-1.68725342716617e-001

1.19747870461893e+004,-3.62928190661247e+001,-1.71079789601208e-001

1.21419488439505e+004,-3.62928229836527e+001,-1.73467066418279e-001

1.23114441334492e+004,-3.62928270110185e+001,-1.75887629893394e-001

1.24833054890161e+004,-3.62928311512930e+001,-1.78341943062346e-001

1.26575659397028e+004,-3.62928354076326e+001,-1.80830475355053e-001

1.28342589756290e+004,-3.62928397832815e+001,-1.83353702683047e-001

1.30134185544193e+004,-3.62928442815734e+001,-1.85912107528917e-001

1.31950791077289e+004,-3.62928489059355e+001,-1.88506179029706e-001

1.33792755478611e+004,-3.62928536598894e+001,-1.91136413070400e-001

1.35660432744767e+004,-3.62928585470550e+001,-1.93803312373910e-001

1.37554181813974e+004,-3.62928635711523e+001,-1.96507386592538e-001

1.39474366635040e+004,-3.62928687360042e+001,-1.99249152403093e-001

1.41421356237309e+004,-3.62928740455403e+001,-2.02029133595633e-001

1.43395524801583e+004,-3.62928795037985e+001,-2.04847861176396e-001

1.45397251732031e+004,-3.62928851149288e+001,-2.07705873458243e-001

1.47426921729110e+004,-3.62928908831960e+001,-2.10603716160354e-001

1.49484924863494e+004,-3.62928968129828e+001,-2.13541942508593e-001

1.51571656651040e+004,-3.62929029087935e+001,-2.16521113333419e-001

1.53687518128801e+004,-3.62929091752567e+001,-2.19541797170452e-001

1.55832915932100e+004,-3.62929156171289e+001,-2.22604570366634e-001

1.58008262372675e+004,-3.62929222392980e+001,-2.25710017181839e-001

1.60213975517924e+004,-3.62929290467870e+001,-2.28858729890559e-001

1.62450479271247e+004,-3.62929360447574e+001,-2.32051308894214e-001

1.64718203453514e+004,-3.62929432385131e+001,-2.35288362822812e-001

1.67017583885674e+004,-3.62929506335039e+001,-2.38570508649608e-001

1.69349062472505e+004,-3.62929582353304e+001,-2.41898371793921e-001

1.71713087287550e+004,-3.62929660497468e+001,-2.45272586237589e-001

1.74110112659224e+004,-3.62929740826659e+001,-2.48693794635629e-001

1.76540599258131e+004,-3.62929823401632e+001,-2.52162648429647e-001

1.79005014185594e+004,-3.62929908284809e+001,-2.55679807964174e-001

1.81503831063432e+004,-3.62929995540328e+001,-2.59245942601165e-001

1.84037530124975e+004,-3.62930085234089e+001,-2.62861730837653e-001

1.86606598307361e+004,-3.62930177433797e+001,-2.66527860427341e-001

1.89211529345119e+004,-3.62930272209016e+001,-2.70245028496069e-001

1.91852823865052e+004,-3.62930369631210e+001,-2.74013941669105e-001

1.94530989482457e+004,-3.62930469773804e+001,-2.77835316188894e-001

1.97246540898671e+004,-3.62930572712232e+001,-2.81709878039990e-001

1.99999999999999e+004,-3.62930678523982e+001,-2.85638363079351e-001

2.02791895958005e+004,-3.62930787288665e+001,-2.89621517155998e-001

2.05622765331213e+004,-3.62930899088063e+001,-2.93660096243029e-001

2.08493152168224e+004,-3.62931014006184e+001,-2.97754866568295e-001

2.11403608112276e+004,-3.62931132129327e+001,-3.01906604740159e-001

2.14354692507258e+004,-3.62931253546137e+001,-3.06116097886101e-001

2.17346972505211e+004,-3.62931378347672e+001,-3.10384143778981e-001

2.20381023175322e+004,-3.62931506627458e+001,-3.14711550979031e-001

2.23457427614443e+004,-3.62931638481563e+001,-3.19099138962658e-001

2.26576777059159e+004,-3.62931774008658e+001,-3.23547738265664e-001

2.29739670999406e+004,-3.62931913310084e+001,-3.28058190617881e-001

2.32946717293690e+004,-3.62932056489924e+001,-3.32631349084923e-001

2.36198532285905e+004,-3.62932203655072e+001,-3.37268078209881e-001

2.39495740923785e+004,-3.62932354915309e+001,-3.41969254154241e-001

2.42838976879009e+004,-3.62932510383371e+001,-3.46735764842017e-001

2.46228882668982e+004,-3.62932670175031e+001,-3.51568510106821e-001

2.49666109780322e+004,-3.62932834409177e+001,-3.56468401834290e-001

2.53151318794055e+004,-3.62933003207886e+001,-3.61436364112819e-001

2.56685179512580e+004,-3.62933176696511e+001,-3.66473333381286e-001

2.60268371088386e+004,-3.62933355003760e+001,-3.71580258580225e-001

2.63901582154578e+004,-3.62933538261784e+001,-3.76758101300660e-001

2.67585510957221e+004,-3.62933726606264e+001,-3.82007835937340e-001

2.71320865489533e+004,-3.62933920176497e+001,-3.87330449845083e-001

2.75108363627948e+004,-3.62934119115490e+001,-3.92726943488497e-001

2.78948733270080e+004,-3.62934323570050e+001,-3.98198330603042e-001

2.82842712474618e+004,-3.62934533690880e+001,-4.03745638348280e-001

2.86791049603164e+004,-3.62934749632678e+001,-4.09369907466330e-001

2.90794503464061e+004,-3.62934971554230e+001,-4.15072192444087e-001

2.94853843458219e+004,-3.62935199618517e+001,-4.20853561669395e-001

2.98969849726987e+004,-3.62935433992814e+001,-4.26715097594524e-001

3.03143313302078e+004,-3.62935674848793e+001,-4.32657896899257e-001

3.07375036257601e+004,-3.62935922362637e+001,-4.38683070650461e-001

3.11665831864199e+004,-3.62936176715142e+001,-4.44791744469923e-001

3.16016524745350e+004,-3.62936438091833e+001,-4.50985058695944e-001

3.20427951035848e+004,-3.62936706683072e+001,-4.57264168552704e-001

3.24900958542493e+004,-3.62936982684178e+001,-4.63630244313696e-001

3.29436406907028e+004,-3.62937266295545e+001,-4.70084471470540e-001

3.34035167771346e+004,-3.62937557722756e+001,-4.76628050901090e-001

3.38698124945009e+004,-3.62937857176712e+001,-4.83262199035731e-001

3.43426174575100e+004,-3.62938164873749e+001,-4.89988148032608e-001

3.48220225318448e+004,-3.62938481035769e+001,-4.96807145940078e-001

3.53081198516260e+004,-3.62938805890366e+001,-5.03720456873089e-001

3.58010028371187e+004,-3.62939139670957e+001,-5.10729361180675e-001

3.63007662126863e+004,-3.62939482616913e+001,-5.17835155618712e-001

3.68075060249948e+004,-3.62939834973694e+001,-5.25039153522553e-001

3.73213196614721e+004,-3.62940196992985e+001,-5.32342684976119e-001

3.78423058690237e+004,-3.62940568932835e+001,-5.39747096987104e-001

3.83705647730104e+004,-3.62940951057797e+001,-5.47253753657785e-001

3.89061978964912e+004,-3.62941343639069e+001,-5.54864036359261e-001

3.94493081797342e+004,-3.62941746954640e+001,-5.62579343900899e-001

3.99999999999998e+004,-3.62942161289431e+001,-5.70401092707106e-001

4.05583791916010e+004,-3.62942586935452e+001,-5.78330716985866e-001

4.11245530662425e+004,-3.62943024191939e+001,-5.86369668903779e-001

4.16986304336447e+004,-3.62943473365513e+001,-5.94519418757112e-001

4.22807216224550e+004,-3.62943934770330e+001,-6.02781455143766e-001

4.28709385014515e+004,-3.62944408728236e+001,-6.11157285133187e-001

4.34693945010421e+004,-3.62944895568916e+001,-6.19648434440123e-001

4.40762046350642e+004,-3.62945395630059e+001,-6.28256447592835e-001

4.46914855228886e+004,-3.62945909257507e+001,-6.36982888102539e-001

4.53153554118317e+004,-3.62946436805418e+001,-6.45829338633220e-001

4.59479341998812e+004,-3.62946978636424e+001,-6.54797401169565e-001

4.65893434587380e+004,-3.62947535121786e+001,-6.63888697184104e-001

4.72397064571810e+004,-3.62948106641565e+001,-6.73104867801938e-001

4.78991481847569e+004,-3.62948693584767e+001,-6.82447573968354e-001

4.85677953758016e+004,-3.62949296349516e+001,-6.91918496610386e-001

4.92457765337964e+004,-3.62949915343209e+001,-7.01519336800533e-001

4.99332219560642e+004,-3.62950550982675e+001,-7.11251815917504e-001

5.06302637588109e+004,-3.62951203694339e+001,-7.21117675805866e-001

5.13370359025159e+004,-3.62951873914373e+001,-7.31118678934888e-001

5.20536742176771e+004,-3.62952562088865e+001,-7.41256608553647e-001

5.27803164309155e+004,-3.62953268673962e+001,-7.51533268847645e-001

5.35171021914442e+004,-3.62953994136034e+001,-7.61950485090230e-001

5.42641730979066e+004,-3.62954738951825e+001,-7.72510103794409e-001

5.50216727255895e+004,-3.62955503608601e+001,-7.83213992861659e-001

5.57897466540159e+004,-3.62956288604299e+001,-7.94064041729316e-001

5.65685424949235e+004,-3.62957094447672e+001,-8.05062161515010e-001

5.73582099206328e+004,-3.62957921658433e+001,-8.16210285159494e-001

5.81589006928121e+004,-3.62958770767389e+001,-8.27510367567189e-001

5.89707686916437e+004,-3.62959642316575e+001,-8.38964385743667e-001

5.97939699453972e+004,-3.62960536859387e+001,-8.50574338932775e-001

6.06286626604156e+004,-3.62961454960699e+001,-8.62342248748275e-001

6.14750072515201e+004,-3.62962397196987e+001,-8.74270159306378e-001

6.23331663728396e+004,-3.62963364156440e+001,-8.86360137352246e-001

6.32033049490698e+004,-3.62964356439062e+001,-8.98614272386680e-001

6.40855902071694e+004,-3.62965374656774e+001,-9.11034676790364e-001

6.49801917084985e+004,-3.62966419433503e+001,-9.23623485942926e-001

6.58872813814055e+004,-3.62967491405263e+001,-9.36382858343143e-001

6.68070335542691e+004,-3.62968591220227e+001,-9.49314975723402e-001

6.77396249890018e+004,-3.62969719538793e+001,-9.62422043163592e-001

6.86852349150199e+004,-3.62970877033634e+001,-9.75706289203372e-001

6.96440450636895e+004,-3.62972064389740e+001,-9.89169965948982e-001

7.06162397032520e+004,-3.62973282304447e+001,-1.00281534918238e+000

7.16020056742374e+004,-3.62974531487454e+001,-1.01664473846462e+000

7.26015324253724e+004,-3.62975812660827e+001,-1.03066045723865e+000

7.36150120499896e+004,-3.62977126558985e+001,-1.04486485293185e+000

7.46426393229441e+004,-3.62978473928680e+001,-1.05926029705389e+000

7.56846117380472e+004,-3.62979855528947e+001,-1.07384918529706e+000

7.67411295460207e+004,-3.62981272131049e+001,-1.08863393763295e+000

7.78123957929823e+004,-3.62982724518402e+001,-1.10361699840863e+000

7.88986163594682e+004,-3.62984213486475e+001,-1.11880083644379e+000

7.99999999999995e+004,-3.62985739842676e+001,-1.13418794512773e+000

8.11167583832018e+004,-3.62987304406218e+001,-1.14978084251420e+000

8.22491061324848e+004,-3.62988908007961e+001,-1.16558207142064e+000

8.33972608672892e+004,-3.62990551490230e+001,-1.18159419952532e+000

8.45614432449099e+004,-3.62992235706610e+001,-1.19781981946981e+000

8.57418770029029e+004,-3.62993961521723e+001,-1.21426154896023e+000

8.69387890020841e+004,-3.62995729810968e+001,-1.23092203087383e+000

8.81524092701283e+004,-3.62997541460246e+001,-1.24780393336777e+000

8.93829710457770e+004,-3.62999397365646e+001,-1.26490994999462e+000

9.06307108236633e+004,-3.63001298433108e+001,-1.28224279981939e+000

9.18958683997622e+004,-3.63003245578062e+001,-1.29980522754510e+000

9.31786869174758e+004,-3.63005239725027e+001,-1.31760000364428e+000

9.44794129143618e+004,-3.63007281807177e+001,-1.33562992449906e+000

9.57982963695136e+004,-3.63009372765888e+001,-1.35389781254734e+000

9.71355907516031e+004,-3.63011513550235e+001,-1.37240651644307e+000

9.84915530675926e+004,-3.63013705116466e+001,-1.39115891122374e+000

9.98664439121282e+004,-3.63015948427437e+001,-1.41015789849123e+000

1.01260527517622e+005,-3.63018244452006e+001,-1.42940640660582e+000

1.02674071805032e+005,-3.63020594164401e+001,-1.44890739089666e+000

1.04107348435354e+005,-3.63022998543538e+001,-1.46866383388487e+000

1.05560632861831e+005,-3.63025458572314e+001,-1.48867874552728e+000

1.07034204382888e+005,-3.63027975236846e+001,-1.50895516347824e+000

1.08528346195813e+005,-3.63030549525686e+001,-1.52949615337026e+000

1.10043345451179e+005,-3.63033182428983e+001,-1.55030480912156e+000

1.11579493308032e+005,-3.63035874937619e+001,-1.57138425326164e+000

1.13137084989847e+005,-3.63038628042290e+001,-1.59273763728796e+000

1.14716419841265e+005,-3.63041442732561e+001,-1.61436814204723e+000

1.16317801385624e+005,-3.63044319995867e+001,-1.63627897814745e+000

1.17941537383287e+005,-3.63047260816490e+001,-1.65847338640241e+000

1.19587939890794e+005,-3.63050266174481e+001,-1.68095463830760e+000

1.21257325320831e+005,-3.63053337044558e+001,-1.70372603655353e+000

1.22950014503040e+005,-3.63056474394951e+001,-1.72679091557778e+000

1.24666332745679e+005,-3.63059679186222e+001,-1.75015264215488e+000

1.26406609898139e+005,-3.63062952370043e+001,-1.77381461602965e+000

1.28171180414339e+005,-3.63066294887941e+001,-1.79778027059616e+000

1.29960383416997e+005,-3.63069707670008e+001,-1.82205307362124e+000

1.31774562762811e+005,-3.63073191633579e+001,-1.84663652801995e+000

1.33614067108538e+005,-3.63076747681889e+001,-1.87153417268007e+000

1.35479249978003e+005,-3.63080376702684e+001,-1.89674958334194e+000

1.37370469830040e+005,-3.63084079566830e+001,-1.92228637353296e+000

1.39288090127379e+005,-3.63087857126878e+001,-1.94814819556346e+000

1.41232479406504e+005,-3.63091710215626e+001,-1.97433874157894e+000

1.43204011348474e+005,-3.63095639644658e+001,-2.00086174467831e+000

1.45203064850745e+005,-3.63099646202866e+001,-2.02772098009795e+000

1.47230024099979e+005,-3.63103730654972e+001,-2.05492026645826e+000

1.49285278645888e+005,-3.63107893740039e+001,-2.08246346708515e+000

1.51369223476094e+005,-3.63112136169983e+001,-2.11035449139851e+000

1.53482259092041e+005,-3.63116458628089e+001,-2.13859729637492e+000

1.55624791585964e+005,-3.63120861767535e+001,-2.16719588808680e+000

1.57797232718936e+005,-3.63125346209932e+001,-2.19615432331347e+000

1.59999999999999e+005,-3.63129912543878e+001,-2.22547671123452e+000

1.62233516766403e+005,-3.63134561323544e+001,-2.25516721519888e+000

1.64498212264969e+005,-3.63139293067285e+001,-2.28523005457519e+000

1.66794521734578e+005,-3.63144108256288e+001,-2.31566950668189e+000

1.69122886489819e+005,-3.63149007333269e+001,-2.34648990880022e+000

1.71483754005805e+005,-3.63153990701209e+001,-2.37769566026744e+000

1.73877578004168e+005,-3.63159058722157e+001,-2.40929122465307e+000

1.76304818540256e+005,-3.63164211716090e+001,-2.44128113201624e+000

1.78765942091554e+005,-3.63169449959839e+001,-2.47366998124532e+000

1.81261421647326e+005,-3.63174773686106e+001,-2.50646244247828e+000

1.83791736799524e+005,-3.63180183082547e+001,-2.53966325960151e+000

1.86357373834951e+005,-3.63185678290960e+001,-2.57327725282990e+000

1.88958825828723e+005,-3.63191259406566e+001,-2.60730932136123e+000

1.91596592739027e+005,-3.63196926477396e+001,-2.64176444610781e+000

1.94271181503206e+005,-3.63202679503789e+001,-2.67664769249995e+000

1.96983106135185e+005,-3.63208518438016e+001,-2.71196421335935e+000

1.99732887824256e+005,-3.63214443184023e+001,-2.74771925184178e+000

2.02521055035243e+005,-3.63220453597312e+001,-2.78391814444201e+000

2.05348143610063e+005,-3.63226549484961e+001,-2.82056632405957e+000

2.08214696870707e+005,-3.63232730605791e+001,-2.85766932312260e+000

2.11121265723661e+005,-3.63238996670681e+001,-2.89523277676228e+000

2.14068408765776e+005,-3.63245347343049e+001,-2.93326242603684e+000

2.17056692391625e+005,-3.63251782239485e+001,-2.97176412119673e+000

2.20086690902357e+005,-3.63258300930564e+001,-3.01074382498874e+000

2.23158986616063e+005,-3.63264902941817e+001,-3.05020761599377e+000

2.26274169979693e+005,-3.63271587754896e+001,-3.09016169198736e+000

2.29432839682530e+005,-3.63278354808896e+001,-3.13061237332605e+000

2.32635602771247e+005,-3.63285203501882e+001,-3.17156610634396e+000

2.35883074766574e+005,-3.63292133192583e+001,-3.21302946676028e+000

2.39175879781588e+005,-3.63299143202278e+001,-3.25500916308816e+000

2.42514650641661e+005,-3.63306232816869e+001,-3.29751204003828e+000

2.45900029006080e+005,-3.63313401289141e+001,-3.34054508191117e+000

2.49332665491357e+005,-3.63320647841201e+001,-3.38411541597234e+000

2.52813219796278e+005,-3.63327971667114e+001,-3.42823031580037e+000

2.56342360828676e+005,-3.63335371935708e+001,-3.47289720460578e+000

2.59920766833993e+005,-3.63342847793569e+001,-3.51812365850985e+000

2.63549125525621e+005,-3.63350398368205e+001,-3.56391740977984e+000

2.67228134217075e+005,-3.63358022771389e+001,-3.61028635001114e+000

2.70958499956006e+005,-3.63365720102660e+001,-3.65723853325358e+000

2.74740939660078e+005,-3.63373489452997e+001,-3.70478217907273e+000

2.78576180254757e+005,-3.63381329908634e+001,-3.75292567554247e+000

2.82464958813007e+005,-3.63389240555038e+001,-3.80167758216237e+000

2.86408022696948e+005,-3.63397220481013e+001,-3.85104663269438e+000

2.90406129701488e+005,-3.63405268782946e+001,-3.90104173791559e+000

2.94460048199957e+005,-3.63413384569176e+001,-3.95167198827947e+000

2.98570557291775e+005,-3.63421566964469e+001,-4.00294665648693e+000

3.02738446952187e+005,-3.63429815114605e+001,-4.05487519995669e+000

3.06964518184081e+005,-3.63438128191061e+001,-4.10746726319783e+000

3.11249583171928e+005,-3.63446505395767e+001,-4.16073268007956e+000

3.15594465437872e+005,-3.63454945965950e+001,-4.21468147599537e+000

3.19999999999997e+005,-3.63463449179027e+001,-4.26932386992079e+000

3.24467033532806e+005,-3.63472014357560e+001,-4.32467027636527e+000

3.28996424529938e+005,-3.63480640874243e+001,-4.38073130721556e+000

3.33589043469155e+005,-3.63489328156923e+001,-4.43751777347004e+000

3.38245772979638e+005,-3.63498075693637e+001,-4.49504068686923e+000

3.42967508011610e+005,-3.63506883037659e+001,-4.55331126141833e+000

3.47755156008335e+005,-3.63515749812537e+001,-4.61234091480557e+000

3.52609637080511e+005,-3.63524675717123e+001,-4.67214126972112e+000

3.57531884183106e+005,-3.63533660530578e+001,-4.73272415507485e+000

3.62522843294651e+005,-3.63542704117332e+001,-4.79410160712001e+000

3.67583473599047e+005,-3.63551806432021e+001,-4.85628587048431e+000

3.72714747669902e+005,-3.63560967524349e+001,-4.91928939911353e+000

3.77917651657445e+005,-3.63570187543907e+001,-4.98312485713339e+000

3.83193185478053e+005,-3.63579466744916e+001,-5.04780511963110e+000

3.88542363006410e+005,-3.63588805490894e+001,-5.11334327336631e+000

3.93966212270369e+005,-3.63598204259245e+001,-5.17975261741512e+000

3.99465775648511e+005,-3.63607663645758e+001,-5.24704666375105e+000

4.05042110070485e+005,-3.63617184369012e+001,-5.31523913777444e+000

4.10696287220124e+005,-3.63626767274692e+001,-5.38434397879026e+000

4.16429393741414e+005,-3.63636413339794e+001,-5.45437534044662e+000

4.22242531447321e+005,-3.63646123676735e+001,-5.52534759113662e+000

4.28136817531551e+005,-3.63655899537356e+001,-5.59727531437203e+000

4.34113384783250e+005,-3.63665742316818e+001,-5.67017330913639e+000

4.40173381804713e+005,-3.63675653557398e+001,-5.74405659022118e+000

4.46317973232124e+005,-3.63685634952166e+001,-5.81894038855613e+000

4.52548339959385e+005,-3.63695688348572e+001,-5.89484015153676e+000

4.58865679365059e+005,-3.63705815751926e+001,-5.97177154335710e+000

4.65271205542494e+005,-3.63716019328768e+001,-6.04975044535468e+000

4.71766149533147e+005,-3.63726301410159e+001,-6.12879295637237e+000

4.78351759563174e+005,-3.63736664494863e+001,-6.20891539314434e+000

4.85029301283321e+005,-3.63747111252450e+001,-6.29013429071239e+000

4.91800058012158e+005,-3.63757644526317e+001,-6.37246640287527e+000

4.98665330982714e+005,-3.63768267336625e+001,-6.45592870268090e+000

5.05626439592555e+005,-3.63778982883166e+001,-6.54053838296199e+000

5.12684721657352e+005,-3.63789794548177e+001,-6.62631285692210e+000

5.19841533667984e+005,-3.63800705899080e+001,-6.71326975877610e+000

5.27098251051240e+005,-3.63811720691183e+001,-6.80142694444787e+000

5.34456268434150e+005,-3.63822842870339e+001,-6.89080249233075e+000

5.41916999912011e+005,-3.63834076575566e+001,-6.98141470411212e+000

