Freq.,VOut,OutRef

1.00000000000000e+004,-1.98607115565185e+001,-1.88849741078405e-001

1.01395947979003e+004,-1.98607133635136e+001,-1.91485671383536e-001

1.02811382665607e+004,-1.98607152212245e+001,-1.94158384594851e-001

1.04246576084112e+004,-1.98607171310721e+001,-1.96868393619595e-001

1.05701804056138e+004,-1.98607190945169e+001,-1.99616218499948e-001

1.07177346253629e+004,-1.98607211130603e+001,-2.02402386513455e-001

1.08673486252606e+004,-1.98607231882458e+001,-2.05227432270409e-001

1.10190511587661e+004,-1.98607253216595e+001,-2.08091897819640e-001

1.11728713807222e+004,-1.98607275149320e+001,-2.10996332747071e-001

1.13288388529580e+004,-1.98607297697394e+001,-2.13941294281278e-001

1.14869835499703e+004,-1.98607320878045e+001,-2.16927347398891e-001

1.16473358646846e+004,-1.98607344708981e+001,-2.19955064931917e-001

1.18099266142953e+004,-1.98607369208402e+001,-2.23025027676320e-001

1.19747870461893e+004,-1.98607394395021e+001,-2.26137824498065e-001

1.21419488439505e+004,-1.98607420288064e+001,-2.29294052451629e-001

1.23114441334492e+004,-1.98607446907298e+001,-2.32494316884658e-001

1.24833054890161e+004,-1.98607474273038e+001,-2.35739231559280e-001

1.26575659397028e+004,-1.98607502406166e+001,-2.39029418761501e-001

1.28342589756290e+004,-1.98607531328145e+001,-2.42365509423513e-001

1.30134185544193e+004,-1.98607561061033e+001,-2.45748143240519e-001

1.31950791077289e+004,-1.98607591627502e+001,-2.49177968791990e-001

1.33792755478611e+004,-1.98607623050858e+001,-2.52655643660226e-001

1.35660432744767e+004,-1.98607655355048e+001,-2.56181834561459e-001

1.37554181813974e+004,-1.98607688564692e+001,-2.59757217462116e-001

1.39474366635040e+004,-1.98607722705087e+001,-2.63382477713743e-001

1.41421356237309e+004,-1.98607757802235e+001,-2.67058310177502e-001

1.43395524801583e+004,-1.98607793882863e+001,-2.70785419353622e-001

1.45397251732031e+004,-1.98607830974433e+001,-2.74564519517875e-001

1.47426921729110e+004,-1.98607869105174e+001,-2.78396334850886e-001

1.49484924863494e+004,-1.98607908304094e+001,-2.82281599577271e-001

1.51571656651040e+004,-1.98607948601008e+001,-2.86221058099522e-001

1.53687518128801e+004,-1.98607990026555e+001,-2.90215465139939e-001

1.55832915932100e+004,-1.98608032612223e+001,-2.94265585881456e-001

1.58008262372675e+004,-1.98608076390371e+001,-2.98372196108947e-001

1.60213975517924e+004,-1.98608121394251e+001,-3.02536082356386e-001

1.62450479271247e+004,-1.98608167658040e+001,-3.06758042048963e-001

1.64718203453514e+004,-1.98608215216857e+001,-3.11038883656044e-001

1.67017583885674e+004,-1.98608264106787e+001,-3.15379426842030e-001

1.69349062472505e+004,-1.98608314364918e+001,-3.19780502613858e-001

1.71713087287550e+004,-1.98608366029358e+001,-3.24242953479522e-001

1.74110112659224e+004,-1.98608419139268e+001,-3.28767633602481e-001

1.76540599258131e+004,-1.98608473734886e+001,-3.33355408961455e-001

1.79005014185594e+004,-1.98608529857561e+001,-3.38007157509727e-001

1.81503831063432e+004,-1.98608587549779e+001,-3.42723769337924e-001

1.84037530124975e+004,-1.98608646855196e+001,-3.47506146838395e-001

1.86606598307361e+004,-1.98608707818670e+001,-3.52355204870931e-001

1.89211529345119e+004,-1.98608770486290e+001,-3.57271870933839e-001

1.91852823865052e+004,-1.98608834905412e+001,-3.62257085332704e-001

1.94530989482457e+004,-1.98608901124693e+001,-3.67311801353288e-001

1.97246540898671e+004,-1.98608969194122e+001,-3.72436985439206e-001

1.99999999999999e+004,-1.98609039165062e+001,-3.77633617365247e-001

2.02791895958005e+004,-1.98609111090280e+001,-3.82902690421020e-001

2.05622765331213e+004,-1.98609185023990e+001,-3.88245211589630e-001

2.08493152168224e+004,-1.98609261021887e+001,-3.93662201734557e-001

2.11403608112276e+004,-1.98609339141190e+001,-3.99154695783177e-001

2.14354692507258e+004,-1.98609419440678e+001,-4.04723742918330e-001

2.17346972505211e+004,-1.98609501980736e+001,-4.10370406766957e-001

2.20381023175322e+004,-1.98609586823398e+001,-4.16095765594047e-001

2.23457427614443e+004,-1.98609674032381e+001,-4.21900912499623e-001

2.26576777059159e+004,-1.98609763673143e+001,-4.27786955615537e-001

2.29739670999406e+004,-1.98609855812917e+001,-4.33755018306577e-001

2.32946717293690e+004,-1.98609950520766e+001,-4.39806239372379e-001

2.36198532285905e+004,-1.98610047867624e+001,-4.45941773254543e-001

2.39495740923785e+004,-1.98610147926351e+001,-4.52162790242566e-001

2.42838976879009e+004,-1.98610250771779e+001,-4.58470476685267e-001

2.46228882668982e+004,-1.98610356480764e+001,-4.64866035204249e-001

2.49666109780322e+004,-1.98610465132241e+001,-4.71350684907240e-001

2.53151318794055e+004,-1.98610576807272e+001,-4.77925661607927e-001

2.56685179512580e+004,-1.98610691589110e+001,-4.84592218044420e-001

2.60268371088386e+004,-1.98610809563245e+001,-4.91351624105123e-001

2.63901582154578e+004,-1.98610930817469e+001,-4.98205167050433e-001

2.67585510957221e+004,-1.98611055441932e+001,-5.05154151744241e-001

2.71320865489533e+004,-1.98611183529203e+001,-5.12199900883215e-001

2.75108363627948e+004,-1.98611315174329e+001,-5.19343755230813e-001

2.78948733270080e+004,-1.98611450474903e+001,-5.26587073852202e-001

2.82842712474618e+004,-1.98611589531121e+001,-5.33931234354557e-001

2.86791049603164e+004,-1.98611732445859e+001,-5.41377633126981e-001

2.90794503464061e+004,-1.98611879324725e+001,-5.48927685586175e-001

2.94853843458219e+004,-1.98612030276142e+001,-5.56582826421793e-001

2.98969849726987e+004,-1.98612185411410e+001,-5.64344509846549e-001

3.03143313302078e+004,-1.98612344844776e+001,-5.72214209849743e-001

3.07375036257601e+004,-1.98612508693518e+001,-5.80193420449348e-001

3.11665831864199e+004,-1.98612677078005e+001,-5.88283655952346e-001

3.16016524745350e+004,-1.98612850121784e+001,-5.96486451214788e-001

3.20427951035848e+004,-1.98613027951653e+001,-6.04803361903078e-001

3.24900958542493e+004,-1.98613210697740e+001,-6.13235964764130e-001

3.29436406907028e+004,-1.98613398493588e+001,-6.21785857888951e-001

3.34035167771346e+004,-1.98613591476231e+001,-6.30454660988507e-001

3.38698124945009e+004,-1.98613789786283e+001,-6.39244015666567e-001

3.43426174575100e+004,-1.98613993568020e+001,-6.48155585697264e-001

3.48220225318448e+004,-1.98614202969474e+001,-6.57191057303604e-001

3.53081198516260e+004,-1.98614418142510e+001,-6.66352139442938e-001

3.58010028371187e+004,-1.98614639242927e+001,-6.75640564091174e-001

3.63007662126863e+004,-1.98614866430544e+001,-6.85058086531241e-001

3.68075060249948e+004,-1.98615099869298e+001,-6.94606485644428e-001

3.73213196614721e+004,-1.98615339727336e+001,-7.04287564204821e-001

3.78423058690237e+004,-1.98615586177109e+001,-7.14103149177017e-001

3.83705647730104e+004,-1.98615839395477e+001,-7.24055092014208e-001

3.89061978964912e+004,-1.98616099563804e+001,-7.34145268962160e-001

3.94493081797342e+004,-1.98616366868064e+001,-7.44375581363109e-001

3.99999999999998e+004,-1.98616641498935e+001,-7.54747955966594e-001

4.05583791916010e+004,-1.98616923651913e+001,-7.65264345238746e-001

4.11245530662425e+004,-1.98617213527414e+001,-7.75926727674913e-001

4.16986304336447e+004,-1.98617511330879e+001,-7.86737108119978e-001

4.22807216224550e+004,-1.98617817272887e+001,-7.97697518083843e-001

4.28709385014515e+004,-1.98618131569262e+001,-8.08810016066643e-001

4.34693945010421e+004,-1.98618454441185e+001,-8.20076687882254e-001

4.40762046350642e+004,-1.98618786115307e+001,-8.31499646986396e-001

4.46914855228886e+004,-1.98619126823865e+001,-8.43081034807484e-001

4.53153554118317e+004,-1.98619476804790e+001,-8.54823021079737e-001

4.59479341998812e+004,-1.98619836301831e+001,-8.66727804179901e-001

4.65893434587380e+004,-1.98620205564669e+001,-8.78797611464659e-001

4.72397064571810e+004,-1.98620584849034e+001,-8.91034699613441e-001

4.78991481847569e+004,-1.98620974416823e+001,-9.03441354972692e-001

4.85677953758016e+004,-1.98621374536224e+001,-9.16019893902608e-001

4.92457765337964e+004,-1.98621785481832e+001,-9.28772663126473e-001

4.99332219560642e+004,-1.98622207534769e+001,-9.41702040084275e-001

5.06302637588109e+004,-1.98622640982812e+001,-9.54810433285860e-001

5.13370359025159e+004,-1.98623086120505e+001,-9.68100282671827e-001

5.20536742176771e+004,-1.98623543249289e+001,-9.81574059970616e-001

5.27803164309155e+004,-1.98624012677618e+001,-9.95234269064708e-001

5.35171021914442e+004,-1.98624494721084e+001,-1.00908344635470e+000

5.42641730979066e+004,-1.98624989702534e+001,-1.02312416112880e+000

5.50216727255895e+004,-1.98625497952198e+001,-1.03735901593388e+000

5.57897466540159e+004,-1.98626019807803e+001,-1.05179064694930e+000

5.65685424949235e+004,-1.98626555614692e+001,-1.06642172436480e+000

5.73582099206328e+004,-1.98627105725949e+001,-1.08125495275786e+000

5.81589006928121e+004,-1.98627670502508e+001,-1.09629307147827e+000

5.89707686916437e+004,-1.98628250313274e+001,-1.11153885503148e+000

5.97939699453972e+004,-1.98628845535235e+001,-1.12699511346681e+000

6.06286626604156e+004,-1.98629456553574e+001,-1.14266469276873e+000

6.14750072515201e+004,-1.98630083761779e+001,-1.15855047524927e+000

6.23331663728396e+004,-1.98630727561749e+001,-1.17465537994498e+000

6.32033049490698e+004,-1.98631388363900e+001,-1.19098236301699e+000

6.40855902071694e+004,-1.98632066587266e+001,-1.20753441815091e+000

6.49801917084985e+004,-1.98632762659599e+001,-1.22431457696474e+000

6.58872813814055e+004,-1.98633477017455e+001,-1.24132590941657e+000

6.68070335542691e+004,-1.98634210106297e+001,-1.25857152421596e+000

6.77396249890018e+004,-1.98634962380568e+001,-1.27605456923886e+000

6.86852349150199e+004,-1.98635734303782e+001,-1.29377823194703e+000

6.96440450636895e+004,-1.98636526348591e+001,-1.31174573980914e+000

7.06162397032520e+004,-1.98637338996864e+001,-1.32996036072677e+000

7.16020056742374e+004,-1.98638172739742e+001,-1.34842540346374e+000

7.26015324253724e+004,-1.98639028077704e+001,-1.36714421808000e+000

7.36150120499896e+004,-1.98639905520610e+001,-1.38612019636863e+000

7.46426393229441e+004,-1.98640805587750e+001,-1.40535677229772e+000

7.56846117380472e+004,-1.98641728807880e+001,-1.42485742245643e+000

7.67411295460207e+004,-1.98642675719244e+001,-1.44462566650769e+000

7.78123957929823e+004,-1.98643646869597e+001,-1.46466506764192e+000

7.88986163594682e+004,-1.98644642816214e+001,-1.48497923303959e+000

7.99999999999995e+004,-1.98645664125886e+001,-1.50557181433875e+000

8.11167583832018e+004,-1.98646711374917e+001,-1.52644650810580e+000

8.22491061324848e+004,-1.98647785149092e+001,-1.54760705631534e+000

8.33972608672892e+004,-1.98648886043655e+001,-1.56905724683553e+000

8.45614432449099e+004,-1.98650014663255e+001,-1.59080091392010e+000

8.57418770029029e+004,-1.98651171621893e+001,-1.61284193870777e+000

8.69387890020841e+004,-1.98652357542854e+001,-1.63518424972921e+000

8.81524092701283e+004,-1.98653573058619e+001,-1.65783182342233e+000

8.93829710457770e+004,-1.98654818810768e+001,-1.68078868465751e+000

9.06307108236633e+004,-1.98656095449873e+001,-1.70405890726940e+000

9.18958683997622e+004,-1.98657403635361e+001,-1.72764661460062e+000

9.31786869174758e+004,-1.98658744035381e+001,-1.75155598005545e+000

9.44794129143618e+004,-1.98660117326636e+001,-1.77579122766416e+000

9.57982963695136e+004,-1.98661524194214e+001,-1.80035663265954e+000

9.71355907516031e+004,-1.98662965331389e+001,-1.82525652206491e+000

9.84915530675926e+004,-1.98664441439417e+001,-1.85049527529629e+000

9.98664439121282e+004,-1.98665953227302e+001,-1.87607732477802e+000

1.01260527517622e+005,-1.98667501411548e+001,-1.90200715657400e+000

1.02674071805032e+005,-1.98669086715900e+001,-1.92828931103185e+000

1.04107348435354e+005,-1.98670709871052e+001,-1.95492838344852e+000

1.05560632861831e+005,-1.98672371614347e+001,-1.98192902474727e+000

1.07034204382888e+005,-1.98674072689450e+001,-2.00929594217957e+000

1.08528346195813e+005,-1.98675813846007e+001,-2.03703390004043e+000

1.10043345451179e+005,-1.98677595839280e+001,-2.06514772040928e+000

1.11579493308032e+005,-1.98679419429762e+001,-2.09364228390960e+000

1.13137084989847e+005,-1.98681285382774e+001,-2.12252253049246e+000

1.14716419841265e+005,-1.98683194468044e+001,-2.15179346024396e+000

1.16317801385624e+005,-1.98685147459257e+001,-2.18146013421864e+000

1.17941537383287e+005,-1.98687145133599e+001,-2.21152767529739e+000

1.19587939890794e+005,-1.98689188271271e+001,-2.24200126907667e+000

1.21257325320831e+005,-1.98691277654987e+001,-2.27288616478341e+000

1.22950014503040e+005,-1.98693414069457e+001,-2.30418767622231e+000

1.24666332745679e+005,-1.98695598300849e+001,-2.33591118275553e+000

1.26406609898139e+005,-1.98697831136236e+001,-2.36806213031440e+000

1.28171180414339e+005,-1.98700113363022e+001,-2.40064603244684e+000

1.29960383416997e+005,-1.98702445768363e+001,-2.43366847140125e+000

1.31774562762811e+005,-1.98704829138566e+001,-2.46713509924638e+000

1.33614067108538e+005,-1.98707264258475e+001,-2.50105163903357e+000

1.35479249978003e+005,-1.98709751910852e+001,-2.53542388599693e+000

1.37370469830040e+005,-1.98712292875745e+001,-2.57025770879641e+000

1.39288090127379e+005,-1.98714887929845e+001,-2.60555905080477e+000

1.41232479406504e+005,-1.98717537845844e+001,-2.64133393144017e+000

1.43204011348474e+005,-1.98720243391784e+001,-2.67758844754382e+000

1.45203064850745e+005,-1.98723005330402e+001,-2.71432877480686e+000

1.47230024099979e+005,-1.98725824418486e+001,-2.75156116924575e+000

1.49285278645888e+005,-1.98728701406220e+001,-2.78929196872793e+000

1.51369223476094e+005,-1.98731637036550e+001,-2.82752759455006e+000

1.53482259092041e+005,-1.98734632044542e+001,-2.86627455306898e+000

1.55624791585964e+005,-1.98737687156769e+001,-2.90553943738665e+000

1.57797232718936e+005,-1.98740803090698e+001,-2.94532892908952e+000

1.59999999999999e+005,-1.98743980554108e+001,-2.98564980004540e+000

1.62233516766403e+005,-1.98747220244519e+001,-3.02650891425683e+000

1.64498212264969e+005,-1.98750522848653e+001,-3.06791322977063e+000

1.66794521734578e+005,-1.98753889041922e+001,-3.10986980064883e+000

1.69122886489819e+005,-1.98757319487950e+001,-3.15238577899463e+000

1.71483754005805e+005,-1.98760814838132e+001,-3.19546841704058e+000

1.73877578004168e+005,-1.98764375731233e+001,-3.23912506929538e+000

1.76304818540256e+005,-1.98768002793034e+001,-3.28336319474902e+000

1.78765942091554e+005,-1.98771696636030e+001,-3.32819035913802e+000

1.81261421647326e+005,-1.98775457859175e+001,-3.37361423727029e+000

1.83791736799524e+005,-1.98779287047698e+001,-3.41964261540832e+000

1.86357373834951e+005,-1.98783184772967e+001,-3.46628339370915e+000

1.88958825828723e+005,-1.98787151592437e+001,-3.51354458872381e+000

1.91596592739027e+005,-1.98791188049656e+001,-3.56143433595142e+000

1.94271181503206e+005,-1.98795294674356e+001,-3.60996089244818e+000

1.96983106135185e+005,-1.98799471982628e+001,-3.65913263949097e+000

1.99732887824256e+005,-1.98803720477170e+001,-3.70895808529243e+000

2.02521055035243e+005,-1.98808040647640e+001,-3.75944586776612e+000

2.05348143610063e+005,-1.98812432971093e+001,-3.81060475733939e+000

2.08214696870707e+005,-1.98816897912520e+001,-3.86244365981477e+000

2.11121265723661e+005,-1.98821435925486e+001,-3.91497161927038e+000

2.14068408765776e+005,-1.98826047452880e+001,-3.96819782100657e+000

2.17056692391625e+005,-1.98830732927766e+001,-4.02213159452663e+000

2.20086690902357e+005,-1.98835492774350e+001,-4.07678241655522e+000

2.23158986616063e+005,-1.98840327409068e+001,-4.13215991408802e+000

2.26274169979693e+005,-1.98845237241778e+001,-4.18827386747087e+000

2.29432839682530e+005,-1.98850222677085e+001,-4.24513421350363e+000

2.32635602771247e+005,-1.98855284115783e+001,-4.30275104856720e+000

2.35883074766574e+005,-1.98860421956418e+001,-4.36113463176804e+000

2.39175879781588e+005,-1.98865636596984e+001,-4.42029538809747e+000

2.42514650641661e+005,-1.98870928436739e+001,-4.48024391160201e+000

2.45900029006080e+005,-1.98876297878143e+001,-4.54099096856079e+000

2.49332665491357e+005,-1.98881745328939e+001,-4.60254750066595e+000

2.52813219796278e+005,-1.98887271204339e+001,-4.66492462820150e+000

2.56342360828676e+005,-1.98892875929353e+001,-4.72813365321881e+000

2.59920766833993e+005,-1.98898559941234e+001,-4.79218606270168e+000

2.63549125525621e+005,-1.98904323692045e+001,-4.85709353172118e+000

2.67228134217075e+005,-1.98910167651353e+001,-4.92286792657112e+000

2.70958499956006e+005,-1.98916092309036e+001,-4.98952130788740e+000

2.74740939660078e+005,-1.98922098178204e+001,-5.05706593374039e+000

2.78576180254757e+005,-1.98928185798241e+001,-5.12551426270253e+000

2.82464958813007e+005,-1.98934355737947e+001,-5.19487895688555e+000

2.86408022696948e+005,-1.98940608598787e+001,-5.26517288494354e+000

2.90406129701488e+005,-1.98946945018245e+001,-5.33640912504148e+000

2.94460048199957e+005,-1.98953365673267e+001,-5.40860096778419e+000

2.98570557291775e+005,-1.98959871283801e+001,-5.48176191910440e+000

3.02738446952187e+005,-1.98966462616418e+001,-5.55590570310823e+000

3.06964518184081e+005,-1.98973140488019e+001,-5.63104626487518e+000

3.11249583171928e+005,-1.98979905769611e+001,-5.70719777321163e+000

3.15594465437872e+005,-1.98986759390157e+001,-5.78437462335762e+000

3.19999999999997e+005,-1.98993702340487e+001,-5.86259143964312e+000

3.24467033532806e+005,-1.99000735677268e+001,-5.94186307809691e+000

3.28996424529938e+005,-1.99007860527026e+001,-6.02220462900421e+000

3.33589043469155e+005,-1.99015078090214e+001,-6.10363141941524e+000

3.38245772979638e+005,-1.99022389645313e+001,-6.18615901560494e+000

3.42967508011610e+005,-1.99029796552983e+001,-6.26980322548320e+000

3.47755156008335e+005,-1.99037300260225e+001,-6.35458010095721e+000

3.52609637080511e+005,-1.99044902304581e+001,-6.44050594024757e+000

3.57531884183106e+005,-1.99052604318336e+001,-6.52759729015955e+000

3.62522843294651e+005,-1.99060408032753e+001,-6.61587094831032e+000

3.67583473599047e+005,-1.99068315282295e+001,-6.70534396531539e+000

3.72714747669902e+005,-1.99076328008868e+001,-6.79603364693627e+000

3.77917651657445e+005,-1.99084448266050e+001,-6.88795755619122e+000

3.83193185478053e+005,-1.99092678223325e+001,-6.98113351543287e+000

3.88542363006410e+005,-1.99101020170308e+001,-7.07557960839457e+000

3.93966212270369e+005,-1.99109476520950e+001,-7.17131418221020e+000

3.99465775648511e+005,-1.99118049817745e+001,-7.26835584940780e+000

4.05042110070485e+005,-1.99126742735912e+001,-7.36672348988439e+000

4.10696287220124e+005,-1.99135558087557e+001,-7.46643625286129e+000

4.16429393741414e+005,-1.99144498825829e+001,-7.56751355882762e+000

4.22242531447321e+005,-1.99153568049045e+001,-7.66997510147050e+000

4.28136817531551e+005,-1.99162769004803e+001,-7.77384084960249e+000

4.34113384783250e+005,-1.99172105094074e+001,-7.87913104908152e+000

4.40173381804713e+005,-1.99181579875277e+001,-7.98586622473521e+000

4.46317973232124e+005,-1.99191197068333e+001,-8.09406718228650e+000

4.52548339959385e+005,-1.99200960558712e+001,-8.20375501028844e+000

4.58865679365059e+005,-1.99210874401457e+001,-8.31495108206848e+000

4.65271205542494e+005,-1.99220942825204e+001,-8.42767705768850e+000

4.71766149533147e+005,-1.99231170236194e+001,-8.54195488592109e+000

4.78351759563174e+005,-1.99241561222275e+001,-8.65780680624590e+000

4.85029301283321e+005,-1.99252120556911e+001,-8.77525535086972e+000

4.91800058012158e+005,-1.99262853203185e+001,-8.89432334677204e+000

4.98665330982714e+005,-1.99273764317821e+001,-9.01503391777862e+000

5.05626439592555e+005,-1.99284859255208e+001,-9.13741048666525e+000

5.12684721657352e+005,-1.99296143571449e+001,-9.26147677729368e+000

5.19841533667984e+005,-1.99307623028423e+001,-9.38725681678210e+000

5.27098251051240e+005,-1.99319303597887e+001,-9.51477493771021e+000

5.34456268434150e+005,-1.99331191465604e+001,-9.64405578036157e+000

5.41916999912011e+005,-1.99343293035510e+001,-9.77512429500293e+000

