Freq.,VOut,OutRef

1.00000000000000e+004,-1.91054500640263e+001,-2.01094769009452e-001

1.01395947979003e+004,-1.91054536950819e+001,-2.03901242587433e-001

1.02811382665607e+004,-1.91054574280266e+001,-2.06746863188438e-001

1.04246576084112e+004,-1.91054612657137e+001,-2.09632176018859e-001

1.05701804056138e+004,-1.91054652110764e+001,-2.12557733841127e-001

1.07177346253629e+004,-1.91054692671293e+001,-2.15524097079977e-001

1.08673486252606e+004,-1.91054734369716e+001,-2.18531833922054e-001

1.10190511587661e+004,-1.91054777237883e+001,-2.21581520428775e-001

1.11728713807222e+004,-1.91054821308536e+001,-2.24673740637424e-001

1.13288388529580e+004,-1.91054866615329e+001,-2.27809086672472e-001

1.14869835499703e+004,-1.91054913192849e+001,-2.30988158856149e-001

1.16473358646846e+004,-1.91054961076650e+001,-2.34211565820209e-001

1.18099266142953e+004,-1.91055010303277e+001,-2.37479924615505e-001

1.19747870461893e+004,-1.91055060910289e+001,-2.40793860830888e-001

1.21419488439505e+004,-1.91055112936291e+001,-2.44154008707500e-001

1.23114441334492e+004,-1.91055166420961e+001,-2.47561011254368e-001

1.24833054890161e+004,-1.91055221405083e+001,-2.51015520369621e-001

1.26575659397028e+004,-1.91055277930572e+001,-2.54518196959478e-001

1.28342589756290e+004,-1.91055336040509e+001,-2.58069711061458e-001

1.30134185544193e+004,-1.91055395779171e+001,-2.61670741966553e-001

1.31950791077289e+004,-1.91055457192065e+001,-2.65321978343987e-001

1.33792755478611e+004,-1.91055520325964e+001,-2.69024118369179e-001

1.35660432744767e+004,-1.91055585228934e+001,-2.72777869851093e-001

1.37554181813974e+004,-1.91055651950378e+001,-2.76583950362546e-001

1.39474366635040e+004,-1.91055720541067e+001,-2.80443087370384e-001

1.41421356237309e+004,-1.91055791053182e+001,-2.84356018369441e-001

1.43395524801583e+004,-1.91055863540347e+001,-2.88323491016483e-001

1.45397251732031e+004,-1.91055938057672e+001,-2.92346263268745e-001

1.47426921729110e+004,-1.91056014661794e+001,-2.96425103518535e-001

1.49484924863494e+004,-1.91056093410916e+001,-3.00560790734211e-001

1.51571656651040e+004,-1.91056174364852e+001,-3.04754114603538e-001

1.53687518128801e+004,-1.91056257585069e+001,-3.09005875672846e-001

1.55832915932100e+004,-1.91056343134732e+001,-3.13316885496448e-001

1.58008262372675e+004,-1.91056431078754e+001,-3.17687966778202e-001

1.60213975517924e+004,-1.91056521483834e+001,-3.22119953525189e-001

1.62450479271247e+004,-1.91056614418520e+001,-3.26613691191931e-001

1.64718203453514e+004,-1.91056709953242e+001,-3.31170036836780e-001

1.67017583885674e+004,-1.91056808160376e+001,-3.35789859274821e-001

1.69349062472505e+004,-1.91056909114292e+001,-3.40474039229770e-001

1.71713087287550e+004,-1.91057012891406e+001,-3.45223469496120e-001

1.74110112659224e+004,-1.91057119570237e+001,-3.50039055095875e-001

1.76540599258131e+004,-1.91057229231463e+001,-3.54921713437531e-001

1.79005014185594e+004,-1.91057341957980e+001,-3.59872374482804e-001

1.81503831063432e+004,-1.91057457834961e+001,-3.64891980907412e-001

1.84037530124975e+004,-1.91057576949917e+001,-3.69981488269963e-001

1.86606598307361e+004,-1.91057699392756e+001,-3.75141865179627e-001

1.89211529345119e+004,-1.91057825255854e+001,-3.80374093466372e-001

1.91852823865052e+004,-1.91057954634115e+001,-3.85679168351762e-001

1.94530989482457e+004,-1.91058087625040e+001,-3.91058098625034e-001

1.97246540898671e+004,-1.91058224328798e+001,-3.96511906817423e-001

1.99999999999999e+004,-1.91058364848296e+001,-4.02041629379451e-001

2.02791895958005e+004,-1.91058509289246e+001,-4.07648316863275e-001

2.05622765331213e+004,-1.91058657760247e+001,-4.13333034101732e-001

2.08493152168224e+004,-1.91058810372860e+001,-4.19096860391215e-001

2.11403608112276e+004,-1.91058967241680e+001,-4.24940889680232e-001

2.14354692507258e+004,-1.91059128484423e+001,-4.30866230754128e-001

2.17346972505211e+004,-1.91059294222002e+001,-4.36874007425389e-001

2.20381023175322e+004,-1.91059464578616e+001,-4.42965358722854e-001

2.23457427614443e+004,-1.91059639681832e+001,-4.49141439089451e-001

2.26576777059159e+004,-1.91059819662675e+001,-4.55403418571115e-001

2.29739670999406e+004,-1.91060004655717e+001,-4.61752483017930e-001

2.32946717293690e+004,-1.91060194799168e+001,-4.68189834281819e-001

2.36198532285905e+004,-1.91060390234972e+001,-4.74716690417919e-001

2.39495740923785e+004,-1.91060591108905e+001,-4.81334285884047e-001

2.42838976879009e+004,-1.91060797570670e+001,-4.88043871748769e-001

2.46228882668982e+004,-1.91061009773998e+001,-4.94846715896381e-001

2.49666109780322e+004,-1.91061227876755e+001,-5.01744103236289e-001

2.53151318794055e+004,-1.91061452041045e+001,-5.08737335909310e-001

2.56685179512580e+004,-1.91061682433318e+001,-5.15827733504878e-001

2.60268371088386e+004,-1.91061919224483e+001,-5.23016633269711e-001

2.63901582154578e+004,-1.91062162590016e+001,-5.30305390327671e-001

2.67585510957221e+004,-1.91062412710078e+001,-5.37695377894158e-001

2.71320865489533e+004,-1.91062669769638e+001,-5.45187987495219e-001

2.75108363627948e+004,-1.91062933958582e+001,-5.52784629191551e-001

2.78948733270080e+004,-1.91063205471845e+001,-5.60486731797111e-001

2.82842712474618e+004,-1.91063484509539e+001,-5.68295743104010e-001

2.86791049603164e+004,-1.91063771277068e+001,-5.76213130112072e-001

2.90794503464061e+004,-1.91064065985275e+001,-5.84240379250289e-001

2.94853843458219e+004,-1.91064368850565e+001,-5.92378996612013e-001

2.98969849726987e+004,-1.91064680095044e+001,-6.00630508181272e-001

3.03143313302078e+004,-1.91064999946661e+001,-6.08996460066841e-001

3.07375036257601e+004,-1.91065328639345e+001,-6.17478418735879e-001

3.11665831864199e+004,-1.91065666413155e+001,-6.26077971248803e-001

3.16016524745350e+004,-1.91066013514424e+001,-6.34796725495528e-001

3.20427951035848e+004,-1.91066370195909e+001,-6.43636310434007e-001

3.24900958542493e+004,-1.91066736716944e+001,-6.52598376329785e-001

3.29436406907028e+004,-1.91067113343602e+001,-6.61684594994128e-001

3.34035167771346e+004,-1.91067500348844e+001,-6.70896660029611e-001

3.38698124945009e+004,-1.91067898012688e+001,-6.80236287068367e-001

3.43426174575100e+004,-1.91068306622368e+001,-6.89705214021236e-001

3.48220225318448e+004,-1.91068726472504e+001,-6.99305201318335e-001

3.53081198516260e+004,-1.91069157865276e+001,-7.09038032156274e-001

3.58010028371187e+004,-1.91069601110587e+001,-7.18905512745722e-001

3.63007662126863e+004,-1.91070056526245e+001,-7.28909472560326e-001

3.68075060249948e+004,-1.91070524438141e+001,-7.39051764580838e-001

3.73213196614721e+004,-1.91071005180427e+001,-7.49334265548779e-001

3.78423058690237e+004,-1.91071499095701e+001,-7.59758876213146e-001

3.83705647730104e+004,-1.91072006535193e+001,-7.70327521582518e-001

3.89061978964912e+004,-1.91072527858953e+001,-7.81042151175024e-001

3.94493081797342e+004,-1.91073063436042e+001,-7.91904739268669e-001

3.99999999999998e+004,-1.91073613644724e+001,-8.02917285153763e-001

4.05583791916010e+004,-1.91074178872663e+001,-8.14081813383636e-001

4.11245530662425e+004,-1.91074759517121e+001,-8.25400374027139e-001

4.16986304336447e+004,-1.91075355985156e+001,-8.36875042918371e-001

4.22807216224550e+004,-1.91075968693824e+001,-8.48507921910485e-001

4.28709385014515e+004,-1.91076598070386e+001,-8.60301139124115e-001

4.34693945010421e+004,-1.91077244552506e+001,-8.72256849201167e-001

4.40762046350642e+004,-1.91077908588465e+001,-8.84377233552483e-001

4.46914855228886e+004,-1.91078590637365e+001,-8.96664500609980e-001

4.53153554118317e+004,-1.91079291169341e+001,-9.09120886074516e-001

4.59479341998812e+004,-1.91080010665769e+001,-9.21748653164757e-001

4.65893434587380e+004,-1.91080749619477e+001,-9.34550092864859e-001

4.72397064571810e+004,-1.91081508534960e+001,-9.47527524170739e-001

4.78991481847569e+004,-1.91082287928590e+001,-9.60683294335623e-001

4.85677953758016e+004,-1.91083088328827e+001,-9.74019779115536e-001

4.92457765337964e+004,-1.91083910276435e+001,-9.87539383009499e-001

4.99332219560642e+004,-1.91084754324690e+001,-1.00124453950468e+000

5.06302637588109e+004,-1.91085621039593e+001,-1.01513771131232e+000

5.13370359025159e+004,-1.91086511000078e+001,-1.02922139060904e+000

5.20536742176771e+004,-1.91087424798224e+001,-1.04349809927239e+000

5.27803164309155e+004,-1.91088363039457e+001,-1.05797038911400e+000

5.35171021914442e+004,-1.91089326342758e+001,-1.07264084211427e+000

5.42641730979066e+004,-1.91090315340865e+001,-1.08751207065077e+000

5.50216727255895e+004,-1.91091330680468e+001,-1.10258671772801e+000

5.57897466540159e+004,-1.91092373022409e+001,-1.11786745720165e+000

5.65685424949235e+004,-1.91093443041872e+001,-1.13335699400335e+000

5.73582099206328e+004,-1.91094541428567e+001,-1.14905806436023e+000

5.81589006928121e+004,-1.91095668886913e+001,-1.16497343601535e+000

5.89707686916437e+004,-1.91096826136219e+001,-1.18110590844072e+000

5.97939699453972e+004,-1.91098013910846e+001,-1.19745831305201e+000

6.06286626604156e+004,-1.91099232960377e+001,-1.21403351341786e+000

6.14750072515201e+004,-1.91100484049766e+001,-1.23083440546826e+000

6.23331663728396e+004,-1.91101767959491e+001,-1.24786391769778e+000

6.32033049490698e+004,-1.91103085485690e+001,-1.26512501136815e+000

6.40855902071694e+004,-1.91104437440290e+001,-1.28262068070652e+000

6.49801917084985e+004,-1.91105824651123e+001,-1.30035395310241e+000

6.58872813814055e+004,-1.91107247962036e+001,-1.31832788929917e+000

6.68070335542691e+004,-1.91108708232984e+001,-1.33654558358664e+000

6.77396249890018e+004,-1.91110206340113e+001,-1.35501016398620e+000

6.86852349150199e+004,-1.91111743175826e+001,-1.37372479243871e+000

6.96440450636895e+004,-1.91113319648836e+001,-1.39269266498524e+000

7.06162397032520e+004,-1.91114936684205e+001,-1.41191701194778e+000

7.16020056742374e+004,-1.91116595223361e+001,-1.43140109810868e+000

7.26015324253724e+004,-1.91118296224101e+001,-1.45114822288529e+000

7.36150120499896e+004,-1.91120040660575e+001,-1.47116172050600e+000

7.46426393229441e+004,-1.91121829523248e+001,-1.49144496018208e+000

7.56846117380472e+004,-1.91123663818838e+001,-1.51200134628141e+000

7.67411295460207e+004,-1.91125544570242e+001,-1.53283431849764e+000

7.78123957929823e+004,-1.91127472816423e+001,-1.55394735202443e+000

7.88986163594682e+004,-1.91129449612286e+001,-1.57534395772226e+000

7.99999999999995e+004,-1.91131476028519e+001,-1.59702768229384e+000

8.11167583832018e+004,-1.91133553151409e+001,-1.61900210845439e+000

8.22491061324848e+004,-1.91135682082632e+001,-1.64127085510754e+000

8.33972608672892e+004,-1.91137863939007e+001,-1.66383757752097e+000

8.45614432449099e+004,-1.91140099852225e+001,-1.68670596750686e+000

8.57418770029029e+004,-1.91142390968539e+001,-1.70987975360425e+000

8.69387890020841e+004,-1.91144738448426e+001,-1.73336270126870e+000

8.81524092701283e+004,-1.91147143466206e+001,-1.75715861306494e+000

8.93829710457770e+004,-1.91149607209636e+001,-1.78127132886661e+000

9.06307108236633e+004,-1.91152130879447e+001,-1.80570472606474e+000

9.18958683997622e+004,-1.91154715688866e+001,-1.83046271978226e+000

9.31786869174758e+004,-1.91157362863070e+001,-1.85554926310222e+000

9.44794129143618e+004,-1.91160073638623e+001,-1.88096834730161e+000

9.57982963695136e+004,-1.91162849262851e+001,-1.90672400210300e+000

9.71355907516031e+004,-1.91165690993181e+001,-1.93282029593639e+000

9.84915530675926e+004,-1.91168600096435e+001,-1.95926133621706e+000

9.98664439121282e+004,-1.91171577848070e+001,-1.98605126964159e+000

1.01260527517622e+005,-1.91174625531380e+001,-2.01319428250014e+000

1.02674071805032e+005,-1.91177744436638e+001,-2.04069460101215e+000

1.04107348435354e+005,-1.91180935860194e+001,-2.06855649168027e+000

1.05560632861831e+005,-1.91184201103528e+001,-2.09678426167210e+000

1.07034204382888e+005,-1.91187541472233e+001,-2.12538225922629e+000

1.08528346195813e+005,-1.91190958274970e+001,-2.15435487408617e+000

1.10043345451179e+005,-1.91194452822349e+001,-2.18370653796657e+000

1.11579493308032e+005,-1.91198026425773e+001,-2.21344172504989e+000

1.13137084989847e+005,-1.91201680396217e+001,-2.24356495252075e+000

1.14716419841265e+005,-1.91205416042959e+001,-2.27408078113630e+000

1.16317801385624e+005,-1.91209234672261e+001,-2.30499381583734e+000

1.17941537383287e+005,-1.91213137585989e+001,-2.33630870640339e+000

1.19587939890794e+005,-1.91217126080191e+001,-2.36803014815024e+000

1.21257325320831e+005,-1.91221201443613e+001,-2.40016288268130e+000

1.22950014503040e+005,-1.91225364956171e+001,-2.43271169868382e+000

1.24666332745679e+005,-1.91229617887373e+001,-2.46568143278536e+000

1.26406609898139e+005,-1.91233961494689e+001,-2.49907697046296e+000

1.28171180414339e+005,-1.91238397021884e+001,-2.53290324701459e+000

1.29960383416997e+005,-1.91242925697292e+001,-2.56716524859472e+000

1.31774562762811e+005,-1.91247548732062e+001,-2.60186801331234e+000

1.33614067108538e+005,-1.91252267318361e+001,-2.63701663240367e+000

1.35479249978003e+005,-1.91257082627533e+001,-2.67261625147228e+000

1.37370469830040e+005,-1.91261995808235e+001,-2.70867207180889e+000

1.39288090127379e+005,-1.91267007984539e+001,-2.74518935178643e+000

1.41232479406504e+005,-1.91272120254008e+001,-2.78217340833876e+000

1.43204011348474e+005,-1.91277333685748e+001,-2.81962961852318e+000

1.45203064850745e+005,-1.91282649318452e+001,-2.85756342116971e+000

1.47230024099979e+005,-1.91288068158423e+001,-2.89598031862176e+000

1.49285278645888e+005,-1.91293591177593e+001,-2.93488587856923e+000

1.51369223476094e+005,-1.91299219311546e+001,-2.97428573597621e+000

1.53482259092041e+005,-1.91304953457539e+001,-3.01418559510711e+000

1.55624791585964e+005,-1.91310794472542e+001,-3.05459123165342e+000

1.57797232718936e+005,-1.91316743171288e+001,-3.09550849496158e+000

1.59999999999999e+005,-1.91322800324360e+001,-3.13694331036509e+000

1.62233516766403e+005,-1.91328966656299e+001,-3.17890168162322e+000

1.64498212264969e+005,-1.91335242843760e+001,-3.22138969346492e+000

1.66794521734578e+005,-1.91341629513719e+001,-3.26441351424240e+000

1.69122886489819e+005,-1.91348127241731e+001,-3.30797939869311e+000

1.71483754005805e+005,-1.91354736550253e+001,-3.35209369081156e+000

1.73877578004168e+005,-1.91361457907053e+001,-3.39676282682959e+000

1.76304818540256e+005,-1.91368291723692e+001,-3.44199333830796e+000

1.78765942091554e+005,-1.91375238354100e+001,-3.48779185533531e+000

1.81261421647326e+005,-1.91382298093259e+001,-3.53416510983705e+000

1.83791736799524e+005,-1.91389471175997e+001,-3.58111993898888e+000

1.86357373834951e+005,-1.91396757775897e+001,-3.62866328873771e+000

1.88958825828723e+005,-1.91404158004347e+001,-3.67680221742332e+000

1.91596592739027e+005,-1.91411671909723e+001,-3.72554389950239e+000

1.94271181503206e+005,-1.91419299476725e+001,-3.77489562936966e+000

1.96983106135185e+005,-1.91427040625867e+001,-3.82486482527128e+000

1.99732887824256e+005,-1.91434895213147e+001,-3.87545903331071e+000

2.02521055035243e+005,-1.91442863029880e+001,-3.92668593153905e+000

2.05348143610063e+005,-1.91450943802726e+001,-3.97855333412609e+000

2.08214696870707e+005,-1.91459137193911e+001,-4.03106919560815e+000

2.11121265723661e+005,-1.91467442801642e+001,-4.08424161520519e+000

2.14068408765776e+005,-1.91475860160748e+001,-4.13807884120185e+000

2.17056692391625e+005,-1.91484388743516e+001,-4.19258927538647e+000

2.20086690902357e+005,-1.91493027960765e+001,-4.24778147753968e+000

2.23158986616063e+005,-1.91501777163146e+001,-4.30366416996826e+000

2.26274169979693e+005,-1.91510635642666e+001,-4.36024624207229e+000

2.29432839682530e+005,-1.91519602634462e+001,-4.41753675494173e+000

2.32635602771247e+005,-1.91528677318805e+001,-4.47554494597286e+000

2.35883074766574e+005,-1.91537858823355e+001,-4.53428023349471e+000

2.39175879781588e+005,-1.91547146225661e+001,-4.59375222139936e+000

2.42514650641661e+005,-1.91556538555902e+001,-4.65397070376523e+000

2.45900029006080e+005,-1.91566034799878e+001,-4.71494566946610e+000

2.49332665491357e+005,-1.91575633902253e+001,-4.77668730675557e+000

2.52813219796278e+005,-1.91585334770029e+001,-4.83920600781879e+000

2.56342360828676e+005,-1.91595136276270e+001,-4.90251237328251e+000

2.59920766833993e+005,-1.91605037264063e+001,-4.96661721667324e+000

2.63549125525621e+005,-1.91615036550707e+001,-5.03153156881777e+000

2.67228134217075e+005,-1.91625132932134e+001,-5.09726668217306e+000

2.70958499956006e+005,-1.91635325187544e+001,-5.16383403508195e+000

2.74740939660078e+005,-1.91645612084258e+001,-5.23124533594233e+000

2.78576180254757e+005,-1.91655992382771e+001,-5.29951252728633e+000

2.82464958813007e+005,-1.91666464842005e+001,-5.36864778975676e+000

2.86408022696948e+005,-1.91677028224737e+001,-5.43866354598050e+000

2.90406129701488e+005,-1.91687681303208e+001,-5.50957246432600e+000

2.94460048199957e+005,-1.91698422864892e+001,-5.58138746254388e+000

2.98570557291775e+005,-1.91709251718411e+001,-5.65412171128280e+000

3.02738446952187e+005,-1.91720166699590e+001,-5.72778863747606e+000

3.06964518184081e+005,-1.91731166677635e+001,-5.80240192759516e+000

3.11249583171928e+005,-1.91742250561412e+001,-5.87797553076841e+000

3.15594465437872e+005,-1.91753417305833e+001,-5.95452366175793e+000

3.19999999999997e+005,-1.91764665918309e+001,-6.03206080379771e+000

3.24467033532806e+005,-1.91775995465282e+001,-6.11060171128741e+000

3.28996424529938e+005,-1.91787405078792e+001,-6.19016141234418e+000

3.33589043469155e+005,-1.91798893963093e+001,-6.27075521121076e+000

3.38245772979638e+005,-1.91810461401280e+001,-6.35239869052133e+000

3.42967508011610e+005,-1.91822106761928e+001,-6.43510771342764e+000

3.47755156008335e+005,-1.91833829505723e+001,-6.51889842558525e+000

3.52609637080511e+005,-1.91845629192061e+001,-6.60378725700611e+000

3.57531884183106e+005,-1.91857505485628e+001,-6.68979092377857e+000

3.62522843294651e+005,-1.91869458162914e+001,-6.77692642966006e+000

3.67583473599047e+005,-1.91881487118676e+001,-6.86521106754723e+000

3.72714747669902e+005,-1.91893592372328e+001,-6.95466242082983e+000

3.77917651657445e+005,-1.91905774074236e+001,-7.04529836463305e+000

3.83193185478053e+005,-1.91918032511931e+001,-7.13713706695600e+000

3.88542363006410e+005,-1.91930368116211e+001,-7.23019698971178e+000

3.93966212270369e+005,-1.91942781467131e+001,-7.32449688968016e+000

3.99465775648511e+005,-1.91955273299872e+001,-7.42005581937468e+000

4.05042110070485e+005,-1.91967844510485e+001,-7.51689312783905e+000

4.10696287220124e+005,-1.91980496161499e+001,-7.61502846137533e+000

4.16429393741414e+005,-1.91993229487391e+001,-7.71448176421670e+000

4.22242531447321e+005,-1.92006045899919e+001,-7.81527327915068e+000

4.28136817531551e+005,-1.92018946993304e+001,-7.91742354810376e+000

4.34113384783250e+005,-1.92031934549273e+001,-8.02095341269348e+000

4.40173381804713e+005,-1.92045010541947e+001,-8.12588401476056e+000

4.46317973232124e+005,-1.92058177142591e+001,-8.23223679688616e+000

4.52548339959385e+005,-1.92071436724216e+001,-8.34003350290545e+000

4.58865679365059e+005,-1.92084791866032e+001,-8.44929617842416e+000

4.65271205542494e+005,-1.92098245357777e+001,-8.56004717134809e+000

4.71766149533147e+005,-1.92111800203889e+001,-8.67230913243223e+000

4.78351759563174e+005,-1.92125459627568e+001,-8.78610501585804e+000

4.85029301283321e+005,-1.92139227074702e+001,-8.90145807984520e+000

4.91800058012158e+005,-1.92153106217675e+001,-9.01839188730705e+000

4.98665330982714e+005,-1.92167100959067e+001,-9.13693030655366e+000

5.05626439592555e+005,-1.92181215435253e+001,-9.25709751205081e+000

5.12684721657352e+005,-1.92195454019901e+001,-9.37891798524010e+000

5.19841533667984e+005,-1.92209821327386e+001,-9.50241651542465e+000

5.27098251051240e+005,-1.92224322216132e+001,-9.62761820072685e+000

5.34456268434150e+005,-1.92238961791885e+001,-9.75454844912135e+000

5.41916999912011e+005,-1.92253745410926e+001,-9.88323297954730e+000

