Freq.,VOut,OutRef

1.00000000000000e+004,-1.67826943552077e+001,-1.71897744989928e-001

1.01395947979003e+004,-1.67826972245045e+001,-1.74296775447972e-001

1.02811382665607e+004,-1.67827001743107e+001,-1.76729270838864e-001

1.04246576084112e+004,-1.67827032068803e+001,-1.79195697288590e-001

1.05701804056138e+004,-1.67827063245312e+001,-1.81696527382491e-001

1.07177346253629e+004,-1.67827095296448e+001,-1.84232240261292e-001

1.08673486252606e+004,-1.67827128246699e+001,-1.86803321704506e-001

1.10190511587661e+004,-1.67827162121227e+001,-1.89410264225651e-001

1.11728713807222e+004,-1.67827196945899e+001,-1.92053567161565e-001

1.13288388529580e+004,-1.67827232747305e+001,-1.94733736763594e-001

1.14869835499703e+004,-1.67827269552769e+001,-1.97451286298630e-001

1.16473358646846e+004,-1.67827307390380e+001,-2.00206736137590e-001

1.18099266142953e+004,-1.67827346289011e+001,-2.03000613854100e-001

1.19747870461893e+004,-1.67827386278331e+001,-2.05833454327066e-001

1.21419488439505e+004,-1.67827427388842e+001,-2.08705799832154e-001

1.23114441334492e+004,-1.67827469651888e+001,-2.11618200149395e-001

1.24833054890161e+004,-1.67827513099688e+001,-2.14571212660183e-001

1.26575659397028e+004,-1.67827557765356e+001,-2.17565402453948e-001

1.28342589756290e+004,-1.67827603682924e+001,-2.20601342429153e-001

1.30134185544193e+004,-1.67827650887371e+001,-2.23679613401827e-001

1.31950791077289e+004,-1.67827699414648e+001,-2.26800804211050e-001

1.33792755478611e+004,-1.67827749301698e+001,-2.29965511829543e-001

1.35660432744767e+004,-1.67827800586499e+001,-2.33174341469039e-001

1.37554181813974e+004,-1.67827853308069e+001,-2.36427906698844e-001

1.39474366635040e+004,-1.67827907506518e+001,-2.39726829550797e-001

1.41421356237309e+004,-1.67827963223064e+001,-2.43071740637173e-001

1.43395524801583e+004,-1.67828020500066e+001,-2.46463279266150e-001

1.45397251732031e+004,-1.67828079381058e+001,-2.49902093556382e-001

1.47426921729110e+004,-1.67828139910773e+001,-2.53388840560471e-001

1.49484924863494e+004,-1.67828202135190e+001,-2.56924186376609e-001

1.51571656651040e+004,-1.67828266101551e+001,-2.60508806278399e-001

1.53687518128801e+004,-1.67828331858408e+001,-2.64143384830969e-001

1.55832915932100e+004,-1.67828399455653e+001,-2.67828616020227e-001

1.58008262372675e+004,-1.67828468944556e+001,-2.71565203372645e-001

1.60213975517924e+004,-1.67828540377802e+001,-2.75353860088821e-001

1.62450479271247e+004,-1.67828613809527e+001,-2.79195309167708e-001

1.64718203453514e+004,-1.67828689295360e+001,-2.83090283540685e-001

1.67017583885674e+004,-1.67828766892463e+001,-2.87039526199412e-001

1.69349062472505e+004,-1.67828846659571e+001,-2.91043790331613e-001

1.71713087287550e+004,-1.67828928657037e+001,-2.95103839454462e-001

1.74110112659224e+004,-1.67829012946871e+001,-2.99220447554680e-001

1.76540599258131e+004,-1.67829099592791e+001,-3.03394399220669e-001

1.79005014185594e+004,-1.67829188660259e+001,-3.07626489789766e-001

1.81503831063432e+004,-1.67829280216538e+001,-3.11917525482591e-001

1.84037530124975e+004,-1.67829374330736e+001,-3.16268323549679e-001

1.86606598307361e+004,-1.67829471073852e+001,-3.20679712415992e-001

1.89211529345119e+004,-1.67829570518833e+001,-3.25152531826468e-001

1.91852823865052e+004,-1.67829672740619e+001,-3.29687632993146e-001

1.94530989482457e+004,-1.67829777816201e+001,-3.34285878746972e-001

1.97246540898671e+004,-1.67829885824674e+001,-3.38948143686334e-001

1.99999999999999e+004,-1.67829996847292e+001,-3.43675314330911e-001

2.02791895958005e+004,-1.67830110967524e+001,-3.48468289277728e-001

2.05622765331213e+004,-1.67830228271117e+001,-3.53327979354353e-001

2.08493152168224e+004,-1.67830348846151e+001,-3.58255307779677e-001

2.11403608112276e+004,-1.67830472783101e+001,-3.63251210321366e-001

2.14354692507258e+004,-1.67830600174905e+001,-3.68316635457283e-001

2.17346972505211e+004,-1.67830731117021e+001,-3.73452544540695e-001

2.20381023175322e+004,-1.67830865707497e+001,-3.78659911961767e-001

2.23457427614443e+004,-1.67831004047041e+001,-3.83939725314797e-001

2.26576777059159e+004,-1.67831146239084e+001,-3.89292985567378e-001

2.29739670999406e+004,-1.67831292389854e+001,-3.94720707229342e-001

2.32946717293690e+004,-1.67831442608452e+001,-4.00223918522542e-001

2.36198532285905e+004,-1.67831597006916e+001,-4.05803661557561e-001

2.39495740923785e+004,-1.67831755700309e+001,-4.11460992503875e-001

2.42838976879009e+004,-1.67831918806789e+001,-4.17196981769077e-001

2.46228882668982e+004,-1.67832086447691e+001,-4.23012714176085e-001

2.49666109780322e+004,-1.67832258747603e+001,-4.28909289144022e-001

2.53151318794055e+004,-1.67832435834460e+001,-4.34887820866881e-001

2.56685179512580e+004,-1.67832617839615e+001,-4.40949438499423e-001

2.60268371088386e+004,-1.67832804897940e+001,-4.47095286339613e-001

2.63901582154578e+004,-1.67832997147903e+001,-4.53326524015448e-001

2.67585510957221e+004,-1.67833194731664e+001,-4.59644326674182e-001

2.71320865489533e+004,-1.67833397795167e+001,-4.66049885168410e-001

2.75108363627948e+004,-1.67833606488235e+001,-4.72544406251564e-001

2.78948733270080e+004,-1.67833820964662e+001,-4.79129112766475e-001

2.82842712474618e+004,-1.67834041382321e+001,-4.85805243841823e-001

2.86791049603164e+004,-1.67834267903254e+001,-4.92574055085972e-001

2.90794503464061e+004,-1.67834500693782e+001,-4.99436818785967e-001

2.94853843458219e+004,-1.67834739924606e+001,-5.06394824105246e-001

2.98969849726987e+004,-1.67834985770917e+001,-5.13449377282207e-001

3.03143313302078e+004,-1.67835238412501e+001,-5.20601801834482e-001

3.07375036257601e+004,-1.67835498033851e+001,-5.27853438760247e-001

3.11665831864199e+004,-1.67835764824288e+001,-5.35205646740295e-001

3.16016524745350e+004,-1.67836038978060e+001,-5.42659802349158e-001

3.20427951035848e+004,-1.67836320694478e+001,-5.50217300254752e-001

3.24900958542493e+004,-1.67836610178022e+001,-5.57879553433236e-001

3.29436406907028e+004,-1.67836907638471e+001,-5.65647993371907e-001

3.34035167771346e+004,-1.67837213291020e+001,-5.73524070286399e-001

3.38698124945009e+004,-1.67837527356414e+001,-5.81509253325375e-001

3.43426174575100e+004,-1.67837850061068e+001,-5.89605030789070e-001

3.48220225318448e+004,-1.67838181637206e+001,-5.97812910338541e-001

3.53081198516260e+004,-1.67838522322986e+001,-6.06134419213323e-001

3.58010028371187e+004,-1.67838872362641e+001,-6.14571104445157e-001

3.63007662126863e+004,-1.67839232006606e+001,-6.23124533076483e-001

3.68075060249948e+004,-1.67839601511669e+001,-6.31796292375873e-001

3.73213196614721e+004,-1.67839981141104e+001,-6.40587990056422e-001

3.78423058690237e+004,-1.67840371164813e+001,-6.49501254496108e-001

3.83705647730104e+004,-1.67840771859475e+001,-6.58537734954710e-001

3.89061978964912e+004,-1.67841183508688e+001,-6.67699101797711e-001

3.94493081797342e+004,-1.67841606403122e+001,-6.76987046711455e-001

3.99999999999998e+004,-1.67842040840661e+001,-6.86403282930551e-001

4.05583791916010e+004,-1.67842487126564e+001,-6.95949545452845e-001

4.11245530662425e+004,-1.67842945573613e+001,-7.05627591265899e-001

4.16986304336447e+004,-1.67843416502263e+001,-7.15439199567352e-001

4.22807216224550e+004,-1.67843900240807e+001,-7.25386171986744e-001

4.28709385014515e+004,-1.67844397125530e+001,-7.35470332806678e-001

4.34693945010421e+004,-1.67844907500861e+001,-7.45693529187534e-001

4.40762046350642e+004,-1.67845431719543e+001,-7.56057631387044e-001

4.46914855228886e+004,-1.67845970142785e+001,-7.66564532983493e-001

4.53153554118317e+004,-1.67846523140423e+001,-7.77216151097950e-001

4.59479341998812e+004,-1.67847091091089e+001,-7.88014426612544e-001

4.65893434587380e+004,-1.67847674382364e+001,-7.98961324395093e-001

4.72397064571810e+004,-1.67848273410946e+001,-8.10058833516448e-001

4.78991481847569e+004,-1.67848888582810e+001,-8.21308967471019e-001

4.85677953758016e+004,-1.67849520313369e+001,-8.32713764397518e-001

4.92457765337964e+004,-1.67850169027637e+001,-8.44275287293920e-001

4.99332219560642e+004,-1.67850835160388e+001,-8.55995624237017e-001

5.06302637588109e+004,-1.67851519156319e+001,-8.67876888597752e-001

5.13370359025159e+004,-1.67852221470207e+001,-8.79921219256699e-001

5.20536742176771e+004,-1.67852942567063e+001,-8.92130780818200e-001

5.27803164309155e+004,-1.67853682922293e+001,-9.04507763822960e-001

5.35171021914442e+004,-1.67854443021847e+001,-9.17054384959517e-001

5.42641730979066e+004,-1.67855223362373e+001,-9.29772887274219e-001

5.50216727255895e+004,-1.67856024451362e+001,-9.42665540380296e-001

5.57897466540159e+004,-1.67856846807291e+001,-9.55734640665091e-001

5.65685424949235e+004,-1.67857690959771e+001,-9.68982511493190e-001

5.73582099206328e+004,-1.67858557449678e+001,-9.82411503413731e-001

5.81589006928121e+004,-1.67859446829286e+001,-9.96023994359113e-001

5.89707686916437e+004,-1.67860359662396e+001,-1.00982238984782e+000

5.97939699453972e+004,-1.67861296524456e+001,-1.02380912317994e+000

6.06286626604156e+004,-1.67862258002680e+001,-1.03798665563609e+000

6.14750072515201e+004,-1.67863244696151e+001,-1.05235747667013e+000

6.23331663728396e+004,-1.67864257215932e+001,-1.06692410410276e+000

6.32033049490698e+004,-1.67865296185151e+001,-1.08168908431168e+000

6.40855902071694e+004,-1.67866362239091e+001,-1.09665499242026e+000

6.49801917084985e+004,-1.67867456025270e+001,-1.11182443248410e+000

6.58872813814055e+004,-1.67868578203501e+001,-1.12720003767677e+000

6.68070335542691e+004,-1.67869729445953e+001,-1.14278447047138e+000

6.77396249890018e+004,-1.67870910437198e+001,-1.15858042282323e+000

6.86852349150199e+004,-1.67872121874238e+001,-1.17459061634839e+000

6.96440450636895e+004,-1.67873364466531e+001,-1.19081780250288e+000

7.06162397032520e+004,-1.67874638935998e+001,-1.20726476275714e+000

7.16020056742374e+004,-1.67875946017011e+001,-1.22393430877380e+000

7.26015324253724e+004,-1.67877286456377e+001,-1.24082928257937e+000

7.36150120499896e+004,-1.67878661013291e+001,-1.25795255673984e+000

7.46426393229441e+004,-1.67880070459289e+001,-1.27530703453095e+000

7.56846117380472e+004,-1.67881515578165e+001,-1.29289565011155e+000

7.67411295460207e+004,-1.67882997165885e+001,-1.31072136869501e+000

7.78123957929823e+004,-1.67884516030470e+001,-1.32878718672154e+000

7.88986163594682e+004,-1.67886072991862e+001,-1.34709613203053e+000

7.99999999999995e+004,-1.67887668881766e+001,-1.36565126403490e+000

8.11167583832018e+004,-1.67889304543474e+001,-1.38445567389485e+000

8.22491061324848e+004,-1.67890980831657e+001,-1.40351248469610e+000

8.33972608672892e+004,-1.67892698612139e+001,-1.42282485162750e+000

8.45614432449099e+004,-1.67894458761637e+001,-1.44239596216515e+000

8.57418770029029e+004,-1.67896262167480e+001,-1.46222903625738e+000

8.69387890020841e+004,-1.67898109727295e+001,-1.48232732651421e+000

8.81524092701283e+004,-1.67900002348667e+001,-1.50269411840376e+000

8.93829710457770e+004,-1.67901940948761e+001,-1.52333273045266e+000

9.06307108236633e+004,-1.67903926453922e+001,-1.54424651445363e+000

9.18958683997622e+004,-1.67905959799231e+001,-1.56543885568093e+000

9.31786869174758e+004,-1.67908041928035e+001,-1.58691317311383e+000

9.44794129143618e+004,-1.67910173791436e+001,-1.60867291967091e+000

9.57982963695136e+004,-1.67912356347748e+001,-1.63072158245211e+000

9.71355907516031e+004,-1.67914590561911e+001,-1.65306268299637e+000

9.84915530675926e+004,-1.67916877404872e+001,-1.67569977754983e+000

9.98664439121282e+004,-1.67919217852921e+001,-1.69863645734922e+000

1.01260527517622e+005,-1.67921612886994e+001,-1.72187634892012e+000

1.02674071805032e+005,-1.67924063491924e+001,-1.74542311439510e+000

1.04107348435354e+005,-1.67926570655662e+001,-1.76928045184623e+000

1.05560632861831e+005,-1.67929135368444e+001,-1.79345209564208e+000

1.07034204382888e+005,-1.67931758621925e+001,-1.81794181682495e+000

1.08528346195813e+005,-1.67934441408257e+001,-1.84275342351135e+000

1.10043345451179e+005,-1.67937184719135e+001,-1.86789076131868e+000

1.11579493308032e+005,-1.67939989544791e+001,-1.89335771382015e+000

1.13137084989847e+005,-1.67942856872942e+001,-1.91915820302766e+000

1.14716419841265e+005,-1.67945787687700e+001,-1.94529618990751e+000

1.16317801385624e+005,-1.67948782968428e+001,-1.97177567492887e+000

1.17941537383287e+005,-1.67951843688557e+001,-1.99860069864809e+000

1.19587939890794e+005,-1.67954970814358e+001,-2.02577534233157e+000

1.21257325320831e+005,-1.67958165303671e+001,-2.05330372861831e+000

1.22950014503040e+005,-1.67961428104584e+001,-2.08119002222616e+000

1.24666332745679e+005,-1.67964760154080e+001,-2.10943843070124e+000

1.26406609898139e+005,-1.67968162376633e+001,-2.13805320521691e+000

1.28171180414339e+005,-1.67971635682773e+001,-2.16703864142129e+000

1.29960383416997e+005,-1.67975180967607e+001,-2.19639908033804e+000

1.31774562762811e+005,-1.67978799109306e+001,-2.22613890932095e+000

1.33614067108538e+005,-1.67982490967553e+001,-2.25626256306833e+000

1.35479249978003e+005,-1.67986257381971e+001,-2.28677452469389e+000

1.37370469830040e+005,-1.67990099170503e+001,-2.31767932686453e+000

1.39288090127379e+005,-1.67994017127783e+001,-2.34898155299923e+000

1.41232479406504e+005,-1.67998012023474e+001,-2.38068583853828e+000

1.43204011348474e+005,-1.68002084600589e+001,-2.41279687227997e+000

1.45203064850745e+005,-1.68006235573789e+001,-2.44531939779267e+000

1.47230024099979e+005,-1.68010465627683e+001,-2.47825821489879e+000

1.49285278645888e+005,-1.68014775415102e+001,-2.51161818123722e+000

1.51369223476094e+005,-1.68019165555382e+001,-2.54540421390440e+000

1.53482259092041e+005,-1.68023636632646e+001,-2.57962129117573e+000

1.55624791585964e+005,-1.68028189194088e+001,-2.61427445431030e+000

1.57797232718936e+005,-1.68032823748271e+001,-2.64936880944139e+000

1.59999999999999e+005,-1.68037540763444e+001,-2.68490952955068e+000

1.62233516766403e+005,-1.68042340665883e+001,-2.72090185653136e+000

1.64498212264969e+005,-1.68047223838255e+001,-2.75735110334153e+000

1.66794521734578e+005,-1.68052190618028e+001,-2.79426265624280e+000

1.69122886489819e+005,-1.68057241295919e+001,-2.83164197713447e+000

1.71483754005805e+005,-1.68062376114388e+001,-2.86949460597486e+000

1.73877578004168e+005,-1.68067595266196e+001,-2.90782616329507e+000

1.76304818540256e+005,-1.68072898893023e+001,-2.94664235280393e+000

1.78765942091554e+005,-1.68078287084160e+001,-2.98594896408347e+000

1.81261421647326e+005,-1.68083759875276e+001,-3.02575187537326e+000

1.83791736799524e+005,-1.68089317247275e+001,-3.06605705644580e+000

1.86357373834951e+005,-1.68094959125250e+001,-3.10687057156750e+000

1.88958825828723e+005,-1.68100685377528e+001,-3.14819858254716e+000

1.91596592739027e+005,-1.68106495814844e+001,-3.19004735186712e+000

1.94271181503206e+005,-1.68112390189607e+001,-3.23242324589787e+000

1.96983106135185e+005,-1.68118368195315e+001,-3.27533273818856e+000

1.99732887824256e+005,-1.68124429466087e+001,-3.31878241283665e+000

2.02521055035243e+005,-1.68130573576335e+001,-3.36277896792701e+000

2.05348143610063e+005,-1.68136800040592e+001,-3.40732921904143e+000

2.08214696870707e+005,-1.68143108313481e+001,-3.45244010283063e+000

2.11121265723661e+005,-1.68149497789847e+001,-3.49811868064833e+000

2.14068408765776e+005,-1.68155967805059e+001,-3.54437214223696e+000

2.17056692391625e+005,-1.68162517635473e+001,-3.59120780946675e+000

2.20086690902357e+005,-1.68169146499077e+001,-3.63863314011487e+000

2.23158986616063e+005,-1.68175853556316e+001,-3.68665573168656e+000

2.26274169979693e+005,-1.68182637911093e+001,-3.73528332526604e+000

2.29432839682530e+005,-1.68189498611966e+001,-3.78452380939398e+000

2.32635602771247e+005,-1.68196434653531e+001,-3.83438522396439e+000

2.35883074766574e+005,-1.68203444977997e+001,-3.88487576413396e+000

2.39175879781588e+005,-1.68210528476954e+001,-3.93600378423707e+000

2.42514650641661e+005,-1.68217683993337e+001,-3.98777780169848e+000

2.45900029006080e+005,-1.68224910323578e+001,-4.04020650093939e+000

2.49332665491357e+005,-1.68232206219958e+001,-4.09329873726500e+000

2.52813219796278e+005,-1.68239570393148e+001,-4.14706354073180e+000

2.56342360828676e+005,-1.68247001514936e+001,-4.20151011998182e+000

2.59920766833993e+005,-1.68254498221143e+001,-4.25664786604241e+000

2.63549125525621e+005,-1.68262059114716e+001,-4.31248635607920e+000

2.67228134217075e+005,-1.68269682769005e+001,-4.36903535709942e+000

2.70958499956006e+005,-1.68277367731201e+001,-4.42630482959602e+000

2.74740939660078e+005,-1.68285112525951e+001,-4.48430493112836e+000

2.78576180254757e+005,-1.68292915659117e+001,-4.54304601983242e+000

2.82464958813007e+005,-1.68300775621692e+001,-4.60253865785341e+000

2.86408022696948e+005,-1.68308690893861e+001,-4.66279361469761e+000

2.90406129701488e+005,-1.68316659949182e+001,-4.72382187049737e+000

2.94460048199957e+005,-1.68324681258901e+001,-4.78563461918314e+000

2.98570557291775e+005,-1.68332753296370e+001,-4.84824327156113e+000

3.02738446952187e+005,-1.68340874541572e+001,-4.91165945829062e+000

3.06964518184081e+005,-1.68349043485731e+001,-4.97589503275895e+000

3.11249583171928e+005,-1.68357258636005e+001,-5.04096207384981e+000

3.15594465437872e+005,-1.68365518520240e+001,-5.10687288860713e+000

3.19999999999997e+005,-1.68373821691783e+001,-5.17364001478617e+000

3.24467033532806e+005,-1.68382166734331e+001,-5.24127622329732e+000

3.28996424529938e+005,-1.68390552266815e+001,-5.30979452053970e+000

3.33589043469155e+005,-1.68398976948302e+001,-5.37920815062305e+000

3.38245772979638e+005,-1.68407439482891e+001,-5.44953059748261e+000

3.42967508011610e+005,-1.68415938624616e+001,-5.52077558688600e+000

3.47755156008335e+005,-1.68424473182317e+001,-5.59295708833387e+000

3.52609637080511e+005,-1.68433042024491e+001,-5.66608931685875e+000

3.57531884183106e+005,-1.68441644084090e+001,-5.74018673472427e+000

3.62522843294651e+005,-1.68450278363269e+001,-5.81526405302870e+000

3.67583473599047e+005,-1.68458943938076e+001,-5.89133623321677e+000

3.72714747669902e+005,-1.68467639963057e+001,-5.96841848850487e+000

3.77917651657445e+005,-1.68476365675785e+001,-6.04652628522517e+000

3.83193185478053e+005,-1.68485120401296e+001,-6.12567534409335e+000

3.88542363006410e+005,-1.68493903556420e+001,-6.20588164140763e+000

3.93966212270369e+005,-1.68502714654008e+001,-6.28716141018253e+000

3.99465775648511e+005,-1.68511553307046e+001,-6.36953114122814e+000

4.05042110070485e+005,-1.68520419232642e+001,-6.45300758417768e+000

4.10696287220124e+005,-1.68529312255894e+001,-6.53760774847400e+000

4.16429393741414e+005,-1.68538232313626e+001,-6.62334890431916e+000

4.22242531447321e+005,-1.68547179457990e+001,-6.71024858359817e+000

4.28136817531551e+005,-1.68556153859934e+001,-6.79832458078069e+000

4.34113384783250e+005,-1.68565155812528e+001,-6.88759495381157e+000

4.40173381804713e+005,-1.68574185734161e+001,-6.97807802499544e+000

4.46317973232124e+005,-1.68583244171587e+001,-7.06979238188439e+000

4.52548339959385e+005,-1.68592331802844e+001,-7.16275687817619e+000

4.58865679365059e+005,-1.68601449440029e+001,-7.25699063462949e+000

4.65271205542494e+005,-1.68610598031946e+001,-7.35251304000349e+000

4.71766149533147e+005,-1.68619778666612e+001,-7.44934375203129e+000

4.78351759563174e+005,-1.68628992573649e+001,-7.54750269843044e+000

4.85029301283321e+005,-1.68638241126540e+001,-7.64701007795875e+000

4.91800058012158e+005,-1.68647525844777e+001,-7.74788636152337e+000

4.98665330982714e+005,-1.68656848395886e+001,-7.85015229334655e+000

5.05626439592555e+005,-1.68666210597356e+001,-7.95382889219557e+000

5.12684721657352e+005,-1.68675614418455e+001,-8.05893745268097e+000

5.19841533667984e+005,-1.68685061981966e+001,-8.16549954662928e+000

5.27098251051240e+005,-1.68694555565827e+001,-8.27353702453482e+000

5.34456268434150e+005,-1.68704097604698e+001,-8.38307201709400e+000

5.41916999912011e+005,-1.68713690691451e+001,-8.49412693682667e+000

