Freq.,VOut,OutRef

1.00000000000000e+004,-1.97277778467715e+001,-1.22609227221620e-001

1.01395947979003e+004,-1.97277783460813e+001,-1.24320757065712e-001

1.02811382665607e+004,-1.97277788594252e+001,-1.26056177652196e-001

1.04246576084112e+004,-1.97277793871977e+001,-1.27815822426137e-001

1.05701804056138e+004,-1.97277799298041e+001,-1.29600029487581e-001

1.07177346253629e+004,-1.97277804876612e+001,-1.31409141651570e-001

1.08673486252606e+004,-1.97277810611977e+001,-1.33243506516581e-001

1.10190511587661e+004,-1.97277816508539e+001,-1.35103476531224e-001

1.11728713807222e+004,-1.97277822570831e+001,-1.36989409059691e-001

1.13288388529580e+004,-1.97277828803505e+001,-1.38901666454969e-001

1.14869835499703e+004,-1.97277835211352e+001,-1.40840616121635e-001

1.16473358646846e+004,-1.97277841799294e+001,-1.42806630592024e-001

1.18099266142953e+004,-1.97277848572387e+001,-1.44800087595498e-001

1.19747870461893e+004,-1.97277855535838e+001,-1.46821370129863e-001

1.21419488439505e+004,-1.97277862694990e+001,-1.48870866536989e-001

1.23114441334492e+004,-1.97277870055345e+001,-1.50948970574657e-001

1.24833054890161e+004,-1.97277877622555e+001,-1.53056081493332e-001

1.26575659397028e+004,-1.97277885402431e+001,-1.55192604115039e-001

1.28342589756290e+004,-1.97277893400947e+001,-1.57358948905752e-001

1.30134185544193e+004,-1.97277901624244e+001,-1.59555532059035e-001

1.31950791077289e+004,-1.97277910078639e+001,-1.61782775572212e-001

1.33792755478611e+004,-1.97277918770623e+001,-1.64041107329069e-001

1.35660432744767e+004,-1.97277927706869e+001,-1.66330961182283e-001

1.37554181813974e+004,-1.97277936894239e+001,-1.68652777034573e-001

1.39474366635040e+004,-1.97277946339787e+001,-1.71007000923742e-001

1.41421356237309e+004,-1.97277956050766e+001,-1.73394085108991e-001

1.43395524801583e+004,-1.97277966034630e+001,-1.75814488157315e-001

1.45397251732031e+004,-1.97277976299042e+001,-1.78268675030829e-001

1.47426921729110e+004,-1.97277986851885e+001,-1.80757117173942e-001

1.49484924863494e+004,-1.97277997701257e+001,-1.83280292608256e-001

1.51571656651040e+004,-1.97278008855488e+001,-1.85838686018329e-001

1.53687518128801e+004,-1.97278020323139e+001,-1.88432788849626e-001

1.55832915932100e+004,-1.97278032113011e+001,-1.91063099400414e-001

1.58008262372675e+004,-1.97278044234153e+001,-1.93730122915185e-001

1.60213975517924e+004,-1.97278056695869e+001,-1.96434371683684e-001

1.62450479271247e+004,-1.97278069507722e+001,-1.99176365138712e-001

1.64718203453514e+004,-1.97278082679542e+001,-2.01956629956488e-001

1.67017583885674e+004,-1.97278096221438e+001,-2.04775700152790e-001

1.69349062472505e+004,-1.97278110143800e+001,-2.07634117191474e-001

1.71713087287550e+004,-1.97278124457311e+001,-2.10532430081956e-001

1.74110112659224e+004,-1.97278139172953e+001,-2.13471195488166e-001

1.76540599258131e+004,-1.97278154302014e+001,-2.16450977834231e-001

1.79005014185594e+004,-1.97278169856102e+001,-2.19472349411054e-001

1.81503831063432e+004,-1.97278185847148e+001,-2.22535890486379e-001

1.84037530124975e+004,-1.97278202287417e+001,-2.25642189415991e-001

1.86606598307361e+004,-1.97278219189519e+001,-2.28791842755620e-001

1.89211529345119e+004,-1.97278236566417e+001,-2.31985455375058e-001

1.91852823865052e+004,-1.97278254431439e+001,-2.35223640572458e-001

1.94530989482457e+004,-1.97278272798282e+001,-2.38507020194564e-001

1.97246540898671e+004,-1.97278291681033e+001,-2.41836224751071e-001

1.99999999999999e+004,-1.97278311094166e+001,-2.45211893539225e-001

2.02791895958005e+004,-1.97278331052568e+001,-2.48634674762654e-001

2.05622765331213e+004,-1.97278351571538e+001,-2.52105225655767e-001

2.08493152168224e+004,-1.97278372666805e+001,-2.55624212610220e-001

2.11403608112276e+004,-1.97278394354538e+001,-2.59192311301073e-001

2.14354692507258e+004,-1.97278416651362e+001,-2.62810206814288e-001

2.17346972505211e+004,-1.97278439574362e+001,-2.66478593780662e-001

2.20381023175322e+004,-1.97278463141103e+001,-2.70198176505699e-001

2.23457427614443e+004,-1.97278487369644e+001,-2.73969669103056e-001

2.26576777059159e+004,-1.97278512278550e+001,-2.77793795631761e-001

2.29739670999406e+004,-1.97278537886900e+001,-2.81671290236203e-001

2.32946717293690e+004,-1.97278564214312e+001,-2.85602897280891e-001

2.36198532285905e+004,-1.97278591280952e+001,-2.89589371495789e-001

2.39495740923785e+004,-1.97278619107546e+001,-2.93631478120544e-001

2.42838976879009e+004,-1.97278647715407e+001,-2.97729993044997e-001

2.46228882668982e+004,-1.97278677126435e+001,-3.01885702964256e-001

2.49666109780322e+004,-1.97278707363151e+001,-3.06099405520267e-001

2.53151318794055e+004,-1.97278738448700e+001,-3.10371909459746e-001

2.56685179512580e+004,-1.97278770406876e+001,-3.14704034782914e-001

2.60268371088386e+004,-1.97278803262137e+001,-3.19096612904084e-001

2.63901582154578e+004,-1.97278837039625e+001,-3.23550486804771e-001

2.67585510957221e+004,-1.97278871765184e+001,-3.28066511196165e-001

2.71320865489533e+004,-1.97278907465381e+001,-3.32645552681336e-001

2.75108363627948e+004,-1.97278944167523e+001,-3.37288489918948e-001

2.78948733270080e+004,-1.97278981899680e+001,-3.41996213789043e-001

2.82842712474618e+004,-1.97279020690708e+001,-3.46769627562949e-001

2.86791049603164e+004,-1.97279060570265e+001,-3.51609647074318e-001

2.90794503464061e+004,-1.97279101568837e+001,-3.56517200892532e-001

2.94853843458219e+004,-1.97279143717763e+001,-3.61493230496915e-001

2.98969849726987e+004,-1.97279187049255e+001,-3.66538690456373e-001

3.03143313302078e+004,-1.97279231596421e+001,-3.71654548610986e-001

3.07375036257601e+004,-1.97279277393294e+001,-3.76841786251100e-001

3.11665831864199e+004,-1.97279324474855e+001,-3.82101398306456e-001

3.16016524745350e+004,-1.97279372877062e+001,-3.87434393531115e-001

3.20427951035848e+004,-1.97279422636871e+001,-3.92841794696996e-001

3.24900958542493e+004,-1.97279473792270e+001,-3.98324638783536e-001

3.29436406907028e+004,-1.97279526382305e+001,-4.03883977174910e-001

3.34035167771346e+004,-1.97279580447106e+001,-4.09520875858535e-001

3.38698124945009e+004,-1.97279636027923e+001,-4.15236415624380e-001

3.43426174575100e+004,-1.97279693167151e+001,-4.21031692269227e-001

3.48220225318448e+004,-1.97279751908365e+001,-4.26907816803037e-001

3.53081198516260e+004,-1.97279812296354e+001,-4.32865915656421e-001

3.58010028371187e+004,-1.97279874377149e+001,-4.38907130893474e-001

3.63007662126863e+004,-1.97279938198060e+001,-4.45032620426300e-001

3.68075060249948e+004,-1.97280003807713e+001,-4.51243558231727e-001

3.73213196614721e+004,-1.97280071256084e+001,-4.57541134570802e-001

3.78423058690237e+004,-1.97280140594534e+001,-4.63926556214194e-001

3.83705647730104e+004,-1.97280211875851e+001,-4.70401046664183e-001

3.89061978964912e+004,-1.97280285154288e+001,-4.76965846387635e-001

3.94493081797342e+004,-1.97280360485600e+001,-4.83622213045683e-001

3.99999999999998e+004,-1.97280437927091e+001,-4.90371421727423e-001

4.05583791916010e+004,-1.97280517537648e+001,-4.97214765192329e-001

4.11245530662425e+004,-1.97280599377792e+001,-5.04153554106616e-001

4.16986304336447e+004,-1.97280683509718e+001,-5.11189117290351e-001

4.22807216224550e+004,-1.97280769997344e+001,-5.18322801963623e-001

4.28709385014515e+004,-1.97280858906353e+001,-5.25555973998038e-001

4.34693945010421e+004,-1.97280950304246e+001,-5.32890018169292e-001

4.40762046350642e+004,-1.97281044260388e+001,-5.40326338416255e-001

4.46914855228886e+004,-1.97281140846059e+001,-5.47866358099824e-001

4.53153554118317e+004,-1.97281240134510e+001,-5.55511520266268e-001

4.59479341998812e+004,-1.97281342201009e+001,-5.63263287917016e-001

4.65893434587380e+004,-1.97281447122902e+001,-5.71123144276827e-001

4.72397064571810e+004,-1.97281554979666e+001,-5.79092593068744e-001

4.78991481847569e+004,-1.97281665852968e+001,-5.87173158791283e-001

4.85677953758016e+004,-1.97281779826721e+001,-5.95366387000118e-001

4.92457765337964e+004,-1.97281896987150e+001,-6.03673844592047e-001

4.99332219560642e+004,-1.97282017422849e+001,-6.12097120093223e-001

5.06302637588109e+004,-1.97282141224844e+001,-6.20637823953149e-001

5.13370359025159e+004,-1.97282268486667e+001,-6.29297588835142e-001

5.20536742176771e+004,-1.97282399304409e+001,-6.38078069921644e-001

5.27803164309155e+004,-1.97282533776803e+001,-6.46980945212471e-001

5.35171021914442e+004,-1.97282672005283e+001,-6.56007915834092e-001

5.42641730979066e+004,-1.97282814094065e+001,-6.65160706348344e-001

5.50216727255895e+004,-1.97282960150212e+001,-6.74441065069350e-001

5.57897466540159e+004,-1.97283110283717e+001,-6.83850764378723e-001

5.65685424949235e+004,-1.97283264607580e+001,-6.93391601049160e-001

5.73582099206328e+004,-1.97283423237883e+001,-7.03065396571237e-001

5.81589006928121e+004,-1.97283586293876e+001,-7.12873997481532e-001

5.89707686916437e+004,-1.97283753898056e+001,-7.22819275699040e-001

5.97939699453972e+004,-1.97283926176260e+001,-7.32903128860670e-001

6.06286626604156e+004,-1.97284103257745e+001,-7.43127480665016e-001

6.14750072515201e+004,-1.97284285275283e+001,-7.53494281218054e-001

6.23331663728396e+004,-1.97284472365250e+001,-7.64005507383597e-001

6.32033049490698e+004,-1.97284664667722e+001,-7.74663163138384e-001

6.40855902071694e+004,-1.97284862326572e+001,-7.85469279929170e-001

6.49801917084985e+004,-1.97285065489564e+001,-7.96425917037646e-001

6.58872813814055e+004,-1.97285274308462e+001,-8.07535161946226e-001

6.68070335542691e+004,-1.97285488939127e+001,-8.18799130709587e-001

6.77396249890018e+004,-1.97285709541626e+001,-8.30219968332174e-001

6.86852349150199e+004,-1.97285936280339e+001,-8.41799849145074e-001

6.96440450636895e+004,-1.97286169324070e+001,-8.53540977194293e-001

7.06162397032520e+004,-1.97286408846164e+001,-8.65445586625958e-001

7.16020056742374e+004,-1.97286655024616e+001,-8.77515942082872e-001

7.26015324253724e+004,-1.97286908042196e+001,-8.89754339099654e-001

7.36150120499896e+004,-1.97287168086568e+001,-9.02163104505931e-001

7.46426393229441e+004,-1.97287435350414e+001,-9.14744596833703e-001

7.56846117380472e+004,-1.97287710031560e+001,-9.27501206727814e-001

7.67411295460207e+004,-1.97287992333108e+001,-9.40435357360709e-001

7.78123957929823e+004,-1.97288282463564e+001,-9.53549504855252e-001

7.88986163594682e+004,-1.97288580636981e+001,-9.66846138706300e-001

7.99999999999995e+004,-1.97288887073089e+001,-9.80327782212569e-001

8.11167583832018e+004,-1.97289201997438e+001,-9.93996992910519e-001

8.22491061324848e+004,-1.97289525641549e+001,-1.00785636301063e+000

8.33972608672892e+004,-1.97289858243050e+001,-1.02190851984431e+000

8.45614432449099e+004,-1.97290200045835e+001,-1.03615612630792e+000

8.57418770029029e+004,-1.97290551300212e+001,-1.05060188131914e+000

8.69387890020841e+004,-1.97290912263063e+001,-1.06524852027108e+000

8.81524092701283e+004,-1.97291283197999e+001,-1.08009881549589e+000

8.93829710457770e+004,-1.97291664375528e+001,-1.09515557673068e+000

9.06307108236633e+004,-1.97292056073214e+001,-1.11042165159011e+000

9.18958683997622e+004,-1.97292458575849e+001,-1.12589992604064e+000

9.31786869174758e+004,-1.97292872175628e+001,-1.14159332488220e+000

9.44794129143618e+004,-1.97293297172319e+001,-1.15750481223337e+000

9.57982963695136e+004,-1.97293733873441e+001,-1.17363739202278e+000

9.71355907516031e+004,-1.97294182594450e+001,-1.18999410848233e+000

9.84915530675926e+004,-1.97294643658922e+001,-1.20657804664650e+000

9.98664439121282e+004,-1.97295117398735e+001,-1.22339233285941e+000

1.01260527517622e+005,-1.97295604154269e+001,-1.24044013528089e+000

1.02674071805032e+005,-1.97296104274594e+001,-1.25772466440220e+000

1.04107348435354e+005,-1.97296618117665e+001,-1.27524917356402e+000

1.05560632861831e+005,-1.97297146050532e+001,-1.29301695947860e+000

1.07034204382888e+005,-1.97297688449530e+001,-1.31103136275978e+000

1.08528346195813e+005,-1.97298245700496e+001,-1.32929576845324e+000

1.10043345451179e+005,-1.97298818198973e+001,-1.34781360657607e+000

1.11579493308032e+005,-1.97299406350422e+001,-1.36658835265654e+000

1.13137084989847e+005,-1.97300010570439e+001,-1.38562352828321e+000

1.14716419841265e+005,-1.97300631284971e+001,-1.40492270165394e+000

1.16317801385624e+005,-1.97301268930535e+001,-1.42448948813318e+000

1.17941537383287e+005,-1.97301923954445e+001,-1.44432755081250e+000

1.19587939890794e+005,-1.97302596815032e+001,-1.46444060107554e+000

1.21257325320831e+005,-1.97303287981878e+001,-1.48483239916779e+000

1.22950014503040e+005,-1.97303997936038e+001,-1.50550675477236e+000

1.24666332745679e+005,-1.97304727170280e+001,-1.52646752758735e+000

1.26406609898139e+005,-1.97305476189315e+001,-1.54771862791041e+000

1.28171180414339e+005,-1.97306245510033e+001,-1.56926401722789e+000

1.29960383416997e+005,-1.97307035661741e+001,-1.59110770880674e+000

1.31774562762811e+005,-1.97307847186403e+001,-1.61325376829223e+000

1.33614067108538e+005,-1.97308680638881e+001,-1.63570631431080e+000

1.35479249978003e+005,-1.97309536587174e+001,-1.65846951907649e+000

1.37370469830040e+005,-1.97310415612662e+001,-1.68154760900234e+000

1.39288090127379e+005,-1.97311318310351e+001,-1.70494486531590e+000

1.41232479406504e+005,-1.97312245289112e+001,-1.72866562468125e+000

1.43204011348474e+005,-1.97313197171930e+001,-1.75271427982375e+000

1.45203064850745e+005,-1.97314174596142e+001,-1.77709528015963e+000

1.47230024099979e+005,-1.97315178213688e+001,-1.80181313243125e+000

1.49285278645888e+005,-1.97316208691344e+001,-1.82687240134686e+000

1.51369223476094e+005,-1.97317266710970e+001,-1.85227771022507e+000

1.53482259092041e+005,-1.97318352969750e+001,-1.87803374164324e+000

1.55624791585964e+005,-1.97319468180424e+001,-1.90414523809290e+000

1.57797232718936e+005,-1.97320613071534e+001,-1.93061700263781e+000

1.59999999999999e+005,-1.97321788387646e+001,-1.95745389957946e+000

1.62233516766403e+005,-1.97322994889592e+001,-1.98466085512563e+000

1.64498212264969e+005,-1.97324233354688e+001,-2.01224285806539e+000

1.66794521734578e+005,-1.97325504576962e+001,-2.04020496045005e+000

1.69122886489819e+005,-1.97326809367372e+001,-2.06855227827760e+000

1.71483754005805e+005,-1.97328148554019e+001,-2.09728999218511e+000

1.73877578004168e+005,-1.97329522982357e+001,-2.12642334814645e+000

1.76304818540256e+005,-1.97330933515395e+001,-2.15595765817475e+000

1.78765942091554e+005,-1.97332381033893e+001,-2.18589830103251e+000

1.81261421647326e+005,-1.97333866436550e+001,-2.21625072294815e+000

1.83791736799524e+005,-1.97335390640191e+001,-2.24702043833885e+000

1.86357373834951e+005,-1.97336954579931e+001,-2.27821303054065e+000

1.88958825828723e+005,-1.97338559209349e+001,-2.30983415254512e+000

1.91596592739027e+005,-1.97340205500634e+001,-2.34188952774577e+000

1.94271181503206e+005,-1.97341894444738e+001,-2.37438495069012e+000

1.96983106135185e+005,-1.97343627051502e+001,-2.40732628784133e+000

1.99732887824256e+005,-1.97345404349783e+001,-2.44071947834896e+000

2.02521055035243e+005,-1.97347227387564e+001,-2.47457053482837e+000

2.05348143610063e+005,-1.97349097232047e+001,-2.50888554415005e+000

2.08214696870707e+005,-1.97351014969738e+001,-2.54367066824022e+000

2.11121265723661e+005,-1.97352981706520e+001,-2.57893214488972e+000

2.14068408765776e+005,-1.97354998567699e+001,-2.61467628857818e+000

2.17056692391625e+005,-1.97357066698048e+001,-2.65090949130691e+000

2.20086690902357e+005,-1.97359187261823e+001,-2.68763822344688e+000

2.23158986616063e+005,-1.97361361442771e+001,-2.72486903459868e+000

2.26274169979693e+005,-1.97363590444115e+001,-2.76260855446835e+000

2.29432839682530e+005,-1.97365875488518e+001,-2.80086349375744e+000

2.32635602771247e+005,-1.97368217818035e+001,-2.83964064506926e+000

2.35883074766574e+005,-1.97370618694036e+001,-2.87894688383230e+000

2.39175879781588e+005,-1.97373079397117e+001,-2.91878916924219e+000

2.42514650641661e+005,-1.97375601226983e+001,-2.95917454522269e+000

2.45900029006080e+005,-1.97378185502313e+001,-3.00011014140523e+000

2.49332665491357e+005,-1.97380833560600e+001,-3.04160317413295e+000

2.52813219796278e+005,-1.97383546757970e+001,-3.08366094748403e+000

2.56342360828676e+005,-1.97386326468979e+001,-3.12629085432199e+000

2.59920766833993e+005,-1.97389174086380e+001,-3.16950037736914e+000

2.63549125525621e+005,-1.97392091020876e+001,-3.21329709030719e+000

2.67228134217075e+005,-1.97395078700840e+001,-3.25768865890749e+000

2.70958499956006e+005,-1.97398138572014e+001,-3.30268284218794e+000

2.74740939660078e+005,-1.97401272097185e+001,-3.34828749360545e+000

2.78576180254757e+005,-1.97404480755837e+001,-3.39451056227687e+000

2.82464958813007e+005,-1.97407766043773e+001,-3.44136009423798e+000

2.86408022696948e+005,-1.97411129472720e+001,-3.48884423373771e+000

2.90406129701488e+005,-1.97414572569912e+001,-3.53697122456984e+000

2.94460048199957e+005,-1.97418096877636e+001,-3.58574941144698e+000

2.98570557291775e+005,-1.97421703952778e+001,-3.63518724141458e+000

3.02738446952187e+005,-1.97425395366327e+001,-3.68529326530989e+000

3.06964518184081e+005,-1.97429172702869e+001,-3.73607613926782e+000

3.11249583171928e+005,-1.97433037560064e+001,-3.78754462627348e+000

3.15594465437872e+005,-1.97436991548095e+001,-3.83970759776578e+000

3.19999999999997e+005,-1.97441036289112e+001,-3.89257403529434e+000

3.24467033532806e+005,-1.97445173416652e+001,-3.94615303222849e+000

3.28996424529938e+005,-1.97449404575053e+001,-4.00045379552597e+000

3.33589043469155e+005,-1.97453731418856e+001,-4.05548564755799e+000

3.38245772979638e+005,-1.97458155612194e+001,-4.11125802799766e+000

3.42967508011610e+005,-1.97462678828183e+001,-4.16778049576857e+000

3.47755156008335e+005,-1.97467302748306e+001,-4.22506273106216e+000

3.52609637080511e+005,-1.97472029061796e+001,-4.28311453742035e+000

3.57531884183106e+005,-1.97476859465029e+001,-4.34194584388800e+000

3.62522843294651e+005,-1.97481795660917e+001,-4.40156670723712e+000

3.67583473599047e+005,-1.97486839358319e+001,-4.46198731426520e+000

3.72714747669902e+005,-1.97491992271460e+001,-4.52321798416783e+000

3.77917651657445e+005,-1.97497256119378e+001,-4.58526917098969e+000

3.83193185478053e+005,-1.97502632625390e+001,-4.64815146615282e+000

3.88542363006410e+005,-1.97508123516589e+001,-4.71187560106691e+000

3.93966212270369e+005,-1.97513730523372e+001,-4.77645244982145e+000

3.99465775648511e+005,-1.97519455379018e+001,-4.84189303195938e+000

4.05042110070485e+005,-1.97525299819295e+001,-4.90820851533733e+000

4.10696287220124e+005,-1.97531265582138e+001,-4.97541021907000e+000

4.16429393741414e+005,-1.97537354407365e+001,-5.04350961656085e+000

4.22242531447321e+005,-1.97543568036472e+001,-5.11251833861949e+000

4.28136817531551e+005,-1.97549908212492e+001,-5.18244817666707e+000

4.34113384783250e+005,-1.97556376679925e+001,-5.25331108602819e+000

4.40173381804713e+005,-1.97562975184766e+001,-5.32511918930968e+000

4.46317973232124e+005,-1.97569705474610e+001,-5.39788477986729e+000

4.52548339959385e+005,-1.97576569298860e+001,-5.47162032535793e+000

4.58865679365059e+005,-1.97583568409045e+001,-5.54633847137829e+000

4.65271205542494e+005,-1.97590704559239e+001,-5.62205204518576e+000

4.71766149533147e+005,-1.97597979506609e+001,-5.69877405950410e+000

4.78351759563174e+005,-1.97605395012087e+001,-5.77651771640948e+000

4.85029301283321e+005,-1.97612952841172e+001,-5.85529641129491e+000

4.91800058012158e+005,-1.97620654764880e+001,-5.93512373691134e+000

4.98665330982714e+005,-1.97628502560832e+001,-6.01601348748359e+000

5.05626439592555e+005,-1.97636498014513e+001,-6.09797966289549e+000

5.12684721657352e+005,-1.97644642920673e+001,-6.18103647294356e+000

5.19841533667984e+005,-1.97652939084913e+001,-6.26519834165353e+000

5.27098251051240e+005,-1.97661388325439e+001,-6.35047991165814e+000

5.34456268434150e+005,-1.97669992474993e+001,-6.43689604862811e+000

5.41916999912011e+005,-1.97678753382978e+001,-6.52446184575662e+000

