Freq.,VOut,OutRef

1.00000000000000e+004,-1.97277749599397e+001,-8.51123128943370e-002

1.01395947979003e+004,-1.97277753780909e+001,-8.63004063767821e-002

1.02811382665607e+004,-1.97277758079946e+001,-8.75050837479677e-002

1.04246576084112e+004,-1.97277762499810e+001,-8.87265764549863e-002

1.05701804056138e+004,-1.97277767043897e+001,-8.99651191747881e-002

1.07177346253629e+004,-1.97277771715695e+001,-9.12209498584064e-002

1.08673486252606e+004,-1.97277776518796e+001,-9.24943097730100e-002

1.10190511587661e+004,-1.97277781456886e+001,-9.37854435558715e-002

1.11728713807222e+004,-1.97277786533759e+001,-9.50945992519723e-002

1.13288388529580e+004,-1.97277791753312e+001,-9.64220283714658e-002

1.14869835499703e+004,-1.97277797119558e+001,-9.77679859244494e-002

1.16473358646846e+004,-1.97277802636613e+001,-9.91327304869354e-002

1.18099266142953e+004,-1.97277808308717e+001,-1.00516524234886e-001

1.19747870461893e+004,-1.97277814140225e+001,-1.01919633002267e-001

1.21419488439505e+004,-1.97277820135615e+001,-1.03342326331898e-001

1.23114441334492e+004,-1.97277826299490e+001,-1.04784877524407e-001

1.24833054890161e+004,-1.97277832636583e+001,-1.06247563691702e-001

1.26575659397028e+004,-1.97277839151760e+001,-1.07730665811018e-001

1.28342589756290e+004,-1.97277845850023e+001,-1.09234468777251e-001

1.30134185544193e+004,-1.97277852736516e+001,-1.10759261456978e-001

1.31950791077289e+004,-1.97277859816525e+001,-1.12305336745690e-001

1.33792755478611e+004,-1.97277867095486e+001,-1.13872991623570e-001

1.35660432744767e+004,-1.97277874578985e+001,-1.15462527210948e-001

1.37554181813974e+004,-1.97277882272769e+001,-1.17074248825542e-001

1.39474366635040e+004,-1.97277890182743e+001,-1.18708466042811e-001

1.41421356237309e+004,-1.97277898314978e+001,-1.20365492755400e-001

1.43395524801583e+004,-1.97277906675717e+001,-1.22045647229000e-001

1.45397251732031e+004,-1.97277915271375e+001,-1.23749252170703e-001

1.47426921729110e+004,-1.97277924108551e+001,-1.25476634780359e-001

1.49484924863494e+004,-1.97277933194025e+001,-1.27228126824806e-001

1.51571656651040e+004,-1.97277942534773e+001,-1.29004064689234e-001

1.53687518128801e+004,-1.97277952137959e+001,-1.30804789453193e-001

1.55832915932100e+004,-1.97277962010953e+001,-1.32630646946926e-001

1.58008262372675e+004,-1.97277972161332e+001,-1.34481987820563e-001

1.60213975517924e+004,-1.97277982596881e+001,-1.36359167613708e-001

1.62450479271247e+004,-1.97277993325607e+001,-1.38262546818439e-001

1.64718203453514e+004,-1.97278004355742e+001,-1.40192490949754e-001

1.67017583885674e+004,-1.97278015695747e+001,-1.42149370618937e-001

1.69349062472505e+004,-1.97278027354319e+001,-1.44133561598781e-001

1.71713087287550e+004,-1.97278039340401e+001,-1.46145444898874e-001

1.74110112659224e+004,-1.97278051663187e+001,-1.48185406837041e-001

1.76540599258131e+004,-1.97278064332127e+001,-1.50253839112629e-001

1.79005014185594e+004,-1.97278077356936e+001,-1.52351138883126e-001

1.81503831063432e+004,-1.97278090747601e+001,-1.54477708837078e-001

1.84037530124975e+004,-1.97278104514391e+001,-1.56633957273225e-001

1.86606598307361e+004,-1.97278118667861e+001,-1.58820298176119e-001

1.89211529345119e+004,-1.97278133218858e+001,-1.61037151299084e-001

1.91852823865052e+004,-1.97278148178541e+001,-1.63284942236720e-001

1.94530989482457e+004,-1.97278163558376e+001,-1.65564102513223e-001

1.97246540898671e+004,-1.97278179370150e+001,-1.67875069661850e-001

1.99999999999999e+004,-1.97278195625980e+001,-1.70218287308076e-001

2.02791895958005e+004,-1.97278212338325e+001,-1.72594205252625e-001

2.05622765331213e+004,-1.97278229519991e+001,-1.75003279558428e-001

2.08493152168224e+004,-1.97278247184140e+001,-1.77445972639144e-001

2.11403608112276e+004,-1.97278265344308e+001,-1.79922753342190e-001

2.14354692507258e+004,-1.97278284014404e+001,-1.82434097044272e-001

2.17346972505211e+004,-1.97278303208729e+001,-1.84980485735239e-001

2.20381023175322e+004,-1.97278322941984e+001,-1.87562408113120e-001

2.23457427614443e+004,-1.97278343229282e+001,-1.90180359677138e-001

2.26576777059159e+004,-1.97278364086154e+001,-1.92834842820475e-001

2.29739670999406e+004,-1.97278385528572e+001,-1.95526366925797e-001

2.32946717293690e+004,-1.97278407572950e+001,-1.98255448461490e-001

2.36198532285905e+004,-1.97278430236161e+001,-2.01022611080689e-001

2.39495740923785e+004,-1.97278453535552e+001,-2.03828385720214e-001

2.42838976879009e+004,-1.97278477488952e+001,-2.06673310699697e-001

2.46228882668982e+004,-1.97278502114690e+001,-2.09557931825046e-001

2.49666109780322e+004,-1.97278527431606e+001,-2.12482802490869e-001

2.53151318794055e+004,-1.97278553459066e+001,-2.15448483786385e-001

2.56685179512580e+004,-1.97278580216977e+001,-2.18455544599396e-001

2.60268371088386e+004,-1.97278607725803e+001,-2.21504561725766e-001

2.63901582154578e+004,-1.97278636006578e+001,-2.24596119976216e-001

2.67585510957221e+004,-1.97278665080922e+001,-2.27730812289827e-001

2.71320865489533e+004,-1.97278694971061e+001,-2.30909239843468e-001

2.75108363627948e+004,-1.97278725699838e+001,-2.34132012165259e-001

2.78948733270080e+004,-1.97278757290733e+001,-2.37399747251558e-001

2.82842712474618e+004,-1.97278789767885e+001,-2.40713071679353e-001

2.86791049603164e+004,-1.97278823156099e+001,-2.44072620729890e-001

2.90794503464061e+004,-1.97278857480879e+001,-2.47479038502196e-001

2.94853843458219e+004,-1.97278892768432e+001,-2.50932978039504e-001

2.98969849726987e+004,-1.97278929045702e+001,-2.54435101447131e-001

3.03143313302078e+004,-1.97278966340377e+001,-2.57986080022553e-001

3.07375036257601e+004,-1.97279004680920e+001,-2.61586594374621e-001

3.11665831864199e+004,-1.97279044096584e+001,-2.65237334557619e-001

3.16016524745350e+004,-1.97279084617439e+001,-2.68939000194978e-001

3.20427951035848e+004,-1.97279126274385e+001,-2.72692300616983e-001

3.24900958542493e+004,-1.97279169099190e+001,-2.76497954985824e-001

3.29436406907028e+004,-1.97279213124498e+001,-2.80356692435760e-001

3.34035167771346e+004,-1.97279258383862e+001,-2.84269252208750e-001

3.38698124945009e+004,-1.97279304911770e+001,-2.88236383789160e-001

3.43426174575100e+004,-1.97279352743663e+001,-2.92258847047804e-001

3.48220225318448e+004,-1.97279401915970e+001,-2.96337412380249e-001

3.53081198516260e+004,-1.97279452466129e+001,-3.00472860853328e-001

3.58010028371187e+004,-1.97279504432617e+001,-3.04665984347504e-001

3.63007662126863e+004,-1.97279557854978e+001,-3.08917585706300e-001

3.68075060249948e+004,-1.97279612773853e+001,-3.13228478885679e-001

3.73213196614721e+004,-1.97279669231005e+001,-3.17599489103711e-001

3.78423058690237e+004,-1.97279727269360e+001,-3.22031452993694e-001

3.83705647730104e+004,-1.97279786933029e+001,-3.26525218760445e-001

3.89061978964912e+004,-1.97279848267343e+001,-3.31081646336605e-001

3.94493081797342e+004,-1.97279911318887e+001,-3.35701607541550e-001

3.99999999999998e+004,-1.97279976135536e+001,-3.40385986242050e-001

4.05583791916010e+004,-1.97280042766489e+001,-3.45135678515265e-001

4.11245530662425e+004,-1.97280111262300e+001,-3.49951592815929e-001

4.16986304336447e+004,-1.97280181674921e+001,-3.54834650140390e-001

4.22807216224550e+004,-1.97280254057737e+001,-3.59785784199144e-001

4.28709385014515e+004,-1.97280328465606e+001,-3.64805941584980e-001

4.34693945010421e+004,-1.97280404954897e+001,-3.69896081949937e-001

4.40762046350642e+004,-1.97280483583534e+001,-3.75057178177598e-001

4.46914855228886e+004,-1.97280564411033e+001,-3.80290216563972e-001

4.53153554118317e+004,-1.97280647498550e+001,-3.85596196996681e-001

4.59479341998812e+004,-1.97280732908922e+001,-3.90976133135711e-001

4.65893434587380e+004,-1.97280820706713e+001,-3.96431052600839e-001

4.72397064571810e+004,-1.97280910958258e+001,-4.01961997157316e-001

4.78991481847569e+004,-1.97281003731717e+001,-4.07570022903363e-001

4.85677953758016e+004,-1.97281099097117e+001,-4.13256200464183e-001

4.92457765337964e+004,-1.97281197126405e+001,-4.19021615183973e-001

4.99332219560642e+004,-1.97281297893496e+001,-4.24867367324001e-001

5.06302637588109e+004,-1.97281401474332e+001,-4.30794572257748e-001

5.13370359025159e+004,-1.97281507946929e+001,-4.36804360676291e-001

5.20536742176771e+004,-1.97281617391436e+001,-4.42897878786187e-001

5.27803164309155e+004,-1.97281729890190e+001,-4.49076288520599e-001

5.35171021914442e+004,-1.97281845527776e+001,-4.55340767742761e-001

5.42641730979066e+004,-1.97281964391080e+001,-4.61692510460303e-001

5.50216727255895e+004,-1.97282086569359e+001,-4.68132727034656e-001

5.57897466540159e+004,-1.97282212154297e+001,-4.74662644399072e-001

5.65685424949235e+004,-1.97282341240069e+001,-4.81283506276191e-001

5.73582099206328e+004,-1.97282473923410e+001,-4.87996573396328e-001

5.81589006928121e+004,-1.97282610303676e+001,-4.94803123724206e-001

5.89707686916437e+004,-1.97282750482918e+001,-5.01704452681336e-001

5.97939699453972e+004,-1.97282894565953e+001,-5.08701873373918e-001

6.06286626604156e+004,-1.97283042660425e+001,-5.15796716826892e-001

6.14750072515201e+004,-1.97283194876894e+001,-5.22990332212047e-001

6.23331663728396e+004,-1.97283351328899e+001,-5.30284087088071e-001

6.32033049490698e+004,-1.97283512133038e+001,-5.37679367637666e-001

6.40855902071694e+004,-1.97283677409053e+001,-5.45177578906649e-001

6.49801917084985e+004,-1.97283847279901e+001,-5.52780145048448e-001

6.58872813814055e+004,-1.97284021871840e+001,-5.60488509572912e-001

6.68070335542691e+004,-1.97284201314519e+001,-5.68304135590287e-001

6.77396249890018e+004,-1.97284385741053e+001,-5.76228506066231e-001

6.86852349150199e+004,-1.97284575288120e+001,-5.84263124074358e-001

6.96440450636895e+004,-1.97284770096047e+001,-5.92409513053472e-001

7.06162397032520e+004,-1.97284970308903e+001,-6.00669217065625e-001

7.16020056742374e+004,-1.97285176074593e+001,-6.09043801059604e-001

7.26015324253724e+004,-1.97285387544952e+001,-6.17534851135452e-001

7.36150120499896e+004,-1.97285604875846e+001,-6.26143974809932e-001

7.46426393229441e+004,-1.97285828227268e+001,-6.34872801288708e-001

7.56846117380472e+004,-1.97286057763448e+001,-6.43722981736148e-001

7.67411295460207e+004,-1.97286293652944e+001,-6.52696189554583e-001

7.78123957929823e+004,-1.97286536068764e+001,-6.61794120656573e-001

7.88986163594682e+004,-1.97286785188462e+001,-6.71018493750310e-001

7.99999999999995e+004,-1.97287041194254e+001,-6.80371050619670e-001

8.11167583832018e+004,-1.97287304273130e+001,-6.89853556412148e-001

8.22491061324848e+004,-1.97287574616972e+001,-6.99467799923976e-001

8.33972608672892e+004,-1.97287852422666e+001,-7.09215593893563e-001

8.45614432449099e+004,-1.97288137892224e+001,-7.19098775294374e-001

8.57418770029029e+004,-1.97288431232906e+001,-7.29119205631266e-001

8.69387890020841e+004,-1.97288732657343e+001,-7.39278771236302e-001

8.81524092701283e+004,-1.97289042383666e+001,-7.49579383574011e-001

8.93829710457770e+004,-1.97289360635627e+001,-7.60022979542604e-001

9.06307108236633e+004,-1.97289687642739e+001,-7.70611521779036e-001

9.18958683997622e+004,-1.97290023640401e+001,-7.81346998970470e-001

9.31786869174758e+004,-1.97290368870037e+001,-7.92231426163306e-001

9.44794129143618e+004,-1.97290723579232e+001,-8.03266845076330e-001

9.57982963695136e+004,-1.97291088021871e+001,-8.14455324417892e-001

9.71355907516031e+004,-1.97291462458279e+001,-8.25798960203139e-001

9.84915530675926e+004,-1.97291847155366e+001,-8.37299876075846e-001

9.98664439121282e+004,-1.97292242386774e+001,-8.48960223628742e-001

1.01260527517622e+005,-1.97292648433019e+001,-8.60782182731713e-001

1.02674071805032e+005,-1.97293065581648e+001,-8.72767961856751e-001

1.04107348435354e+005,-1.97293494127381e+001,-8.84919798409441e-001

1.05560632861831e+005,-1.97293934372273e+001,-8.97239959059423e-001

1.07034204382888e+005,-1.97294386625863e+001,-9.09730740074530e-001

1.08528346195813e+005,-1.97294851205333e+001,-9.22394467657691e-001

1.10043345451179e+005,-1.97295328435665e+001,-9.35233498284350e-001

1.11579493308032e+005,-1.97295818649802e+001,-9.48250219042041e-001

1.13137084989847e+005,-1.97296322188806e+001,-9.61447047974148e-001

1.14716419841265e+005,-1.97296839402028e+001,-9.74826434422195e-001

1.16317801385624e+005,-1.97297370647260e+001,-9.88390859373075e-001

1.17941537383287e+005,-1.97297916290910e+001,-1.00214283580612e+000

1.19587939890794e+005,-1.97298476708163e+001,-1.01608490904210e+000

1.21257325320831e+005,-1.97299052283148e+001,-1.03021965709753e+000

1.22950014503040e+005,-1.97299643409103e+001,-1.04454969103401e+000

1.24666332745679e+005,-1.97300250488548e+001,-1.05907765531517e+000

1.26406609898139e+005,-1.97300873933447e+001,-1.07380622816349e+000

1.28171180414339e+005,-1.97301514165379e+001,-1.08873812191651e+000

1.29960383416997e+005,-1.97302171615704e+001,-1.10387608338789e+000

1.31774562762811e+005,-1.97302846725733e+001,-1.11922289422891e+000

1.33614067108538e+005,-1.97303539946892e+001,-1.13478137128952e+000

1.35479249978003e+005,-1.97304251740888e+001,-1.15055436698419e+000

1.37370469830040e+005,-1.97304982579878e+001,-1.16654476965581e+000

1.39288090127379e+005,-1.97305732946626e+001,-1.18275550394449e+000

1.41232479406504e+005,-1.97306503334669e+001,-1.19918953115378e+000

1.43204011348474e+005,-1.97307294248478e+001,-1.21584984962253e+000

1.45203064850745e+005,-1.97308106203610e+001,-1.23273949509420e+000

1.47230024099979e+005,-1.97308939726869e+001,-1.24986154109039e+000

1.49285278645888e+005,-1.97309795356452e+001,-1.26721909928390e+000

1.51369223476094e+005,-1.97310673642103e+001,-1.28481531987441e+000

1.53482259092041e+005,-1.97311575145252e+001,-1.30265339196419e+000

1.55624791585964e+005,-1.97312500439160e+001,-1.32073654393672e+000

1.57797232718936e+005,-1.97313450109050e+001,-1.33906804383541e+000

1.59999999999999e+005,-1.97314424752241e+001,-1.35765119974452e+000

1.62233516766403e+005,-1.97315424978269e+001,-1.37648936017190e+000

1.64498212264969e+005,-1.97316451409009e+001,-1.39558591443184e+000

1.66794521734578e+005,-1.97317504678782e+001,-1.41494429303117e+000

1.69122886489819e+005,-1.97318585434466e+001,-1.43456796805680e+000

1.71483754005805e+005,-1.97319694335588e+001,-1.45446045356301e+000

1.73877578004168e+005,-1.97320832054410e+001,-1.47462530596587e+000

1.76304818540256e+005,-1.97321999276013e+001,-1.49506612443296e+000

1.78765942091554e+005,-1.97323196698364e+001,-1.51578655128105e+000

1.81261421647326e+005,-1.97324425032377e+001,-1.53679027237296e+000

1.83791736799524e+005,-1.97325685001954e+001,-1.55808101751930e+000

1.86357373834951e+005,-1.97326977344033e+001,-1.57966256088098e+000

1.88958825828723e+005,-1.97328302808600e+001,-1.60153872137643e+000

1.91596592739027e+005,-1.97329662158708e+001,-1.62371336309135e+000

1.94271181503206e+005,-1.97331056170468e+001,-1.64619039569365e+000

1.96983106135185e+005,-1.97332485633037e+001,-1.66897377484956e+000

1.99732887824256e+005,-1.97333951348576e+001,-1.69206750264899e+000

2.02521055035243e+005,-1.97335454132208e+001,-1.71547562802941e+000

2.05348143610063e+005,-1.97336994811949e+001,-1.73920224721175e+000

2.08214696870707e+005,-1.97338574228620e+001,-1.76325150413642e+000

2.11121265723661e+005,-1.97340193235747e+001,-1.78762759090880e+000

2.14068408765776e+005,-1.97341852699434e+001,-1.81233474825161e+000

2.17056692391625e+005,-1.97343553498225e+001,-1.83737726596272e+000

2.20086690902357e+005,-1.97345296522932e+001,-1.86275948338285e+000

2.23158986616063e+005,-1.97347082676454e+001,-1.88848578987100e+000

2.26274169979693e+005,-1.97348912873563e+001,-1.91456062529111e+000

2.29432839682530e+005,-1.97350788040671e+001,-1.94098848050520e+000

2.32635602771247e+005,-1.97352709115573e+001,-1.96777389788314e+000

2.35883074766574e+005,-1.97354677047160e+001,-1.99492147181901e+000

2.39175879781588e+005,-1.97356692795112e+001,-2.02243584926448e+000

2.42514650641661e+005,-1.97358757329559e+001,-2.05032173027391e+000

2.45900029006080e+005,-1.97360871630717e+001,-2.07858386856420e+000

2.49332665491357e+005,-1.97363036688496e+001,-2.10722707209355e+000

2.52813219796278e+005,-1.97365253502072e+001,-2.13625620365440e+000

2.56342360828676e+005,-1.97367523079445e+001,-2.16567618148554e+000

2.59920766833993e+005,-1.97369846436950e+001,-2.19549197990641e+000

2.63549125525621e+005,-1.97372224598746e+001,-2.22570862996897e+000

2.67228134217075e+005,-1.97374658596274e+001,-2.25633122013493e+000

2.70958499956006e+005,-1.97377149467682e+001,-2.28736489697577e+000

2.74740939660078e+005,-1.97379698257218e+001,-2.31881486589868e+000

2.78576180254757e+005,-1.97382306014590e+001,-2.35068639190029e+000

2.82464958813007e+005,-1.97384973794301e+001,-2.38298480034725e+000

2.86408022696948e+005,-1.97387702654945e+001,-2.41571547779022e+000

2.90406129701488e+005,-1.97390493658472e+001,-2.44888387280813e+000

2.94460048199957e+005,-1.97393347869426e+001,-2.48249549688681e+000

2.98570557291775e+005,-1.97396266354149e+001,-2.51655592533533e+000

3.02738446952187e+005,-1.97399250179955e+001,-2.55107079823773e+000

3.06964518184081e+005,-1.97402300414276e+001,-2.58604582144629e+000

3.11249583171928e+005,-1.97405418123778e+001,-2.62148676761740e+000

3.15594465437872e+005,-1.97408604373450e+001,-2.65739947728887e+000

3.19999999999997e+005,-1.97411860225664e+001,-2.69378986000643e+000

3.24467033532806e+005,-1.97415186739216e+001,-2.73066389549529e+000

3.28996424529938e+005,-1.97418584968340e+001,-2.76802763488428e+000

3.33589043469155e+005,-1.97422055961697e+001,-2.80588720198129e+000

3.38245772979638e+005,-1.97425600761352e+001,-2.84424879460326e+000

3.42967508011610e+005,-1.97429220401729e+001,-2.88311868596372e+000

3.47755156008335e+005,-1.97432915908553e+001,-2.92250322611652e+000

3.52609637080511e+005,-1.97436688297779e+001,-2.96240884346354e+000

3.57531884183106e+005,-1.97440538574513e+001,-3.00284204632336e+000

3.62522843294651e+005,-1.97444467731927e+001,-3.04380942456468e+000

3.67583473599047e+005,-1.97448476750170e+001,-3.08531765130747e+000

3.72714747669902e+005,-1.97452566595287e+001,-3.12737348469172e+000

3.77917651657445e+005,-1.97456738218130e+001,-3.16998376971776e+000

3.83193185478053e+005,-1.97460992553294e+001,-3.21315544015745e+000

3.88542363006410e+005,-1.97465330518057e+001,-3.25689552053992e+000

3.93966212270369e+005,-1.97469753011340e+001,-3.30121112821223e+000

3.99465775648511e+005,-1.97474260912694e+001,-3.34610947547674e+000

4.05042110070485e+005,-1.97478855081309e+001,-3.39159787180580e+000

4.10696287220124e+005,-1.97483536355067e+001,-3.43768372613554e+000

4.16429393741414e+005,-1.97488305549624e+001,-3.48437454923862e+000

4.22242531447321e+005,-1.97493163457544e+001,-3.53167795617818e+000

4.28136817531551e+005,-1.97498110847479e+001,-3.57960166884186e+000

4.34113384783250e+005,-1.97503148463415e+001,-3.62815351855659e+000

4.40173381804713e+005,-1.97508277023968e+001,-3.67734144878471e+000

4.46317973232124e+005,-1.97513497221765e+001,-3.72717351790051e+000

4.52548339959385e+005,-1.97518809722889e+001,-3.77765790204722e+000

4.58865679365059e+005,-1.97524215166412e+001,-3.82880289807352e+000

4.65271205542494e+005,-1.97529714164019e+001,-3.88061692654744e+000

4.71766149533147e+005,-1.97535307299724e+001,-3.93310853484979e+000

4.78351759563174e+005,-1.97540995129692e+001,-3.98628640033990e+000

4.85029301283321e+005,-1.97546778182169e+001,-4.04015933359828e+000

4.91800058012158e+005,-1.97552656957527e+001,-4.09473628173750e+000

4.98665330982714e+005,-1.97558631928433e+001,-4.15002633178533e+000

5.05626439592555e+005,-1.97564703540140e+001,-4.20603871413170e+000

5.12684721657352e+005,-1.97570872210927e+001,-4.26278280603880e+000

5.19841533667984e+005,-1.97577138332660e+001,-4.32026813521340e+000

5.27098251051240e+005,-1.97583502271514e+001,-4.37850438343102e+000

5.34456268434150e+005,-1.97589964368841e+001,-4.43750139021663e+000

5.41916999912011e+005,-1.97596524942190e+001,-4.49726915656993e+000

