Freq.,VOut,OutRef

1.00000000000000e+004,-2.14304552135895e+000,-7.54961720893527e-002

1.01395947979003e+004,-2.14304549746786e+000,-7.65500589023424e-002

1.02811382665607e+004,-2.14304547290507e+000,-7.76186574064552e-002

1.04246576084112e+004,-2.14304544765146e+000,-7.87021729699906e-002

1.05701804056138e+004,-2.14304542168805e+000,-7.98008138235699e-002

1.07177346253629e+004,-2.14304539499441e+000,-8.09147911106540e-002

1.08673486252606e+004,-2.14304536755044e+000,-8.20443189158575e-002

1.10190511587661e+004,-2.14304533933471e+000,-8.31896143174953e-002

1.11728713807222e+004,-2.14304531032550e+000,-8.43508974220648e-002

1.13288388529580e+004,-2.14304528050078e+000,-8.55283914069940e-002

1.14869835499703e+004,-2.14304524983743e+000,-8.67223225671441e-002

1.16473358646846e+004,-2.14304521831184e+000,-8.79329203563899e-002

1.18099266142953e+004,-2.14304518589999e+000,-8.91604174295671e-002

1.19747870461893e+004,-2.14304515257672e+000,-9.04050496919540e-002

1.21419488439505e+004,-2.14304511831663e+000,-9.16670563389756e-002

1.23114441334492e+004,-2.14304508309297e+000,-9.29466799090595e-002

1.24833054890161e+004,-2.14304504687903e+000,-9.42441663216863e-002

1.26575659397028e+004,-2.14304500964676e+000,-9.55597649323630e-002

1.28342589756290e+004,-2.14304497136760e+000,-9.68937285759290e-002

1.30134185544193e+004,-2.14304493201216e+000,-9.82463136168488e-002

1.31950791077289e+004,-2.14304489155006e+000,-9.96177799988820e-002

1.33792755478611e+004,-2.14304484995023e+000,-1.01008391293590e-001

1.35660432744767e+004,-2.14304480718065e+000,-1.02418414752411e-001

1.37554181813974e+004,-2.14304476320854e+000,-1.03848121356218e-001

1.39474366635040e+004,-2.14304471799977e+000,-1.05297785871463e-001

1.41421356237309e+004,-2.14304467151989e+000,-1.06767686895939e-001

1.43395524801583e+004,-2.14304462373303e+000,-1.08258106919470e-001

1.45397251732031e+004,-2.14304457460263e+000,-1.09769332372911e-001

1.47426921729110e+004,-2.14304452409051e+000,-1.11301653689021e-001

1.49484924863494e+004,-2.14304447215791e+000,-1.12855365352341e-001

1.51571656651040e+004,-2.14304441876511e+000,-1.14430765956871e-001

1.53687518128801e+004,-2.14304436387090e+000,-1.16028158266711e-001

1.55832915932100e+004,-2.14304430743297e+000,-1.17647849272865e-001

1.58008262372675e+004,-2.14304424940815e+000,-1.19290150248437e-001

1.60213975517924e+004,-2.14304418975152e+000,-1.20955376815614e-001

1.62450479271247e+004,-2.14304412841718e+000,-1.22643849000646e-001

1.64718203453514e+004,-2.14304406535818e+000,-1.24355891295538e-001

1.67017583885674e+004,-2.14304400052592e+000,-1.26091832723596e-001

1.69349062472505e+004,-2.14304393387049e+000,-1.27852006900804e-001

1.71713087287550e+004,-2.14304386534057e+000,-1.29636752099949e-001

1.74110112659224e+004,-2.14304379488341e+000,-1.31446411316361e-001

1.76540599258131e+004,-2.14304372244493e+000,-1.33281332331401e-001

1.79005014185594e+004,-2.14304364796936e+000,-1.35141867782674e-001

1.81503831063432e+004,-2.14304357139930e+000,-1.37028375230413e-001

1.84037530124975e+004,-2.14304349267589e+000,-1.38941217225130e-001

1.86606598307361e+004,-2.14304341173847e+000,-1.40880761379027e-001

1.89211529345119e+004,-2.14304332852495e+000,-1.42847380433741e-001

1.91852823865052e+004,-2.14304324297108e+000,-1.44841452337224e-001

1.94530989482457e+004,-2.14304315501122e+000,-1.46863360310017e-001

1.97246540898671e+004,-2.14304306457746e+000,-1.48913492924767e-001

1.99999999999999e+004,-2.14304297160041e+000,-1.50992244175454e-001

2.02791895958005e+004,-2.14304287600835e+000,-1.53100013558005e-001

2.05622765331213e+004,-2.14304277772772e+000,-1.55237206143682e-001

2.08493152168224e+004,-2.14304267668303e+000,-1.57404232657653e-001

2.11403608112276e+004,-2.14304257279639e+000,-1.59601509559317e-001

2.14354692507258e+004,-2.14304246598778e+000,-1.61829459121462e-001

2.17346972505211e+004,-2.14304235617498e+000,-1.64088509510678e-001

2.20381023175322e+004,-2.14304224327369e+000,-1.66379094868878e-001

2.23457427614443e+004,-2.14304212719678e+000,-1.68701655400650e-001

2.26576777059159e+004,-2.14304200785497e+000,-1.71056637453635e-001

2.29739670999406e+004,-2.14304188515628e+000,-1.73444493606881e-001

2.32946717293690e+004,-2.14304175900638e+000,-1.75865682755414e-001

2.36198532285905e+004,-2.14304162930800e+000,-1.78320670201179e-001

2.39495740923785e+004,-2.14304149596142e+000,-1.80809927739914e-001

2.42838976879009e+004,-2.14304135886382e+000,-1.83333933754335e-001

2.46228882668982e+004,-2.14304121790967e+000,-1.85893173303554e-001

2.49666109780322e+004,-2.14304107299066e+000,-1.88488138216252e-001

2.53151318794055e+004,-2.14304092399486e+000,-1.91119327189726e-001

2.56685179512580e+004,-2.14304077080767e+000,-1.93787245879426e-001

2.60268371088386e+004,-2.14304061331102e+000,-1.96492407000374e-001

2.63901582154578e+004,-2.14304045138367e+000,-1.99235330423088e-001

2.67585510957221e+004,-2.14304028490092e+000,-2.02016543275406e-001

2.71320865489533e+004,-2.14304011373445e+000,-2.04836580043044e-001

2.75108363627948e+004,-2.14303993775253e+000,-2.07695982671377e-001

2.78948733270080e+004,-2.14303975681940e+000,-2.10595300672320e-001

2.82842712474618e+004,-2.14303957079581e+000,-2.13535091225479e-001

2.86791049603164e+004,-2.14303937953845e+000,-2.16515919289072e-001

2.90794503464061e+004,-2.14303918289973e+000,-2.19538357708278e-001

2.94853843458219e+004,-2.14303898072838e+000,-2.22602987320907e-001

2.98969849726987e+004,-2.14303877286835e+000,-2.25710397076019e-001

3.03143313302078e+004,-2.14303855915971e+000,-2.28861184139247e-001

3.07375036257601e+004,-2.14303833943755e+000,-2.32055954014872e-001

3.11665831864199e+004,-2.14303811353265e+000,-2.35295320656342e-001

3.16016524745350e+004,-2.14303788127081e+000,-2.38579906588446e-001

3.20427951035848e+004,-2.14303764247283e+000,-2.41910343024802e-001

3.24900958542493e+004,-2.14303739695485e+000,-2.45287269987621e-001

3.29436406907028e+004,-2.14303714452735e+000,-2.48711336435004e-001

3.34035167771346e+004,-2.14303688499587e+000,-2.52183200380470e-001

3.38698124945009e+004,-2.14303661816019e+000,-2.55703529023811e-001

3.43426174575100e+004,-2.14303634381440e+000,-2.59272998877626e-001

3.48220225318448e+004,-2.14303606174716e+000,-2.62892295894119e-001

3.53081198516260e+004,-2.14303577174062e+000,-2.66562115603427e-001

3.58010028371187e+004,-2.14303547357123e+000,-2.70283163240828e-001

3.63007662126863e+004,-2.14303516700888e+000,-2.74056153886359e-001

3.68075060249948e+004,-2.14303485181711e+000,-2.77881812599632e-001

3.73213196614721e+004,-2.14303452775250e+000,-2.81760874561647e-001

3.78423058690237e+004,-2.14303419456520e+000,-2.85694085212534e-001

3.83705647730104e+004,-2.14303385199782e+000,-2.89682200398672e-001

3.89061978964912e+004,-2.14303349978605e+000,-2.93725986514300e-001

3.94493081797342e+004,-2.14303313765802e+000,-2.97826220650723e-001

3.99999999999998e+004,-2.14303276533410e+000,-3.01983690745661e-001

4.05583791916010e+004,-2.14303238252667e+000,-3.06199195734170e-001

4.11245530662425e+004,-2.14303198894034e+000,-3.10473545700148e-001

4.16986304336447e+004,-2.14303158427086e+000,-3.14807562036444e-001

4.22807216224550e+004,-2.14303116820562e+000,-3.19202077598479e-001

4.28709385014515e+004,-2.14303074042341e+000,-3.23657936864143e-001

4.34693945010421e+004,-2.14303030059351e+000,-3.28175996099578e-001

4.40762046350642e+004,-2.14302984837616e+000,-3.32757123519973e-001

4.46914855228886e+004,-2.14302938342161e+000,-3.37402199459114e-001

4.53153554118317e+004,-2.14302890537067e+000,-3.42112116535417e-001

4.59479341998812e+004,-2.14302841385360e+000,-3.46887779825996e-001

4.65893434587380e+004,-2.14302790849036e+000,-3.51730107039032e-001

4.72397064571810e+004,-2.14302738889010e+000,-3.56640028690190e-001

4.78991481847569e+004,-2.14302685465107e+000,-3.61618488280702e-001

4.85677953758016e+004,-2.14302630535961e+000,-3.66666442481854e-001

4.92457765337964e+004,-2.14302574059106e+000,-3.71784861312092e-001

4.99332219560642e+004,-2.14302515990806e+000,-3.76974728330836e-001

5.06302637588109e+004,-2.14302456286121e+000,-3.82237040821549e-001

5.13370359025159e+004,-2.14302394898837e+000,-3.87572809985055e-001

5.20536742176771e+004,-2.14302331781409e+000,-3.92983061135400e-001

5.27803164309155e+004,-2.14302266884947e+000,-3.98468833894560e-001

5.35171021914442e+004,-2.14302200159188e+000,-4.04031182391754e-001

5.42641730979066e+004,-2.14302131552426e+000,-4.09671175467403e-001

5.50216727255895e+004,-2.14302061011492e+000,-4.15389896877543e-001

5.57897466540159e+004,-2.14301988481709e+000,-4.21188445501455e-001

5.65685424949235e+004,-2.14301913906834e+000,-4.27067935553343e-001

5.73582099206328e+004,-2.14301837229030e+000,-4.33029496795699e-001

5.81589006928121e+004,-2.14301758388823e+000,-4.39074274756023e-001

5.89707686916437e+004,-2.14301677325043e+000,-4.45203430946266e-001

5.97939699453972e+004,-2.14301593974778e+000,-4.51418143087133e-001

6.06286626604156e+004,-2.14301508273319e+000,-4.57719605333335e-001

6.14750072515201e+004,-2.14301420154114e+000,-4.64109028502529e-001

6.23331663728396e+004,-2.14301329548730e+000,-4.70587640307047e-001

6.32033049490698e+004,-2.14301236386766e+000,-4.77156685591030e-001

6.40855902071694e+004,-2.14301140595819e+000,-4.83817426568496e-001

6.49801917084985e+004,-2.14301042101423e+000,-4.90571143065077e-001

6.58872813814055e+004,-2.14300940827001e+000,-4.97419132763320e-001

6.68070335542691e+004,-2.14300836693758e+000,-5.04362711453831e-001

6.77396249890018e+004,-2.14300729620666e+000,-5.11403213285386e-001

6.86852349150199e+004,-2.14300619524409e+000,-5.18541991020247e-001

6.96440450636895e+004,-2.14300506319235e+000,-5.25780416297745e-001

7.06162397032520e+004,-2.14300389916991e+000,-5.33119879891963e-001

7.16020056742374e+004,-2.14300270226962e+000,-5.40561791983106e-001

7.26015324253724e+004,-2.14300147155870e+000,-5.48107582425093e-001

7.36150120499896e+004,-2.14300020607752e+000,-5.55758701020349e-001

7.46426393229441e+004,-2.14299890483894e+000,-5.63516617798877e-001

7.56846117380472e+004,-2.14299756682753e+000,-5.71382823299758e-001

7.67411295460207e+004,-2.14299619099882e+000,-5.79358828855866e-001

7.78123957929823e+004,-2.14299477627830e+000,-5.87446166884970e-001

7.88986163594682e+004,-2.14299332156074e+000,-5.95646391182458e-001

7.99999999999995e+004,-2.14299182570904e+000,-6.03961077220491e-001

8.11167583832018e+004,-2.14299028755356e+000,-6.12391822448706e-001

8.22491061324848e+004,-2.14298870589087e+000,-6.20940246602303e-001

8.33972608672892e+004,-2.14298707948300e+000,-6.29607992010707e-001

8.45614432449099e+004,-2.14298540705649e+000,-6.38396723911755e-001

8.57418770029029e+004,-2.14298368730101e+000,-6.47308130774480e-001

8.69387890020841e+004,-2.14298191886856e+000,-6.56343924618881e-001

8.81524092701283e+004,-2.14298010037235e+000,-6.65505841345214e-001

8.93829710457770e+004,-2.14297823038543e+000,-6.74795641068307e-001

9.06307108236633e+004,-2.14297630743983e+000,-6.84215108451911e-001

9.18958683997622e+004,-2.14297433002500e+000,-6.93766053053920e-001

9.31786869174758e+004,-2.14297229658683e+000,-7.03450309670297e-001

9.44794129143618e+004,-2.14297020552638e+000,-7.13269738687031e-001

9.57982963695136e+004,-2.14296805519807e+000,-7.23226226439328e-001

9.71355907516031e+004,-2.14296584390903e+000,-7.33321685568722e-001

9.84915530675926e+004,-2.14296356991715e+000,-7.43558055392697e-001

9.98664439121282e+004,-2.14296123142982e+000,-7.53937302274448e-001

1.01260527517622e+005,-2.14295882660231e+000,-7.64461420000701e-001

1.02674071805032e+005,-2.14295635353648e+000,-7.75132430161614e-001

1.04107348435354e+005,-2.14295381027884e+000,-7.85952382540641e-001

1.05560632861831e+005,-2.14295119481910e+000,-7.96923355504616e-001

1.07034204382888e+005,-2.14294850508856e+000,-8.08047456402225e-001

1.08528346195813e+005,-2.14294573895805e+000,-8.19326821969117e-001

1.10043345451179e+005,-2.14294289423633e+000,-8.30763618735155e-001

1.11579493308032e+005,-2.14293996866830e+000,-8.42360043439491e-001

1.13137084989847e+005,-2.14293695993283e+000,-8.54118323451844e-001

1.14716419841265e+005,-2.14293386564109e+000,-8.66040717197156e-001

1.16317801385624e+005,-2.14293068333411e+000,-8.78129514590777e-001

1.17941537383287e+005,-2.14292741048116e+000,-8.90387037472808e-001

1.19587939890794e+005,-2.14292404447693e+000,-9.02815640056931e-001

1.21257325320831e+005,-2.14292058264000e+000,-9.15417709376463e-001

1.22950014503040e+005,-2.14291702220996e+000,-9.28195665744231e-001

1.24666332745679e+005,-2.14291336034532e+000,-9.41151963214232e-001

1.26406609898139e+005,-2.14290959412092e+000,-9.54289090051093e-001

1.28171180414339e+005,-2.14290572052542e+000,-9.67609569207219e-001

1.29960383416997e+005,-2.14290173645853e+000,-9.81115958804824e-001

1.31774562762811e+005,-2.14289763872870e+000,-9.94810852623824e-001

1.33614067108538e+005,-2.14289342404984e+000,-1.00869688060047e+000

1.35479249978003e+005,-2.14288908903859e+000,-1.02277670932912e+000

1.37370469830040e+005,-2.14288463021157e+000,-1.03705304257166e+000

1.39288090127379e+005,-2.14288004398197e+000,-1.05152862177569e+000

1.41232479406504e+005,-2.14287532665668e+000,-1.06620622659745e+000

1.43204011348474e+005,-2.14287047443265e+000,-1.08108867543562e+000

1.45203064850745e+005,-2.14286548339386e+000,-1.09617882596761e+000

1.47230024099979e+005,-2.14286034950745e+000,-1.11147957569835e+000

1.49285278645888e+005,-2.14285506862066e+000,-1.12699386251191e+000

1.51369223476094e+005,-2.14284963645652e+000,-1.14272466523557e+000

1.53482259092041e+005,-2.14284404861036e+000,-1.15867500420767e+000

1.55624791585964e+005,-2.14283830054561e+000,-1.17484794185673e+000

1.57797232718936e+005,-2.14283238759000e+000,-1.19124658328468e+000

1.59999999999999e+005,-2.14282630493100e+000,-1.20787407686273e+000

1.62233516766403e+005,-2.14282004761173e+000,-1.22473361483199e+000

1.64498212264969e+005,-2.14281361052621e+000,-1.24182843391490e+000

1.66794521734578e+005,-2.14280698841487e+000,-1.25916181593236e+000

1.69122886489819e+005,-2.14280017585965e+000,-1.27673708843311e+000

1.71483754005805e+005,-2.14279316727905e+000,-1.29455762532898e+000

1.73877578004168e+005,-2.14278595692299e+000,-1.31262684753989e+000

1.76304818540256e+005,-2.14277853886761e+000,-1.33094822364823e+000

1.78765942091554e+005,-2.14277090700957e+000,-1.34952527056287e+000

1.81261421647326e+005,-2.14276305506063e+000,-1.36836155419069e+000

1.83791736799524e+005,-2.14275497654178e+000,-1.38746069011845e+000

1.86357373834951e+005,-2.14274666477708e+000,-1.40682634430567e+000

1.88958825828723e+005,-2.14273811288752e+000,-1.42646223378506e+000

1.91596592739027e+005,-2.14272931378466e+000,-1.44637212737330e+000

1.94271181503206e+005,-2.14272026016391e+000,-1.46655984639264e+000

1.96983106135185e+005,-2.14271094449782e+000,-1.48702926540185e+000

1.99732887824256e+005,-2.14270135902869e+000,-1.50778431293860e+000

2.02521055035243e+005,-2.14269149576162e+000,-1.52882897227044e+000

2.05348143610063e+005,-2.14268134645696e+000,-1.55016728215713e+000

2.08214696870707e+005,-2.14267090262208e+000,-1.57180333762621e+000

2.11121265723661e+005,-2.14266015550405e+000,-1.59374129075402e+000

2.14068408765776e+005,-2.14264909608067e+000,-1.61598535146416e+000

2.17056692391625e+005,-2.14263771505243e+000,-1.63853978833221e+000

2.20086690902357e+005,-2.14262600283331e+000,-1.66140892940491e+000

2.23158986616063e+005,-2.14261394954198e+000,-1.68459716302925e+000

2.26274169979693e+005,-2.14260154499207e+000,-1.70810893869462e+000

2.29432839682530e+005,-2.14258877868271e+000,-1.73194876788640e+000

2.32635602771247e+005,-2.14257563978849e+000,-1.75612122495063e+000

2.35883074766574e+005,-2.14256211714904e+000,-1.78063094797358e+000

2.39175879781588e+005,-2.14254819925835e+000,-1.80548263967226e+000

2.42514650641661e+005,-2.14253387425392e+000,-1.83068106829642e+000

2.45900029006080e+005,-2.14251912990535e+000,-1.85623106854707e+000

2.49332665491357e+005,-2.14250395360260e+000,-1.88213754250467e+000

2.52813219796278e+005,-2.14248833234393e+000,-1.90840546057311e+000

2.56342360828676e+005,-2.14247225272364e+000,-1.93503986243551e+000

2.59920766833993e+005,-2.14245570091906e+000,-1.96204585802520e+000

2.63549125525621e+005,-2.14243866267748e+000,-1.98942862851057e+000

2.67228134217075e+005,-2.14242112330239e+000,-2.01719342729351e+000

2.70958499956006e+005,-2.14240306763972e+000,-2.04534558102249e+000

2.74740939660078e+005,-2.14238448006306e+000,-2.07389049062218e+000

2.78576180254757e+005,-2.14236534445904e+000,-2.10283363233478e+000

2.82464958813007e+005,-2.14234564421196e+000,-2.13218055877945e+000

2.86408022696948e+005,-2.14232536218789e+000,-2.16193690002670e+000

2.90406129701488e+005,-2.14230448071859e+000,-2.19210836468659e+000

2.94460048199957e+005,-2.14228298158466e+000,-2.22270074101662e+000

2.98570557291775e+005,-2.14226084599844e+000,-2.25371989804215e+000

3.02738446952187e+005,-2.14223805458620e+000,-2.28517178669551e+000

3.06964518184081e+005,-2.14221458737008e+000,-2.31706244097214e+000

3.11249583171928e+005,-2.14219042374920e+000,-2.34939797910237e+000

3.15594465437872e+005,-2.14216554248056e+000,-2.38218460474206e+000

3.19999999999997e+005,-2.14213992165914e+000,-2.41542860818014e+000

3.24467033532806e+005,-2.14211353869754e+000,-2.44913636756518e+000

3.28996424529938e+005,-2.14208637030525e+000,-2.48331435014811e+000

3.33589043469155e+005,-2.14205839246687e+000,-2.51796911354695e+000

3.38245772979638e+005,-2.14202958042038e+000,-2.55310730702664e+000

3.42967508011610e+005,-2.14199990863440e+000,-2.58873567280096e+000

3.47755156008335e+005,-2.14196935078473e+000,-2.62486104735352e+000

3.52609637080511e+005,-2.14193787973081e+000,-2.66149036277737e+000

3.57531884183106e+005,-2.14190546749099e+000,-2.69863064813598e+000

3.62522843294651e+005,-2.14187208521760e+000,-2.73628903084463e+000

3.67583473599047e+005,-2.14183770317103e+000,-2.77447273807288e+000

3.72714747669902e+005,-2.14180229069345e+000,-2.81318909816732e+000

3.77917651657445e+005,-2.14176581618176e+000,-2.85244554209680e+000

3.83193185478053e+005,-2.14172824705965e+000,-2.89224960491994e+000

3.88542363006410e+005,-2.14168954974953e+000,-2.93260892727313e+000

3.93966212270369e+005,-2.14164968964300e+000,-2.97353125688400e+000

3.99465775648511e+005,-2.14160863107134e+000,-3.01502445010529e+000

4.05042110070485e+005,-2.14156633727497e+000,-3.05709647347301e+000

4.10696287220124e+005,-2.14152277037189e+000,-3.09975540528978e+000

4.16429393741414e+005,-2.14147789132624e+000,-3.14300943722873e+000

4.22242531447321e+005,-2.14143165991500e+000,-3.18686687596668e+000

4.28136817531551e+005,-2.14138403469497e+000,-3.23133614483751e+000

4.34113384783250e+005,-2.14133497296824e+000,-3.27642578551436e+000

4.40173381804713e+005,-2.14128443074739e+000,-3.32214445971478e+000

4.46317973232124e+005,-2.14123236271948e+000,-3.36850095093407e+000

4.52548339959385e+005,-2.14117872220960e+000,-3.41550416620372e+000

4.58865679365059e+005,-2.14112346114347e+000,-3.46316313787644e+000

4.65271205542494e+005,-2.14106653000908e+000,-3.51148702543943e+000

4.71766149533147e+005,-2.14100787781777e+000,-3.56048511735422e+000

4.78351759563174e+005,-2.14094745206421e+000,-3.61016683292507e+000

4.85029301283321e+005,-2.14088519868559e+000,-3.66054172419567e+000

4.91800058012158e+005,-2.14082106202004e+000,-3.71161947787419e+000

4.98665330982714e+005,-2.14075498476400e+000,-3.76340991728762e+000

5.05626439592555e+005,-2.14068690792882e+000,-3.81592300436580e+000

5.12684721657352e+005,-2.14061677079610e+000,-3.86916884165623e+000

5.19841533667984e+005,-2.14054451087258e+000,-3.92315767436727e+000

5.27098251051240e+005,-2.14047006384363e+000,-3.97789989244404e+000

5.34456268434150e+005,-2.14039336352594e+000,-4.03340603267467e+000

5.41916999912011e+005,-2.14031434181907e+000,-4.08968678082858e+000

