Freq.,VOut,OutRef

1.00000000000000e+004,-4.01057394597863e-001,-6.59512425485465e-002

1.01395947979003e+004,-4.01057377688613e-001,-6.68718887410805e-002

1.02811382665607e+004,-4.01057360304055e-001,-6.78053867247261e-002

1.04246576084112e+004,-4.01057342430902e-001,-6.87519159059340e-002

1.05701804056138e+004,-4.01057324055378e-001,-6.97116581954336e-002

1.07177346253629e+004,-4.01057305163411e-001,-7.06847980434590e-002

1.08673486252606e+004,-4.01057285740424e-001,-7.16715224757996e-002

1.10190511587661e+004,-4.01057265771565e-001,-7.26720211281811e-002

1.11728713807222e+004,-4.01057245241562e-001,-7.36864862838398e-002

1.13288388529580e+004,-4.01057224134439e-001,-7.47151129117642e-002

1.14869835499703e+004,-4.01057202434227e-001,-7.57580986998916e-002

1.16473358646846e+004,-4.01057180124151e-001,-7.68156440984702e-002

1.18099266142953e+004,-4.01057157187043e-001,-7.78879523549073e-002

1.19747870461893e+004,-4.01057133605221e-001,-7.89752295550301e-002

1.21419488439505e+004,-4.01057109360761e-001,-8.00776846596012e-002

1.23114441334492e+004,-4.01057084434930e-001,-8.11955295481606e-002

1.24833054890161e+004,-4.01057058808599e-001,-8.23289790576138e-002

1.26575659397028e+004,-4.01057032462230e-001,-8.34782510234448e-002

1.28342589756290e+004,-4.01057005375270e-001,-8.46435663245991e-002

1.30134185544193e+004,-4.01056977527260e-001,-8.58251489198669e-002

1.31950791077289e+004,-4.01056948896644e-001,-8.70232258970091e-002

1.33792755478611e+004,-4.01056919461424e-001,-8.82380275141896e-002

1.35660432744767e+004,-4.01056889199096e-001,-8.94697872422778e-002

1.37554181813974e+004,-4.01056858086328e-001,-9.07187418131831e-002

1.39474366635040e+004,-4.01056826099326e-001,-9.19851312622793e-002

1.41421356237309e+004,-4.01056793213508e-001,-9.32691989768386e-002

1.43395524801583e+004,-4.01056759403631e-001,-9.45711917417026e-002

1.45397251732031e+004,-4.01056724643698e-001,-9.58913597869390e-002

1.47426921729110e+004,-4.01056688907018e-001,-9.72299568363788e-002

1.49484924863494e+004,-4.01056652166340e-001,-9.85872401541066e-002

1.51571656651040e+004,-4.01056614393181e-001,-9.99634705988480e-002

1.53687518128801e+004,-4.01056575558756e-001,-1.01358912668088e-001

1.55832915932100e+004,-4.01056535633243e-001,-1.02773834553250e-001

1.58008262372675e+004,-4.01056494586047e-001,-1.04208508189366e-001

1.60213975517924e+004,-4.01056452385490e-001,-1.05663209309210e-001

1.62450479271247e+004,-4.01056408999289e-001,-1.07138217493409e-001

1.64718203453514e+004,-4.01056364394196e-001,-1.08633816225722e-001

1.67017583885674e+004,-4.01056318536009e-001,-1.10150292948231e-001

1.69349062472505e+004,-4.01056271389379e-001,-1.11687939116565e-001

1.71713087287550e+004,-4.01056222918399e-001,-1.13247050253126e-001

1.74110112659224e+004,-4.01056173085622e-001,-1.14827926008752e-001

1.76540599258131e+004,-4.01056121853000e-001,-1.16430870215360e-001

1.79005014185594e+004,-4.01056069181203e-001,-1.18056190947685e-001

1.81503831063432e+004,-4.01056015029821e-001,-1.19704200581564e-001

1.84037530124975e+004,-4.01055959357243e-001,-1.21375215854173e-001

1.86606598307361e+004,-4.01055902120994e-001,-1.23069557922846e-001

1.89211529345119e+004,-4.01055843276964e-001,-1.24787552431382e-001

1.91852823865052e+004,-4.01055782780161e-001,-1.26529529567585e-001

1.94530989482457e+004,-4.01055720584157e-001,-1.28295824130386e-001

1.97246540898671e+004,-4.01055656641273e-001,-1.30086775592316e-001

1.99999999999999e+004,-4.01055590902527e-001,-1.31902728165459e-001

2.02791895958005e+004,-4.01055523317535e-001,-1.33744030867606e-001

2.05622765331213e+004,-4.01055453834515e-001,-1.35611037589226e-001

2.08493152168224e+004,-4.01055382400081e-001,-1.37504107162389e-001

2.11403608112276e+004,-4.01055308959674e-001,-1.39423603427492e-001

2.14354692507258e+004,-4.01055233456914e-001,-1.41369895305727e-001

2.17346972505211e+004,-4.01055155834004e-001,-1.43343356868640e-001

2.20381023175322e+004,-4.01055076031519e-001,-1.45344367410308e-001

2.23457427614443e+004,-4.01054993988231e-001,-1.47373311521151e-001

2.26576777059159e+004,-4.01054909641364e-001,-1.49430579160135e-001

2.29739670999406e+004,-4.01054822926317e-001,-1.51516565731299e-001

2.32946717293690e+004,-4.01054733776663e-001,-1.53631672159343e-001

2.36198532285905e+004,-4.01054642124236e-001,-1.55776304965907e-001

2.39495740923785e+004,-4.01054547898755e-001,-1.57950876349679e-001

2.42838976879009e+004,-4.01054451028130e-001,-1.60155804263609e-001

2.46228882668982e+004,-4.01054351438262e-001,-1.62391512496171e-001

2.49666109780322e+004,-4.01054249052897e-001,-1.64658430753264e-001

2.53151318794055e+004,-4.01054143793733e-001,-1.66956994740031e-001

2.56685179512580e+004,-4.01054035580162e-001,-1.69287646245950e-001

2.60268371088386e+004,-4.01053924329491e-001,-1.71650833227611e-001

2.63901582154578e+004,-4.01053809956535e-001,-1.74047009897601e-001

2.67585510957221e+004,-4.01053692373867e-001,-1.76476636809779e-001

2.71320865489533e+004,-4.01053571491668e-001,-1.78940180947758e-001

2.75108363627948e+004,-4.01053447217370e-001,-1.81438115817500e-001

2.78948733270080e+004,-4.01053319456048e-001,-1.83970921535106e-001

2.82842712474618e+004,-4.01053188110069e-001,-1.86539084920479e-001

2.86791049603164e+004,-4.01053053079083e-001,-1.89143099591476e-001

2.90794503464061e+004,-4.01052914259876e-001,-1.91783466058491e-001

2.94853843458219e+004,-4.01052771546327e-001,-1.94460691820807e-001

2.98969849726987e+004,-4.01052624829645e-001,-1.97175291462820e-001

3.03143313302078e+004,-4.01052473997581e-001,-1.99927786756582e-001

3.07375036257601e+004,-4.01052318935083e-001,-2.02718706757715e-001

3.11665831864199e+004,-4.01052159523782e-001,-2.05548587910908e-001

3.16016524745350e+004,-4.01051995642038e-001,-2.08417974150615e-001

3.20427951035848e+004,-4.01051827164756e-001,-2.11327417007835e-001

3.24900958542493e+004,-4.01051653963366e-001,-2.14277475714834e-001

3.29436406907028e+004,-4.01051475905842e-001,-2.17268717312498e-001

3.34035167771346e+004,-4.01051292856466e-001,-2.20301716760162e-001

3.38698124945009e+004,-4.01051104675600e-001,-2.23377057047107e-001

3.43426174575100e+004,-4.01050911219800e-001,-2.26495329303070e-001

3.48220225318448e+004,-4.01050712341758e-001,-2.29657132912657e-001

3.53081198516260e+004,-4.01050507889857e-001,-2.32863075631303e-001

3.58010028371187e+004,-4.01050297708425e-001,-2.36113773701827e-001

3.63007662126863e+004,-4.01050081637486e-001,-2.39409851971810e-001

3.68075060249948e+004,-4.01049859512516e-001,-2.42751944016676e-001

3.73213196614721e+004,-4.01049631164439e-001,-2.46140692259407e-001

3.78423058690237e+004,-4.01049396419604e-001,-2.49576748094327e-001

3.83705647730104e+004,-4.01049155099475e-001,-2.53060772013429e-001

3.89061978964912e+004,-4.01048907020568e-001,-2.56593433733447e-001

3.94493081797342e+004,-4.01048651994278e-001,-2.60175412324350e-001

3.99999999999998e+004,-4.01048389826863e-001,-2.63807396340065e-001

4.05583791916010e+004,-4.01048120319196e-001,-2.67490083951393e-001

4.11245530662425e+004,-4.01047843266589e-001,-2.71224183080492e-001

4.16986304336447e+004,-4.01047558458798e-001,-2.75010411536496e-001

4.22807216224550e+004,-4.01047265679670e-001,-2.78849497154916e-001

4.28709385014515e+004,-4.01046964707167e-001,-2.82742177936889e-001

4.34693945010421e+004,-4.01046655313074e-001,-2.86689202191954e-001

4.40762046350642e+004,-4.01046337262850e-001,-2.90691328681716e-001

4.46914855228886e+004,-4.01046010315573e-001,-2.94749326766022e-001

4.53153554118317e+004,-4.01045674223574e-001,-2.98863976552091e-001

4.59479341998812e+004,-4.01045328732520e-001,-3.03036069042877e-001

4.65893434587380e+004,-4.01044973581012e-001,-3.07266406291420e-001

4.72397064571810e+004,-4.01044608500352e-001,-3.11555801554950e-001

4.78991481847569e+004,-4.01044233214539e-001,-3.15905079451066e-001

4.85677953758016e+004,-4.01043847440051e-001,-3.20315076116572e-001

4.92457765337964e+004,-4.01043450885512e-001,-3.24786639369394e-001

4.99332219560642e+004,-4.01043043251542e-001,-3.29320628871193e-001

5.06302637588109e+004,-4.01042624230646e-001,-3.33917916293844e-001

5.13370359025159e+004,-4.01042193506742e-001,-3.38579385486969e-001

5.20536742176771e+004,-4.01041750755320e-001,-3.43305932647894e-001

5.27803164309155e+004,-4.01041295642776e-001,-3.48098466496104e-001

5.35171021914442e+004,-4.01040827826474e-001,-3.52957908446793e-001

5.42641730979066e+004,-4.01040346954438e-001,-3.57885192788821e-001

5.50216727255895e+004,-4.01039852665152e-001,-3.62881266865481e-001

5.57897466540159e+004,-4.01039344587128e-001,-3.67947091257041e-001

5.65685424949235e+004,-4.01038822338753e-001,-3.73083639965987e-001

5.73582099206328e+004,-4.01038285528131e-001,-3.78291900604776e-001

5.81589006928121e+004,-4.01037733752667e-001,-3.83572874586401e-001

5.89707686916437e+004,-4.01037166598808e-001,-3.88927577317739e-001

5.97939699453972e+004,-4.01036583641756e-001,-3.94357038395912e-001

6.06286626604156e+004,-4.01035984445286e-001,-3.99862301805917e-001

6.14750072515201e+004,-4.01035368561282e-001,-4.05444426123227e-001

6.23331663728396e+004,-4.01034735529517e-001,-4.11104484717541e-001

6.32033049490698e+004,-4.01034084877349e-001,-4.16843565959963e-001

6.40855902071694e+004,-4.01033416119398e-001,-4.22662773433587e-001

6.49801917084985e+004,-4.01032728757189e-001,-4.28563226146109e-001

6.58872813814055e+004,-4.01032022278678e-001,-4.34546058747064e-001

6.68070335542691e+004,-4.01031296158367e-001,-4.40612421744459e-001

6.77396249890018e+004,-4.01030549856326e-001,-4.46763481729916e-001

6.86852349150199e+004,-4.01029782818341e-001,-4.53000421603021e-001

6.96440450636895e+004,-4.01028994475221e-001,-4.59324440798582e-001

7.06162397032520e+004,-4.01028184242625e-001,-4.65736755520801e-001

7.16020056742374e+004,-4.01027351520624e-001,-4.72238598975927e-001

7.26015324253724e+004,-4.01026495693209e-001,-4.78831221612501e-001

7.36150120499896e+004,-4.01025616128052e-001,-4.85515891362490e-001

7.46426393229441e+004,-4.01024712175912e-001,-4.92293893885908e-001

7.56846117380472e+004,-4.01023783170356e-001,-4.99166532820442e-001

7.67411295460207e+004,-4.01022828427351e-001,-5.06135130032703e-001

7.78123957929823e+004,-4.01021847244649e-001,-5.13201025874838e-001

7.88986163594682e+004,-4.01020838901586e-001,-5.20365579442684e-001

7.99999999999995e+004,-4.01019802658327e-001,-5.27630168840321e-001

8.11167583832018e+004,-4.01018737755708e-001,-5.34996191445525e-001

8.22491061324848e+004,-4.01017643414563e-001,-5.42465064180820e-001

8.33972608672892e+004,-4.01016518835311e-001,-5.50038223787466e-001

8.45614432449099e+004,-4.01015363197489e-001,-5.57717127104568e-001

8.57418770029029e+004,-4.01014175659104e-001,-5.65503251350105e-001

8.69387890020841e+004,-4.01012955356355e-001,-5.73398094407827e-001

8.81524092701283e+004,-4.01011701402950e-001,-5.81403175117055e-001

8.93829710457770e+004,-4.01010412889505e-001,-5.89520033568040e-001

9.06307108236633e+004,-4.01009088883300e-001,-5.97750231398512e-001

9.18958683997622e+004,-4.01007728427351e-001,-6.06095352098774e-001

9.31786869174758e+004,-4.01006330540206e-001,-6.14557001316908e-001

9.44794129143618e+004,-4.01004894215011e-001,-6.23136807171253e-001

9.57982963695136e+004,-4.01003418419352e-001,-6.31836420565723e-001

9.71355907516031e+004,-4.01001902094245e-001,-6.40657515510182e-001

9.84915530675926e+004,-4.01000344153903e-001,-6.49601789445530e-001

9.98664439121282e+004,-4.00998743484722e-001,-6.58670963573844e-001

1.01260527517622e+005,-4.00997098945209e-001,-6.67866783190588e-001

1.02674071805032e+005,-4.00995409364857e-001,-6.77191018025337e-001

1.04107348435354e+005,-4.00993673543691e-001,-6.86645462585695e-001

1.05560632861831e+005,-4.00991890251770e-001,-6.96231936503844e-001

1.07034204382888e+005,-4.00990058228332e-001,-7.05952284892654e-001

1.08528346195813e+005,-4.00988176181159e-001,-7.15808378703057e-001

1.10043345451179e+005,-4.00986242786054e-001,-7.25802115087605e-001

1.11579493308032e+005,-4.00984256686068e-001,-7.35935417769982e-001

1.13137084989847e+005,-4.00982216490822e-001,-7.46210237418809e-001

1.14716419841265e+005,-4.00980120775695e-001,-7.56628552028043e-001

1.16317801385624e+005,-4.00977968081522e-001,-7.67192367300111e-001

1.17941537383287e+005,-4.00975756913304e-001,-7.77903717038627e-001

1.19587939890794e+005,-4.00973485740121e-001,-7.88764663542123e-001

1.21257325320831e+005,-4.00971152993906e-001,-7.99777298007770e-001

1.22950014503040e+005,-4.00968757069115e-001,-8.10943740936868e-001

1.24666332745679e+005,-4.00966296321690e-001,-8.22266142549751e-001

1.26406609898139e+005,-4.00963769068589e-001,-8.33746683203170e-001

1.28171180414339e+005,-4.00961173586938e-001,-8.45387573816754e-001

1.29960383416997e+005,-4.00958508113267e-001,-8.57191056303759e-001

1.31774562762811e+005,-4.00955770842951e-001,-8.69159404007338e-001

1.33614067108538e+005,-4.00952959929198e-001,-8.81294922145809e-001

1.35479249978003e+005,-4.00950073482581e-001,-8.93599948261345e-001

1.37370469830040e+005,-4.00947109570253e-001,-9.06076852676077e-001

1.39288090127379e+005,-4.00944066215109e-001,-9.18728038955668e-001

1.41232479406504e+005,-4.00940941395246e-001,-9.31555944378038e-001

1.43204011348474e+005,-4.00937733042928e-001,-9.44563040410257e-001

1.45203064850745e+005,-4.00934439044356e-001,-9.57751833190348e-001

1.47230024099979e+005,-4.00931057238510e-001,-9.71124864017788e-001

1.49285278645888e+005,-4.00927585416757e-001,-9.84684709850218e-001

1.51369223476094e+005,-4.00924021321930e-001,-9.98433983806959e-001

1.53482259092041e+005,-4.00920362647853e-001,-1.01237533568059e+000

1.55624791585964e+005,-4.00916607038618e-001,-1.02651145245444e+000

1.57797232718936e+005,-4.00912752087908e-001,-1.04084505882904e+000

1.59999999999999e+005,-4.00908795338319e-001,-1.05537891775489e+000

1.62233516766403e+005,-4.00904734280914e-001,-1.07011583097331e+000

1.64498212264969e+005,-4.00900566354420e-001,-1.08505863956541e+000

1.66794521734578e+005,-4.00896288944849e-001,-1.10021022450731e+000

1.69122886489819e+005,-4.00891899384855e-001,-1.11557350723516e+000

1.71483754005805e+005,-4.00887394953227e-001,-1.13115145021709e+000

1.73877578004168e+005,-4.00882772874296e-001,-1.14694705753389e+000

1.76304818540256e+005,-4.00878030317722e-001,-1.16296337546651e+000

1.78765942091554e+005,-4.00873164397861e-001,-1.17920349309413e+000

1.81261421647326e+005,-4.00868172173367e-001,-1.19567054289920e+000

1.83791736799524e+005,-4.00863050646969e-001,-1.21236770138070e+000

1.86357373834951e+005,-4.00857796765016e-001,-1.22929818967758e+000

1.88958825828723e+005,-4.00852407417279e-001,-1.24646527419964e+000

1.91596592739027e+005,-4.00846879436750e-001,-1.26387226726796e+000

1.94271181503206e+005,-4.00841209599321e-001,-1.28152252776426e+000

1.96983106135185e+005,-4.00835394623848e-001,-1.29941946178924e+000

1.99732887824256e+005,-4.00829431171821e-001,-1.31756652333056e+000

2.02521055035243e+005,-4.00823315847724e-001,-1.33596721493916e+000

2.05348143610063e+005,-4.00817045198638e-001,-1.35462508841663e+000

2.08214696870707e+005,-4.00810615714681e-001,-1.37354374551109e+000

2.11121265723661e+005,-4.00804023828891e-001,-1.39272683862294e+000

2.14068408765776e+005,-4.00797265917808e-001,-1.41217807152053e+000

2.17056692391625e+005,-4.00790338301469e-001,-1.43190120006573e+000

2.20086690902357e+005,-4.00783237243936e-001,-1.45190003295020e+000

2.23158986616063e+005,-4.00775958953685e-001,-1.47217843244079e+000

2.26274169979693e+005,-4.00768499584298e-001,-1.49274031513578e+000

2.29432839682530e+005,-4.00760855234931e-001,-1.51358965273171e+000

2.32635602771247e+005,-4.00753021951005e-001,-1.53473047280080e+000

2.35883074766574e+005,-4.00744995725247e-001,-1.55616685957831e+000

2.39175879781588e+005,-4.00736772498269e-001,-1.57790295476183e+000

2.42514650641661e+005,-4.00728348159749e-001,-1.59994295832045e+000

2.45900029006080e+005,-4.00719718549604e-001,-1.62229112931515e+000

2.49332665491357e+005,-4.00710879458823e-001,-1.64495178673159e+000

2.52813219796278e+005,-4.00701826631198e-001,-1.66792931032186e+000

2.56342360828676e+005,-4.00692555764391e-001,-1.69122814145991e+000

2.59920766833993e+005,-4.00683062511572e-001,-1.71485278400707e+000

2.63549125525621e+005,-4.00673342483077e-001,-1.73880780518945e+000

2.67228134217075e+005,-4.00663391247950e-001,-1.76309783648777e+000

2.70958499956006e+005,-4.00653204335955e-001,-1.78772757453806e+000

2.74740939660078e+005,-4.00642777239459e-001,-1.81270178204513e+000

2.78576180254757e+005,-4.00632105415376e-001,-1.83802528870787e+000

2.82464958813007e+005,-4.00621184287526e-001,-1.86370299215649e+000

2.86408022696948e+005,-4.00610009248751e-001,-1.88973985890263e+000

2.90406129701488e+005,-4.00598575663373e-001,-1.91614092530186e+000

2.94460048199957e+005,-4.00586878869582e-001,-1.94291129852854e+000

2.98570557291775e+005,-4.00574914182271e-001,-1.97005615756277e+000

3.02738446952187e+005,-4.00562676895536e-001,-1.99758075419222e+000

3.06964518184081e+005,-4.00550162285463e-001,-2.02549041402456e+000

3.11249583171928e+005,-4.00537365613217e-001,-2.05379053751450e+000

3.15594465437872e+005,-4.00524282127860e-001,-2.08248660100338e+000

3.19999999999997e+005,-4.00510907069506e-001,-2.11158415777250e+000

3.24467033532806e+005,-4.00497235672512e-001,-2.14108883910962e+000

3.28996424529938e+005,-4.00483263168750e-001,-2.17100635538919e+000

3.33589043469155e+005,-4.00468984790777e-001,-2.20134249716636e+000

3.38245772979638e+005,-4.00454395775331e-001,-2.23210313628510e+000

3.42967508011610e+005,-4.00439491366811e-001,-2.26329422699950e+000

3.47755156008335e+005,-4.00424266820488e-001,-2.29492180711076e+000

3.52609637080511e+005,-4.00408717406352e-001,-2.32699199911678e+000

3.57531884183106e+005,-4.00392838412393e-001,-2.35951101137750e+000

3.62522843294651e+005,-4.00376625148112e-001,-2.39248513929456e+000

3.67583473599047e+005,-4.00360072948272e-001,-2.42592076650514e+000

3.72714747669902e+005,-4.00343177176051e-001,-2.45982436609211e+000

3.77917651657445e+005,-4.00325933226817e-001,-2.49420250180764e+000

3.83193185478053e+005,-4.00308336531398e-001,-2.52906182931363e+000

3.88542363006410e+005,-4.00290382559326e-001,-2.56440909743715e+000

3.93966212270369e+005,-4.00272066822259e-001,-2.60025114944119e+000

3.99465775648511e+005,-4.00253384877070e-001,-2.63659492431171e+000

4.05042110070485e+005,-4.00234332328753e-001,-2.67344745806131e+000

4.10696287220124e+005,-4.00214904833385e-001,-2.71081588504852e+000

4.16429393741414e+005,-4.00195098100826e-001,-2.74870743931398e+000

4.22242531447321e+005,-4.00174907897124e-001,-2.78712945593391e+000

4.28136817531551e+005,-4.00154330046849e-001,-2.82608937238995e+000

4.34113384783250e+005,-4.00133360435248e-001,-2.86559472995714e+000

4.40173381804713e+005,-4.00111995009688e-001,-2.90565317510946e+000

4.46317973232124e+005,-4.00090229781540e-001,-2.94627246094254e+000

4.52548339959385e+005,-4.00068060827052e-001,-2.98746044861618e+000

4.58865679365059e+005,-4.00045484288305e-001,-3.02922510881428e+000

4.65271205542494e+005,-4.00022496373662e-001,-3.07157452322410e+000

4.71766149533147e+005,-3.99999093357729e-001,-3.11451688603523e+000

4.78351759563174e+005,-3.99975271581115e-001,-3.15806050545783e+000

4.85029301283321e+005,-3.99951027449620e-001,-3.20221380526126e+000

4.91800058012158e+005,-3.99926357432881e-001,-3.24698532633269e+000

4.98665330982714e+005,-3.99901258062602e-001,-3.29238372825785e+000

5.05626439592555e+005,-3.99875725930340e-001,-3.33841779092151e+000

5.12684721657352e+005,-3.99849757684628e-001,-3.38509641613121e+000

5.19841533667984e+005,-3.99823350027472e-001,-3.43242862926254e+000

5.27098251051240e+005,-3.99796499710389e-001,-3.48042358092735e+000

5.34456268434150e+005,-3.99769203529957e-001,-3.52909054866532e+000

5.41916999912011e+005,-3.99741458322213e-001,-3.57843893865927e+000

