Freq.,VOut,OutRef

1.00000000000000e+004,-2.62480569293902e+001,-1.62572818855235e-001

1.01395947979003e+004,-2.62480576559865e+001,-1.64842215064681e-001

1.02811382665607e+004,-2.62480584030065e+001,-1.67143289345689e-001

1.04246576084112e+004,-2.62480591710243e+001,-1.69476483842929e-001

1.05701804056138e+004,-2.62480599606295e+001,-1.71842246873112e-001

1.07177346253629e+004,-2.62480607724294e+001,-1.74241033003041e-001

1.08673486252606e+004,-2.62480616070474e+001,-1.76673303145300e-001

1.10190511587661e+004,-2.62480624651248e+001,-1.79139524644779e-001

1.11728713807222e+004,-2.62480633473208e+001,-1.81640171364385e-001

1.13288388529580e+004,-2.62480642543132e+001,-1.84175723779883e-001

1.14869835499703e+004,-2.62480651867989e+001,-1.86746669069892e-001

1.16473358646846e+004,-2.62480661454943e+001,-1.89353501210147e-001

1.18099266142953e+004,-2.62480671311356e+001,-1.91996721070840e-001

1.19747870461893e+004,-2.62480681444803e+001,-1.94676836505638e-001

1.21419488439505e+004,-2.62480691863067e+001,-1.97394362457482e-001

1.23114441334492e+004,-2.62480702574152e+001,-2.00149821050112e-001

1.24833054890161e+004,-2.62480713586287e+001,-2.02943741693241e-001

1.26575659397028e+004,-2.62480724907927e+001,-2.05776661182941e-001

1.28342589756290e+004,-2.62480736547773e+001,-2.08649123800807e-001

1.30134185544193e+004,-2.62480748514764e+001,-2.11561681423698e-001

1.31950791077289e+004,-2.62480760818092e+001,-2.14514893626313e-001

1.33792755478611e+004,-2.62480773467206e+001,-2.17509327789324e-001

1.35660432744767e+004,-2.62480786471822e+001,-2.20545559208582e-001

1.37554181813974e+004,-2.62480799841929e+001,-2.23624171202609e-001

1.39474366635040e+004,-2.62480813587795e+001,-2.26745755228195e-001

1.41421356237309e+004,-2.62480827719977e+001,-2.29910910992266e-001

1.43395524801583e+004,-2.62480842249326e+001,-2.33120246566633e-001

1.45397251732031e+004,-2.62480857187002e+001,-2.36374378502200e-001

1.47426921729110e+004,-2.62480872544477e+001,-2.39673931951348e-001

1.49484924863494e+004,-2.62480888333543e+001,-2.43019540784521e-001

1.51571656651040e+004,-2.62480904566325e+001,-2.46411847713092e-001

1.53687518128801e+004,-2.62480921255284e+001,-2.49851504412701e-001

1.55832915932100e+004,-2.62480938413240e+001,-2.53339171644674e-001

1.58008262372675e+004,-2.62480956053363e+001,-2.56875519388672e-001

1.60213975517924e+004,-2.62480974189197e+001,-2.60461226964768e-001

1.62450479271247e+004,-2.62480992834669e+001,-2.64096983165647e-001

1.64718203453514e+004,-2.62481012004089e+001,-2.67783486392355e-001

1.67017583885674e+004,-2.62481031712176e+001,-2.71521444781150e-001

1.69349062472505e+004,-2.62481051974060e+001,-2.75311576342366e-001

1.71713087287550e+004,-2.62481072805291e+001,-2.79154609100772e-001

1.74110112659224e+004,-2.62481094221864e+001,-2.83051281227223e-001

1.76540599258131e+004,-2.62481116240216e+001,-2.87002341188282e-001

1.79005014185594e+004,-2.62481138877244e+001,-2.91008547884621e-001

1.81503831063432e+004,-2.62481162150326e+001,-2.95070670794281e-001

1.84037530124975e+004,-2.62481186077320e+001,-2.99189490126164e-001

1.86606598307361e+004,-2.62481210676590e+001,-3.03365796962898e-001

1.89211529345119e+004,-2.62481235967013e+001,-3.07600393415216e-001

1.91852823865052e+004,-2.62481261967996e+001,-3.11894092775659e-001

1.94530989482457e+004,-2.62481288699489e+001,-3.16247719671479e-001

1.97246540898671e+004,-2.62481316182002e+001,-3.20662110224674e-001

1.99999999999999e+004,-2.62481344436622e+001,-3.25138112209295e-001

2.02791895958005e+004,-2.62481373485024e+001,-3.29676585216046e-001

2.05622765331213e+004,-2.62481403349493e+001,-3.34278400814155e-001

2.08493152168224e+004,-2.62481434052937e+001,-3.38944442719110e-001

2.11403608112276e+004,-2.62481465618908e+001,-3.43675606960035e-001

2.14354692507258e+004,-2.62481498071616e+001,-3.48472802052006e-001

2.17346972505211e+004,-2.62481531435952e+001,-3.53336949169114e-001

2.20381023175322e+004,-2.62481565737503e+001,-3.58268982318854e-001

2.23457427614443e+004,-2.62481601002571e+001,-3.63269848522875e-001

2.26576777059159e+004,-2.62481637258199e+001,-3.68340507994370e-001

2.29739670999406e+004,-2.62481674532184e+001,-3.73481934323051e-001

2.32946717293690e+004,-2.62481712853104e+001,-3.78695114661720e-001

2.36198532285905e+004,-2.62481752250336e+001,-3.83981049910854e-001

2.39495740923785e+004,-2.62481792754081e+001,-3.89340754911863e-001

2.42838976879009e+004,-2.62481834395385e+001,-3.94775258641577e-001

2.46228882668982e+004,-2.62481877206162e+001,-4.00285604404197e-001

2.49666109780322e+004,-2.62481921219223e+001,-4.05872850033258e-001

2.53151318794055e+004,-2.62481966468294e+001,-4.11538068091192e-001

2.56685179512580e+004,-2.62482012988045e+001,-4.17282346075293e-001

2.60268371088386e+004,-2.62482060814119e+001,-4.23106786621576e-001

2.63901582154578e+004,-2.62482109983155e+001,-4.29012507716258e-001

2.67585510957221e+004,-2.62482160532816e+001,-4.35000642909652e-001

2.71320865489533e+004,-2.62482212501821e+001,-4.41072341527876e-001

2.75108363627948e+004,-2.62482265929970e+001,-4.47228768893726e-001

2.78948733270080e+004,-2.62482320858176e+001,-4.53471106548138e-001

2.82842712474618e+004,-2.62482377328498e+001,-4.59800552474088e-001

2.86791049603164e+004,-2.62482435384169e+001,-4.66218321321967e-001

2.90794503464061e+004,-2.62482495069632e+001,-4.72725644642911e-001

2.94853843458219e+004,-2.62482556430571e+001,-4.79323771121596e-001

2.98969849726987e+004,-2.62482619513948e+001,-4.86013966810058e-001

3.03143313302078e+004,-2.62482684368035e+001,-4.92797515372937e-001

3.07375036257601e+004,-2.62482751042455e+001,-4.99675718324799e-001

3.11665831864199e+004,-2.62482819588214e+001,-5.06649895282190e-001

3.16016524745350e+004,-2.62482890057747e+001,-5.13721384207502e-001

3.20427951035848e+004,-2.62482962504950e+001,-5.20891541667014e-001

3.24900958542493e+004,-2.62483036985222e+001,-5.28161743085219e-001

3.29436406907028e+004,-2.62483113555511e+001,-5.35533383004711e-001

3.34035167771346e+004,-2.62483192274353e+001,-5.43007875350000e-001

3.38698124945009e+004,-2.62483273201918e+001,-5.50586653694778e-001

3.43426174575100e+004,-2.62483356400052e+001,-5.58271171531182e-001

3.48220225318448e+004,-2.62483441932328e+001,-5.66062902546578e-001

3.53081198516260e+004,-2.62483529864090e+001,-5.73963340897945e-001

3.58010028371187e+004,-2.62483620262504e+001,-5.81974001496298e-001

3.63007662126863e+004,-2.62483713196607e+001,-5.90096420290701e-001

3.68075060249948e+004,-2.62483808737360e+001,-5.98332154557821e-001

3.73213196614721e+004,-2.62483906957702e+001,-6.06682783193668e-001

3.78423058690237e+004,-2.62484007932598e+001,-6.15149907013158e-001

3.83705647730104e+004,-2.62484111739105e+001,-6.23735149047359e-001

3.89061978964912e+004,-2.62484218456421e+001,-6.32440154851494e-001

3.94493081797342e+004,-2.62484328165951e+001,-6.41266592811101e-001

3.99999999999998e+004,-2.62484440951361e+001,-6.50216154456735e-001

4.05583791916010e+004,-2.62484556898643e+001,-6.59290554780781e-001

4.11245530662425e+004,-2.62484676096183e+001,-6.68491532557023e-001

4.16986304336447e+004,-2.62484798634819e+001,-6.77820850668061e-001

4.22807216224550e+004,-2.62484924607915e+001,-6.87280296433672e-001

4.28709385014515e+004,-2.62485054111426e+001,-6.96871681945706e-001

4.34693945010421e+004,-2.62485187243973e+001,-7.06596844404986e-001

4.40762046350642e+004,-2.62485324106909e+001,-7.16457646466676e-001

4.46914855228886e+004,-2.62485464804404e+001,-7.26455976583593e-001

4.53153554118317e+004,-2.62485609443514e+001,-7.36593749362020e-001

4.59479341998812e+004,-2.62485758134261e+001,-7.46872905915682e-001

4.65893434587380e+004,-2.62485910989719e+001,-7.57295414226696e-001

4.72397064571810e+004,-2.62486068126088e+001,-7.67863269512450e-001

4.78991481847569e+004,-2.62486229662793e+001,-7.78578494593761e-001

4.85677953758016e+004,-2.62486395722556e+001,-7.89443140273386e-001

4.92457765337964e+004,-2.62486566431499e+001,-8.00459285710995e-001

4.99332219560642e+004,-2.62486741919227e+001,-8.11629038813117e-001

5.06302637588109e+004,-2.62486922318928e+001,-8.22954536618880e-001

5.13370359025159e+004,-2.62487107767471e+001,-8.34437945696740e-001

5.20536742176771e+004,-2.62487298405500e+001,-8.46081462542829e-001

5.27803164309155e+004,-2.62487494377541e+001,-8.57887313986930e-001

5.35171021914442e+004,-2.62487695832109e+001,-8.69857757601164e-001

5.42641730979066e+004,-2.62487902921807e+001,-8.81995082115893e-001

5.50216727255895e+004,-2.62488115803446e+001,-8.94301607839075e-001

5.57897466540159e+004,-2.62488334638153e+001,-9.06779687082272e-001

5.65685424949235e+004,-2.62488559591490e+001,-9.19431704591320e-001

5.73582099206328e+004,-2.62488790833570e+001,-9.32260077982294e-001

5.81589006928121e+004,-2.62489028539182e+001,-9.45267258183522e-001

5.89707686916437e+004,-2.62489272887918e+001,-9.58455729881779e-001

5.97939699453972e+004,-2.62489524064295e+001,-9.71828011975656e-001

6.06286626604156e+004,-2.62489782257894e+001,-9.85386658034004e-001

6.14750072515201e+004,-2.62490047663492e+001,-9.99134256758578e-001

6.23331663728396e+004,-2.62490320481201e+001,-1.01307343245360e+000

6.32033049490698e+004,-2.62490600916609e+001,-1.02720684550218e+000

6.40855902071694e+004,-2.62490889180929e+001,-1.04153719284455e+000

6.49801917084985e+004,-2.62491185491145e+001,-1.05606720846831e+000

6.58872813814055e+004,-2.62491490070166e+001,-1.07079966389829e+000

6.68070335542691e+004,-2.62491803146982e+001,-1.08573736869542e+000

6.77396249890018e+004,-2.62492124956829e+001,-1.10088317096155e+000

6.86852349150199e+004,-2.62492455741347e+001,-1.11623995785013e+000

6.96440450636895e+004,-2.62492795748753e+001,-1.13181065608147e+000

7.06162397032520e+004,-2.62493145234015e+001,-1.14759823246619e+000

7.16020056742374e+004,-2.62493504459023e+001,-1.16360569443405e+000

7.26015324253724e+004,-2.62493873692777e+001,-1.17983609056731e+000

7.36150120499896e+004,-2.62494253211569e+001,-1.19629251114285e+000

7.46426393229441e+004,-2.62494643299174e+001,-1.21297808867945e+000

7.56846117380472e+004,-2.62495044247043e+001,-1.22989599849046e+000

7.67411295460207e+004,-2.62495456354505e+001,-1.24704945924437e+000

7.78123957929823e+004,-2.62495879928969e+001,-1.26444173353026e+000

7.88986163594682e+004,-2.62496315286135e+001,-1.28207612843104e+000

7.99999999999995e+004,-2.62496762750203e+001,-1.29995599610219e+000

8.11167583832018e+004,-2.62497222654097e+001,-1.31808473435691e+000

8.22491061324848e+004,-2.62497695339682e+001,-1.33646578725935e+000

8.33972608672892e+004,-2.62498181158000e+001,-1.35510264572132e+000

8.45614432449099e+004,-2.62498680469500e+001,-1.37399884810839e+000

8.57418770029029e+004,-2.62499193644276e+001,-1.39315798085165e+000

8.69387890020841e+004,-2.62499721062313e+001,-1.41258367906554e+000

8.81524092701283e+004,-2.62500263113740e+001,-1.43227962717342e+000

8.93829710457770e+004,-2.62500820199077e+001,-1.45224955953864e+000

9.06307108236633e+004,-2.62501392729506e+001,-1.47249726110258e+000

9.18958683997622e+004,-2.62501981127131e+001,-1.49302656803112e+000

9.31786869174758e+004,-2.62502585825254e+001,-1.51384136836485e+000

9.44794129143618e+004,-2.62503207268649e+001,-1.53494560267846e+000

9.57982963695136e+004,-2.62503845913853e+001,-1.55634326474689e+000

9.71355907516031e+004,-2.62504502229449e+001,-1.57803840221511e+000

9.84915530675926e+004,-2.62505176696366e+001,-1.60003511728009e+000

9.98664439121282e+004,-2.62505869808182e+001,-1.62233756737472e+000

1.01260527517622e+005,-2.62506582071429e+001,-1.64494996586061e+000

1.02674071805032e+005,-2.62507314005911e+001,-1.66787658272927e+000

1.04107348435354e+005,-2.62508066145024e+001,-1.69112174530636e+000

1.05560632861831e+005,-2.62508839036079e+001,-1.71468983896710e+000

1.07034204382888e+005,-2.62509633240642e+001,-1.73858530785501e+000

1.08528346195813e+005,-2.62510449334870e+001,-1.76281265561014e+000

1.10043345451179e+005,-2.62511287909856e+001,-1.78737644610276e+000

1.11579493308032e+005,-2.62512149571987e+001,-1.81228130417376e+000

1.13137084989847e+005,-2.62513034943296e+001,-1.83753191638474e+000

1.14716419841265e+005,-2.62513944661834e+001,-1.86313303177028e+000

1.16317801385624e+005,-2.62514879382036e+001,-1.88908946260164e+000

1.17941537383287e+005,-2.62515839775107e+001,-1.91540608515457e+000

1.19587939890794e+005,-2.62516826529399e+001,-1.94208784048586e+000

1.21257325320831e+005,-2.62517840350806e+001,-1.96913973521619e+000

1.22950014503040e+005,-2.62518881963166e+001,-1.99656684231847e+000

1.24666332745679e+005,-2.62519952108655e+001,-2.02437430191647e+000

1.26406609898139e+005,-2.62521051548209e+001,-2.05256732208657e+000

1.28171180414339e+005,-2.62522181061934e+001,-2.08115117967030e+000

1.29960383416997e+005,-2.62523341449529e+001,-2.11013122109061e+000

1.31774562762811e+005,-2.62524533530719e+001,-2.13951286317737e+000

1.33614067108538e+005,-2.62525758145688e+001,-2.16930159399838e+000

1.35479249978003e+005,-2.62527016155522e+001,-2.19950297369886e+000

1.37370469830040e+005,-2.62528308442652e+001,-2.23012263534698e+000

1.39288090127379e+005,-2.62529635911313e+001,-2.26116628578658e+000

1.41232479406504e+005,-2.62530999487999e+001,-2.29263970649751e+000

1.43204011348474e+005,-2.62532400121928e+001,-2.32454875446250e+000

1.45203064850745e+005,-2.62533838785512e+001,-2.35689936304204e+000

1.47230024099979e+005,-2.62535316474828e+001,-2.38969754285543e+000

1.49285278645888e+005,-2.62536834210106e+001,-2.42294938266985e+000

1.51369223476094e+005,-2.62538393036204e+001,-2.45666105029653e+000

1.53482259092041e+005,-2.62539994023103e+001,-2.49083879349447e+000

1.55624791585964e+005,-2.62541638266396e+001,-2.52548894088184e+000

1.57797232718936e+005,-2.62543326887791e+001,-2.56061790285305e+000

1.59999999999999e+005,-2.62545061035603e+001,-2.59623217250822e+000

1.62233516766403e+005,-2.62546841885271e+001,-2.63233832658337e+000

1.64498212264969e+005,-2.62548670639852e+001,-2.66894302639571e+000

1.66794521734578e+005,-2.62550548530543e+001,-2.70605301879136e+000

1.69122886489819e+005,-2.62552476817189e+001,-2.74367513710457e+000

1.71483754005805e+005,-2.62554456788796e+001,-2.78181630212430e+000

1.73877578004168e+005,-2.62556489764055e+001,-2.82048352306818e+000

1.76304818540256e+005,-2.62558577091854e+001,-2.85968389856775e+000

1.78765942091554e+005,-2.62560720151804e+001,-2.89942461765947e+000

1.81261421647326e+005,-2.62562920354753e+001,-2.93971296078788e+000

1.83791736799524e+005,-2.62565179143310e+001,-2.98055630081578e+000

1.86357373834951e+005,-2.62567497992369e+001,-3.02196210404628e+000

1.88958825828723e+005,-2.62569878409620e+001,-3.06393793125269e+000

1.91596592739027e+005,-2.62572321936076e+001,-3.10649143872109e+000

1.94271181503206e+005,-2.62574830146585e+001,-3.14963037930213e+000

1.96983106135185e+005,-2.62577404650347e+001,-3.19336260347402e+000

1.99732887824256e+005,-2.62580047091427e+001,-3.23769606041805e+000

2.02521055035243e+005,-2.62582759149260e+001,-3.28263879910570e+000

2.05348143610063e+005,-2.62585542539164e+001,-3.32819896939863e+000

2.08214696870707e+005,-2.62588399012834e+001,-3.37438482316044e+000

2.11121265723661e+005,-2.62591330358844e+001,-3.42120471538480e+000

2.14068408765776e+005,-2.62594338403138e+001,-3.46866710533533e+000

2.17056692391625e+005,-2.62597425009514e+001,-3.51678055770230e+000

2.20086690902357e+005,-2.62600592080108e+001,-3.56555374377424e+000

2.23158986616063e+005,-2.62603841555865e+001,-3.61499544262602e+000

2.26274169979693e+005,-2.62607175417007e+001,-3.66511454232537e+000

2.29432839682530e+005,-2.62610595683492e+001,-3.71592004115578e+000

2.32635602771247e+005,-2.62614104415467e+001,-3.76742104886100e+000

2.35883074766574e+005,-2.62617703713711e+001,-3.81962678790689e+000

2.39175879781588e+005,-2.62621395720069e+001,-3.87254659476683e+000

2.42514650641661e+005,-2.62625182617879e+001,-3.92618992122757e+000

2.45900029006080e+005,-2.62629066632390e+001,-3.98056633572051e+000

2.49332665491357e+005,-2.62633050031171e+001,-4.03568552467530e+000

2.52813219796278e+005,-2.62637135124508e+001,-4.09155729390047e+000

2.56342360828676e+005,-2.62641324265795e+001,-4.14819156999244e+000

2.59920766833993e+005,-2.62645619851913e+001,-4.20559840177041e+000

2.63549125525621e+005,-2.62650024323604e+001,-4.26378796174352e+000

2.67228134217075e+005,-2.62654540165829e+001,-4.32277054760912e+000

2.70958499956006e+005,-2.62659169908127e+001,-4.38255658378338e+000

2.74740939660078e+005,-2.62663916124953e+001,-4.44315662296761e+000

2.78576180254757e+005,-2.62668781436022e+001,-4.50458134775074e+000

2.82464958813007e+005,-2.62673768506638e+001,-4.56684157224962e+000

2.86408022696948e+005,-2.62678880048016e+001,-4.62994824379022e+000

2.90406129701488e+005,-2.62684118817602e+001,-4.69391244462956e+000

2.94460048199957e+005,-2.62689487619389e+001,-4.75874539372253e+000

2.98570557291775e+005,-2.62694989304229e+001,-4.82445844853406e+000

3.02738446952187e+005,-2.62700626770140e+001,-4.89106310689903e+000

3.06964518184081e+005,-2.62706402962622e+001,-4.95857100893156e+000

3.11249583171928e+005,-2.62712320874965e+001,-5.02699393898683e+000

3.15594465437872e+005,-2.62718383548570e+001,-5.09634382767653e+000

3.19999999999997e+005,-2.62724594073268e+001,-5.16663275394053e+000

3.24467033532806e+005,-2.62730955587657e+001,-5.23787294717643e+000

3.28996424529938e+005,-2.62737471279441e+001,-5.31007678943002e+000

3.33589043469155e+005,-2.62744144385796e+001,-5.38325681764707e+000

3.38245772979638e+005,-2.62750978193737e+001,-5.45742572599125e+000

3.42967508011610e+005,-2.62757976040525e+001,-5.53259636822711e+000

3.47755156008335e+005,-2.62765141314087e+001,-5.60878176017336e+000

3.52609637080511e+005,-2.62772477453468e+001,-5.68599508222560e+000

3.57531884183106e+005,-2.62779987949320e+001,-5.76424968195191e+000

3.62522843294651e+005,-2.62787676344425e+001,-5.84355907676402e+000

3.67583473599047e+005,-2.62795546234266e+001,-5.92393695666354e+000

3.72714747669902e+005,-2.62803601267646e+001,-6.00539718706722e+000

3.77917651657445e+005,-2.62811845147353e+001,-6.08795381171106e+000

3.83193185478053e+005,-2.62820281630899e+001,-6.17162105563617e+000

3.88542363006410e+005,-2.62828914531315e+001,-6.25641332825681e+000

3.93966212270369e+005,-2.62837747718022e+001,-6.34234522651242e+000

3.99465775648511e+005,-2.62846785117782e+001,-6.42943153810295e+000

4.05042110070485e+005,-2.62856030715733e+001,-6.51768724481111e+000

4.10696287220124e+005,-2.62865488556521e+001,-6.60712752590941e+000

4.16429393741414e+005,-2.62875162745533e+001,-6.69776776165428e+000

4.22242531447321e+005,-2.62885057450235e+001,-6.78962353686562e+000

4.28136817531551e+005,-2.62895176901631e+001,-6.88271064459379e+000

4.34113384783250e+005,-2.62905525395845e+001,-6.97704508987109e+000

4.40173381804713e+005,-2.62916107295841e+001,-7.07264309354934e+000

4.46317973232124e+005,-2.62926927033277e+001,-7.16952109622084e+000

4.52548339959385e+005,-2.62937989110519e+001,-7.26769576222213e+000

4.58865679365059e+005,-2.62949298102805e+001,-7.36718398371904e+000

4.65271205542494e+005,-2.62960858660590e+001,-7.46800288487082e+000

4.71766149533147e+005,-2.62972675512052e+001,-7.57016982606996e+000

4.78351759563174e+005,-2.62984753465803e+001,-7.67370240825696e+000

4.85029301283321e+005,-2.62997097413776e+001,-7.77861847730481e+000

4.91800058012158e+005,-2.63009712334335e+001,-7.88493612847179e+000

4.98665330982714e+005,-2.63022603295582e+001,-7.99267371091578e+000

5.05626439592555e+005,-2.63035775458894e+001,-8.10184983227033e+000

5.12684721657352e+005,-2.63049234082687e+001,-8.21248336327167e+000

5.19841533667984e+005,-2.63062984526419e+001,-8.32459344243816e+000

5.27098251051240e+005,-2.63077032254840e+001,-8.43819948079146e+000

5.34456268434150e+005,-2.63091382842491e+001,-8.55332116661652e+000

5.41916999912011e+005,-2.63106041978468e+001,-8.66997847025352e+000

