Freq.,VOut,OutRef

1.00000000000000e+004,-2.46731923089965e+001,-1.89774768843501e-001

1.01395947979003e+004,-2.46731932091718e+001,-1.92423882963699e-001

1.02811382665607e+004,-2.46731941346500e+001,-1.95109975516131e-001

1.04246576084112e+004,-2.46731950861422e+001,-1.97833562623482e-001

1.05701804056138e+004,-2.46731960643796e+001,-2.00595167609395e-001

1.07177346253629e+004,-2.46731970701139e+001,-2.03395321098557e-001

1.08673486252606e+004,-2.46731981041177e+001,-2.06234561122138e-001

1.10190511587661e+004,-2.46731991671854e+001,-2.09113433215707e-001

1.11728713807222e+004,-2.46732002601339e+001,-2.12032490526531e-001

1.13288388529580e+004,-2.46732013838029e+001,-2.14992293920601e-001

1.14869835499703e+004,-2.46732025390556e+001,-2.17993412089196e-001

1.16473358646846e+004,-2.46732037267797e+001,-2.21036421655884e-001

1.18099266142953e+004,-2.46732049478875e+001,-2.24121907291011e-001

1.19747870461893e+004,-2.46732062033174e+001,-2.27250461820104e-001

1.21419488439505e+004,-2.46732074940335e+001,-2.30422686342662e-001

1.23114441334492e+004,-2.46732088210276e+001,-2.33639190339235e-001

1.24833054890161e+004,-2.46732101853191e+001,-2.36900591796465e-001

1.26575659397028e+004,-2.46732115879557e+001,-2.40207517321681e-001

1.28342589756290e+004,-2.46732130300153e+001,-2.43560602261398e-001

1.30134185544193e+004,-2.46732145126052e+001,-2.46960490828509e-001

1.31950791077289e+004,-2.46732160368646e+001,-2.50407836218606e-001

1.33792755478611e+004,-2.46732176039641e+001,-2.53903300741771e-001

1.35660432744767e+004,-2.46732192151075e+001,-2.57447555944515e-001

1.37554181813974e+004,-2.46732208715319e+001,-2.61041282744561e-001

1.39474366635040e+004,-2.46732225745102e+001,-2.64685171550551e-001

1.41421356237309e+004,-2.46732243253497e+001,-2.68379922408228e-001

1.43395524801583e+004,-2.46732261253954e+001,-2.72126245122608e-001

1.45397251732031e+004,-2.46732279760297e+001,-2.75924859400015e-001

1.47426921729110e+004,-2.46732298786739e+001,-2.79776494985149e-001

1.49484924863494e+004,-2.46732318347888e+001,-2.83681891800589e-001

1.51571656651040e+004,-2.46732338458769e+001,-2.87641800086547e-001

1.53687518128801e+004,-2.46732359134824e+001,-2.91656980547933e-001

1.55832915932100e+004,-2.46732380391931e+001,-2.95728204496216e-001

1.58008262372675e+004,-2.46732402246409e+001,-2.99856254001933e-001

1.60213975517924e+004,-2.46732424715041e+001,-3.04041922038259e-001

1.62450479271247e+004,-2.46732447815077e+001,-3.08286012638355e-001

1.64718203453514e+004,-2.46732471564255e+001,-3.12589341045116e-001

1.67017583885674e+004,-2.46732495980806e+001,-3.16952733870466e-001

1.69349062472505e+004,-2.46732521083476e+001,-3.21377029250578e-001

1.71713087287550e+004,-2.46732546891536e+001,-3.25863077008813e-001

1.74110112659224e+004,-2.46732573424796e+001,-3.30411738815953e-001

1.76540599258131e+004,-2.46732600703626e+001,-3.35023888355982e-001

1.79005014185594e+004,-2.46732628748964e+001,-3.39700411494071e-001

1.81503831063432e+004,-2.46732657582336e+001,-3.44442206444685e-001

1.84037530124975e+004,-2.46732687225872e+001,-3.49250183942926e-001

1.86606598307361e+004,-2.46732717702325e+001,-3.54125267419250e-001

1.89211529345119e+004,-2.46732749035082e+001,-3.59068393177446e-001

1.91852823865052e+004,-2.46732781248190e+001,-3.64080510570551e-001

1.94530989482457e+004,-2.46732814366367e+001,-3.69162582184760e-001

1.97246540898671e+004,-2.46732848415027e+001,-3.74315584020435e-001

1.99999999999999e+004,-2.46732883420295e+001,-3.79540505682303e-001

2.02791895958005e+004,-2.46732919409030e+001,-3.84838350565326e-001

2.05622765331213e+004,-2.46732956408842e+001,-3.90210136046943e-001

2.08493152168224e+004,-2.46732994448116e+001,-3.95656893683298e-001

2.11403608112276e+004,-2.46733033556034e+001,-4.01179669401119e-001

2.14354692507258e+004,-2.46733073762594e+001,-4.06779523704078e-001

2.17346972505211e+004,-2.46733115098636e+001,-4.12457531869236e-001

2.20381023175322e+004,-2.46733157595863e+001,-4.18214784155492e-001

2.23457427614443e+004,-2.46733201286870e+001,-4.24052386008493e-001

2.26576777059159e+004,-2.46733246205160e+001,-4.29971458276116e-001

2.29739670999406e+004,-2.46733292385180e+001,-4.35973137415854e-001

2.32946717293690e+004,-2.46733339862338e+001,-4.42058575717202e-001

2.36198532285905e+004,-2.46733388673036e+001,-4.48228941517851e-001

2.39495740923785e+004,-2.46733438854696e+001,-4.54485419425855e-001

2.42838976879009e+004,-2.46733490445785e+001,-4.60829210548066e-001

2.46228882668982e+004,-2.46733543485852e+001,-4.67261532714987e-001

2.49666109780322e+004,-2.46733598015550e+001,-4.73783620714973e-001

2.53151318794055e+004,-2.46733654076671e+001,-4.80396726530446e-001

2.56685179512580e+004,-2.46733711712178e+001,-4.87102119571253e-001

2.60268371088386e+004,-2.46733770966235e+001,-4.93901086920566e-001

2.63901582154578e+004,-2.46733831884244e+001,-5.00794933577356e-001

2.67585510957221e+004,-2.46733894512875e+001,-5.07784982705568e-001

2.71320865489533e+004,-2.46733958900106e+001,-5.14872575884084e-001

2.75108363627948e+004,-2.46734025095258e+001,-5.22059073361484e-001

2.78948733270080e+004,-2.46734093149028e+001,-5.29345854316290e-001

2.82842712474618e+004,-2.46734163113535e+001,-5.36734317116235e-001

2.86791049603164e+004,-2.46734235042355e+001,-5.44225879584746e-001

2.90794503464061e+004,-2.46734308990558e+001,-5.51821979270090e-001

2.94853843458219e+004,-2.46734385014760e+001,-5.59524073716600e-001

2.98969849726987e+004,-2.46734463173154e+001,-5.67333640742405e-001

3.03143313302078e+004,-2.46734543525563e+001,-5.75252178717694e-001

3.07375036257601e+004,-2.46734626133480e+001,-5.83281206849968e-001

3.11665831864199e+004,-2.46734711060117e+001,-5.91422265469867e-001

3.16016524745350e+004,-2.46734798370450e+001,-5.99676916325497e-001

3.20427951035848e+004,-2.46734888131272e+001,-6.08046742873416e-001

3.24900958542493e+004,-2.46734980411241e+001,-6.16533350580862e-001

3.29436406907028e+004,-2.46735075280931e+001,-6.25138367229313e-001

3.34035167771346e+004,-2.46735172812884e+001,-6.33863443220427e-001

3.38698124945009e+004,-2.46735273081671e+001,-6.42710251887056e-001

3.43426174575100e+004,-2.46735376163939e+001,-6.51680489811354e-001

3.48220225318448e+004,-2.46735482138478e+001,-6.60775877142083e-001

3.53081198516260e+004,-2.46735591086270e+001,-6.69998157920356e-001

3.58010028371187e+004,-2.46735703090561e+001,-6.79349100406982e-001

3.63007662126863e+004,-2.46735818236913e+001,-6.88830497415480e-001

3.68075060249948e+004,-2.46735936613274e+001,-6.98444166651267e-001

3.73213196614721e+004,-2.46736058310045e+001,-7.08191951049916e-001

3.78423058690237e+004,-2.46736183420141e+001,-7.18075719126180e-001

3.83705647730104e+004,-2.46736312039068e+001,-7.28097365324395e-001

3.89061978964912e+004,-2.46736444264991e+001,-7.38258810372055e-001

3.94493081797342e+004,-2.46736580198805e+001,-7.48562001642983e-001

3.99999999999998e+004,-2.46736719944215e+001,-7.59008913519776e-001

4.05583791916010e+004,-2.46736863607811e+001,-7.69601547764797e-001

4.11245530662425e+004,-2.46737011299145e+001,-7.80341933895028e-001

4.16986304336447e+004,-2.46737163130818e+001,-7.91232129559313e-001

4.22807216224550e+004,-2.46737319218557e+001,-8.02274220926750e-001

4.28709385014515e+004,-2.46737479681308e+001,-8.13470323072289e-001

4.34693945010421e+004,-2.46737644641319e+001,-8.24822580373666e-001

4.40762046350642e+004,-2.46737814224233e+001,-8.36333166910036e-001

4.46914855228886e+004,-2.46737988559180e+001,-8.48004286867957e-001

4.53153554118317e+004,-2.46738167778872e+001,-8.59838174950665e-001

4.59479341998812e+004,-2.46738352019705e+001,-8.71837096793153e-001

4.65893434587380e+004,-2.46738541421853e+001,-8.84003349384652e-001

4.72397064571810e+004,-2.46738736129377e+001,-8.96339261492993e-001

4.78991481847569e+004,-2.46738936290330e+001,-9.08847194097934e-001

4.85677953758016e+004,-2.46739142056861e+001,-9.21529540827878e-001

4.92457765337964e+004,-2.46739353585335e+001,-9.34388728401513e-001

4.99332219560642e+004,-2.46739571036444e+001,-9.47427217078172e-001

5.06302637588109e+004,-2.46739794575317e+001,-9.60647501112917e-001

5.13370359025159e+004,-2.46740024371657e+001,-9.74052109212187e-001

5.20536742176771e+004,-2.46740260599849e+001,-9.87643605004615e-001

5.27803164309155e+004,-2.46740503439097e+001,-1.00142458751072e+000

5.35171021914442e+004,-2.46740753073554e+001,-1.01539769161886e+000

5.42641730979066e+004,-2.46741009692448e+001,-1.02956558857291e+000

5.50216727255895e+004,-2.46741273490228e+001,-1.04393098645785e+000

5.57897466540159e+004,-2.46741544666703e+001,-1.05849663069845e+000

5.65685424949235e+004,-2.46741823427185e+001,-1.07326530456023e+000

5.73582099206328e+004,-2.46742109982636e+001,-1.08823982965820e+000

5.81589006928121e+004,-2.46742404549823e+001,-1.10342306647070e+000

5.89707686916437e+004,-2.46742707351474e+001,-1.11881791486081e+000

5.97939699453972e+004,-2.46743018616436e+001,-1.13442731460378e+000

6.06286626604156e+004,-2.46743338579842e+001,-1.15025424592058e+000

6.14750072515201e+004,-2.46743667483277e+001,-1.16630173001783e+000

6.23331663728396e+004,-2.46744005574949e+001,-1.18257282963565e+000

6.32033049490698e+004,-2.46744353109871e+001,-1.19907064960051e+000

6.40855902071694e+004,-2.46744710350040e+001,-1.21579833738461e+000

6.49801917084985e+004,-2.46745077564618e+001,-1.23275908367432e+000

6.58872813814055e+004,-2.46745455030133e+001,-1.24995612294276e+000

6.68070335542691e+004,-2.46745843030665e+001,-1.26739273403035e+000

6.77396249890018e+004,-2.46746241858051e+001,-1.28507224073281e+000

6.86852349150199e+004,-2.46746651812089e+001,-1.30299801239457e+000

6.96440450636895e+004,-2.46747073200747e+001,-1.32117346451115e+000

7.06162397032520e+004,-2.46747506340382e+001,-1.33960205933649e+000

7.16020056742374e+004,-2.46747951555956e+001,-1.35828730649886e+000

7.26015324253724e+004,-2.46748409181267e+001,-1.37723276362254e+000

7.36150120499896e+004,-2.46748879559176e+001,-1.39644203695937e+000

7.46426393229441e+004,-2.46749363041848e+001,-1.41591878202379e+000

7.56846117380472e+004,-2.46749859990991e+001,-1.43566670423811e+000

7.67411295460207e+004,-2.46750370778109e+001,-1.45568955958318e+000

7.78123957929823e+004,-2.46750895784754e+001,-1.47599115525772e+000

7.88986163594682e+004,-2.46751435402785e+001,-1.49657535034470e+000

7.99999999999995e+004,-2.46751990034639e+001,-1.51744605648465e+000

8.11167583832018e+004,-2.46752560093601e+001,-1.53860723855668e+000

8.22491061324848e+004,-2.46753146004085e+001,-1.56006291536720e+000

8.33972608672892e+004,-2.46753748201918e+001,-1.58181716034554e+000

8.45614432449099e+004,-2.46754367134634e+001,-1.60387410224888e+000

8.57418770029029e+004,-2.46755003261773e+001,-1.62623792587159e+000

8.69387890020841e+004,-2.46755657055187e+001,-1.64891287276640e+000

8.81524092701283e+004,-2.46756328999351e+001,-1.67190324196810e+000

8.93829710457770e+004,-2.46757019591686e+001,-1.69521339073117e+000

9.06307108236633e+004,-2.46757729342882e+001,-1.71884773526843e+000

9.18958683997622e+004,-2.46758458777237e+001,-1.74281075150204e+000

9.31786869174758e+004,-2.46759208432995e+001,-1.76710697582193e+000

9.44794129143618e+004,-2.46759978862694e+001,-1.79174100584876e+000

9.57982963695136e+004,-2.46760770633528e+001,-1.81671750120842e+000

9.71355907516031e+004,-2.46761584327704e+001,-1.84204118431152e+000

9.84915530675926e+004,-2.46762420542819e+001,-1.86771684114371e+000

9.98664439121282e+004,-2.46763279892237e+001,-1.89374932205960e+000

1.01260527517622e+005,-2.46764163005478e+001,-1.92014354258934e+000

1.02674071805032e+005,-2.46765070528611e+001,-1.94690448424790e+000

1.04107348435354e+005,-2.46766003124661e+001,-1.97403719535797e+000

1.05560632861831e+005,-2.46766961474016e+001,-2.00154679187545e+000

1.07034204382888e+005,-2.46767946274852e+001,-2.02943845822518e+000

1.08528346195813e+005,-2.46768958243557e+001,-2.05771744814534e+000

1.10043345451179e+005,-2.46769998115169e+001,-2.08638908553835e+000

1.11579493308032e+005,-2.46771066643820e+001,-2.11545876532934e+000

1.13137084989847e+005,-2.46772164603189e+001,-2.14493195433399e+000

1.14716419841265e+005,-2.46773292786964e+001,-2.17481419213294e+000

1.16317801385624e+005,-2.46774452009313e+001,-2.20511109195411e+000

1.17941537383287e+005,-2.46775643105359e+001,-2.23582834156447e+000

1.19587939890794e+005,-2.46776866931672e+001,-2.26697170416696e+000

1.21257325320831e+005,-2.46778124366759e+001,-2.29854701930767e+000

1.22950014503040e+005,-2.46779416311573e+001,-2.33056020378986e+000

1.24666332745679e+005,-2.46780743690020e+001,-2.36301725259522e+000

1.26406609898139e+005,-2.46782107449487e+001,-2.39592423981436e+000

1.28171180414339e+005,-2.46783508561366e+001,-2.42928731958412e+000

1.29960383416997e+005,-2.46784948021592e+001,-2.46311272703248e+000

1.31774562762811e+005,-2.46786426851192e+001,-2.49740677923276e+000

1.33614067108538e+005,-2.46787946096839e+001,-2.53217587616329e+000

1.35479249978003e+005,-2.46789506831411e+001,-2.56742650167813e+000

1.37370469830040e+005,-2.46791110154565e+001,-2.60316522448182e+000

1.39288090127379e+005,-2.46792757193318e+001,-2.63939869911545e+000

1.41232479406504e+005,-2.46794449102626e+001,-2.67613366694821e+000

1.43204011348474e+005,-2.46796187065986e+001,-2.71337695717852e+000

1.45203064850745e+005,-2.46797972296032e+001,-2.75113548784159e+000

1.47230024099979e+005,-2.46799806035150e+001,-2.78941626682585e+000

1.49285278645888e+005,-2.46801689556087e+001,-2.82822639289765e+000

1.51369223476094e+005,-2.46803624162583e+001,-2.86757305673271e+000

1.53482259092041e+005,-2.46805611189993e+001,-2.90746354195720e+000

1.55624791585964e+005,-2.46807652005930e+001,-2.94790522619567e+000

1.57797232718936e+005,-2.46809748010904e+001,-2.98890558212873e+000

1.59999999999999e+005,-2.46811900638974e+001,-3.03047217855715e+000

1.62233516766403e+005,-2.46814111358398e+001,-3.07261268147609e+000

1.64498212264969e+005,-2.46816381672298e+001,-3.11533485515706e+000

1.66794521734578e+005,-2.46818713119326e+001,-3.15864656323824e+000

1.69122886489819e+005,-2.46821107274326e+001,-3.20255576982515e+000

1.71483754005805e+005,-2.46823565749017e+001,-3.24707054059869e+000

1.73877578004168e+005,-2.46826090192666e+001,-3.29219904393263e+000

1.76304818540256e+005,-2.46828682292772e+001,-3.33794955202195e+000

1.78765942091554e+005,-2.46831343775749e+001,-3.38433044201882e+000

1.81261421647326e+005,-2.46834076407616e+001,-3.43135019717910e+000

1.83791736799524e+005,-2.46836881994684e+001,-3.47901740802096e+000

1.86357373834951e+005,-2.46839762384251e+001,-3.52734077349031e+000

1.88958825828723e+005,-2.46842719465289e+001,-3.57632910214086e+000

1.91596592739027e+005,-2.46845755169144e+001,-3.62599131332178e+000

1.94271181503206e+005,-2.46848871470229e+001,-3.67633643838034e+000

1.96983106135185e+005,-2.46852070386711e+001,-3.72737362187421e+000

1.99732887824256e+005,-2.46855353981215e+001,-3.77911212279699e+000

2.02521055035243e+005,-2.46858724361503e+001,-3.83156131581764e+000

2.05348143610063e+005,-2.46862183681177e+001,-3.88473069253127e+000

2.08214696870707e+005,-2.46865734140355e+001,-3.93862986272709e+000

2.11121265723661e+005,-2.46869377986363e+001,-3.99326855566858e+000

2.14068408765776e+005,-2.46873117514412e+001,-4.04865662139093e+000

2.17056692391625e+005,-2.46876955068280e+001,-4.10480403201342e+000

2.20086690902357e+005,-2.46880893040980e+001,-4.16172088307008e+000

2.23158986616063e+005,-2.46884933875429e+001,-4.21941739485772e+000

2.26274169979693e+005,-2.46889080065116e+001,-4.27790391380224e+000

2.29432839682530e+005,-2.46893334154750e+001,-4.33719091384612e+000

2.32635602771247e+005,-2.46897698740918e+001,-4.39728899785495e+000

2.35883074766574e+005,-2.46902176472726e+001,-4.45820889904819e+000

2.39175879781588e+005,-2.46906770052438e+001,-4.51996148245018e+000

2.42514650641661e+005,-2.46911482236102e+001,-4.58255774636747e+000

2.45900029006080e+005,-2.46916315834180e+001,-4.64600882389146e+000

2.49332665491357e+005,-2.46921273712156e+001,-4.71032598442721e+000

2.52813219796278e+005,-2.46926358791150e+001,-4.77552063525125e+000

2.56342360828676e+005,-2.46931574048514e+001,-4.84160432309819e+000

2.59920766833993e+005,-2.46936922518428e+001,-4.90858873578038e+000

2.63549125525621e+005,-2.46942407292483e+001,-4.97648570383905e+000

2.67228134217075e+005,-2.46948031520263e+001,-5.04530720223052e+000

2.70958499956006e+005,-2.46953798409915e+001,-5.11506535204952e+000

2.74740939660078e+005,-2.46959711228718e+001,-5.18577242228960e+000

2.78576180254757e+005,-2.46965773303642e+001,-5.25744083164497e+000

2.82464958813007e+005,-2.46971988021906e+001,-5.33008315035343e+000

2.86408022696948e+005,-2.46978358831535e+001,-5.40371210208362e+000

2.90406129701488e+005,-2.46984889241907e+001,-5.47834056586947e+000

2.94460048199957e+005,-2.46991582824309e+001,-5.55398157809097e+000

2.98570557291775e+005,-2.46998443212485e+001,-5.63064833450800e+000

3.02738446952187e+005,-2.47005474103198e+001,-5.70835419234444e+000

3.06964518184081e+005,-2.47012679256781e+001,-5.78711267242929e+000

3.11249583171928e+005,-2.47020062497710e+001,-5.86693746139319e+000

3.15594465437872e+005,-2.47027627715179e+001,-5.94784241392668e+000

3.19999999999997e+005,-2.47035378863691e+001,-6.02984155509840e+000

3.24467033532806e+005,-2.47043319963658e+001,-6.11294908273875e+000

3.28996424529938e+005,-2.47051455102028e+001,-6.19717936989009e+000

3.33589043469155e+005,-2.47059788432928e+001,-6.28254696732572e+000

3.38245772979638e+005,-2.47068324178339e+001,-6.36906660613993e+000

3.42967508011610e+005,-2.47077066628794e+001,-6.45675320041174e+000

3.47755156008335e+005,-2.47086020144120e+001,-6.54562184994570e+000

3.52609637080511e+005,-2.47095189154212e+001,-6.63568784308773e+000

3.57531884183106e+005,-2.47104578159857e+001,-6.72696665962462e+000

3.62522843294651e+005,-2.47114191733609e+001,-6.81947397376288e+000

3.67583473599047e+005,-2.47124034520716e+001,-6.91322565719266e+000

3.72714747669902e+005,-2.47134111240117e+001,-7.00823778223722e+000

3.77917651657445e+005,-2.47144426685500e+001,-7.10452662509055e+000

3.83193185478053e+005,-2.47154985726447e+001,-7.20210866914204e+000

3.88542363006410e+005,-2.47165793309654e+001,-7.30100060839311e+000

3.93966212270369e+005,-2.47176854460243e+001,-7.40121935096429e+000

3.99465775648511e+005,-2.47188174283183e+001,-7.50278202269402e+000

4.05042110070485e+005,-2.47199757964806e+001,-7.60570597083128e+000

4.10696287220124e+005,-2.47211610774446e+001,-7.71000876781990e+000

4.16429393741414e+005,-2.47223738066205e+001,-7.81570821517777e+000

4.22242531447321e+005,-2.47236145280848e+001,-7.92282234746746e+000

4.28136817531551e+005,-2.47248837947844e+001,-8.03136943636057e+000

4.34113384783250e+005,-2.47261821687565e+001,-8.14136799479290e+000

4.40173381804713e+005,-2.47275102213639e+001,-8.25283678121064e+000

4.46317973232124e+005,-2.47288685335485e+001,-8.36579480390555e+000

4.52548339959385e+005,-2.47302576961024e+001,-8.48026132543629e+000

4.58865679365059e+005,-2.47316783099595e+001,-8.59625586713479e+000

4.65271205542494e+005,-2.47331309865059e+001,-8.71379821369495e+000

4.71766149533147e+005,-2.47346163479134e+001,-8.83290841783837e+000

4.78351759563174e+005,-2.47361350274940e+001,-8.95360680505673e+000

4.85029301283321e+005,-2.47376876700796e+001,-9.07591397842322e+000

4.91800058012158e+005,-2.47392749324245e+001,-9.19985082347122e+000

4.98665330982714e+005,-2.47408974836349e+001,-9.32543851313379e+000

5.05626439592555e+005,-2.47425560056240e+001,-9.45269851273840e+000

5.12684721657352e+005,-2.47442511935954e+001,-9.58165258505095e+000

5.19841533667984e+005,-2.47459837565543e+001,-9.71232279536396e+000

5.27098251051240e+005,-2.47477544178486e+001,-9.84473151662017e+000

5.34456268434150e+005,-2.47495639157399e+001,-9.97890143456402e+000

5.41916999912011e+005,-2.47514130040061e+001,-1.01148555529159e+001

