Freq.,VOut,OutRef

1.00000000000000e+004,-1.71550254130495e+001,-2.18025410496073e-001

1.01395947979003e+004,-1.71550261336383e+001,-2.21068895616187e-001

1.02811382665607e+004,-1.71550268744818e+001,-2.24154864669255e-001

1.04246576084112e+004,-1.71550276361493e+001,-2.27283910643344e-001

1.05701804056138e+004,-1.71550284192261e+001,-2.30456634801359e-001

1.07177346253629e+004,-1.71550292243137e+001,-2.33673646797813e-001

1.08673486252606e+004,-1.71550300520306e+001,-2.36935564793858e-001

1.10190511587661e+004,-1.71550309030131e+001,-2.40243015576142e-001

1.11728713807222e+004,-1.71550317779146e+001,-2.43596634679475e-001

1.13288388529580e+004,-1.71550326774076e+001,-2.46997066504508e-001

1.14869835499703e+004,-1.71550336021829e+001,-2.50444964446790e-001

1.16473358646846e+004,-1.71550345529510e+001,-2.53940991016328e-001

1.18099266142953e+004,-1.71550355304424e+001,-2.57485817969628e-001

1.19747870461893e+004,-1.71550365354080e+001,-2.61080126435452e-001

1.21419488439505e+004,-1.71550375686196e+001,-2.64724607047897e-001

1.23114441334492e+004,-1.71550386308712e+001,-2.68419960075360e-001

1.24833054890161e+004,-1.71550397229786e+001,-2.72166895559362e-001

1.26575659397028e+004,-1.71550408457807e+001,-2.75966133446965e-001

1.28342589756290e+004,-1.71550420001401e+001,-2.79818403729967e-001

1.30134185544193e+004,-1.71550431869434e+001,-2.83724446587616e-001

1.31950791077289e+004,-1.71550444071021e+001,-2.87685012524471e-001

1.33792755478611e+004,-1.71550456615535e+001,-2.91700862516183e-001

1.35660432744767e+004,-1.71550469512609e+001,-2.95772768155761e-001

1.37554181813974e+004,-1.71550482772151e+001,-2.99901511801334e-001

1.39474366635040e+004,-1.71550496404343e+001,-3.04087886726027e-001

1.41421356237309e+004,-1.71550510419653e+001,-3.08332697269537e-001

1.43395524801583e+004,-1.71550524828847e+001,-3.12636758993253e-001

1.45397251732031e+004,-1.71550539642989e+001,-3.17000898835317e-001

1.47426921729110e+004,-1.71550554873456e+001,-3.21425955271200e-001

1.49484924863494e+004,-1.71550570531943e+001,-3.25912778472632e-001

1.51571656651040e+004,-1.71550586630475e+001,-3.30462230470981e-001

1.53687518128801e+004,-1.71550603181411e+001,-3.35075185323235e-001

1.55832915932100e+004,-1.71550620197460e+001,-3.39752529278857e-001

1.58008262372675e+004,-1.71550637691688e+001,-3.44495160948386e-001

1.60213975517924e+004,-1.71550655677525e+001,-3.49303991478800e-001

1.62450479271247e+004,-1.71550674168781e+001,-3.54179944724412e-001

1.64718203453514e+004,-1.71550693179651e+001,-3.59123957426801e-001

1.67017583885674e+004,-1.71550712724731e+001,-3.64136979392356e-001

1.69349062472505e+004,-1.71550732819021e+001,-3.69219973676459e-001

1.71713087287550e+004,-1.71550753477950e+001,-3.74373916763889e-001

1.74110112659224e+004,-1.71550774717374e+001,-3.79599798759600e-001

1.76540599258131e+004,-1.71550796553596e+001,-3.84898623577484e-001

1.79005014185594e+004,-1.71550819003374e+001,-3.90271409132303e-001

1.81503831063432e+004,-1.71550842083940e+001,-3.95719187532339e-001

1.84037530124975e+004,-1.71550865813007e+001,-4.01243005281024e-001

1.86606598307361e+004,-1.71550890208783e+001,-4.06843923475802e-001

1.89211529345119e+004,-1.71550915289991e+001,-4.12523018008038e-001

1.91852823865052e+004,-1.71550941075875e+001,-4.18281379773807e-001

1.94530989482457e+004,-1.71550967586222e+001,-4.24120114879082e-001

1.97246540898671e+004,-1.71550994841371e+001,-4.30040344852938e-001

1.99999999999999e+004,-1.71551022862234e+001,-4.36043206862145e-001

2.02791895958005e+004,-1.71551051670307e+001,-4.42129853927242e-001

2.05622765331213e+004,-1.71551081287688e+001,-4.48301455145585e-001

2.08493152168224e+004,-1.71551111737098e+001,-4.54559195912012e-001

2.11403608112276e+004,-1.71551143041890e+001,-4.60904278147481e-001

2.14354692507258e+004,-1.71551175226078e+001,-4.67337920526932e-001

2.17346972505211e+004,-1.71551208314340e+001,-4.73861358716406e-001

2.20381023175322e+004,-1.71551242332056e+001,-4.80475845602117e-001

2.23457427614443e+004,-1.71551277305308e+001,-4.87182651537119e-001

2.26576777059159e+004,-1.71551313260913e+001,-4.93983064579765e-001

2.29739670999406e+004,-1.71551350226440e+001,-5.00878390740610e-001

2.32946717293690e+004,-1.71551388230228e+001,-5.07869954231239e-001

2.36198532285905e+004,-1.71551427301411e+001,-5.14959097720029e-001

2.39495740923785e+004,-1.71551467469938e+001,-5.22147182584125e-001

2.42838976879009e+004,-1.71551508766598e+001,-5.29435589172042e-001

2.46228882668982e+004,-1.71551551223040e+001,-5.36825717067502e-001

2.49666109780322e+004,-1.71551594871801e+001,-5.44318985353625e-001

2.53151318794055e+004,-1.71551639746328e+001,-5.51916832886945e-001

2.56685179512580e+004,-1.71551685881004e+001,-5.59620718569685e-001

2.60268371088386e+004,-1.71551733311174e+001,-5.67432121628993e-001

2.63901582154578e+004,-1.71551782073172e+001,-5.75352541897352e-001

2.67585510957221e+004,-1.71551832204350e+001,-5.83383500100994e-001

2.71320865489533e+004,-1.71551883743102e+001,-5.91526538147538e-001

2.75108363627948e+004,-1.71551936728900e+001,-5.99783219420226e-001

2.78948733270080e+004,-1.71551991202315e+001,-6.08155129076436e-001

2.82842712474618e+004,-1.71552047205056e+001,-6.16643874348612e-001

2.86791049603164e+004,-1.71552104779998e+001,-6.25251084850743e-001

2.90794503464061e+004,-1.71552163971211e+001,-6.33978412888149e-001

2.94853843458219e+004,-1.71552224824002e+001,-6.42827533771354e-001

2.98969849726987e+004,-1.71552287384939e+001,-6.51800146136852e-001

3.03143313302078e+004,-1.71552351701894e+001,-6.60897972267155e-001

3.07375036257601e+004,-1.71552417824076e+001,-6.70122758420070e-001

3.11665831864199e+004,-1.71552485802067e+001,-6.79476275160387e-001

3.16016524745350e+004,-1.71552555687864e+001,-6.88960317695002e-001

3.20427951035848e+004,-1.71552627534912e+001,-6.98576706216582e-001

3.24900958542493e+004,-1.71552701398152e+001,-7.08327286245120e-001

3.29436406907028e+004,-1.71552777334055e+001,-7.18213928982219e-001

3.34035167771346e+004,-1.71552855400669e+001,-7.28238531662227e-001

3.38698124945009e+004,-1.71552935657661e+001,-7.38403017916401e-001

3.43426174575100e+004,-1.71553018166362e+001,-7.48709338133240e-001

3.48220225318448e+004,-1.71553102989814e+001,-7.59159469831539e-001

3.53081198516260e+004,-1.71553190192816e+001,-7.69755418031917e-001

3.58010028371187e+004,-1.71553279841971e+001,-7.80499215640108e-001

3.63007662126863e+004,-1.71553372005743e+001,-7.91392923827666e-001

3.68075060249948e+004,-1.71553466754497e+001,-8.02438632425780e-001

3.73213196614721e+004,-1.71553564160560e+001,-8.13638460317740e-001

3.78423058690237e+004,-1.71553664298275e+001,-8.24994555840561e-001

3.83705647730104e+004,-1.71553767244052e+001,-8.36509097191151e-001

3.89061978964912e+004,-1.71553873076428e+001,-8.48184292836706e-001

3.94493081797342e+004,-1.71553981876123e+001,-8.60022381933256e-001

3.99999999999998e+004,-1.71554093726105e+001,-8.72025634746023e-001

4.05583791916010e+004,-1.71554208711646e+001,-8.84196353079401e-001

4.11245530662425e+004,-1.71554326920390e+001,-8.96536870709426e-001

4.16986304336447e+004,-1.71554448442414e+001,-9.09049553824215e-001

4.22807216224550e+004,-1.71554573370299e+001,-9.21736801469693e-001

4.28709385014515e+004,-1.71554701799195e+001,-9.34601046000275e-001

4.34693945010421e+004,-1.71554833826894e+001,-9.47644753536251e-001

4.40762046350642e+004,-1.71554969553900e+001,-9.60870424428123e-001

4.46914855228886e+004,-1.71555109083507e+001,-9.74280593725859e-001

4.53153554118317e+004,-1.71555252521871e+001,-9.87877831653598e-001

4.59479341998812e+004,-1.71555399978089e+001,-1.00166474409454e+000

4.65893434587380e+004,-1.71555551564284e+001,-1.01564397307654e+000

4.72397064571810e+004,-1.71555707395679e+001,-1.02981819726936e+000

4.78991481847569e+004,-1.71555867590690e+001,-1.04419013248337e+000

4.85677953758016e+004,-1.71556032271008e+001,-1.05876253218186e+000

4.92457765337964e+004,-1.71556201561691e+001,-1.07353818799134e+000

4.99332219560642e+004,-1.71556375591251e+001,-1.08851993022529e+000

5.06302637588109e+004,-1.71556554491753e+001,-1.10371062841339e+000

5.13370359025159e+004,-1.71556738398908e+001,-1.11911319183404e+000

5.20536742176771e+004,-1.71556927452173e+001,-1.13473057005826e+000

5.27803164309155e+004,-1.71557121794853e+001,-1.15056575349951e+000

5.35171021914442e+004,-1.71557321574204e+001,-1.16662177396752e+000

5.42641730979066e+004,-1.71557526941540e+001,-1.18290170523473e+000

5.50216727255895e+004,-1.71557738052343e+001,-1.19940866360534e+000

5.57897466540159e+004,-1.71557955066374e+001,-1.21614580849366e+000

5.65685424949235e+004,-1.71558178147790e+001,-1.23311634301071e+000

5.73582099206328e+004,-1.71558407465260e+001,-1.25032351455605e+000

5.81589006928121e+004,-1.71558643192091e+001,-1.26777061541909e+000

5.89707686916437e+004,-1.71558885506344e+001,-1.28546098338889e+000

5.97939699453972e+004,-1.71559134590968e+001,-1.30339800236731e+000

6.06286626604156e+004,-1.71559390633931e+001,-1.32158510299605e+000

6.14750072515201e+004,-1.71559653828349e+001,-1.34002576328690e+000

6.23331663728396e+004,-1.71559924372627e+001,-1.35872350926199e+000

6.32033049490698e+004,-1.71560202470599e+001,-1.37768191560273e+000

6.40855902071694e+004,-1.71560488331672e+001,-1.39690460630422e+000

6.49801917084985e+004,-1.71560782170975e+001,-1.41639525534174e+000

6.58872813814055e+004,-1.71561084209509e+001,-1.43615758734148e+000

6.68070335542691e+004,-1.71561394674303e+001,-1.45619537826388e+000

6.77396249890018e+004,-1.71561713798574e+001,-1.47651245609118e+000

6.86852349150199e+004,-1.71562041821887e+001,-1.49711270152708e+000

6.96440450636895e+004,-1.71562378990327e+001,-1.51800004870272e+000

7.06162397032520e+004,-1.71562725556665e+001,-1.53917848589277e+000

7.16020056742374e+004,-1.71563081780540e+001,-1.56065205623932e+000

7.26015324253724e+004,-1.71563447928629e+001,-1.58242485848583e+000

7.36150120499896e+004,-1.71563824274838e+001,-1.60450104771878e+000

7.46426393229441e+004,-1.71564211100491e+001,-1.62688483611854e+000

7.56846117380472e+004,-1.71564608694515e+001,-1.64958049372071e+000

7.67411295460207e+004,-1.71565017353646e+001,-1.67259234918516e+000

7.78123957929823e+004,-1.71565437382625e+001,-1.69592479057429e+000

7.88986163594682e+004,-1.71565869094408e+001,-1.71958226614224e+000

7.99999999999995e+004,-1.71566312810374e+001,-1.74356928513177e+000

8.11167583832018e+004,-1.71566768860546e+001,-1.76789041858118e+000

8.22491061324848e+004,-1.71567237583807e+001,-1.79255030014124e+000

8.33972608672892e+004,-1.71567719328129e+001,-1.81755362690213e+000

8.45614432449099e+004,-1.71568214450807e+001,-1.84290516022815e+000

8.57418770029029e+004,-1.71568723318690e+001,-1.86860972660401e+000

8.69387890020841e+004,-1.71569246308427e+001,-1.89467221849112e+000

8.81524092701283e+004,-1.71569783806712e+001,-1.92109759519221e+000

8.93829710457770e+004,-1.71570336210540e+001,-1.94789088372774e+000

9.06307108236633e+004,-1.71570903927460e+001,-1.97505717972090e+000

9.18958683997622e+004,-1.71571487375846e+001,-2.00260164829378e+000

9.31786869174758e+004,-1.71572086985158e+001,-2.03052952497362e+000

9.44794129143618e+004,-1.71572703196224e+001,-2.05884611660881e+000

9.57982963695136e+004,-1.71573336461518e+001,-2.08755680229541e+000

9.71355907516031e+004,-1.71573987245449e+001,-2.11666703431445e+000

9.84915530675926e+004,-1.71574656024651e+001,-2.14618233907958e+000

9.98664439121282e+004,-1.71575343288283e+001,-2.17610831809514e+000

1.01260527517622e+005,-1.71576049538333e+001,-2.20645064892512e+000

1.02674071805032e+005,-1.71576775289934e+001,-2.23721508617151e+000

1.04107348435354e+005,-1.71577521071672e+001,-2.26840746246595e+000

1.05560632861831e+005,-1.71578287425917e+001,-2.30003368946968e+000

1.07034204382888e+005,-1.71579074909150e+001,-2.33209975888546e+000

1.08528346195813e+005,-1.71579884092297e+001,-2.36461174348092e+000

1.10043345451179e+005,-1.71580715561073e+001,-2.39757579812136e+000

1.11579493308032e+005,-1.71581569916330e+001,-2.43099816081504e+000

1.13137084989847e+005,-1.71582447774411e+001,-2.46488515376936e+000

1.14716419841265e+005,-1.71583349767511e+001,-2.49924318445734e+000

1.16317801385624e+005,-1.71584276544044e+001,-2.53407874669609e+000

1.17941537383287e+005,-1.71585228769020e+001,-2.56939842173631e+000

1.19587939890794e+005,-1.71586207124418e+001,-2.60520887936386e+000

1.21257325320831e+005,-1.71587212309580e+001,-2.64151687901125e+000

1.22950014503040e+005,-1.71588245041598e+001,-2.67832927088176e+000

1.24666332745679e+005,-1.71589306055714e+001,-2.71565299708531e+000

1.26406609898139e+005,-1.71590396105728e+001,-2.75349509278520e+000

1.28171180414339e+005,-1.71591515964403e+001,-2.79186268735672e+000

1.29960383416997e+005,-1.71592666423890e+001,-2.83076300555729e+000

1.31774562762811e+005,-1.71593848296142e+001,-2.87020336870956e+000

1.33614067108538e+005,-1.71595062413353e+001,-2.91019119589537e+000

1.35479249978003e+005,-1.71596309628382e+001,-2.95073400516165e+000

1.37370469830040e+005,-1.71597590815205e+001,-2.99183941473878e+000

1.39288090127379e+005,-1.71598906869349e+001,-3.03351514427201e+000

1.41232479406504e+005,-1.71600258708355e+001,-3.07576901606215e+000

1.43204011348474e+005,-1.71601647272226e+001,-3.11860895632294e+000

1.45203064850745e+005,-1.71603073523893e+001,-3.16204299644724e+000

1.47230024099979e+005,-1.71604538449681e+001,-3.20607927428715e+000

1.49285278645888e+005,-1.71606043059781e+001,-3.25072603544766e+000

1.51369223476094e+005,-1.71607588388723e+001,-3.29599163459117e+000

1.53482259092041e+005,-1.71609175495861e+001,-3.34188453675735e+000

1.55624791585964e+005,-1.71610805465852e+001,-3.38841331869362e+000

1.57797232718936e+005,-1.71612479409150e+001,-3.43558667020063e+000

1.59999999999999e+005,-1.71614198462493e+001,-3.48341339549091e+000

1.62233516766403e+005,-1.71615963789397e+001,-3.53190241456030e+000

1.64498212264969e+005,-1.71617776580658e+001,-3.58106276457420e+000

1.66794521734578e+005,-1.71619638054849e+001,-3.63090360126661e+000

1.69122886489819e+005,-1.71621549458824e+001,-3.68143420035519e+000

1.71483754005805e+005,-1.71623512068221e+001,-3.73266395896888e+000

1.73877578004168e+005,-1.71625527187968e+001,-3.78460239709127e+000

1.76304818540256e+005,-1.71627596152790e+001,-3.83725915901912e+000

1.78765942091554e+005,-1.71629720327718e+001,-3.89064401483534e+000

1.81261421647326e+005,-1.71631901108594e+001,-3.94476686189854e+000

1.83791736799524e+005,-1.71634139922582e+001,-3.99963772634826e+000

1.86357373834951e+005,-1.71636438228670e+001,-4.05526676462564e+000

1.88958825828723e+005,-1.71638797518183e+001,-4.11166426501258e+000

1.91596592739027e+005,-1.71641219315278e+001,-4.16884064918632e+000

1.94271181503206e+005,-1.71643705177457e+001,-4.22680647379278e+000

1.96983106135185e+005,-1.71646256696057e+001,-4.28557243203753e+000

1.99732887824256e+005,-1.71648875496753e+001,-4.34514935529542e+000

2.02521055035243e+005,-1.71651563240044e+001,-4.40554821473976e+000

2.05348143610063e+005,-1.71654321621752e+001,-4.46678012299037e+000

2.08214696870707e+005,-1.71657152373495e+001,-4.52885633578327e+000

2.11121265723661e+005,-1.71660057263177e+001,-4.59178825366071e+000

2.14068408765776e+005,-1.71663038095449e+001,-4.65558742368322e+000

2.17056692391625e+005,-1.71666096712187e+001,-4.72026554116307e+000

2.20086690902357e+005,-1.71669234992948e+001,-4.78583445142399e+000

2.23158986616063e+005,-1.71672454855420e+001,-4.85230615158220e+000

2.26274169979693e+005,-1.71675758255873e+001,-4.91969279235345e+000

2.29432839682530e+005,-1.71679147189595e+001,-4.98800667988711e+000

2.32635602771247e+005,-1.71682623691318e+001,-5.05726027762596e+000

2.35883074766574e+005,-1.71686189835641e+001,-5.12746620819545e+000

2.39175879781588e+005,-1.71689847737439e+001,-5.19863725532098e+000

2.42514650641661e+005,-1.71693599552265e+001,-5.27078636577676e+000

2.45900029006080e+005,-1.71697447476742e+001,-5.34392665136518e+000

2.49332665491357e+005,-1.71701393748941e+001,-5.41807139093079e+000

2.52813219796278e+005,-1.71705440648755e+001,-5.49323403240697e+000

2.56342360828676e+005,-1.71709590498258e+001,-5.56942819489949e+000

2.59920766833993e+005,-1.71713845662056e+001,-5.64666767080676e+000

2.63549125525621e+005,-1.71718208547626e+001,-5.72496642797896e+000

2.67228134217075e+005,-1.71722681605645e+001,-5.80433861191821e+000

2.70958499956006e+005,-1.71727267330313e+001,-5.88479854801902e+000

2.74740939660078e+005,-1.71731968259661e+001,-5.96636074385521e+000

2.78576180254757e+005,-1.71736786975851e+001,-6.04903989151031e+000

2.82464958813007e+005,-1.71741726105474e+001,-6.13285086995512e+000

2.86408022696948e+005,-1.71746788319831e+001,-6.21780874747672e+000

2.90406129701488e+005,-1.71751976335212e+001,-6.30392878415687e+000

2.94460048199957e+005,-1.71757292913172e+001,-6.39122643440358e+000

2.98570557291775e+005,-1.71762740860796e+001,-6.47971734953949e+000

3.02738446952187e+005,-1.71768323030967e+001,-6.56941738044609e+000

3.06964518184081e+005,-1.71774042322628e+001,-6.66034258026803e+000

3.11249583171928e+005,-1.71779901681047e+001,-6.75250920717914e+000

3.15594465437872e+005,-1.71785904098085e+001,-6.84593372721197e+000

3.19999999999997e+005,-1.71792052612464e+001,-6.94063281715352e+000

3.24467033532806e+005,-1.71798350310048e+001,-7.03662336750888e+000

3.28996424529938e+005,-1.71804800324126e+001,-7.13392248553590e+000

3.33589043469155e+005,-1.71811405835718e+001,-7.23254749835173e+000

3.38245772979638e+005,-1.71818170073885e+001,-7.33251595611488e+000

3.42967508011610e+005,-1.71825096316066e+001,-7.43384563528337e+000

3.47755156008335e+005,-1.71832187888438e+001,-7.53655454195304e+000

3.52609637080511e+005,-1.71839448166294e+001,-7.64066091527612e+000

3.57531884183106e+005,-1.71846880574464e+001,-7.74618323096366e+000

3.62522843294651e+005,-1.71854488587761e+001,-7.85314020487277e+000

3.67583473599047e+005,-1.71862275731478e+001,-7.96155079668079e+000

3.72714747669902e+005,-1.71870245581916e+001,-8.07143421364888e+000

3.77917651657445e+005,-1.71878401766983e+001,-8.18280991447515e+000

3.83193185478053e+005,-1.71886747966825e+001,-8.29569761324053e+000

3.88542363006410e+005,-1.71895287914545e+001,-8.41011728344751e+000

3.93966212270369e+005,-1.71904025396967e+001,-8.52608916215332e+000

3.99465775648511e+005,-1.71912964255499e+001,-8.64363375419954e+000

4.05042110070485e+005,-1.71922108387056e+001,-8.76277183653676e+000

4.10696287220124e+005,-1.71931461745086e+001,-8.88352446264786e+000

4.16429393741414e+005,-1.71941028340691e+001,-9.00591296706664e+000

4.22242531447321e+005,-1.71950812243848e+001,-9.12995896999661e+000

4.28136817531551e+005,-1.71960817584745e+001,-9.25568438202463e+000

4.34113384783250e+005,-1.71971048555235e+001,-9.38311140893362e+000

4.40173381804713e+005,-1.71981509410420e+001,-9.51226255661023e+000

4.46317973232124e+005,-1.71992204470369e+001,-9.64316063604897e+000

4.52548339959385e+005,-1.72003138121984e+001,-9.77582876844958e+000

4.58865679365059e+005,-1.72014314821013e+001,-9.91029039040675e+000

4.65271205542494e+005,-1.72025739094233e+001,-1.00465692591908e+001

4.71766149533147e+005,-1.72037415541798e+001,-1.01846894581160e+001

4.78351759563174e+005,-1.72049348839762e+001,-1.03246754019940e+001

4.85029301283321e+005,-1.72061543742803e+001,-1.04665518426691e+001

4.91800058012158e+005,-1.72074005087126e+001,-1.06103438746330e+001

4.98665330982714e+005,-1.72086737793580e+001,-1.07560769407135e+001

5.05626439592555e+005,-1.72099746870990e+001,-1.09037768378334e+001

5.12684721657352e+005,-1.72113037419697e+001,-1.10534697228359e+001

5.19841533667984e+005,-1.72126614635341e+001,-1.12051821183699e+001

5.27098251051240e+005,-1.72140483812868e+001,-1.13589409188305e+001

5.34456268434150e+005,-1.72154650350783e+001,-1.15147733963497e+001

5.41916999912011e+005,-1.72169119755657e+001,-1.16727072068286e+001

