Freq.,VOut,OutRef

1.00000000000000e+004,-1.50607936338247e+001,-8.73818143498694e-002

1.01395947979003e+004,-1.50607939882944e+001,-8.86015913321409e-002

1.02811382665607e+004,-1.50607943527266e+001,-8.98383945915462e-002

1.04246576084112e+004,-1.50607947274012e+001,-9.10924617544441e-002

1.05701804056138e+004,-1.50607951126058e+001,-9.23640337667162e-002

1.07177346253629e+004,-1.50607955086365e+001,-9.36533549297056e-002

1.08673486252606e+004,-1.50607959157974e+001,-9.49606729571493e-002

1.10190511587661e+004,-1.50607963344010e+001,-9.62862390174680e-002

1.11728713807222e+004,-1.50607967647689e+001,-9.76303077821565e-002

1.13288388529580e+004,-1.50607972072317e+001,-9.89931374739267e-002

1.14869835499703e+004,-1.50607976621290e+001,-1.00374989920646e-001

1.16473358646846e+004,-1.50607981298102e+001,-1.01776130599385e-001

1.18099266142953e+004,-1.50607986106344e+001,-1.03196828691782e-001

1.19747870461893e+004,-1.50607991049708e+001,-1.04637357132712e-001

1.21419488439505e+004,-1.50607996131990e+001,-1.06097992665672e-001

1.23114441334492e+004,-1.50608001357091e+001,-1.07579015892804e-001

1.24833054890161e+004,-1.50608006729024e+001,-1.09080711329846e-001

1.26575659397028e+004,-1.50608012251912e+001,-1.10603367461060e-001

1.28342589756290e+004,-1.50608017929997e+001,-1.12147276793102e-001

1.30134185544193e+004,-1.50608023767634e+001,-1.13712735914088e-001

1.31950791077289e+004,-1.50608029769308e+001,-1.15300045544987e-001

1.33792755478611e+004,-1.50608035939624e+001,-1.16909510603275e-001

1.35660432744767e+004,-1.50608042283320e+001,-1.18541440256131e-001

1.37554181813974e+004,-1.50608048805263e+001,-1.20196147984343e-001

1.39474366635040e+004,-1.50608055510461e+001,-1.21873951637327e-001

1.41421356237309e+004,-1.50608062404057e+001,-1.23575173499002e-001

1.43395524801583e+004,-1.50608069491344e+001,-1.25300140344336e-001

1.45397251732031e+004,-1.50608076777761e+001,-1.27049183506066e-001

1.47426921729110e+004,-1.50608084268897e+001,-1.28822638936762e-001

1.49484924863494e+004,-1.50608091970500e+001,-1.30620847271963e-001

1.51571656651040e+004,-1.50608099888483e+001,-1.32444153894572e-001

1.53687518128801e+004,-1.50608108028918e+001,-1.34292909005111e-001

1.55832915932100e+004,-1.50608116398049e+001,-1.36167467685573e-001

1.58008262372675e+004,-1.50608125002301e+001,-1.38068189964555e-001

1.60213975517924e+004,-1.50608133848271e+001,-1.39995440893078e-001

1.62450479271247e+004,-1.50608142942745e+001,-1.41949590607633e-001

1.64718203453514e+004,-1.50608152292699e+001,-1.43931014405567e-001

1.67017583885674e+004,-1.50608161905304e+001,-1.45940092814017e-001

1.69349062472505e+004,-1.50608171787931e+001,-1.47977211662865e-001

1.71713087287550e+004,-1.50608181948161e+001,-1.50042762159012e-001

1.74110112659224e+004,-1.50608192393783e+001,-1.52137140962148e-001

1.76540599258131e+004,-1.50608203132807e+001,-1.54260750258059e-001

1.79005014185594e+004,-1.50608214173465e+001,-1.56413997837187e-001

1.81503831063432e+004,-1.50608225524223e+001,-1.58597297172118e-001

1.84037530124975e+004,-1.50608237193782e+001,-1.60811067494263e-001

1.86606598307361e+004,-1.50608249191086e+001,-1.63055733878630e-001

1.89211529345119e+004,-1.50608261525331e+001,-1.65331727319549e-001

1.91852823865052e+004,-1.50608274205971e+001,-1.67639484815554e-001

1.94530989482457e+004,-1.50608287242720e+001,-1.69979449454876e-001

1.97246540898671e+004,-1.50608300645572e+001,-1.72352070492289e-001

1.99999999999999e+004,-1.50608314424792e+001,-1.74757803445122e-001

2.02791895958005e+004,-1.50608328590937e+001,-1.77197110171334e-001

2.05622765331213e+004,-1.50608343154862e+001,-1.79670458960284e-001

2.08493152168224e+004,-1.50608358127719e+001,-1.82178324624457e-001

2.11403608112276e+004,-1.50608373520976e+001,-1.84721188586504e-001

2.14354692507258e+004,-1.50608389346422e+001,-1.87299538971369e-001

2.17346972505211e+004,-1.50608405616172e+001,-1.89913870701403e-001

2.20381023175322e+004,-1.50608422342687e+001,-1.92564685585619e-001

2.23457427614443e+004,-1.50608439538769e+001,-1.95252492420826e-001

2.26576777059159e+004,-1.50608457217582e+001,-1.97977807084017e-001

2.29739670999406e+004,-1.50608475392654e+001,-2.00741152634885e-001

2.32946717293690e+004,-1.50608494077896e+001,-2.03543059407688e-001

2.36198532285905e+004,-1.50608513287603e+001,-2.06384065120781e-001

2.39495740923785e+004,-1.50608533036475e+001,-2.09264714970049e-001

2.42838976879009e+004,-1.50608553339617e+001,-2.12185561740170e-001

2.46228882668982e+004,-1.50608574212556e+001,-2.15147165904619e-001

2.49666109780322e+004,-1.50608595671256e+001,-2.18150095732473e-001

2.53151318794055e+004,-1.50608617732126e+001,-2.21194927396405e-001

2.56685179512580e+004,-1.50608640412029e+001,-2.24282245084316e-001

2.60268371088386e+004,-1.50608663728303e+001,-2.27412641104162e-001

2.63901582154578e+004,-1.50608687698766e+001,-2.30586716003190e-001

2.67585510957221e+004,-1.50608712341738e+001,-2.33805078674397e-001

2.71320865489533e+004,-1.50608737676044e+001,-2.37068346478383e-001

2.75108363627948e+004,-1.50608763721036e+001,-2.40377145354658e-001

2.78948733270080e+004,-1.50608790496605e+001,-2.43732109942833e-001

2.82842712474618e+004,-1.50608818023198e+001,-2.47133883701466e-001

2.86791049603164e+004,-1.50608846321830e+001,-2.50583119028090e-001

2.90794503464061e+004,-1.50608875414101e+001,-2.54080477386057e-001

2.94853843458219e+004,-1.50608905322212e+001,-2.57626629426386e-001

2.98969849726987e+004,-1.50608936068983e+001,-2.61222255113431e-001

3.03143313302078e+004,-1.50608967677869e+001,-2.64868043855047e-001

3.07375036257601e+004,-1.50609000172977e+001,-2.68564694630246e-001

3.11665831864199e+004,-1.50609033579082e+001,-2.72312916123985e-001

3.16016524745350e+004,-1.50609067921651e+001,-2.76113426856289e-001

3.20427951035848e+004,-1.50609103226858e+001,-2.79966955319577e-001

3.24900958542493e+004,-1.50609139521603e+001,-2.83874240115251e-001

3.29436406907028e+004,-1.50609176833534e+001,-2.87836030091751e-001

3.34035167771346e+004,-1.50609215191067e+001,-2.91853084484479e-001

3.38698124945009e+004,-1.50609254623403e+001,-2.95926173060611e-001

3.43426174575100e+004,-1.50609295160558e+001,-3.00056076258925e-001

3.48220225318448e+004,-1.50609336833377e+001,-3.04243585339879e-001

3.53081198516260e+004,-1.50609379673561e+001,-3.08489502531111e-001

3.58010028371187e+004,-1.50609423713690e+001,-3.12794641177270e-001

3.63007662126863e+004,-1.50609468987245e+001,-3.17159825894402e-001

3.68075060249948e+004,-1.50609515528636e+001,-3.21585892719917e-001

3.73213196614721e+004,-1.50609563373221e+001,-3.26073689272038e-001

3.78423058690237e+004,-1.50609612557341e+001,-3.30624074904127e-001

3.83705647730104e+004,-1.50609663118340e+001,-3.35237920867271e-001

3.89061978964912e+004,-1.50609715094592e+001,-3.39916110471707e-001

3.94493081797342e+004,-1.50609768525533e+001,-3.44659539248710e-001

3.99999999999998e+004,-1.50609823451687e+001,-3.49469115120506e-001

4.05583791916010e+004,-1.50609879914697e+001,-3.54345758563244e-001

4.11245530662425e+004,-1.50609937957352e+001,-3.59290402783955e-001

4.16986304336447e+004,-1.50609997623624e+001,-3.64303993886564e-001

4.22807216224550e+004,-1.50610058958693e+001,-3.69387491052070e-001

4.28709385014515e+004,-1.50610122008984e+001,-3.74541866711634e-001

4.34693945010421e+004,-1.50610186822201e+001,-3.79768106727707e-001

4.40762046350642e+004,-1.50610253447357e+001,-3.85067210575767e-001

4.46914855228886e+004,-1.50610321934814e+001,-3.90440191526581e-001

4.53153554118317e+004,-1.50610392336316e+001,-3.95888076833743e-001

4.59479341998812e+004,-1.50610464705028e+001,-4.01411907921762e-001

4.65893434587380e+004,-1.50610539095570e+001,-4.07012740576776e-001

4.72397064571810e+004,-1.50610615564064e+001,-4.12691645138432e-001

4.78991481847569e+004,-1.50610694168166e+001,-4.18449706697916e-001

4.85677953758016e+004,-1.50610774967109e+001,-4.24288025293368e-001

4.92457765337964e+004,-1.50610858021747e+001,-4.30207716113434e-001

4.99332219560642e+004,-1.50610943394597e+001,-4.36209909696041e-001

5.06302637588109e+004,-1.50611031149882e+001,-4.42295752136869e-001

5.13370359025159e+004,-1.50611121353577e+001,-4.48466405296315e-001

5.20536742176771e+004,-1.50611214073456e+001,-4.54723047008976e-001

5.27803164309155e+004,-1.50611309379136e+001,-4.61066871299347e-001

5.35171021914442e+004,-1.50611407342131e+001,-4.67499088593231e-001

5.42641730979066e+004,-1.50611508035896e+001,-4.74020925938091e-001

5.50216727255895e+004,-1.50611611535883e+001,-4.80633627224869e-001

5.57897466540159e+004,-1.50611717919590e+001,-4.87338453408380e-001

5.65685424949235e+004,-1.50611827266612e+001,-4.94136682735791e-001

5.73582099206328e+004,-1.50611939658703e+001,-5.01029610973948e-001

5.81589006928121e+004,-1.50612055179826e+001,-5.08018551640062e-001

5.89707686916437e+004,-1.50612173916210e+001,-5.15104836237643e-001

5.97939699453972e+004,-1.50612295956413e+001,-5.22289814490532e-001

6.06286626604156e+004,-1.50612421391378e+001,-5.29574854584935e-001

6.14750072515201e+004,-1.50612550314494e+001,-5.36961343410245e-001

6.23331663728396e+004,-1.50612682821665e+001,-5.44450686802256e-001

6.32033049490698e+004,-1.50612819011365e+001,-5.52044309795278e-001

6.40855902071694e+004,-1.50612958984710e+001,-5.59743656867655e-001

6.49801917084985e+004,-1.50613102845522e+001,-5.67550192197976e-001

6.58872813814055e+004,-1.50613250700399e+001,-5.75465399921017e-001

6.68070335542691e+004,-1.50613402658786e+001,-5.83490784384770e-001

6.77396249890018e+004,-1.50613558833045e+001,-5.91627870414031e-001

6.86852349150199e+004,-1.50613719338525e+001,-5.99878203574727e-001

6.96440450636895e+004,-1.50613884293644e+001,-6.08243350440735e-001

7.06162397032520e+004,-1.50614053819960e+001,-6.16724898863534e-001

7.16020056742374e+004,-1.50614228042250e+001,-6.25324458248087e-001

7.26015324253724e+004,-1.50614407088592e+001,-6.34043659824952e-001

7.36150120499896e+004,-1.50614591090439e+001,-6.42884156933160e-001

7.46426393229441e+004,-1.50614780182713e+001,-6.51847625299124e-001

7.56846117380472e+004,-1.50614974503878e+001,-6.60935763323006e-001

7.67411295460207e+004,-1.50615174196034e+001,-6.70150292366881e-001

7.78123957929823e+004,-1.50615379405001e+001,-6.79492957042581e-001

7.88986163594682e+004,-1.50615590280411e+001,-6.88965525507497e-001

7.99999999999995e+004,-1.50615806975796e+001,-6.98569789762055e-001

8.11167583832018e+004,-1.50616029648683e+001,-7.08307565945358e-001

8.22491061324848e+004,-1.50616258460691e+001,-7.18180694640118e-001

8.33972608672892e+004,-1.50616493577622e+001,-7.28191041177091e-001

8.45614432449099e+004,-1.50616735169560e+001,-7.38340495943609e-001

8.57418770029029e+004,-1.50616983410976e+001,-7.48630974693685e-001

8.69387890020841e+004,-1.50617238480825e+001,-7.59064418861357e-001

8.81524092701283e+004,-1.50617500562647e+001,-7.69642795879039e-001

8.93829710457770e+004,-1.50617769844679e+001,-7.80368099495543e-001

9.06307108236633e+004,-1.50618046519951e+001,-7.91242350099917e-001

9.18958683997622e+004,-1.50618330786407e+001,-8.02267595044418e-001

9.31786869174758e+004,-1.50618622847000e+001,-8.13445908975854e-001

9.44794129143618e+004,-1.50618922909818e+001,-8.24779394163353e-001

9.57982963695136e+004,-1.50619231188183e+001,-8.36270180834328e-001

9.71355907516031e+004,-1.50619547900776e+001,-8.47920427510096e-001

9.84915530675926e+004,-1.50619873271748e+001,-8.59732321343938e-001

9.98664439121282e+004,-1.50620207530835e+001,-8.71708078466967e-001

1.01260527517622e+005,-1.50620550913482e+001,-8.83849944327975e-001

1.02674071805032e+005,-1.50620903660957e+001,-8.96160194045127e-001

1.04107348435354e+005,-1.50621266020477e+001,-9.08641132753271e-001

1.05560632861831e+005,-1.50621638245328e+001,-9.21295095958748e-001

1.07034204382888e+005,-1.50622020594987e+001,-9.34124449893841e-001

1.08528346195813e+005,-1.50622413335250e+001,-9.47131591874607e-001

1.10043345451179e+005,-1.50622816738353e+001,-9.60318950662803e-001

1.11579493308032e+005,-1.50623231083100e+001,-9.73688986828778e-001

1.13137084989847e+005,-1.50623656654992e+001,-9.87244193116575e-001

1.14716419841265e+005,-1.50624093746351e+001,-1.00098709481243e+000

1.16317801385624e+005,-1.50624542656448e+001,-1.01492025011676e+000

1.17941537383287e+005,-1.50625003691636e+001,-1.02904625051553e+000

1.19587939890794e+005,-1.50625477165470e+001,-1.04336772115786e+000

1.21257325320831e+005,-1.50625963398843e+001,-1.05788732123299e+000

1.22950014503040e+005,-1.50626462720113e+001,-1.07260774435067e+000

1.24666332745679e+005,-1.50626975465225e+001,-1.08753171892490e+000

1.26406609898139e+005,-1.50627501977848e+001,-1.10266200855749e+000

1.28171180414339e+005,-1.50628042609495e+001,-1.11800141242759e+000

1.29960383416997e+005,-1.50628597719648e+001,-1.13355276567929e+000

1.31774562762811e+005,-1.50629167675891e+001,-1.14931893981480e+000

1.33614067108538e+005,-1.50629752854025e+001,-1.16530284308820e+000

1.35479249978003e+005,-1.50630353638192e+001,-1.18150742090239e+000

1.37370469830040e+005,-1.50630970420997e+001,-1.19793565620629e+000

1.39288090127379e+005,-1.50631603603625e+001,-1.21459056989753e+000

1.41232479406504e+005,-1.50632253595956e+001,-1.23147522122312e+000

1.43204011348474e+005,-1.50632920816674e+001,-1.24859270818672e+000

1.45203064850745e+005,-1.50633605693383e+001,-1.26594616795426e+000

1.47230024099979e+005,-1.50634308662708e+001,-1.28353877726495e+000

1.49285278645888e+005,-1.50635030170396e+001,-1.30137375284159e+000

1.51369223476094e+005,-1.50635770671420e+001,-1.31945435180492e+000

1.53482259092041e+005,-1.50636530630063e+001,-1.33778387209011e+000

1.55624791585964e+005,-1.50637310520015e+001,-1.35636565286510e+000

1.57797232718936e+005,-1.50638110824449e+001,-1.37520307495118e+000

1.59999999999999e+005,-1.50638932036099e+001,-1.39429956124612e+000

1.62233516766403e+005,-1.50639774657333e+001,-1.41365857714954e+000

1.64498212264969e+005,-1.50640639200212e+001,-1.43328363099177e+000

1.66794521734578e+005,-1.50641526186548e+001,-1.45317827446488e+000

1.69122886489819e+005,-1.50642436147950e+001,-1.47334610305476e+000

1.71483754005805e+005,-1.50643369625864e+001,-1.49379075647805e+000

1.73877578004168e+005,-1.50644327171601e+001,-1.51451591912267e+000

1.76304818540256e+005,-1.50645309346362e+001,-1.53552532048811e+000

1.78765942091554e+005,-1.50646316721237e+001,-1.55682273563318e+000

1.81261421647326e+005,-1.50647349877217e+001,-1.57841198562402e+000

1.83791736799524e+005,-1.50648409405167e+001,-1.60029693798804e+000

1.86357373834951e+005,-1.50649495905810e+001,-1.62248150716865e+000

1.88958825828723e+005,-1.50650609989685e+001,-1.64496965498974e+000

1.91596592739027e+005,-1.50651752277092e+001,-1.66776539111769e+000

1.94271181503206e+005,-1.50652923398025e+001,-1.69087277353443e+000

1.96983106135185e+005,-1.50654123992094e+001,-1.71429590901072e+000

1.99732887824256e+005,-1.50655354708419e+001,-1.73803895358844e+000

2.02521055035243e+005,-1.50656616205517e+001,-1.76210611306644e+000

2.05348143610063e+005,-1.50657909151171e+001,-1.78650164349447e+000

2.08214696870707e+005,-1.50659234222274e+001,-1.81122985167146e+000

2.11121265723661e+005,-1.50660592104656e+001,-1.83629509565441e+000

2.14068408765776e+005,-1.50661983492896e+001,-1.86170178527250e+000

2.17056692391625e+005,-1.50663409090108e+001,-1.88745438264888e+000

2.20086690902357e+005,-1.50664869607705e+001,-1.91355740273517e+000

2.23158986616063e+005,-1.50666365765142e+001,-1.94001541385191e+000

2.26274169979693e+005,-1.50667898289633e+001,-1.96683303824124e+000

2.29432839682530e+005,-1.50669467915847e+001,-1.99401495263023e+000

2.32635602771247e+005,-1.50671075385578e+001,-2.02156588880585e+000

2.35883074766574e+005,-1.50672721447385e+001,-2.04949063420322e+000

2.39175879781588e+005,-1.50674406856214e+001,-2.07779403250679e+000

2.42514650641661e+005,-1.50676132372977e+001,-2.10648098426754e+000

2.45900029006080e+005,-1.50677898764122e+001,-2.13555644753445e+000

2.49332665491357e+005,-1.50679706801160e+001,-2.16502543850222e+000

2.52813219796278e+005,-1.50681557260164e+001,-2.19489303217934e+000

2.56342360828676e+005,-1.50683450921246e+001,-2.22516436307152e+000

2.59920766833993e+005,-1.50685388567993e+001,-2.25584462588914e+000

2.63549125525621e+005,-1.50687370986876e+001,-2.28693907627296e+000

2.67228134217075e+005,-1.50689398966629e+001,-2.31845303154449e+000

2.70958499956006e+005,-1.50691473297591e+001,-2.35039187147936e+000

2.74740939660078e+005,-1.50693594771021e+001,-2.38276103910876e+000

2.78576180254757e+005,-1.50695764178373e+001,-2.41556604154432e+000

2.82464958813007e+005,-1.50697982310547e+001,-2.44881245083522e+000

2.86408022696948e+005,-1.50700249957096e+001,-2.48250590485430e+000

2.90406129701488e+005,-1.50702567905413e+001,-2.51665210821503e+000

2.94460048199957e+005,-1.50704936939870e+001,-2.55125683322500e+000

2.98570557291775e+005,-1.50707357840939e+001,-2.58632592087313e+000

3.02738446952187e+005,-1.50709831384272e+001,-2.62186528185327e+000

3.06964518184081e+005,-1.50712358339751e+001,-2.65788089763042e+000

3.11249583171928e+005,-1.50714939470508e+001,-2.69437882154523e+000

3.15594465437872e+005,-1.50717575531915e+001,-2.73136517996210e+000

3.19999999999997e+005,-1.50720267270549e+001,-2.76884617346274e+000

3.24467033532806e+005,-1.50723015423116e+001,-2.80682807808775e+000

3.28996424529938e+005,-1.50725820715364e+001,-2.84531724662525e+000

3.33589043469155e+005,-1.50728683860963e+001,-2.88432010995180e+000

3.38245772979638e+005,-1.50731605560365e+001,-2.92384317842618e+000

3.42967508011610e+005,-1.50734586499638e+001,-2.96389304333835e+000

3.47755156008335e+005,-1.50737627349286e+001,-3.00447637841534e+000

3.52609637080511e+005,-1.50740728763051e+001,-3.04559994138625e+000

3.57531884183106e+005,-1.50743891376698e+001,-3.08727057560812e+000

3.62522843294651e+005,-1.50747115806795e+001,-3.12949521175561e+000

3.67583473599047e+005,-1.50750402649477e+001,-3.17228086957368e+000

3.72714747669902e+005,-1.50753752479210e+001,-3.21563465969912e+000

3.77917651657445e+005,-1.50757165847550e+001,-3.25956378554887e+000

3.83193185478053e+005,-1.50760643281912e+001,-3.30407554527834e+000

3.88542363006410e+005,-1.50764185284331e+001,-3.34917733381213e+000

3.93966212270369e+005,-1.50767792330248e+001,-3.39487664494735e+000

3.99465775648511e+005,-1.50771464867299e+001,-3.44118107353019e+000

4.05042110070485e+005,-1.50775203314130e+001,-3.48809831770990e+000

4.10696287220124e+005,-1.50779008059231e+001,-3.53563618126765e+000

4.16429393741414e+005,-1.50782879459802e+001,-3.58380257602302e+000

4.22242531447321e+005,-1.50786817840653e+001,-3.63260552431964e+000

4.28136817531551e+005,-1.50790823493139e+001,-3.68205316158787e+000

4.34113384783250e+005,-1.50794896674141e+001,-3.73215373898692e+000

4.40173381804713e+005,-1.50799037605101e+001,-3.78291562612741e+000

4.46317973232124e+005,-1.50803246471106e+001,-3.83434731387013e+000

4.52548339959385e+005,-1.50807523420039e+001,-3.88645741720544e+000

4.58865679365059e+005,-1.50811868561791e+001,-3.93925467821033e+000

4.65271205542494e+005,-1.50816281967553e+001,-3.99274796908194e+000

4.71766149533147e+005,-1.50820763669179e+001,-4.04694629524759e+000

4.78351759563174e+005,-1.50825313658642e+001,-4.10185879854992e+000

4.85029301283321e+005,-1.50829931887571e+001,-4.15749476050401e+000

4.91800058012158e+005,-1.50834618266894e+001,-4.21386360562725e+000

4.98665330982714e+005,-1.50839372666573e+001,-4.27097490483702e+000

5.05626439592555e+005,-1.50844194915452e+001,-4.32883837891585e+000

5.12684721657352e+005,-1.50849084801221e+001,-4.38746390203938e+000

5.19841533667984e+005,-1.50854042070483e+001,-4.44686150536728e+000

5.27098251051240e+005,-1.50859066428963e+001,-4.50704138068907e+000

5.34456268434150e+005,-1.50864157541827e+001,-4.56801388412736e+000

5.41916999912011e+005,-1.50869315034145e+001,-4.62978953988890e+000

