Freq.,VOut,OutRef

1.00000000000000e+004,-2.20468756178952e+001,-3.38806087585826e-001

1.01395947979003e+004,-2.20468773852179e+001,-3.43535586364027e-001

1.02811382665607e+004,-2.20468792022219e+001,-3.48331104024710e-001

1.04246576084112e+004,-2.20468810703040e+001,-3.53193562051228e-001

1.05701804056138e+004,-2.20468829908997e+001,-3.58123894788459e-001

1.07177346253629e+004,-2.20468849654849e+001,-3.63123049618538e-001

1.08673486252606e+004,-2.20468869955775e+001,-3.68191987143206e-001

1.10190511587661e+004,-2.20468890827375e+001,-3.73331681369849e-001

1.11728713807222e+004,-2.20468912285688e+001,-3.78543119896031e-001

1.13288388529580e+004,-2.20468934347207e+001,-3.83827304101389e-001

1.14869835499703e+004,-2.20468957028886e+001,-3.89185249337316e-001

1.16473358646846e+004,-2.20468980348154e+001,-3.94617985124294e-001

1.18099266142953e+004,-2.20469004322935e+001,-4.00126555347063e-001

1.19747870461893e+004,-2.20469028971651e+001,-4.05712018456916e-001

1.21419488439505e+004,-2.20469054313243e+001,-4.11375447674464e-001

1.23114441334492e+004,-2.20469080367188e+001,-4.17117931192253e-001

1.24833054890161e+004,-2.20469107153506e+001,-4.22940572388702e-001

1.26575659397028e+004,-2.20469134692780e+001,-4.28844490036524e-001

1.28342589756290e+004,-2.20469163006172e+001,-4.34830818517822e-001

1.30134185544193e+004,-2.20469192115441e+001,-4.40900708041678e-001

1.31950791077289e+004,-2.20469222042954e+001,-4.47055324864673e-001

1.33792755478611e+004,-2.20469252811707e+001,-4.53295851515232e-001

1.35660432744767e+004,-2.20469284445343e+001,-4.59623487020510e-001

1.37554181813974e+004,-2.20469316968171e+001,-4.66039447133404e-001

1.39474366635040e+004,-2.20469350405178e+001,-4.72544964570847e-001

1.41421356237309e+004,-2.20469384782057e+001,-4.79141289245133e-001

1.43395524801583e+004,-2.20469420125223e+001,-4.85829688506111e-001

1.45397251732031e+004,-2.20469456461829e+001,-4.92611447384648e-001

1.47426921729110e+004,-2.20469493819797e+001,-4.99487868836406e-001

1.49484924863494e+004,-2.20469532227828e+001,-5.06460273993666e-001

1.51571656651040e+004,-2.20469571715430e+001,-5.13530002419238e-001

1.53687518128801e+004,-2.20469612312942e+001,-5.20698412360098e-001

1.55832915932100e+004,-2.20469654051556e+001,-5.27966881009848e-001

1.58008262372675e+004,-2.20469696963337e+001,-5.35336804773060e-001

1.60213975517924e+004,-2.20469741081252e+001,-5.42809599531293e-001

1.62450479271247e+004,-2.20469786439195e+001,-5.50386700915246e-001

1.64718203453514e+004,-2.20469833072010e+001,-5.58069564579196e-001

1.67017583885674e+004,-2.20469881015520e+001,-5.65859666480999e-001

1.69349062472505e+004,-2.20469930306557e+001,-5.73758503162292e-001

1.71713087287550e+004,-2.20469980982985e+001,-5.81767592038032e-001

1.74110112659224e+004,-2.20470033083730e+001,-5.89888471685868e-001

1.76540599258131e+004,-2.20470086648813e+001,-5.98122702139620e-001

1.79005014185594e+004,-2.20470141719379e+001,-6.06471865189271e-001

1.81503831063432e+004,-2.20470198337729e+001,-6.14937564683175e-001

1.84037530124975e+004,-2.20470256547349e+001,-6.23521426836501e-001

1.86606598307361e+004,-2.20470316392949e+001,-6.32225100538993e-001

1.89211529345119e+004,-2.20470377920494e+001,-6.41050257673904e-001

1.91852823865052e+004,-2.20470441177237e+001,-6.49998593437502e-001

1.94530989482457e+004,-2.20470506211762e+001,-6.59071826660149e-001

1.97246540898671e+004,-2.20470573074012e+001,-6.68271700140045e-001

1.99999999999999e+004,-2.20470641815337e+001,-6.77599980972656e-001

2.02791895958005e+004,-2.20470712488524e+001,-6.87058460890233e-001

2.05622765331213e+004,-2.20470785147846e+001,-6.96648956603223e-001

2.08493152168224e+004,-2.20470859849097e+001,-7.06373310150773e-001

2.11403608112276e+004,-2.20470936649638e+001,-7.16233389247452e-001

2.14354692507258e+004,-2.20471015608438e+001,-7.26231087646375e-001

2.17346972505211e+004,-2.20471096786126e+001,-7.36368325495384e-001

2.20381023175322e+004,-2.20471180245026e+001,-7.46647049709317e-001

2.23457427614443e+004,-2.20471266049217e+001,-7.57069234336160e-001

2.26576777059159e+004,-2.20471354264573e+001,-7.67636880939089e-001

2.29739670999406e+004,-2.20471444958817e+001,-7.78352018977006e-001

2.32946717293690e+004,-2.20471538201573e+001,-7.89216706189844e-001

2.36198532285905e+004,-2.20471634064419e+001,-8.00233028994626e-001

2.39495740923785e+004,-2.20471732620939e+001,-8.11403102882550e-001

2.42838976879009e+004,-2.20471833946785e+001,-8.22729072820903e-001

2.46228882668982e+004,-2.20471938119727e+001,-8.34213113665880e-001

2.49666109780322e+004,-2.20472045219719e+001,-8.45857430574132e-001

2.53151318794055e+004,-2.20472155328959e+001,-8.57664259424601e-001

2.56685179512580e+004,-2.20472268531949e+001,-8.69635867245010e-001

2.60268371088386e+004,-2.20472384915561e+001,-8.81774552643598e-001

2.63901582154578e+004,-2.20472504569104e+001,-8.94082646247125e-001

2.67585510957221e+004,-2.20472627584391e+001,-9.06562511146009e-001

2.71320865489533e+004,-2.20472754055808e+001,-9.19216543343408e-001

2.75108363627948e+004,-2.20472884080392e+001,-9.32047172210648e-001

2.78948733270080e+004,-2.20473017757896e+001,-9.45056860952349e-001

2.82842712474618e+004,-2.20473155190871e+001,-9.58248107072847e-001

2.86791049603164e+004,-2.20473296484745e+001,-9.71623442852519e-001

2.90794503464061e+004,-2.20473441747898e+001,-9.85185435829665e-001

2.94853843458219e+004,-2.20473591091749e+001,-9.98936689288106e-001

2.98969849726987e+004,-2.20473744630840e+001,-1.01287984275330e+000

3.03143313302078e+004,-2.20473902482923e+001,-1.02701757249198e+000

3.07375036257601e+004,-2.20474064769048e+001,-1.04135259202377e+000

3.11665831864199e+004,-2.20474231613659e+001,-1.05588765263325e+000

3.16016524745350e+004,-2.20474403144683e+001,-1.07062554389564e+000

3.20427951035848e+004,-2.20474579493634e+001,-1.08556909420299e+000

3.24900958542493e+004,-2.20474760795708e+001,-1.10072117130346e+000

3.29436406907028e+004,-2.20474947189887e+001,-1.11608468284518e+000

3.34035167771346e+004,-2.20475138819048e+001,-1.13166257692559e+000

3.38698124945009e+004,-2.20475335830063e+001,-1.14745784265260e+000

3.43426174575100e+004,-2.20475538373923e+001,-1.16347351070981e+000

3.48220225318448e+004,-2.20475746605839e+001,-1.17971265393037e+000

3.53081198516260e+004,-2.20475960685373e+001,-1.19617838787887e+000

3.58010028371187e+004,-2.20476180776549e+001,-1.21287387144245e+000

3.63007662126863e+004,-2.20476407047981e+001,-1.22980230742561e+000

3.68075060249948e+004,-2.20476639673003e+001,-1.24696694315849e+000

3.73213196614721e+004,-2.20476878829797e+001,-1.26437107110860e+000

3.78423058690237e+004,-2.20477124701528e+001,-1.28201802950460e+000

3.83705647730104e+004,-2.20477377476488e+001,-1.29991120296509e+000

3.89061978964912e+004,-2.20477637348231e+001,-1.31805402313759e+000

3.94493081797342e+004,-2.20477904515724e+001,-1.33644996934783e+000

3.99999999999998e+004,-2.20478179183497e+001,-1.35510256925275e+000

4.05583791916010e+004,-2.20478461561796e+001,-1.37401539950750e+000

4.11245530662425e+004,-2.20478751866745e+001,-1.39319208643771e+000

4.16986304336447e+004,-2.20479050320506e+001,-1.41263630672334e+000

4.22807216224550e+004,-2.20479357151446e+001,-1.43235178808893e+000

4.28709385014515e+004,-2.20479672594315e+001,-1.45234231000577e+000

4.34693945010421e+004,-2.20479996890416e+001,-1.47261170440102e+000

4.40762046350642e+004,-2.20480330287794e+001,-1.49316385637737e+000

4.46914855228886e+004,-2.20480673041413e+001,-1.51400270494338e+000

4.53153554118317e+004,-2.20481025413358e+001,-1.53513224375045e+000

4.59479341998812e+004,-2.20481387673028e+001,-1.55655652184245e+000

4.65893434587380e+004,-2.20481760097338e+001,-1.57827964441236e+000

4.72397064571810e+004,-2.20482142970928e+001,-1.60030577357325e+000

4.78991481847569e+004,-2.20482536586375e+001,-1.62263912913464e+000

4.85677953758016e+004,-2.20482941244416e+001,-1.64528398939068e+000

4.92457765337964e+004,-2.20483357254170e+001,-1.66824469192087e+000

4.99332219560642e+004,-2.20483784933374e+001,-1.69152563439680e+000

5.06302637588109e+004,-2.20484224608615e+001,-1.71513127540503e+000

5.13370359025159e+004,-2.20484676615580e+001,-1.73906613527475e+000

5.20536742176771e+004,-2.20485141299304e+001,-1.76333479691974e+000

5.27803164309155e+004,-2.20485619014428e+001,-1.78794190669181e+000

5.35171021914442e+004,-2.20486110125466e+001,-1.81289217524259e+000

5.42641730979066e+004,-2.20486615007074e+001,-1.83819037839808e+000

5.50216727255895e+004,-2.20487134044331e+001,-1.86384135804419e+000

5.57897466540159e+004,-2.20487667633027e+001,-1.88985002302334e+000

5.65685424949235e+004,-2.20488216179953e+001,-1.91622135004351e+000

5.73582099206328e+004,-2.20488780103209e+001,-1.94296038459748e+000

5.81589006928121e+004,-2.20489359832512e+001,-1.97007224189490e+000

5.89707686916437e+004,-2.20489955809515e+001,-1.99756210780539e+000

5.97939699453972e+004,-2.20490568488131e+001,-2.02543523981445e+000

6.06286626604156e+004,-2.20491198334878e+001,-2.05369696799048e+000

6.14750072515201e+004,-2.20491845829215e+001,-2.08235269596499e+000

6.23331663728396e+004,-2.20492511463903e+001,-2.11140790192411e+000

6.32033049490698e+004,-2.20493195745362e+001,-2.14086813961394e+000

6.40855902071694e+004,-2.20493899194054e+001,-2.17073903935609e+000

6.49801917084985e+004,-2.20494622344854e+001,-2.20102630907919e+000

6.58872813814055e+004,-2.20495365747457e+001,-2.23173573535969e+000

6.68070335542691e+004,-2.20496129966771e+001,-2.26287318447816e+000

6.77396249890018e+004,-2.20496915583338e+001,-2.29444460348737e+000

6.86852349150199e+004,-2.20497723193757e+001,-2.32645602129384e+000

6.96440450636895e+004,-2.20498553411120e+001,-2.35891354975300e+000

7.06162397032520e+004,-2.20499406865463e+001,-2.39182338477576e+000

7.16020056742374e+004,-2.20500284204224e+001,-2.42519180745243e+000

7.26015324253724e+004,-2.20501186092716e+001,-2.45902518518571e+000

7.36150120499896e+004,-2.20502113214610e+001,-2.49332997284085e+000

7.46426393229441e+004,-2.20503066272431e+001,-2.52811271390776e+000

7.56846117380472e+004,-2.20504045988073e+001,-2.56338004167760e+000

7.67411295460207e+004,-2.20505053103316e+001,-2.59913868043324e+000

7.78123957929823e+004,-2.20506088380367e+001,-2.63539544665415e+000

7.88986163594682e+004,-2.20507152602406e+001,-2.67215725023522e+000

7.99999999999995e+004,-2.20508246574156e+001,-2.70943109571949e+000

8.11167583832018e+004,-2.20509371122460e+001,-2.74722408354657e+000

8.22491061324848e+004,-2.20510527096870e+001,-2.78554341131419e+000

8.33972608672892e+004,-2.20511715370268e+001,-2.82439637505490e+000

8.45614432449099e+004,-2.20512936839476e+001,-2.86379037052770e+000

8.57418770029029e+004,-2.20514192425909e+001,-2.90373289452428e+000

8.69387890020841e+004,-2.20515483076227e+001,-2.94423154619008e+000

8.81524092701283e+004,-2.20516809763005e+001,-2.98529402836030e+000

8.93829710457770e+004,-2.20518173485432e+001,-3.02692814891067e+000

9.06307108236633e+004,-2.20519575270010e+001,-3.06914182212438e+000

9.18958683997622e+004,-2.20521016171284e+001,-3.11194307007296e+000

9.31786869174758e+004,-2.20522497272588e+001,-3.15534002401323e+000

9.44794129143618e+004,-2.20524019686801e+001,-3.19934092579897e+000

9.57982963695136e+004,-2.20525584557135e+001,-3.24395412930879e+000

9.71355907516031e+004,-2.20527193057929e+001,-3.28918810188875e+000

9.84915530675926e+004,-2.20528846395475e+001,-3.33505142581123e+000

9.98664439121282e+004,-2.20530545808854e+001,-3.38155279974860e+000

1.01260527517622e+005,-2.20532292570799e+001,-3.42870104026276e+000

1.02674071805032e+005,-2.20534087988577e+001,-3.47650508331082e+000

1.04107348435354e+005,-2.20535933404893e+001,-3.52497398576641e+000

1.05560632861831e+005,-2.20537830198811e+001,-3.57411692695596e+000

1.07034204382888e+005,-2.20539779786707e+001,-3.62394321021215e+000

1.08528346195813e+005,-2.20541783623236e+001,-3.67446226444155e+000

1.10043345451179e+005,-2.20543843202326e+001,-3.72568364570994e+000

1.11579493308032e+005,-2.20545960058196e+001,-3.77761703884191e+000

1.13137084989847e+005,-2.20548135766393e+001,-3.83027225903768e+000

1.14716419841265e+005,-2.20550371944864e+001,-3.88365925350456e+000

1.16317801385624e+005,-2.20552670255040e+001,-3.93778810310601e+000

1.17941537383287e+005,-2.20555032402959e+001,-3.99266902402461e+000

1.19587939890794e+005,-2.20557460140399e+001,-4.04831236944284e+000

1.21257325320831e+005,-2.20559955266054e+001,-4.10472863123857e+000

1.22950014503040e+005,-2.20562519626725e+001,-4.16192844169707e+000

1.24666332745679e+005,-2.20565155118544e+001,-4.21992257523895e+000

1.26406609898139e+005,-2.20567863688224e+001,-4.27872195016352e+000

1.28171180414339e+005,-2.20570647334335e+001,-4.33833763040866e+000

1.29960383416997e+005,-2.20573508108614e+001,-4.39878082732560e+000

1.31774562762811e+005,-2.20576448117301e+001,-4.46006290147111e+000

1.33614067108538e+005,-2.20579469522504e+001,-4.52219536441394e+000

1.35479249978003e+005,-2.20582574543593e+001,-4.58518988055733e+000

1.37370469830040e+005,-2.20585765458630e+001,-4.64905826897842e+000

1.39288090127379e+005,-2.20589044605827e+001,-4.71381250528114e+000

1.41232479406504e+005,-2.20592414385033e+001,-4.77946472346688e+000

1.43204011348474e+005,-2.20595877259255e+001,-4.84602721781955e+000

1.45203064850745e+005,-2.20599435756213e+001,-4.91351244480648e+000

1.47230024099979e+005,-2.20603092469928e+001,-4.98193302499381e+000

1.49285278645888e+005,-2.20606850062338e+001,-5.05130174497970e+000

1.51369223476094e+005,-2.20610711264957e+001,-5.12163155933943e+000

1.53482259092041e+005,-2.20614678880560e+001,-5.19293559258928e+000

1.55624791585964e+005,-2.20618755784906e+001,-5.26522714116255e+000

1.57797232718936e+005,-2.20622944928497e+001,-5.33851967540316e+000

1.59999999999999e+005,-2.20627249338373e+001,-5.41282684157211e+000

1.62233516766403e+005,-2.20631672119942e+001,-5.48816246387102e+000

1.64498212264969e+005,-2.20636216458843e+001,-5.56454054647906e+000

1.66794521734578e+005,-2.20640885622854e+001,-5.64197527560558e+000

1.69122886489819e+005,-2.20645682963831e+001,-5.72048102155689e+000

1.71483754005805e+005,-2.20650611919688e+001,-5.80007234081859e+000

1.73877578004168e+005,-2.20655676016412e+001,-5.88076397815221e+000

1.76304818540256e+005,-2.20660878870121e+001,-5.96257086870609e+000

1.78765942091554e+005,-2.20666224189159e+001,-6.04550814014180e+000

1.81261421647326e+005,-2.20671715776229e+001,-6.12959111477438e+000

1.83791736799524e+005,-2.20677357530572e+001,-6.21483531172750e+000

1.86357373834951e+005,-2.20683153450177e+001,-6.30125644910283e+000

1.88958825828723e+005,-2.20689107634038e+001,-6.38887044616494e+000

1.91596592739027e+005,-2.20695224284455e+001,-6.47769342553896e+000

1.94271181503206e+005,-2.20701507709370e+001,-6.56774171542506e+000

1.96983106135185e+005,-2.20707962324749e+001,-6.65903185182543e+000

1.99732887824256e+005,-2.20714592657007e+001,-6.75158058078707e+000

2.02521055035243e+005,-2.20721403345474e+001,-6.84540486065952e+000

2.05348143610063e+005,-2.20728399144905e+001,-6.94052186436593e+000

2.08214696870707e+005,-2.20735584928038e+001,-7.03694898169091e+000

2.11121265723661e+005,-2.20742965688190e+001,-7.13470382158170e+000

2.14068408765776e+005,-2.20750546541906e+001,-7.23380421446548e+000

2.17056692391625e+005,-2.20758332731644e+001,-7.33426821458149e+000

2.20086690902357e+005,-2.20766329628515e+001,-7.43611410232881e+000

2.23158986616063e+005,-2.20774542735068e+001,-7.53936038662926e+000

2.26274169979693e+005,-2.20782977688117e+001,-7.64402580730719e+000

2.29432839682530e+005,-2.20791640261625e+001,-7.75012933748396e+000

2.32635602771247e+005,-2.20800536369629e+001,-7.85769018599011e+000

2.35883074766574e+005,-2.20809672069219e+001,-7.96672779979309e+000

2.39175879781588e+005,-2.20819053563569e+001,-8.07726186644246e+000

2.42514650641661e+005,-2.20828687205015e+001,-8.18931231653267e+000

2.45900029006080e+005,-2.20838579498187e+001,-8.30289932618268e+000

2.49332665491357e+005,-2.20848737103203e+001,-8.41804331953377e+000

2.52813219796278e+005,-2.20859166838898e+001,-8.53476497126677e+000

2.56342360828676e+005,-2.20869875686131e+001,-8.65308520913728e+000

2.59920766833993e+005,-2.20880870791135e+001,-8.77302521652939e+000

2.63549125525621e+005,-2.20892159468930e+001,-8.89460643503142e+000

2.67228134217075e+005,-2.20903749206796e+001,-9.01785056702963e+000

2.70958499956006e+005,-2.20915647667811e+001,-9.14277957832423e+000

2.74740939660078e+005,-2.20927862694443e+001,-9.26941570076604e+000

2.78576180254757e+005,-2.20940402312219e+001,-9.39778143491457e+000

2.82464958813007e+005,-2.20953274733453e+001,-9.52789955271965e+000

2.86408022696948e+005,-2.20966488361049e+001,-9.65979310022441e+000

2.90406129701488e+005,-2.20980051792373e+001,-9.79348540029270e+000

2.94460048199957e+005,-2.20993973823199e+001,-9.92900005535978e+000

2.98570557291775e+005,-2.21008263451737e+001,-1.00663609502082e+001

3.02738446952187e+005,-2.21022929882734e+001,-1.02055922547665e+001

3.06964518184081e+005,-2.21037982531667e+001,-1.03467184269361e+001

3.11249583171928e+005,-2.21053431029013e+001,-1.04897642154414e+001

3.15594465437872e+005,-2.21069285224620e+001,-1.06347546627065e+001

3.19999999999997e+005,-2.21085555192160e+001,-1.07817151077589e+001

3.24467033532806e+005,-2.21102251233692e+001,-1.09306711891591e+001

3.28996424529938e+005,-2.21119383884317e+001,-1.10816488479560e+001

3.33589043469155e+005,-2.21136963916946e+001,-1.12346743306707e+001

3.38245772979638e+005,-2.21155002347178e+001,-1.13897741923050e+001

3.42967508011610e+005,-2.21173510438296e+001,-1.15469752993772e+001

3.47755156008335e+005,-2.21192499706376e+001,-1.17063048329835e+001

3.52609637080511e+005,-2.21211981925538e+001,-1.18677902918855e+001

3.57531884183106e+005,-2.21231969133317e+001,-1.20314594956210e+001

3.62522843294651e+005,-2.21252473636179e+001,-1.21973405876401e+001

3.67583473599047e+005,-2.21273508015182e+001,-1.23654620384632e+001

3.72714747669902e+005,-2.21295085131789e+001,-1.25358526488613e+001

3.77917651657445e+005,-2.21317218133834e+001,-1.27085415530553e+001

3.83193185478053e+005,-2.21339920461665e+001,-1.28835582219342e+001

3.88542363006410e+005,-2.21363205854447e+001,-1.30609324662889e+001

3.93966212270369e+005,-2.21387088356657e+001,-1.32406944400588e+001

3.99465775648511e+005,-2.21411582324755e+001,-1.34228746435913e+001

4.05042110070485e+005,-2.21436702434064e+001,-1.36075039269067e+001

4.10696287220124e+005,-2.21462463685842e+001,-1.37946134929684e+001

4.16429393741414e+005,-2.21488881414571e+001,-1.39842349009533e+001

4.22242531447321e+005,-2.21515971295466e+001,-1.41764000695181e+001

4.28136817531551e+005,-2.21543749352215e+001,-1.43711412800566e+001

4.34113384783250e+005,-2.21572231964945e+001,-1.45684911799436e+001

4.40173381804713e+005,-2.21601435878446e+001,-1.47684827857583e+001

4.46317973232124e+005,-2.21631378210640e+001,-1.49711494864831e+001

4.52548339959385e+005,-2.21662076461309e+001,-1.51765250466678e+001

4.58865679365059e+005,-2.21693548521102e+001,-1.53846436095567e+001

4.65271205542494e+005,-2.21725812680805e+001,-1.55955397001654e+001

4.71766149533147e+005,-2.21758887640909e+001,-1.58092482283042e+001

4.78351759563174e+005,-2.21792792521456e+001,-1.60258044915346e+001

4.85029301283321e+005,-2.21827546872197e+001,-1.62452441780527e+001

4.91800058012158e+005,-2.21863170683042e+001,-1.64676033694877e+001

4.98665330982714e+005,-2.21899684394827e+001,-1.66929185436063e+001

5.05626439592555e+005,-2.21937108910398e+001,-1.69212265769087e+001

5.12684721657352e+005,-2.21975465606010e+001,-1.71525647471095e+001

5.19841533667984e+005,-2.22014776343055e+001,-1.73869707354852e+001

5.27098251051240e+005,-2.22055063480114e+001,-1.76244826290807e+001

5.34456268434150e+005,-2.22096349885344e+001,-1.78651389227562e+001

5.41916999912011e+005,-2.22138658949188e+001,-1.81089785210657e+001

