Freq.,VOut,OutRef

1.00000000000000e+004,-3.10429587176027e+000,-5.87503648613849e-002

1.01395947979003e+004,-3.10429585518220e+000,-5.95704887256970e-002

1.02811382665607e+004,-3.10429583813806e+000,-6.04020610635596e-002

1.04246576084112e+004,-3.10429582061429e+000,-6.12452416914263e-002

1.05701804056138e+004,-3.10429580259831e+000,-6.21001926480395e-002

1.07177346253629e+004,-3.10429578407530e+000,-6.29670782460034e-002

1.08673486252606e+004,-3.10429576503154e+000,-6.38460650819332e-002

1.10190511587661e+004,-3.10429574545231e+000,-6.47373220818470e-002

1.11728713807222e+004,-3.10429572532257e+000,-6.56410205289955e-002

1.13288388529580e+004,-3.10429570462673e+000,-6.65573340988762e-002

1.14869835499703e+004,-3.10429568334878e+000,-6.74864388910851e-002

1.16473358646846e+004,-3.10429566147284e+000,-6.84285134594487e-002

1.18099266142953e+004,-3.10429563898158e+000,-6.93837388567380e-002

1.19747870461893e+004,-3.10429561585758e+000,-7.03522986607952e-002

1.21419488439505e+004,-3.10429559208362e+000,-7.13343790074445e-002

1.23114441334492e+004,-3.10429556764111e+000,-7.23301686360846e-002

1.24833054890161e+004,-3.10429554251118e+000,-7.33398589199730e-002

1.26575659397028e+004,-3.10429551667463e+000,-7.43636439014896e-002

1.28342589756290e+004,-3.10429549011137e+000,-7.54017203345902e-002

1.30134185544193e+004,-3.10429546280122e+000,-7.64542877168645e-002

1.31950791077289e+004,-3.10429543472296e+000,-7.75215483328296e-002

1.33792755478611e+004,-3.10429540585517e+000,-7.86037072888956e-002

1.35660432744767e+004,-3.10429537617543e+000,-7.97009725568806e-002

1.37554181813974e+004,-3.10429534566122e+000,-8.08135550081558e-002

1.39474366635040e+004,-3.10429531428868e+000,-8.19416684620789e-002

1.41421356237309e+004,-3.10429528203397e+000,-8.30855297186521e-002

1.43395524801583e+004,-3.10429524887210e+000,-8.42453586067793e-002

1.45397251732031e+004,-3.10429521477757e+000,-8.54213780231374e-002

1.47426921729110e+004,-3.10429517972417e+000,-8.66138139752811e-002

1.49484924863494e+004,-3.10429514368474e+000,-8.78228956272615e-002

1.51571656651040e+004,-3.10429510663205e+000,-8.90488553372794e-002

1.53687518128801e+004,-3.10429506853703e+000,-9.02919287140066e-002

1.55832915932100e+004,-3.10429502937057e+000,-9.15523546501712e-002

1.58008262372675e+004,-3.10429498910269e+000,-9.28303753729988e-002

1.60213975517924e+004,-3.10429494770211e+000,-9.41262364940813e-002

1.62450479271247e+004,-3.10429490513716e+000,-9.54401870503560e-002

1.64718203453514e+004,-3.10429486137487e+000,-9.67724795574698e-002

1.67017583885674e+004,-3.10429481638187e+000,-9.81233700525291e-002

1.69349062472505e+004,-3.10429477012321e+000,-9.94931181507101e-002

1.71713087287550e+004,-3.10429472256340e+000,-1.00881987087958e-001

1.74110112659224e+004,-3.10429467366595e+000,-1.02290243775009e-001

1.76540599258131e+004,-3.10429462339307e+000,-1.03718158849918e-001

1.79005014185594e+004,-3.10429457170595e+000,-1.05166006728017e-001

1.81503831063432e+004,-3.10429451856495e+000,-1.06634065653501e-001

1.84037530124975e+004,-3.10429446392909e+000,-1.08122617756023e-001

1.86606598307361e+004,-3.10429440775641e+000,-1.09631949101878e-001

1.89211529345119e+004,-3.10429435000350e+000,-1.11162349752201e-001

1.91852823865052e+004,-3.10429429062596e+000,-1.12714113816046e-001

1.94530989482457e+004,-3.10429422957806e+000,-1.14287539507179e-001

1.97246540898671e+004,-3.10429416681272e+000,-1.15882929203396e-001

1.99999999999999e+004,-3.10429410228157e+000,-1.17500589502192e-001

2.02791895958005e+004,-3.10429403593508e+000,-1.19140831279562e-001

2.05622765331213e+004,-3.10429396772196e+000,-1.20803969753578e-001

2.08493152168224e+004,-3.10429389758972e+000,-1.22490324539505e-001

2.11403608112276e+004,-3.10429382548422e+000,-1.24200219716351e-001

2.14354692507258e+004,-3.10429375135019e+000,-1.25933983883261e-001

2.17346972505211e+004,-3.10429367513022e+000,-1.27691950229774e-001

2.20381023175322e+004,-3.10429359676565e+000,-1.29474456594204e-001

2.23457427614443e+004,-3.10429351619613e+000,-1.31281845530090e-001

2.26576777059159e+004,-3.10429343335963e+000,-1.33114464372871e-001

2.29739670999406e+004,-3.10429334819215e+000,-1.34972665306674e-001

2.32946717293690e+004,-3.10429326062819e+000,-1.36856805430156e-001

2.36198532285905e+004,-3.10429317060007e+000,-1.38767246828039e-001

2.39495740923785e+004,-3.10429307803858e+000,-1.40704356636926e-001

2.42838976879009e+004,-3.10429298287231e+000,-1.42668507118678e-001

2.46228882668982e+004,-3.10429288502787e+000,-1.44660075731810e-001

2.49666109780322e+004,-3.10429278442979e+000,-1.46679445202544e-001

2.53151318794055e+004,-3.10429268100036e+000,-1.48727003600415e-001

2.56685179512580e+004,-3.10429257466003e+000,-1.50803144408908e-001

2.60268371088386e+004,-3.10429246532661e+000,-1.52908266605907e-001

2.63901582154578e+004,-3.10429235291604e+000,-1.55042774735439e-001

2.67585510957221e+004,-3.10429223734124e+000,-1.57207078992310e-001

2.71320865489533e+004,-3.10429211851334e+000,-1.59401595291198e-001

2.75108363627948e+004,-3.10429199634036e+000,-1.61626745357026e-001

2.78948733270080e+004,-3.10429187072831e+000,-1.63882956796598e-001

2.82842712474618e+004,-3.10429174158008e+000,-1.66170663187459e-001

2.86791049603164e+004,-3.10429160879601e+000,-1.68490304157787e-001

2.90794503464061e+004,-3.10429147227370e+000,-1.70842325471347e-001

2.94853843458219e+004,-3.10429133190760e+000,-1.73227179114894e-001

2.98969849726987e+004,-3.10429118758943e+000,-1.75645323381626e-001

3.03143313302078e+004,-3.10429103920778e+000,-1.78097222962091e-001

3.07375036257601e+004,-3.10429088664790e+000,-1.80583349033349e-001

3.11665831864199e+004,-3.10429072979202e+000,-1.83104179347044e-001

3.16016524745350e+004,-3.10429056851918e+000,-1.85660198321868e-001

3.20427951035848e+004,-3.10429040270447e+000,-1.88251897140631e-001

3.24900958542493e+004,-3.10429023221993e+000,-1.90879773838122e-001

3.29436406907028e+004,-3.10429005693374e+000,-1.93544333401914e-001

3.34035167771346e+004,-3.10428987671047e+000,-1.96246087866014e-001

3.38698124945009e+004,-3.10428969141084e+000,-1.98985556410852e-001

3.43426174575100e+004,-3.10428950089152e+000,-2.01763265463453e-001

3.48220225318448e+004,-3.10428930500527e+000,-2.04579748796268e-001

3.53081198516260e+004,-3.10428910360041e+000,-2.07435547633233e-001

3.58010028371187e+004,-3.10428889652125e+000,-2.10331210749591e-001

3.63007662126863e+004,-3.10428868360754e+000,-2.13267294579996e-001

3.68075060249948e+004,-3.10428846469457e+000,-2.16244363323976e-001

3.73213196614721e+004,-3.10428823961304e+000,-2.19262989054488e-001

3.78423058690237e+004,-3.10428800818843e+000,-2.22323751830310e-001

3.83705647730104e+004,-3.10428777024186e+000,-2.25427239802130e-001

3.89061978964912e+004,-3.10428752558880e+000,-2.28574049331085e-001

3.94493081797342e+004,-3.10428727403995e+000,-2.31764785098210e-001

3.99999999999998e+004,-3.10428701540038e+000,-2.35000060224492e-001

4.05583791916010e+004,-3.10428674946949e+000,-2.38280496387522e-001

4.11245530662425e+004,-3.10428647604161e+000,-2.41606723936823e-001

4.16986304336447e+004,-3.10428619490436e+000,-2.44979382022760e-001

4.22807216224550e+004,-3.10428590583995e+000,-2.48399118711622e-001

4.28709385014515e+004,-3.10428560862410e+000,-2.51866591114448e-001

4.34693945010421e+004,-3.10428530302624e+000,-2.55382465511525e-001

4.40762046350642e+004,-3.10428498880940e+000,-2.58947417479337e-001

4.46914855228886e+004,-3.10428466572942e+000,-2.62562132023599e-001

4.53153554118317e+004,-3.10428433353583e+000,-2.66227303705448e-001

4.59479341998812e+004,-3.10428399197031e+000,-2.69943636781149e-001

4.65893434587380e+004,-3.10428364076783e+000,-2.73711845330301e-001

4.72397064571810e+004,-3.10428327965520e+000,-2.77532653399766e-001

4.78991481847569e+004,-3.10428290835207e+000,-2.81406795135539e-001

4.85677953758016e+004,-3.10428252656951e+000,-2.85335014930385e-001

4.92457765337964e+004,-3.10428213401072e+000,-2.89318067561489e-001

4.99332219560642e+004,-3.10428173037042e+000,-2.93356718336791e-001

5.06302637588109e+004,-3.10428131533426e+000,-2.97451743244344e-001

5.13370359025159e+004,-3.10428088857924e+000,-3.01603929097479e-001

5.20536742176771e+004,-3.10428044977303e+000,-3.05814073687015e-001

5.27803164309155e+004,-3.10427999857389e+000,-3.10082985934421e-001

5.35171021914442e+004,-3.10427953463004e+000,-3.14411486048064e-001

5.42641730979066e+004,-3.10427905758008e+000,-3.18800405677101e-001

5.50216727255895e+004,-3.10427856705163e+000,-3.23250588076744e-001

5.57897466540159e+004,-3.10427806266219e+000,-3.27762888263449e-001

5.65685424949235e+004,-3.10427754401810e+000,-3.32338173182580e-001

5.73582099206328e+004,-3.10427701071424e+000,-3.36977321874976e-001

5.81589006928121e+004,-3.10427646233423e+000,-3.41681225642322e-001

5.89707686916437e+004,-3.10427589844929e+000,-3.46450788222571e-001

5.97939699453972e+004,-3.10427531861889e+000,-3.51286925957387e-001

6.06286626604156e+004,-3.10427472238914e+000,-3.56190567974823e-001

6.14750072515201e+004,-3.10427410929359e+000,-3.61162656360781e-001

6.23331663728396e+004,-3.10427347885234e+000,-3.66204146342844e-001

6.32033049490698e+004,-3.10427283057154e+000,-3.71316006473096e-001

6.40855902071694e+004,-3.10427216394293e+000,-3.76499218814711e-001

6.49801917084985e+004,-3.10427147844401e+000,-3.81754779126341e-001

6.58872813814055e+004,-3.10427077353696e+000,-3.87083697057016e-001

6.68070335542691e+004,-3.10427004866840e+000,-3.92486996337656e-001

6.77396249890018e+004,-3.10426930326894e+000,-3.97965714977965e-001

6.86852349150199e+004,-3.10426853675292e+000,-4.03520905463489e-001

6.96440450636895e+004,-3.10426774851768e+000,-4.09153634958411e-001

7.06162397032520e+004,-3.10426693794291e+000,-4.14864985511544e-001

7.16020056742374e+004,-3.10426610439054e+000,-4.20656054260210e-001

7.26015324253724e+004,-3.10426524720397e+000,-4.26527953642628e-001

7.36150120499896e+004,-3.10426436570736e+000,-4.32481811610772e-001

7.46426393229441e+004,-3.10426345920544e+000,-4.38518771844687e-001

7.56846117380472e+004,-3.10426252698273e+000,-4.44639993972822e-001

7.67411295460207e+004,-3.10426156830285e+000,-4.50846653793571e-001

7.78123957929823e+004,-3.10426058240793e+000,-4.57139943501227e-001

7.88986163594682e+004,-3.10425956851815e+000,-4.63521071912019e-001

7.99999999999995e+004,-3.10425852583078e+000,-4.69991264697841e-001

8.11167583832018e+004,-3.10425745351992e+000,-4.76551764617532e-001

8.22491061324848e+004,-3.10425635073512e+000,-4.83203831759375e-001

8.33972608672892e+004,-3.10425521660156e+000,-4.89948743776327e-001

8.45614432449099e+004,-3.10425405021829e+000,-4.96787796136273e-001

8.57418770029029e+004,-3.10425285065841e+000,-5.03722302364341e-001

8.69387890020841e+004,-3.10425161696754e+000,-5.10753594298101e-001

8.81524092701283e+004,-3.10425034816331e+000,-5.17883022340511e-001

8.93829710457770e+004,-3.10424904323446e+000,-5.25111955718306e-001

9.06307108236633e+004,-3.10424770114023e+000,-5.32441782742159e-001

9.18958683997622e+004,-3.10424632080881e+000,-5.39873911075498e-001

9.31786869174758e+004,-3.10424490113691e+000,-5.47409768001095e-001

9.44794129143618e+004,-3.10424344098882e+000,-5.55050800692847e-001

9.57982963695136e+004,-3.10424193919518e+000,-5.62798476494380e-001

9.71355907516031e+004,-3.10424039455182e+000,-5.70654283199326e-001

9.84915530675926e+004,-3.10423880581906e+000,-5.78619729334241e-001

9.98664439121282e+004,-3.10423717172051e+000,-5.86696344446059e-001

1.01260527517622e+005,-3.10423549094173e+000,-5.94885679396240e-001

1.02674071805032e+005,-3.10423376212917e+000,-6.03189306656305e-001

1.04107348435354e+005,-3.10423198388909e+000,-6.11608820606644e-001

1.05560632861831e+005,-3.10423015478605e+000,-6.20145837842329e-001

1.07034204382888e+005,-3.10422827334184e+000,-6.28801997480824e-001

1.08528346195813e+005,-3.10422633803398e+000,-6.37578961475124e-001

1.10043345451179e+005,-3.10422434729457e+000,-6.46478414930019e-001

1.11579493308032e+005,-3.10422229950850e+000,-6.55502066425163e-001

1.13137084989847e+005,-3.10422019301220e+000,-6.64651648339902e-001

1.14716419841265e+005,-3.10421802609209e+000,-6.73928917183466e-001

1.16317801385624e+005,-3.10421579698311e+000,-6.83335653930049e-001

1.17941537383287e+005,-3.10421350386681e+000,-6.92873664358724e-001

1.19587939890794e+005,-3.10421114486991e+000,-7.02544779397635e-001

1.21257325320831e+005,-3.10420871806247e+000,-7.12350855472091e-001

1.22950014503040e+005,-3.10420622145593e+000,-7.22293774860477e-001

1.24666332745679e+005,-3.10420365300169e+000,-7.32375446049538e-001

1.26406609898139e+005,-3.10420101058857e+000,-7.42597804101696e-001

1.28171180414339e+005,-3.10419829204135e+000,-7.52962811020663e-001

1.29960383416997e+005,-3.10419549511837e+000,-7.63472456127122e-001

1.31774562762811e+005,-3.10419261750965e+000,-7.74128756436124e-001

1.33614067108538e+005,-3.10418965683444e+000,-7.84933757042053e-001

1.35479249978003e+005,-3.10418661063909e+000,-7.95889531508203e-001

1.37370469830040e+005,-3.10418347639471e+000,-8.06998182260079e-001

1.39288090127379e+005,-3.10418025149456e+000,-8.18261840987430e-001

1.41232479406504e+005,-3.10417693325167e+000,-8.29682669048927e-001

1.43204011348474e+005,-3.10417351889621e+000,-8.41262857883204e-001

1.45203064850745e+005,-3.10417000557291e+000,-8.53004629425527e-001

1.47230024099979e+005,-3.10416639033777e+000,-8.64910236532974e-001

1.49285278645888e+005,-3.10416267015587e+000,-8.76981963409240e-001

1.51369223476094e+005,-3.10415884189785e+000,-8.89222126041930e-001

1.53482259092041e+005,-3.10415490233703e+000,-9.01633072641879e-001

1.55624791585964e+005,-3.10415084814602e+000,-9.14217184090411e-001

1.57797232718936e+005,-3.10414667589383e+000,-9.26976874390406e-001

1.59999999999999e+005,-3.10414238204183e+000,-9.39914591127758e-001

1.62233516766403e+005,-3.10413796294065e+000,-9.53032815934832e-001

1.64498212264969e+005,-3.10413341482645e+000,-9.66334064962144e-001

1.66794521734578e+005,-3.10412873381672e+000,-9.79820889359108e-001

1.69122886489819e+005,-3.10412391590701e+000,-9.93495875755381e-001

1.71483754005805e+005,-3.10411895696628e+000,-1.00736164675516e+000

1.73877578004168e+005,-3.10411385273280e+000,-1.02142086143561e+000

1.76304818540256e+005,-3.10410859881006e+000,-1.03567621585057e+000

1.78765942091554e+005,-3.10410319066198e+000,-1.05013044354426e+000

1.81261421647326e+005,-3.10409762360831e+000,-1.06478631607101e+000

1.83791736799524e+005,-3.10409189281964e+000,-1.07964664352219e+000

1.86357373834951e+005,-3.10408599331293e+000,-1.09471427505810e+000

1.88958825828723e+005,-3.10407991994539e+000,-1.10999209945418e+000

1.91596592739027e+005,-3.10407366741011e+000,-1.12548304564522e+000

1.94271181503206e+005,-3.10406723022988e+000,-1.14119008328525e+000

1.96983106135185e+005,-3.10406060275155e+000,-1.15711622331256e+000

1.99732887824256e+005,-3.10405377914036e+000,-1.17326451851945e+000

2.02521055035243e+005,-3.10404675337343e+000,-1.18963806413624e+000

2.05348143610063e+005,-3.10403951923361e+000,-1.20623999841779e+000

2.08214696870707e+005,-3.10403207030289e+000,-1.22307350324198e+000

2.11121265723661e+005,-3.10402439995558e+000,-1.24014180471414e+000

2.14068408765776e+005,-3.10401650135126e+000,-1.25744817378194e+000

2.17056692391625e+005,-3.10400836742738e+000,-1.27499592685868e+000

2.20086690902357e+005,-3.10399999089205e+000,-1.29278842645356e+000

2.23158986616063e+005,-3.10399136421596e+000,-1.31082908181307e+000

2.26274169979693e+005,-3.10398247962445e+000,-1.32912134957138e+000

2.29432839682530e+005,-3.10397332908927e+000,-1.34766873440789e+000

2.32635602771247e+005,-3.10396390431986e+000,-1.36647478971718e+000

2.35883074766574e+005,-3.10395419675456e+000,-1.38554311828587e+000

2.39175879781588e+005,-3.10394419755130e+000,-1.40487737298174e+000

2.42514650641661e+005,-3.10393389757843e+000,-1.42448125744942e+000

2.45900029006080e+005,-3.10392328740466e+000,-1.44435852681954e+000

2.49332665491357e+005,-3.10391235728891e+000,-1.46451298842715e+000

2.52813219796278e+005,-3.10390109717019e+000,-1.48494850253844e+000

2.56342360828676e+005,-3.10388949665654e+000,-1.50566898309082e+000

2.59920766833993e+005,-3.10387754501396e+000,-1.52667839844267e+000

2.63549125525621e+005,-3.10386523115504e+000,-1.54798077213349e+000

2.67228134217075e+005,-3.10385254362703e+000,-1.56958018365628e+000

2.70958499956006e+005,-3.10383947059980e+000,-1.59148076923919e+000

2.74740939660078e+005,-3.10382599985300e+000,-1.61368672264208e+000

2.78576180254757e+005,-3.10381211876314e+000,-1.63620229596253e+000

2.82464958813007e+005,-3.10379781429040e+000,-1.65903180045269e+000

2.86408022696948e+005,-3.10378307296466e+000,-1.68217960735125e+000

2.90406129701488e+005,-3.10376788087134e+000,-1.70565014872571e+000

2.94460048199957e+005,-3.10375222363678e+000,-1.72944791832724e+000

2.98570557291775e+005,-3.10373608641322e+000,-1.75357747245979e+000

3.02738446952187e+005,-3.10371945386322e+000,-1.77804343086038e+000

3.06964518184081e+005,-3.10370231014380e+000,-1.80285047759357e+000

3.11249583171928e+005,-3.10368463888985e+000,-1.82800336196047e+000

3.15594465437872e+005,-3.10366642319749e+000,-1.85350689941846e+000

3.19999999999997e+005,-3.10364764560655e+000,-1.87936597251817e+000

3.24467033532806e+005,-3.10362828808274e+000,-1.90558553185277e+000

3.28996424529938e+005,-3.10360833199938e+000,-1.93217059702164e+000

3.33589043469155e+005,-3.10358775811866e+000,-1.95912625760978e+000

3.38245772979638e+005,-3.10356654657201e+000,-1.98645767418199e+000

3.42967508011610e+005,-3.10354467684061e+000,-2.01417007929070e+000

3.47755156008335e+005,-3.10352212773471e+000,-2.04226877850181e+000

3.52609637080511e+005,-3.10349887737305e+000,-2.07075915143365e+000

3.57531884183106e+005,-3.10347490316122e+000,-2.09964665281442e+000

3.62522843294651e+005,-3.10345018176975e+000,-2.12893681355373e+000

3.67583473599047e+005,-3.10342468911161e+000,-2.15863524183257e+000

3.72714747669902e+005,-3.10339840031921e+000,-2.18874762420815e+000

3.77917651657445e+005,-3.10337128972079e+000,-2.21927972673759e+000

3.83193185478053e+005,-3.10334333081625e+000,-2.25023739611799e+000

3.88542363006410e+005,-3.10331449625219e+000,-2.28162656084510e+000

3.93966212270369e+005,-3.10328475779703e+000,-2.31345323238827e+000

3.99465775648511e+005,-3.10325408631481e+000,-2.34572350638542e+000

4.05042110070485e+005,-3.10322245173891e+000,-2.37844356385472e+000

4.10696287220124e+005,-3.10318982304476e+000,-2.41161967242805e+000

4.16429393741414e+005,-3.10315616822258e+000,-2.44525818759937e+000

4.22242531447321e+005,-3.10312145424889e+000,-2.47936555399552e+000

4.28136817531551e+005,-3.10308564705774e+000,-2.51394830666633e+000

4.34113384783250e+005,-3.10304871151131e+000,-2.54901307239337e+000

4.40173381804713e+005,-3.10301061136984e+000,-2.58456657102024e+000

4.46317973232124e+005,-3.10297130926118e+000,-2.62061561680171e+000

4.52548339959385e+005,-3.10293076664921e+000,-2.65716711977603e+000

4.58865679365059e+005,-3.10288894380216e+000,-2.69422808715642e+000

4.65271205542494e+005,-3.10284579976008e+000,-2.73180562474410e+000

4.71766149533147e+005,-3.10280129230167e+000,-2.76990693836354e+000

4.78351759563174e+005,-3.10275537791049e+000,-2.80853933531971e+000

4.85029301283321e+005,-3.10270801174038e+000,-2.84771022587715e+000

4.91800058012158e+005,-3.10265914758066e+000,-2.88742712476021e+000

4.98665330982714e+005,-3.10260873782001e+000,-2.92769765267930e+000

5.05626439592555e+005,-3.10255673341031e+000,-2.96852953787608e+000

5.12684721657352e+005,-3.10250308382919e+000,-3.00993061769595e+000

5.19841533667984e+005,-3.10244773704248e+000,-3.05190884018022e+000

5.27098251051240e+005,-3.10239063946530e+000,-3.09447226568550e+000

5.34456268434150e+005,-3.10233173592299e+000,-3.13762906852459e+000

5.41916999912011e+005,-3.10227096961097e+000,-3.18138753863316e+000

