Freq.,VOut,OutRef

1.00000000000000e+004,-2.46908360320709e+001,-4.51428580687296e-001

1.01395947979003e+004,-2.46908391570960e+001,-4.57730191481292e-001

1.02811382665607e+004,-2.46908423699709e+001,-4.64119765349754e-001

1.04246576084112e+004,-2.46908456731649e+001,-4.70598530036107e-001

1.05701804056138e+004,-2.46908490692166e+001,-4.77167730415637e-001

1.07177346253629e+004,-2.46908525607364e+001,-4.83828628731349e-001

1.08673486252606e+004,-2.46908561504077e+001,-4.90582504841145e-001

1.10190511587661e+004,-2.46908598409894e+001,-4.97430656459210e-001

1.11728713807222e+004,-2.46908636353182e+001,-5.04374399405822e-001

1.13288388529580e+004,-2.46908675363100e+001,-5.11415067861565e-001

1.14869835499703e+004,-2.46908715469632e+001,-5.18554014621045e-001

1.16473358646846e+004,-2.46908756703599e+001,-5.25792611354226e-001

1.18099266142953e+004,-2.46908799096694e+001,-5.33132248866574e-001

1.19747870461893e+004,-2.46908842681496e+001,-5.40574337370043e-001

1.21419488439505e+004,-2.46908887491502e+001,-5.48120306748573e-001

1.23114441334492e+004,-2.46908933561150e+001,-5.55771606837598e-001

1.24833054890161e+004,-2.46908980925844e+001,-5.63529707696624e-001

1.26575659397028e+004,-2.46909029621987e+001,-5.71396099894698e-001

1.28342589756290e+004,-2.46909079686999e+001,-5.79372294796162e-001

1.30134185544193e+004,-2.46909131159357e+001,-5.87459824847448e-001

1.31950791077289e+004,-2.46909184078617e+001,-5.95660243873635e-001

1.33792755478611e+004,-2.46909238485445e+001,-6.03975127375563e-001

1.35660432744767e+004,-2.46909294421653e+001,-6.12406072830595e-001

1.37554181813974e+004,-2.46909351930225e+001,-6.20954700000600e-001

1.39474366635040e+004,-2.46909411055353e+001,-6.29622651240596e-001

1.41421356237309e+004,-2.46909471842474e+001,-6.38411591814454e-001

1.43395524801583e+004,-2.46909534338296e+001,-6.47323210214719e-001

1.45397251732031e+004,-2.46909598590844e+001,-6.56359218482870e-001

1.47426921729110e+004,-2.46909664649492e+001,-6.65521352540593e-001

1.49484924863494e+004,-2.46909732564999e+001,-6.74811372522151e-001

1.51571656651040e+004,-2.46909802389552e+001,-6.84231063108114e-001

1.53687518128801e+004,-2.46909874176800e+001,-6.93782233872097e-001

1.55832915932100e+004,-2.46909947981908e+001,-7.03466719621226e-001

1.58008262372675e+004,-2.46910023861582e+001,-7.13286380753895e-001

1.60213975517924e+004,-2.46910101874124e+001,-7.23243103611339e-001

1.62450479271247e+004,-2.46910182079476e+001,-7.33338800839879e-001

1.64718203453514e+004,-2.46910264539263e+001,-7.43575411757282e-001

1.67017583885674e+004,-2.46910349316838e+001,-7.53954902724884e-001

1.69349062472505e+004,-2.46910436477338e+001,-7.64479267521524e-001

1.71713087287550e+004,-2.46910526087726e+001,-7.75150527727421e-001

1.74110112659224e+004,-2.46910618216849e+001,-7.85970733108466e-001

1.76540599258131e+004,-2.46910712935487e+001,-7.96941962010102e-001

1.79005014185594e+004,-2.46910810316407e+001,-8.08066321754729e-001

1.81503831063432e+004,-2.46910910434420e+001,-8.19345949043935e-001

1.84037530124975e+004,-2.46911013366440e+001,-8.30783010366548e-001

1.86606598307361e+004,-2.46911119191539e+001,-8.42379702415135e-001

1.89211529345119e+004,-2.46911227991010e+001,-8.54138252502855e-001

1.91852823865052e+004,-2.46911339848431e+001,-8.66060918991067e-001

1.94530989482457e+004,-2.46911454849727e+001,-8.78149991719828e-001

1.97246540898671e+004,-2.46911573083233e+001,-8.90407792446973e-001

1.99999999999999e+004,-2.46911694639767e+001,-9.02836675289823e-001

2.02791895958005e+004,-2.46911819612697e+001,-9.15439027174925e-001

2.05622765331213e+004,-2.46911948098013e+001,-9.28217268295393e-001

2.08493152168224e+004,-2.46912080194400e+001,-9.41173852571442e-001

2.11403608112276e+004,-2.46912216003314e+001,-9.54311268118978e-001

2.14354692507258e+004,-2.46912355629059e+001,-9.67632037725373e-001

2.17346972505211e+004,-2.46912499178869e+001,-9.81138719329381e-001

2.20381023175322e+004,-2.46912646762986e+001,-9.94833906511130e-001

2.23457427614443e+004,-2.46912798494750e+001,-1.00872022898456e+000

2.26576777059159e+004,-2.46912954490680e+001,-1.02280035310006e+000

2.29739670999406e+004,-2.46913114870569e+001,-1.03707698235265e+000

2.32946717293690e+004,-2.46913279757569e+001,-1.05155285789787e+000

2.36198532285905e+004,-2.46913449278292e+001,-1.06623075907238e+000

2.39495740923785e+004,-2.46913623562902e+001,-1.08111350392577e+000

2.42838976879009e+004,-2.46913802745217e+001,-1.09620394975482e+000

2.46228882668982e+004,-2.46913986962810e+001,-1.11150499365040e+000

2.49666109780322e+004,-2.46914176357116e+001,-1.12701957304603e+000

2.53151318794055e+004,-2.46914371073539e+001,-1.14275066627892e+000

2.56685179512580e+004,-2.46914571261561e+001,-1.15870129315608e+000

2.60268371088386e+004,-2.46914777074862e+001,-1.17487451552864e+000

2.63901582154578e+004,-2.46914988671431e+001,-1.19127343787423e+000

2.67585510957221e+004,-2.46915206213691e+001,-1.20790120788738e+000

2.71320865489533e+004,-2.46915429868622e+001,-1.22476101707619e+000

2.75108363627948e+004,-2.46915659807888e+001,-1.24185610137090e+000

2.78948733270080e+004,-2.46915896207969e+001,-1.25918974173720e+000

2.82842712474618e+004,-2.46916139250295e+001,-1.27676526479914e+000

2.86791049603164e+004,-2.46916389121385e+001,-1.29458604347051e+000

2.90794503464061e+004,-2.46916646012988e+001,-1.31265549759557e+000

2.94853843458219e+004,-2.46916910122232e+001,-1.33097709459645e+000

2.98969849726987e+004,-2.46917181651773e+001,-1.34955435013131e+000

3.03143313302078e+004,-2.46917460809950e+001,-1.36839082876019e+000

3.07375036257601e+004,-2.46917747810942e+001,-1.38749014462067e+000

3.11665831864199e+004,-2.46918042874933e+001,-1.40685596211220e+000

3.16016524745350e+004,-2.46918346228283e+001,-1.42649199658888e+000

3.20427951035848e+004,-2.46918658103693e+001,-1.44640201506358e+000

3.24900958542493e+004,-2.46918978740389e+001,-1.46658983691986e+000

3.29436406907028e+004,-2.46919308384303e+001,-1.48705933463398e+000

3.34035167771346e+004,-2.46919647288256e+001,-1.50781443450612e+000

3.38698124945009e+004,-2.46919995712157e+001,-1.52885911740269e+000

3.43426174575100e+004,-2.46920353923196e+001,-1.55019741950777e+000

3.48220225318448e+004,-2.46920722196050e+001,-1.57183343308363e+000

3.53081198516260e+004,-2.46921100813090e+001,-1.59377130724294e+000

3.58010028371187e+004,-2.46921490064598e+001,-1.61601524873159e+000

3.63007662126863e+004,-2.46921890248986e+001,-1.63856952271972e+000

3.68075060249948e+004,-2.46922301673023e+001,-1.66143845360566e+000

3.73213196614721e+004,-2.46922724652071e+001,-1.68462642582875e+000

3.78423058690237e+004,-2.46923159510320e+001,-1.70813788469502e+000

3.83705647730104e+004,-2.46923606581036e+001,-1.73197733721134e+000

3.89061978964912e+004,-2.46924066206816e+001,-1.75614935293252e+000

3.94493081797342e+004,-2.46924538739847e+001,-1.78065856481888e+000

3.99999999999998e+004,-2.46925024542171e+001,-1.80550967010452e+000

4.05583791916010e+004,-2.46925523985963e+001,-1.83070743117926e+000

4.11245530662425e+004,-2.46926037453810e+001,-1.85625667647933e+000

4.16986304336447e+004,-2.46926565339003e+001,-1.88216230139105e+000

4.22807216224550e+004,-2.46927108045835e+001,-1.90842926916752e+000

4.28709385014515e+004,-2.46927665989907e+001,-1.93506261185517e+000

4.34693945010421e+004,-2.46928239598440e+001,-1.96206743123394e+000

4.40762046350642e+004,-2.46928829310602e+001,-1.98944889976869e+000

4.46914855228886e+004,-2.46929435577838e+001,-2.01721226157455e+000

4.53153554118317e+004,-2.46930058864212e+001,-2.04536283339216e+000

4.59479341998812e+004,-2.46930699646757e+001,-2.07390600557905e+000

4.65893434587380e+004,-2.46931358415836e+001,-2.10284724311042e+000

4.72397064571810e+004,-2.46932035675512e+001,-2.13219208659522e+000

4.78991481847569e+004,-2.46932731943927e+001,-2.16194615330395e+000

4.85677953758016e+004,-2.46933447753695e+001,-2.19211513821085e+000

4.92457765337964e+004,-2.46934183652302e+001,-2.22270481504816e+000

4.99332219560642e+004,-2.46934940202517e+001,-2.25372103737480e+000

5.06302637588109e+004,-2.46935717982818e+001,-2.28516973965805e+000

5.13370359025159e+004,-2.46936517587828e+001,-2.31705693837002e+000

5.20536742176771e+004,-2.46937339628759e+001,-2.34938873309635e+000

5.27803164309155e+004,-2.46938184733872e+001,-2.38217130766023e+000

5.35171021914442e+004,-2.46939053548951e+001,-2.41541093126039e+000

5.42641730979066e+004,-2.46939946737785e+001,-2.44911395962356e+000

5.50216727255895e+004,-2.46940864982669e+001,-2.48328683617000e+000

5.57897466540159e+004,-2.46941808984912e+001,-2.51793609319579e+000

5.65685424949235e+004,-2.46942779465362e+001,-2.55306835306827e+000

5.73582099206328e+004,-2.46943777164951e+001,-2.58869032943633e+000

5.81589006928121e+004,-2.46944802845242e+001,-2.62480882845692e+000

5.89707686916437e+004,-2.46945857289002e+001,-2.66143075003497e+000

5.97939699453972e+004,-2.46946941300787e+001,-2.69856308908032e+000

6.06286626604156e+004,-2.46948055707539e+001,-2.73621293677821e+000

6.14750072515201e+004,-2.46949201359205e+001,-2.77438748187712e+000

6.23331663728396e+004,-2.46950379129370e+001,-2.81309401199043e+000

6.32033049490698e+004,-2.46951589915905e+001,-2.85233991491524e+000

6.40855902071694e+004,-2.46952834641640e+001,-2.89213267996566e+000

6.49801917084985e+004,-2.46954114255041e+001,-2.93247989932419e+000

6.58872813814055e+004,-2.46955429730921e+001,-2.97338926940680e+000

6.68070335542691e+004,-2.46956782071157e+001,-3.01486859224599e+000

6.77396249890018e+004,-2.46958172305440e+001,-3.05692577688894e+000

6.86852349150199e+004,-2.46959601492028e+001,-3.09956884081320e+000

6.96440450636895e+004,-2.46961070718533e+001,-3.14280591135809e+000

7.06162397032520e+004,-2.46962581102724e+001,-3.18664522717319e+000

7.16020056742374e+004,-2.46964133793348e+001,-3.23109513968343e+000

7.26015324253724e+004,-2.46965729970982e+001,-3.27616411457084e+000

7.36150120499896e+004,-2.46967370848895e+001,-3.32186073327394e+000

7.46426393229441e+004,-2.46969057673944e+001,-3.36819369450282e+000

7.56846117380472e+004,-2.46970791727488e+001,-3.41517181577320e+000

7.67411295460207e+004,-2.46972574326327e+001,-3.46280403495540e+000

7.78123957929823e+004,-2.46974406823664e+001,-3.51109941184308e+000

7.88986163594682e+004,-2.46976290610100e+001,-3.56006712973716e+000

7.99999999999995e+004,-2.46978227114643e+001,-3.60971649704842e+000

8.11167583832018e+004,-2.46980217805753e+001,-3.66005694891695e+000

8.22491061324848e+004,-2.46982264192411e+001,-3.71109804884979e+000

8.33972608672892e+004,-2.46984367825214e+001,-3.76284949037510e+000

8.45614432449099e+004,-2.46986530297504e+001,-3.81532109871472e+000

8.57418770029029e+004,-2.46988753246517e+001,-3.86852283247461e+000

8.69387890020841e+004,-2.46991038354573e+001,-3.92246478535186e+000

8.81524092701283e+004,-2.46993387350290e+001,-3.97715718786052e+000

8.93829710457770e+004,-2.46995802009828e+001,-4.03261040907441e+000

9.06307108236633e+004,-2.46998284158168e+001,-4.08883495838815e+000

9.18958683997622e+004,-2.47000835670426e+001,-4.14584148729517e+000

9.31786869174758e+004,-2.47003458473196e+001,-4.20364079118458e+000

9.44794129143618e+004,-2.47006154545928e+001,-4.26224381115480e+000

9.57982963695136e+004,-2.47008925922345e+001,-4.32166163584447e+000

9.71355907516031e+004,-2.47011774691892e+001,-4.38190550328240e+000

9.84915530675926e+004,-2.47014703001220e+001,-4.44298680275389e+000

9.98664439121282e+004,-2.47017713055717e+001,-4.50491707668465e+000

1.01260527517622e+005,-2.47020807121065e+001,-4.56770802254294e+000

1.02674071805032e+005,-2.47023987524844e+001,-4.63137149475825e+000

1.04107348435354e+005,-2.47027256658176e+001,-4.69591950665728e+000

1.05560632861831e+005,-2.47030616977403e+001,-4.76136423241751e+000

1.07034204382888e+005,-2.47034071005819e+001,-4.82771800903805e+000

1.08528346195813e+005,-2.47037621335432e+001,-4.89499333832608e+000

1.10043345451179e+005,-2.47041270628775e+001,-4.96320288890149e+000

1.11579493308032e+005,-2.47045021620768e+001,-5.03235949821720e+000

1.13137084989847e+005,-2.47048877120614e+001,-5.10247617459651e+000

1.14716419841265e+005,-2.47052840013746e+001,-5.17356609928637e+000

1.16317801385624e+005,-2.47056913263827e+001,-5.24564262852671e+000

1.17941537383287e+005,-2.47061099914788e+001,-5.31871929563578e+000

1.19587939890794e+005,-2.47065403092927e+001,-5.39280981311062e+000

1.21257325320831e+005,-2.47069826009047e+001,-5.46792807474368e+000

1.22950014503040e+005,-2.47074371960650e+001,-5.54408815775409e+000

1.24666332745679e+005,-2.47079044334191e+001,-5.62130432493291e+000

1.26406609898139e+005,-2.47083846607369e+001,-5.69959102680507e+000

1.28171180414339e+005,-2.47088782351488e+001,-5.77896290380313e+000

1.29960383416997e+005,-2.47093855233863e+001,-5.85943478845622e+000

1.31774562762811e+005,-2.47099069020288e+001,-5.94102170759238e+000

1.33614067108538e+005,-2.47104427577561e+001,-6.02373888455388e+000

1.35479249978003e+005,-2.47109934876064e+001,-6.10760174142504e+000

1.37370469830040e+005,-2.47115594992403e+001,-6.19262590127277e+000

1.39288090127379e+005,-2.47121412112118e+001,-6.27882719039949e+000

1.41232479406504e+005,-2.47127390532437e+001,-6.36622164060591e+000

1.43204011348474e+005,-2.47133534665112e+001,-6.45482549146670e+000

1.45203064850745e+005,-2.47139849039303e+001,-6.54465519261577e+000

1.47230024099979e+005,-2.47146338304538e+001,-6.63572740604115e+000

1.49285278645888e+005,-2.47153007233733e+001,-6.72805900839073e+000

1.51369223476094e+005,-2.47159860726279e+001,-6.82166709328478e+000

1.53482259092041e+005,-2.47166903811202e+001,-6.91656897363962e+000

1.55624791585964e+005,-2.47174141650389e+001,-7.01278218399611e+000

1.57797232718936e+005,-2.47181579541880e+001,-7.11032448285782e+000

1.59999999999999e+005,-2.47189222923242e+001,-7.20921385503384e+000

1.62233516766403e+005,-2.47197077375005e+001,-7.30946851398843e+000

1.64498212264969e+005,-2.47205148624177e+001,-7.41110690419613e+000

1.66794521734578e+005,-2.47213442547834e+001,-7.51414770349995e+000

1.69122886489819e+005,-2.47221965176781e+001,-7.61860982547489e+000

1.71483754005805e+005,-2.47230722699297e+001,-7.72451242179316e+000

1.73877578004168e+005,-2.47239721464950e+001,-7.83187488459316e+000

1.76304818540256e+005,-2.47248967988500e+001,-7.94071684884773e+000

1.78765942091554e+005,-2.47258468953869e+001,-8.05105819473529e+000

1.81261421647326e+005,-2.47268231218208e+001,-8.16291905000930e+000

1.83791736799524e+005,-2.47278261816032e+001,-8.27631979236737e+000

1.86357373834951e+005,-2.47288567963448e+001,-8.39128105181814e+000

1.88958825828723e+005,-2.47299157062458e+001,-8.50782371304503e+000

1.91596592739027e+005,-2.47310036705359e+001,-8.62596891776743e+000

1.94271181503206e+005,-2.47321214679217e+001,-8.74573806709598e+000

1.96983106135185e+005,-2.47332698970436e+001,-8.86715282388276e+000

1.99732887824256e+005,-2.47344497769413e+001,-8.99023511506477e+000

2.02521055035243e+005,-2.47356619475284e+001,-9.11500713399983e+000

2.05348143610063e+005,-2.47369072700755e+001,-9.24149134279441e+000

2.08214696870707e+005,-2.47381866277029e+001,-9.36971047462087e+000

2.11121265723661e+005,-2.47395009258829e+001,-9.49968753602441e+000

2.14068408765776e+005,-2.47408510929502e+001,-9.63144580921884e+000

2.17056692391625e+005,-2.47422380806232e+001,-9.76500885436865e+000

2.20086690902357e+005,-2.47436628645337e+001,-9.90040051185771e+000

2.23158986616063e+005,-2.47451264447671e+001,-1.00376449045423e+001

2.26274169979693e+005,-2.47466298464116e+001,-1.01767664399887e+001

2.29432839682530e+005,-2.47481741201177e+001,-1.03177898126929e+001

2.32635602771247e+005,-2.47497603426677e+001,-1.04607400062816e+001

2.35883074766574e+005,-2.47513896175552e+001,-1.06056422956938e+001

2.39175879781588e+005,-2.47530630755744e+001,-1.07525222493408e+001

2.42514650641661e+005,-2.47547818754206e+001,-1.09014057312452e+001

2.45900029006080e+005,-2.47565472043000e+001,-1.10523189031542e+001

2.49332665491357e+005,-2.47583602785510e+001,-1.12052882266301e+001

2.52813219796278e+005,-2.47602223442754e+001,-1.13603404651134e+001

2.56342360828676e+005,-2.47621346779812e+001,-1.15175026859593e+001

2.59920766833993e+005,-2.47640985872354e+001,-1.16768022624434e+001

2.63549125525621e+005,-2.47661154113286e+001,-1.18382668757397e+001

2.67228134217075e+005,-2.47681865219506e+001,-1.20019245168636e+001

2.70958499956006e+005,-2.47703133238768e+001,-1.21678034885848e+001

2.74740939660078e+005,-2.47724972556671e+001,-1.23359324073021e+001

2.78576180254757e+005,-2.47747397903758e+001,-1.25063402048840e+001

2.82464958813007e+005,-2.47770424362729e+001,-1.26790561304699e+001

2.86408022696948e+005,-2.47794067375788e+001,-1.28541097522312e+001

2.90406129701488e+005,-2.47818342752098e+001,-1.30315309590909e+001

2.94460048199957e+005,-2.47843266675365e+001,-1.32113499624001e+001

2.98570557291775e+005,-2.47868855711550e+001,-1.33935972975669e+001

3.02738446952187e+005,-2.47895126816707e+001,-1.35783038256401e+001

3.06964518184081e+005,-2.47922097344948e+001,-1.37655007348406e+001

3.11249583171928e+005,-2.47949785056546e+001,-1.39552195420421e+001

3.15594465437872e+005,-2.47978208126166e+001,-1.41474920941966e+001

3.19999999999997e+005,-2.48007385151243e+001,-1.43423505697023e+001

3.24467033532806e+005,-2.48037335160489e+001,-1.45398274797127e+001

3.28996424529938e+005,-2.48068077622547e+001,-1.47399556693812e+001

3.33589043469155e+005,-2.48099632454793e+001,-1.49427683190418e+001

3.38245772979638e+005,-2.48132020032284e+001,-1.51482989453191e+001

3.42967508011610e+005,-2.48165261196850e+001,-1.53565814021674e+001

3.47755156008335e+005,-2.48199377266355e+001,-1.55676498818317e+001

3.52609637080511e+005,-2.48234390044099e+001,-1.57815389157302e+001

3.57531884183106e+005,-2.48270321828393e+001,-1.59982833752524e+001

3.62522843294651e+005,-2.48307195422286e+001,-1.62179184724675e+001

3.67583473599047e+005,-2.48345034143469e+001,-1.64404797607408e+001

3.72714747669902e+005,-2.48383861834340e+001,-1.66660031352509e+001

3.77917651657445e+005,-2.48423702872246e+001,-1.68945248334029e+001

3.83193185478053e+005,-2.48464582179903e+001,-1.71260814351331e+001

3.88542363006410e+005,-2.48506525235985e+001,-1.73607098630974e+001

3.93966212270369e+005,-2.48549558085910e+001,-1.75984473827378e+001

3.99465775648511e+005,-2.48593707352795e+001,-1.78393316022198e+001

4.05042110070485e+005,-2.48639000248608e+001,-1.80834004722347e+001

4.10696287220124e+005,-2.48685464585504e+001,-1.83306922856563e+001

4.16429393741414e+005,-2.48733128787358e+001,-1.85812456770469e+001

4.22242531447321e+005,-2.48782021901487e+001,-1.88350996220020e+001

4.28136817531551e+005,-2.48832173610562e+001,-1.90922934363251e+001

4.34113384783250e+005,-2.48883614244730e+001,-1.93528667750230e+001

4.40173381804713e+005,-2.48936374793912e+001,-1.96168596311117e+001

4.46317973232124e+005,-2.48990486920318e+001,-1.98843123342213e+001

4.52548339959385e+005,-2.49045982971137e+001,-2.01552655489904e+001

4.58865679365059e+005,-2.49102895991435e+001,-2.04297602732364e+001

4.65271205542494e+005,-2.49161259737238e+001,-2.07078378358905e+001

4.71766149533147e+005,-2.49221108688802e+001,-2.09895398946853e+001

4.78351759563174e+005,-2.49282478064073e+001,-2.12749084335801e+001

4.85029301283321e+005,-2.49345403832314e+001,-2.15639857599118e+001

4.91800058012158e+005,-2.49409922727921e+001,-2.18568145012554e+001

4.98665330982714e+005,-2.49476072264390e+001,-2.21534376019819e+001

5.05626439592555e+005,-2.49543890748445e+001,-2.24538983194955e+001

5.12684721657352e+005,-2.49613417294314e+001,-2.27582402201378e+001

5.19841533667984e+005,-2.49684691838141e+001,-2.30665071747396e+001

5.27098251051240e+005,-2.49757755152507e+001,-2.33787433538075e+001

5.34456268434150e+005,-2.49832648861075e+001,-2.36949932223261e+001

5.41916999912011e+005,-2.49909415453311e+001,-2.40153015341610e+001

