Freq.,VOut,OutRef

1.00000000000000e+004,-3.03954791087940e+000,-1.69125560426171e-002

1.01395947979003e+004,-3.03954813069896e+000,-1.71486279264911e-002

1.02811382665607e+004,-3.03954835669553e+000,-1.73879944675534e-002

1.04246576084112e+004,-3.03954858904446e+000,-1.76307016120767e-002

1.05701804056138e+004,-3.03954882792280e+000,-1.78767959673289e-002

1.07177346253629e+004,-3.03954907351461e+000,-1.81263247765837e-002

1.08673486252606e+004,-3.03954932600861e+000,-1.83793359440692e-002

1.10190511587661e+004,-3.03954958559822e+000,-1.86358780455904e-002

1.11728713807222e+004,-3.03954985248338e+000,-1.88960003258270e-002

1.13288388529580e+004,-3.03955012686812e+000,-1.91597527252760e-002

1.14869835499703e+004,-3.03955040896409e+000,-1.94271858668459e-002

1.16473358646846e+004,-3.03955069898729e+000,-1.96983510894492e-002

1.18099266142953e+004,-3.03955099716059e+000,-1.99733004407189e-002

1.19747870461893e+004,-3.03955130371283e+000,-2.02520866952674e-002

1.21419488439505e+004,-3.03955161887981e+000,-2.05347633578905e-002

1.23114441334492e+004,-3.03955194290308e+000,-2.08213846844115e-002

1.24833054890161e+004,-3.03955227603084e+000,-2.11120056864016e-002

1.26575659397028e+004,-3.03955261851973e+000,-2.14066821312288e-002

1.28342589756290e+004,-3.03955297063252e+000,-2.17054705688641e-002

1.30134185544193e+004,-3.03955333263900e+000,-2.20084283387194e-002

1.31950791077289e+004,-3.03955370481756e+000,-2.23156135711520e-002

1.33792755478611e+004,-3.03955408745355e+000,-2.26270852106157e-002

1.35660432744767e+004,-3.03955448084058e+000,-2.29429030194953e-002

1.37554181813974e+004,-3.03955488528044e+000,-2.32631275917407e-002

1.39474366635040e+004,-3.03955530108385e+000,-2.35878203610257e-002

1.41421356237309e+004,-3.03955572856970e+000,-2.39170436187748e-002

1.43395524801583e+004,-3.03955616806634e+000,-2.42508605188244e-002

1.45397251732031e+004,-3.03955661991069e+000,-2.45893350969234e-002

1.47426921729110e+004,-3.03955708444931e+000,-2.49325322782966e-002

1.49484924863494e+004,-3.03955756203835e+000,-2.52805178906477e-002

1.51571656651040e+004,-3.03955805304516e+000,-2.56333586688109e-002

1.53687518128801e+004,-3.03955855784549e+000,-2.59911222869061e-002

1.55832915932100e+004,-3.03955907682684e+000,-2.63538773515681e-002

1.58008262372675e+004,-3.03955961038749e+000,-2.67216934228188e-002

1.60213975517924e+004,-3.03956015893666e+000,-2.70946410281375e-002

1.62450479271247e+004,-3.03956072289472e+000,-2.74727916767126e-002

1.64718203453514e+004,-3.03956130269398e+000,-2.78562178691763e-002

1.67017583885674e+004,-3.03956189877941e+000,-2.82449931091981e-002

1.69349062472505e+004,-3.03956251160841e+000,-2.86391919210933e-002

1.71713087287550e+004,-3.03956314164978e+000,-2.90388898725692e-002

1.74110112659224e+004,-3.03956378938776e+000,-2.94441635644617e-002

1.76540599258131e+004,-3.03956445531824e+000,-2.98550906734021e-002

1.79005014185594e+004,-3.03956513995137e+000,-3.02717499500998e-002

1.81503831063432e+004,-3.03956584381236e+000,-3.06942212336743e-002

1.84037530124975e+004,-3.03956656744067e+000,-3.11225854720020e-002

1.86606598307361e+004,-3.03956731139068e+000,-3.15569247368458e-002

1.89211529345119e+004,-3.03956807623236e+000,-3.19973222372055e-002

1.91852823865052e+004,-3.03956886255176e+000,-3.24438623342181e-002

1.94530989482457e+004,-3.03956967095174e+000,-3.28966305545268e-002

1.97246540898671e+004,-3.03957050205075e+000,-3.33557136188481e-002

1.99999999999999e+004,-3.03957135648623e+000,-3.38211994372533e-002

2.02791895958005e+004,-3.03957223491194e+000,-3.42931771469351e-002

2.05622765331213e+004,-3.03957313800045e+000,-3.47717371152578e-002

2.08493152168224e+004,-3.03957406644393e+000,-3.52569709560023e-002

2.11403608112276e+004,-3.03957502095308e+000,-3.57489715547243e-002

2.14354692507258e+004,-3.03957600225783e+000,-3.62478330865147e-002

2.17346972505211e+004,-3.03957701111022e+000,-3.67536510178705e-002

2.20381023175322e+004,-3.03957804828238e+000,-3.72665221404840e-002

2.23457427614443e+004,-3.03957911456744e+000,-3.77865445882669e-002

2.26576777059159e+004,-3.03958021078159e+000,-3.83138178448441e-002

2.29739670999406e+004,-3.03958133776300e+000,-3.88484427736597e-002

2.32946717293690e+004,-3.03958249637477e+000,-3.93905216208150e-002

2.36198532285905e+004,-3.03958368750246e+000,-3.99401580547560e-002

2.39495740923785e+004,-3.03958491205679e+000,-4.04974571718007e-002

2.42838976879009e+004,-3.03958617097450e+000,-4.10625255142218e-002

2.46228882668982e+004,-3.03958746521795e+000,-4.16354710975168e-002

2.49666109780322e+004,-3.03958879577613e+000,-4.22164034270230e-002

2.53151318794055e+004,-3.03959016366637e+000,-4.28054335131824e-002

2.56685179512580e+004,-3.03959156993360e+000,-4.34026739005823e-002

2.60268371088386e+004,-3.03959301565234e+000,-4.40082386807048e-002

2.63901582154578e+004,-3.03959450192705e+000,-4.46222435157596e-002

2.67585510957221e+004,-3.03959602989249e+000,-4.52448056632994e-002

2.71320865489533e+004,-3.03959760071602e+000,-4.58760439868572e-002

2.75108363627948e+004,-3.03959921559615e+000,-4.65160789938853e-002

2.78948733270080e+004,-3.03960087576609e+000,-4.71650328388151e-002

2.82842712474618e+004,-3.03960258249284e+000,-4.78230293580443e-002

2.86791049603164e+004,-3.03960433707805e+000,-4.84901940932026e-002

2.90794503464061e+004,-3.03960614086084e+000,-4.91666542996298e-002

2.94853843458219e+004,-3.03960799521626e+000,-4.98525389883464e-002

2.98969849726987e+004,-3.03960990155878e+000,-5.05479789312313e-002

3.03143313302078e+004,-3.03961186134119e+000,-5.12531066987982e-002

3.07375036257601e+004,-3.03961387605754e+000,-5.19680566718142e-002

3.11665831864199e+004,-3.03961594724243e+000,-5.26929650778511e-002

3.16016524745350e+004,-3.03961807647405e+000,-5.34279700012002e-002

3.20427951035848e+004,-3.03962026537371e+000,-5.41732114200092e-002

3.24900958542493e+004,-3.03962251560774e+000,-5.49288312246784e-002

3.29436406907028e+004,-3.03962482888955e+000,-5.56949732391528e-002

3.34035167771346e+004,-3.03962720697895e+000,-5.64717832573327e-002

3.38698124945009e+004,-3.03962965168478e+000,-5.72594090609381e-002

3.43426174575100e+004,-3.03963216486672e+000,-5.80580004417745e-002

3.48220225318448e+004,-3.03963474843507e+000,-5.88677092381302e-002

3.53081198516260e+004,-3.03963740435376e+000,-5.96886893514453e-002

3.58010028371187e+004,-3.03964013464024e+000,-6.05210967817213e-002

3.63007662126863e+004,-3.03964294136855e+000,-6.13650896457694e-002

3.68075060249948e+004,-3.03964582666949e+000,-6.22208282114740e-002

3.73213196614721e+004,-3.03964879273336e+000,-6.30884749190319e-002

3.78423058690237e+004,-3.03965184181018e+000,-6.39681944170515e-002

3.83705647730104e+004,-3.03965497621254e+000,-6.48601535830264e-002

3.89061978964912e+004,-3.03965819831733e+000,-6.57645215507284e-002

3.94493081797342e+004,-3.03966151056588e+000,-6.66814697500553e-002

3.99999999999998e+004,-3.03966491546745e+000,-6.76111719239598e-002

4.05583791916010e+004,-3.03966841560043e+000,-6.85538041626093e-002

4.11245530662425e+004,-3.03967201361444e+000,-6.95095449301479e-002

4.16986304336447e+004,-3.03967571223110e+000,-7.04785751030975e-002

4.22807216224550e+004,-3.03967951424780e+000,-7.14610779872673e-002

4.28709385014515e+004,-3.03968342253832e+000,-7.24572393584044e-002

4.34693945010421e+004,-3.03968744005588e+000,-7.34672474851830e-002

4.40762046350642e+004,-3.03969156983385e+000,-7.44912931699231e-002

4.46914855228886e+004,-3.03969581498955e+000,-7.55295697687379e-002

4.53153554118317e+004,-3.03970017872540e+000,-7.65822732302168e-002

4.59479341998812e+004,-3.03970466433160e+000,-7.76496021239049e-002

4.65893434587380e+004,-3.03970927518854e+000,-7.87317576715760e-002

4.72397064571810e+004,-3.03971401476884e+000,-7.98289437825191e-002

4.78991481847569e+004,-3.03971888663984e+000,-8.09413670850685e-002

4.85677953758016e+004,-3.03972389446641e+000,-8.20692369569917e-002

4.92457765337964e+004,-3.03972904201413e+000,-8.32127655549222e-002

4.99332219560642e+004,-3.03973433314979e+000,-8.43721678614337e-002

5.06302637588109e+004,-3.03973977184646e+000,-8.55476617020455e-002

5.13370359025159e+004,-3.03974536218521e+000,-8.67394677866985e-002

5.20536742176771e+004,-3.03975110835756e+000,-8.79478097453368e-002

5.27803164309155e+004,-3.03975701466951e+000,-8.91729141546877e-002

5.35171021914442e+004,-3.03976308554310e+000,-9.04150105817182e-002

5.42641730979066e+004,-3.03976932552075e+000,-9.16743316090412e-002

5.50216727255895e+004,-3.03977573926752e+000,-9.29511128757706e-002

5.57897466540159e+004,-3.03978233157499e+000,-9.42455931069272e-002

5.65685424949235e+004,-3.03978910736367e+000,-9.55580141550259e-002

5.73582099206328e+004,-3.03979607168719e+000,-9.68886210277657e-002

5.81589006928121e+004,-3.03980322973494e+000,-9.82376619299237e-002

5.89707686916437e+004,-3.03981058683661e+000,-9.96053882909582e-002

5.97939699453972e+004,-3.03981814846441e+000,-1.00992054809788e-001

6.06286626604156e+004,-3.03982592023793e+000,-1.02397919481530e-001

6.14750072515201e+004,-3.03983390792715e+000,-1.03823243639506e-001

6.23331663728396e+004,-3.03984211745655e+000,-1.05268291986941e-001

6.32033049490698e+004,-3.03985055490935e+000,-1.06733332632631e-001

6.40855902071694e+004,-3.03985922653034e+000,-1.08218637132575e-001

6.49801917084985e+004,-3.03986813873164e+000,-1.09724480516370e-001

6.58872813814055e+004,-3.03987729809518e+000,-1.11251141332939e-001

6.68070335542691e+004,-3.03988671137839e+000,-1.12798901677506e-001

6.77396249890018e+004,-3.03989638551776e+000,-1.14368047232692e-001

6.86852349150199e+004,-3.03990632763313e+000,-1.15958867305409e-001

6.96440450636895e+004,-3.03991654503302e+000,-1.17571654856530e-001

7.06162397032520e+004,-3.03992704521840e+000,-1.19206706543112e-001

7.16020056742374e+004,-3.03993783588790e+000,-1.20864322750204e-001

7.26015324253724e+004,-3.03994892494276e+000,-1.22544807625748e-001

7.36150120499896e+004,-3.03996032049087e+000,-1.24248469120596e-001

7.46426393229441e+004,-3.03997203085302e+000,-1.25975619016849e-001

7.56846117380472e+004,-3.03998406456718e+000,-1.27726572966969e-001

7.67411295460207e+004,-3.03999643039355e+000,-1.29501650529917e-001

7.78123957929823e+004,-3.04000913732077e+000,-1.31301175199231e-001

7.88986163594682e+004,-3.04002219457031e+000,-1.33125474443841e-001

7.99999999999995e+004,-3.04003561160224e+000,-1.34974879740234e-001

8.11167583832018e+004,-3.04004939812146e+000,-1.36849726600786e-001

8.22491061324848e+004,-3.04006356408258e+000,-1.38750354612968e-001

8.33972608672892e+004,-3.04007811969586e+000,-1.40677107470465e-001

8.45614432449099e+004,-3.04009307543336e+000,-1.42630333003591e-001

8.57418770029029e+004,-3.04010844203443e+000,-1.44610383213298e-001

8.69387890020841e+004,-3.04012423051269e+000,-1.46617614297705e-001

8.81524092701283e+004,-3.04014045216063e+000,-1.48652386691412e-001

8.93829710457770e+004,-3.04015711855762e+000,-1.50715065084288e-001

9.06307108236633e+004,-3.04017424157483e+000,-1.52806018460626e-001

9.18958683997622e+004,-3.04019183338224e+000,-1.54925620122397e-001

9.31786869174758e+004,-3.04020990645546e+000,-1.57074247716116e-001

9.44794129143618e+004,-3.04022847358120e+000,-1.59252283266703e-001

9.57982963695136e+004,-3.04024754786545e+000,-1.61460113193961e-001

9.71355907516031e+004,-3.04026714273878e+000,-1.63698128346757e-001

9.84915530675926e+004,-3.04028727196372e+000,-1.65966724023786e-001

9.98664439121282e+004,-3.04030794964226e+000,-1.68266299993333e-001

1.01260527517622e+005,-3.04032919022146e+000,-1.70597260523456e-001

1.02674071805032e+005,-3.04035100850163e+000,-1.72960014396505e-001

1.04107348435354e+005,-3.04037341964243e+000,-1.75354974934065e-001

1.05560632861831e+005,-3.04039643917082e+000,-1.77782560011270e-001

1.07034204382888e+005,-3.04042008298782e+000,-1.80243192077013e-001

1.08528346195813e+005,-3.04044436737512e+000,-1.82737298172793e-001

1.10043345451179e+005,-3.04046930900312e+000,-1.85265309942749e-001

1.11579493308032e+005,-3.04049492493791e+000,-1.87827663649600e-001

1.13137084989847e+005,-3.04052123264838e+000,-1.90424800185372e-001

1.14716419841265e+005,-3.04054825001324e+000,-1.93057165085048e-001

1.16317801385624e+005,-3.04057599532856e+000,-1.95725208532440e-001

1.17941537383287e+005,-3.04060448731501e+000,-1.98429385367013e-001

1.19587939890794e+005,-3.04063374512489e+000,-2.01170155090237e-001

1.21257325320831e+005,-3.04066378834915e+000,-2.03947981869829e-001

1.22950014503040e+005,-3.04069463702487e+000,-2.06763334539467e-001

1.24666332745679e+005,-3.04072631164185e+000,-2.09616686599700e-001

1.26406609898139e+005,-3.04075883314982e+000,-2.12508516215872e-001

1.28171180414339e+005,-3.04079222296536e+000,-2.15439306210823e-001

1.29960383416997e+005,-3.04082650297837e+000,-2.18409544062180e-001

1.31774562762811e+005,-3.04086169555881e+000,-2.21419721891520e-001

1.33614067108538e+005,-3.04089782356363e+000,-2.24470336450170e-001

1.35479249978003e+005,-3.04093491034210e+000,-2.27561889112105e-001

1.37370469830040e+005,-3.04097297974313e+000,-2.30694885851268e-001

1.39288090127379e+005,-3.04101205612004e+000,-2.33869837229104e-001

1.41232479406504e+005,-3.04105216433725e+000,-2.37087258368160e-001

1.43204011348474e+005,-3.04109332977526e+000,-2.40347668931503e-001

1.45203064850745e+005,-3.04113557833585e+000,-2.43651593095650e-001

1.47230024099979e+005,-3.04117893644728e+000,-2.46999559521117e-001

1.49285278645888e+005,-3.04122343106824e+000,-2.50392101323274e-001

1.51369223476094e+005,-3.04126908969311e+000,-2.53829756031878e-001

1.53482259092041e+005,-3.04131594035470e+000,-2.57313065560402e-001

1.55624791585964e+005,-3.04136401162851e+000,-2.60842576161258e-001

1.57797232718936e+005,-3.04141333263517e+000,-2.64418838385300e-001

1.59999999999999e+005,-3.04146393304332e+000,-2.68042407033498e-001

1.62233516766403e+005,-3.04151584307188e+000,-2.71713841107482e-001

1.64498212264969e+005,-3.04156909349052e+000,-2.75433703762142e-001

1.66794521734578e+005,-3.04162371562163e+000,-2.79202562244871e-001

1.69122886489819e+005,-3.04167974134007e+000,-2.83020987840440e-001

1.71483754005805e+005,-3.04173720307279e+000,-2.86889555810250e-001

1.73877578004168e+005,-3.04179613379812e+000,-2.90808845326514e-001

1.76304818540256e+005,-3.04185656704286e+000,-2.94779439410414e-001

1.78765942091554e+005,-3.04191853688135e+000,-2.98801924853943e-001

1.81261421647326e+005,-3.04198207793031e+000,-3.02876892157277e-001

1.83791736799524e+005,-3.04204722534560e+000,-3.07004935446199e-001

1.86357373834951e+005,-3.04211401481610e+000,-3.11186652400062e-001

1.88958825828723e+005,-3.04218248255845e+000,-3.15422644165333e-001

1.91596592739027e+005,-3.04225266530850e+000,-3.19713515280165e-001

1.94271181503206e+005,-3.04232460031397e+000,-3.24059873583124e-001

1.96983106135185e+005,-3.04239832532426e+000,-3.28462330130043e-001

1.99732887824256e+005,-3.04247387857989e+000,-3.32921499103442e-001

2.02521055035243e+005,-3.04255129880047e+000,-3.37437997722392e-001

2.05348143610063e+005,-3.04263062517156e+000,-3.42012446148530e-001

2.08214696870707e+005,-3.04271189732954e+000,-3.46645467395577e-001

2.11121265723661e+005,-3.04279515534597e+000,-3.51337687230707e-001

2.14068408765776e+005,-3.04288043970942e+000,-3.56089734083531e-001

2.17056692391625e+005,-3.04296779130700e+000,-3.60902238944594e-001

2.20086690902357e+005,-3.04305725140277e+000,-3.65775835275052e-001

2.23158986616063e+005,-3.04314886161639e+000,-3.70711158903315e-001

2.26274169979693e+005,-3.04324266389731e+000,-3.75708847939769e-001

2.29432839682530e+005,-3.04333870050053e+000,-3.80769542672258e-001

2.32635602771247e+005,-3.04343701395758e+000,-3.85893885479350e-001

2.35883074766574e+005,-3.04353764704744e+000,-3.91082520736897e-001

2.39175879781588e+005,-3.04364064276429e+000,-3.96336094731343e-001

2.42514650641661e+005,-3.04374604428426e+000,-4.01655255572107e-001

2.45900029006080e+005,-3.04385389492948e+000,-4.07040653111275e-001

2.49332665491357e+005,-3.04396423812997e+000,-4.12492938864873e-001

2.52813219796278e+005,-3.04407711738360e+000,-4.18012765942338e-001

2.56342360828676e+005,-3.04419257621401e+000,-4.23600788975563e-001

2.59920766833993e+005,-3.04431065812566e+000,-4.29257664060585e-001

2.63549125525621e+005,-3.04443140655705e+000,-4.34984048703984e-001

2.67228134217075e+005,-3.04455486483123e+000,-4.40780601776380e-001

2.70958499956006e+005,-3.04468107610457e+000,-4.46647983473666e-001

2.74740939660078e+005,-3.04481008331228e+000,-4.52586855291820e-001

2.78576180254757e+005,-3.04494192911214e+000,-4.58597880008367e-001

2.82464958813007e+005,-3.04507665582536e+000,-4.64681721676857e-001

2.86408022696948e+005,-3.04521430537534e+000,-4.70839045634134e-001

2.90406129701488e+005,-3.04535491922367e+000,-4.77070518520380e-001

2.94460048199957e+005,-3.04549853830374e+000,-4.83376808314413e-001

2.98570557291775e+005,-3.04564520295249e+000,-4.89758584381744e-001

3.02738446952187e+005,-3.04579495283816e+000,-4.96216517546495e-001

3.06964518184081e+005,-3.04594782688799e+000,-5.02751280170661e-001

3.11249583171928e+005,-3.04610386321109e+000,-5.09363546264003e-001

3.15594465437872e+005,-3.04626309902111e+000,-5.16053991603104e-001

3.19999999999997e+005,-3.04642557055508e+000,-5.22823293881492e-001

3.24467033532806e+005,-3.04659131299120e+000,-5.29672132875389e-001

3.28996424529938e+005,-3.04676036036393e+000,-5.36601190636736e-001

3.33589043469155e+005,-3.04693274547712e+000,-5.43611151711738e-001

3.38245772979638e+005,-3.04710849981573e+000,-5.50702703382651e-001

3.42967508011610e+005,-3.04728765345503e+000,-5.57876535941804e-001

3.47755156008335e+005,-3.04747023496888e+000,-5.65133342990211e-001

3.52609637080511e+005,-3.04765627133633e+000,-5.72473821767052e-001

3.57531884183106e+005,-3.04784578784658e+000,-5.79898673513873e-001

3.62522843294651e+005,-3.04803880800306e+000,-5.87408603867327e-001

3.67583473599047e+005,-3.04823535342703e+000,-5.95004323284918e-001

3.72714747669902e+005,-3.04843544375925e+000,-6.02686547510501e-001

3.77917651657445e+005,-3.04863909656254e+000,-6.10455998069312e-001

3.83193185478053e+005,-3.04884632722314e+000,-6.18313402803028e-001

3.88542363006410e+005,-3.04905714885205e+000,-6.26259496443036e-001

3.93966212270369e+005,-3.04927157218766e+000,-6.34295021216961e-001

3.99465775648511e+005,-3.04948960549699e+000,-6.42420727503593e-001

4.05042110070485e+005,-3.04971125448005e+000,-6.50637374515986e-001

4.10696287220124e+005,-3.04993652217320e+000,-6.58945731035441e-001

4.16429393741414e+005,-3.05016540885566e+000,-6.67346576178208e-001

4.22242531447321e+005,-3.05039791195620e+000,-6.75840700210664e-001

4.28136817531551e+005,-3.05063402596356e+000,-6.84428905397954e-001

4.34113384783250e+005,-3.05087374233832e+000,-6.93112006898705e-001

4.40173381804713e+005,-3.05111704942723e+000,-7.01890833703702e-001

4.46317973232124e+005,-3.05136393238237e+000,-7.10766229606693e-001

4.52548339959385e+005,-3.05161437308165e+000,-7.19739054226515e-001

4.58865679365059e+005,-3.05186835005536e+000,-7.28810184060516e-001

4.65271205542494e+005,-3.05212583841525e+000,-7.37980513584224e-001

4.71766149533147e+005,-3.05238680978981e+000,-7.47250956383481e-001

4.78351759563174e+005,-3.05265123226323e+000,-7.56622446330340e-001

4.85029301283321e+005,-3.05291907032088e+000,-7.66095938789960e-001

4.91800058012158e+005,-3.05319028480000e+000,-7.75672411865762e-001

4.98665330982714e+005,-3.05346483284686e+000,-7.85352867675328e-001

5.05626439592555e+005,-3.05374266787984e+000,-7.95138333661303e-001

5.12684721657352e+005,-3.05402373956043e+000,-8.05029863926082e-001

5.19841533667984e+005,-3.05430799377020e+000,-8.15028540601025e-001

5.27098251051240e+005,-3.05459537259632e+000,-8.25135475233202e-001

5.34456268434150e+005,-3.05488581432374e+000,-8.35351810201837e-001

5.41916999912011e+005,-3.05517925343660e+000,-8.45678720147885e-001

