Freq.,VOut,OutRef

1.00000000000000e+004,-1.67034049932258e+001,-2.06599872678972e-001

1.01395947979003e+004,-1.67034055319821e+001,-2.09483874761504e-001

1.02811382665607e+004,-1.67034060858823e+001,-2.12408134966281e-001

1.04246576084112e+004,-1.67034066553520e+001,-2.15373215231146e-001

1.05701804056138e+004,-1.67034072408292e+001,-2.18379685334611e-001

1.07177346253629e+004,-1.67034078427633e+001,-2.21428123010996e-001

1.08673486252606e+004,-1.67034084616168e+001,-2.24519114055426e-001

1.10190511587661e+004,-1.67034090978653e+001,-2.27653252437862e-001

1.11728713807222e+004,-1.67034097519978e+001,-2.30831140417656e-001

1.13288388529580e+004,-1.67034104245168e+001,-2.34053388658808e-001

1.14869835499703e+004,-1.67034111159389e+001,-2.37320616349677e-001

1.16473358646846e+004,-1.67034118267954e+001,-2.40633451317036e-001

1.18099266142953e+004,-1.67034125576324e+001,-2.43992530149848e-001

1.19747870461893e+004,-1.67034133090116e+001,-2.47398498320769e-001

1.21419488439505e+004,-1.67034140815099e+001,-2.50852010312183e-001

1.23114441334492e+004,-1.67034148757208e+001,-2.54353729736564e-001

1.24833054890161e+004,-1.67034156922548e+001,-2.57904329467629e-001

1.26575659397028e+004,-1.67034165317388e+001,-2.61504491770490e-001

1.28342589756290e+004,-1.67034173948177e+001,-2.65154908430619e-001

1.30134185544193e+004,-1.67034182821548e+001,-2.68856280884605e-001

1.31950791077289e+004,-1.67034191944314e+001,-2.72609320359921e-001

1.33792755478611e+004,-1.67034201323485e+001,-2.76414748006148e-001

1.35660432744767e+004,-1.67034210966263e+001,-2.80273295038785e-001

1.37554181813974e+004,-1.67034220880057e+001,-2.84185702873295e-001

1.39474366635040e+004,-1.67034231072480e+001,-2.88152723272710e-001

1.41421356237309e+004,-1.67034241551361e+001,-2.92175118489091e-001

1.43395524801583e+004,-1.67034252324750e+001,-2.96253661409502e-001

1.45397251732031e+004,-1.67034263400919e+001,-3.00389135707826e-001

1.47426921729110e+004,-1.67034274788375e+001,-3.04582335989789e-001

1.49484924863494e+004,-1.67034286495864e+001,-3.08834067949236e-001

1.51571656651040e+004,-1.67034298532376e+001,-3.13145148522089e-001

1.53687518128801e+004,-1.67034310907156e+001,-3.17516406040849e-001

1.55832915932100e+004,-1.67034323629706e+001,-3.21948680396331e-001

1.58008262372675e+004,-1.67034336709795e+001,-3.26442823197356e-001

1.60213975517924e+004,-1.67034350157468e+001,-3.30999697934396e-001

1.62450479271247e+004,-1.67034363983049e+001,-3.35620180144419e-001

1.64718203453514e+004,-1.67034378197156e+001,-3.40305157578851e-001

1.67017583885674e+004,-1.67034392810700e+001,-3.45055530375517e-001

1.69349062472505e+004,-1.67034407834902e+001,-3.49872211229792e-001

1.71713087287550e+004,-1.67034423281298e+001,-3.54756125567893e-001

1.74110112659224e+004,-1.67034439161744e+001,-3.59708211728859e-001

1.76540599258131e+004,-1.67034455488433e+001,-3.64729421139353e-001

1.79005014185594e+004,-1.67034472273896e+001,-3.69820718499704e-001

1.81503831063432e+004,-1.67034489531019e+001,-3.74983081967515e-001

1.84037530124975e+004,-1.67034507273048e+001,-3.80217503343548e-001

1.86606598307361e+004,-1.67034525513601e+001,-3.85524988265097e-001

1.89211529345119e+004,-1.67034544266679e+001,-3.90906556394917e-001

1.91852823865052e+004,-1.67034563546673e+001,-3.96363241620670e-001

1.94530989482457e+004,-1.67034583368381e+001,-4.01896092248367e-001

1.97246540898671e+004,-1.67034603747013e+001,-4.07506171208013e-001

1.99999999999999e+004,-1.67034624698205e+001,-4.13194556254074e-001

2.02791895958005e+004,-1.67034646238038e+001,-4.18962340170630e-001

2.05622765331213e+004,-1.67034668383037e+001,-4.24810630985691e-001

2.08493152168224e+004,-1.67034691150191e+001,-4.30740552178796e-001

2.11403608112276e+004,-1.67034714556970e+001,-4.36753242896980e-001

2.14354692507258e+004,-1.67034738621329e+001,-4.42849858175260e-001

2.17346972505211e+004,-1.67034763361728e+001,-4.49031569154558e-001

2.20381023175322e+004,-1.67034788797145e+001,-4.55299563308086e-001

2.23457427614443e+004,-1.67034814947090e+001,-4.61655044667595e-001

2.26576777059159e+004,-1.67034841831619e+001,-4.68099234053216e-001

2.29739670999406e+004,-1.67034869471350e+001,-4.74633369309519e-001

2.32946717293690e+004,-1.67034897887479e+001,-4.81258705539551e-001

2.36198532285905e+004,-1.67034927101796e+001,-4.87976515345624e-001

2.39495740923785e+004,-1.67034957136701e+001,-4.94788089074271e-001

2.42838976879009e+004,-1.67034988015223e+001,-5.01694735061062e-001

2.46228882668982e+004,-1.67035019761033e+001,-5.08697779881504e-001

2.49666109780322e+004,-1.67035052398470e+001,-5.15798568604556e-001

2.53151318794055e+004,-1.67035085952548e+001,-5.22998465051483e-001

2.56685179512580e+004,-1.67035120448987e+001,-5.30298852052665e-001

2.60268371088386e+004,-1.67035155914223e+001,-5.37701131715740e-001

2.63901582154578e+004,-1.67035192375437e+001,-5.45206725691033e-001

2.67585510957221e+004,-1.67035229860566e+001,-5.52817075444026e-001

2.71320865489533e+004,-1.67035268398330e+001,-5.60533642532039e-001

2.75108363627948e+004,-1.67035308018255e+001,-5.68357908879863e-001

2.78948733270080e+004,-1.67035348750691e+001,-5.76291377065844e-001

2.82842712474618e+004,-1.67035390626838e+001,-5.84335570608230e-001

2.86791049603164e+004,-1.67035433678768e+001,-5.92492034254818e-001

2.90794503464061e+004,-1.67035477939450e+001,-6.00762334278063e-001

2.94853843458219e+004,-1.67035523442778e+001,-6.09148058774767e-001

2.98969849726987e+004,-1.67035570223588e+001,-6.17650817968104e-001

3.03143313302078e+004,-1.67035618317696e+001,-6.26272244515231e-001

3.07375036257601e+004,-1.67035667761914e+001,-6.35013993819006e-001

3.11665831864199e+004,-1.67035718594087e+001,-6.43877744342225e-001

3.16016524745350e+004,-1.67035770853113e+001,-6.52865197928238e-001

3.20427951035848e+004,-1.67035824578982e+001,-6.61978080125821e-001

3.24900958542493e+004,-1.67035879812798e+001,-6.71218140517217e-001

3.29436406907028e+004,-1.67035936596810e+001,-6.80587153052047e-001

3.34035167771346e+004,-1.67035994974455e+001,-6.90086916382541e-001

3.38698124945009e+004,-1.67036054990375e+001,-6.99719254210578e-001

3.43426174575100e+004,-1.67036116690460e+001,-7.09486015630347e-001

3.48220225318448e+004,-1.67036180121883e+001,-7.19389075483036e-001

3.53081198516260e+004,-1.67036245333132e+001,-7.29430334710918e-001

3.58010028371187e+004,-1.67036312374046e+001,-7.39611720721792e-001

3.63007662126863e+004,-1.67036381295856e+001,-7.49935187752355e-001

3.68075060249948e+004,-1.67036452151219e+001,-7.60402717242574e-001

3.73213196614721e+004,-1.67036524994263e+001,-7.71016318209344e-001

3.78423058690237e+004,-1.67036599880623e+001,-7.81778027629592e-001

3.83705647730104e+004,-1.67036676867484e+001,-7.92689910826945e-001

3.89061978964912e+004,-1.67036756013623e+001,-8.03754061863081e-001

3.94493081797342e+004,-1.67036837379455e+001,-8.14972603935891e-001

3.99999999999998e+004,-1.67036921027079e+001,-8.26347689780697e-001

4.05583791916010e+004,-1.67037007020318e+001,-8.37881502080661e-001

4.11245530662425e+004,-1.67037095424774e+001,-8.49576253878571e-001

4.16986304336447e+004,-1.67037186307873e+001,-8.61434188996131e-001

4.22807216224550e+004,-1.67037279738917e+001,-8.73457582460670e-001

4.28709385014515e+004,-1.67037375789133e+001,-8.85648740933004e-001

4.34693945010421e+004,-1.67037474531728e+001,-8.98010003146682e-001

4.40762046350642e+004,-1.67037576041944e+001,-9.10543740349455e-001

4.46914855228886e+004,-1.67037680397112e+001,-9.23252356749407e-001

4.53153554118317e+004,-1.67037787676711e+001,-9.36138289972482e-001

4.59479341998812e+004,-1.67037897962422e+001,-9.49204011521786e-001

4.65893434587380e+004,-1.67038011338198e+001,-9.62452027242685e-001

4.72397064571810e+004,-1.67038127890317e+001,-9.75884877798126e-001

4.78991481847569e+004,-1.67038247707449e+001,-9.89505139145982e-001

4.85677953758016e+004,-1.67038370880722e+001,-1.00331542302527e+000

4.92457765337964e+004,-1.67038497503788e+001,-1.01731837744878e+000

4.99332219560642e+004,-1.67038627672893e+001,-1.03151668720091e+000

5.06302637588109e+004,-1.67038761486946e+001,-1.04591307434287e+000

5.13370359025159e+004,-1.67038899047593e+001,-1.06051029872566e+000

5.20536742176771e+004,-1.67039040459290e+001,-1.07531115850865e+000

5.27803164309155e+004,-1.67039185829382e+001,-1.09031849068417e+000

5.35171021914442e+004,-1.67039335268178e+001,-1.10553517161177e+000

5.42641730979066e+004,-1.67039488889036e+001,-1.12096411755636e+000

5.50216727255895e+004,-1.67039646808437e+001,-1.13660828523742e+000

5.57897466540159e+004,-1.67039809146082e+001,-1.15247067238021e+000

5.65685424949235e+004,-1.67039976024968e+001,-1.16855431827958e+000

5.73582099206328e+004,-1.67040147571483e+001,-1.18486230436715e+000

5.81589006928121e+004,-1.67040323915495e+001,-1.20139775478907e+000

5.89707686916437e+004,-1.67040505190449e+001,-1.21816383698836e+000

5.97939699453972e+004,-1.67040691533457e+001,-1.23516376229756e+000

6.06286626604156e+004,-1.67040883085403e+001,-1.25240078653716e+000

6.14750072515201e+004,-1.67041079991044e+001,-1.26987821062294e+000

6.23331663728396e+004,-1.67041282399106e+001,-1.28759938118159e+000

6.32033049490698e+004,-1.67041490462401e+001,-1.30556769117279e+000

6.40855902071694e+004,-1.67041704337930e+001,-1.32378658051956e+000

6.49801917084985e+004,-1.67041924186993e+001,-1.34225953675036e+000

6.58872813814055e+004,-1.67042150175312e+001,-1.36099009564307e+000

6.68070335542691e+004,-1.67042382473138e+001,-1.37998184188337e+000

6.77396249890018e+004,-1.67042621255382e+001,-1.39923840972777e+000

6.86852349150199e+004,-1.67042866701729e+001,-1.41876348367750e+000

6.96440450636895e+004,-1.67043118996772e+001,-1.43856079915890e+000

7.06162397032520e+004,-1.67043378330138e+001,-1.45863414321449e+000

7.16020056742374e+004,-1.67043644896621e+001,-1.47898735520163e+000

7.26015324253724e+004,-1.67043918896319e+001,-1.49962432750090e+000

7.36150120499896e+004,-1.67044200534775e+001,-1.52054900623242e+000

7.46426393229441e+004,-1.67044490023118e+001,-1.54176539198256e+000

7.56846117380472e+004,-1.67044787578209e+001,-1.56327754053869e+000

7.67411295460207e+004,-1.67045093422792e+001,-1.58508956363485e+000

7.78123957929823e+004,-1.67045407785649e+001,-1.60720562970388e+000

7.88986163594682e+004,-1.67045730901753e+001,-1.62962996464280e+000

7.99999999999995e+004,-1.67046063012435e+001,-1.65236685258396e+000

8.11167583832018e+004,-1.67046404365541e+001,-1.67542063668036e+000

8.22491061324848e+004,-1.67046755215611e+001,-1.69879571989439e+000

8.33972608672892e+004,-1.67047115824041e+001,-1.72249656580377e+000

8.45614432449099e+004,-1.67047486459267e+001,-1.74652769941156e+000

8.57418770029029e+004,-1.67047867396941e+001,-1.77089370796947e+000

8.69387890020841e+004,-1.67048258920120e+001,-1.79559924181012e+000

8.81524092701283e+004,-1.67048661319453e+001,-1.82064901518914e+000

8.93829710457770e+004,-1.67049074893374e+001,-1.84604780713975e+000

9.06307108236633e+004,-1.67049499948301e+001,-1.87180046233414e+000

9.18958683997622e+004,-1.67049936798837e+001,-1.89791189196028e+000

9.31786869174758e+004,-1.67050385767980e+001,-1.92438707460314e+000

9.44794129143618e+004,-1.67050847187330e+001,-1.95123105714340e+000

9.57982963695136e+004,-1.67051321397305e+001,-1.97844895566186e+000

9.71355907516031e+004,-1.67051808747368e+001,-2.00604595635643e+000

9.84915530675926e+004,-1.67052309596243e+001,-2.03402731647133e+000

9.98664439121282e+004,-1.67052824312154e+001,-2.06239836523639e+000

1.01260527517622e+005,-1.67053353273054e+001,-2.09116450481612e+000

1.02674071805032e+005,-1.67053896866870e+001,-2.12033121127301e+000

1.04107348435354e+005,-1.67054455491741e+001,-2.14990403554003e+000

1.05560632861831e+005,-1.67055029556277e+001,-2.17988860440586e+000

1.07034204382888e+005,-1.67055619479807e+001,-2.21029062151081e+000

1.08528346195813e+005,-1.67056225692644e+001,-2.24111586835533e+000

1.10043345451179e+005,-1.67056848636346e+001,-2.27237020531925e+000

1.11579493308032e+005,-1.67057488763993e+001,-2.30405957269470e+000

1.13137084989847e+005,-1.67058146540457e+001,-2.33618999172834e+000

1.14716419841265e+005,-1.67058822442686e+001,-2.36876756567931e+000

1.16317801385624e+005,-1.67059516959992e+001,-2.40179848088521e+000

1.17941537383287e+005,-1.67060230594340e+001,-2.43528900784453e+000

1.19587939890794e+005,-1.67060963860647e+001,-2.46924550230841e+000

1.21257325320831e+005,-1.67061717287088e+001,-2.50367440638600e+000

1.22950014503040e+005,-1.67062491415398e+001,-2.53858224966405e+000

1.24666332745679e+005,-1.67063286801192e+001,-2.57397565033576e+000

1.26406609898139e+005,-1.67064104014277e+001,-2.60986131634620e+000

1.28171180414339e+005,-1.67064943638986e+001,-2.64624604654760e+000

1.29960383416997e+005,-1.67065806274499e+001,-2.68313673187064e+000

1.31774562762811e+005,-1.67066692535185e+001,-2.72054035650655e+000

1.33614067108538e+005,-1.67067603050938e+001,-2.75846399910358e+000

1.35479249978003e+005,-1.67068538467527e+001,-2.79691483397714e+000

1.37370469830040e+005,-1.67069499446946e+001,-2.83590013233356e+000

1.39288090127379e+005,-1.67070486667770e+001,-2.87542726350586e+000

1.41232479406504e+005,-1.67071500825518e+001,-2.91550369620700e+000

1.43204011348474e+005,-1.67072542633020e+001,-2.95613699979256e+000

1.45203064850745e+005,-1.67073612820789e+001,-2.99733484554252e+000

1.47230024099979e+005,-1.67074712137401e+001,-3.03910500795168e+000

1.49285278645888e+005,-1.67075841349870e+001,-3.08145536604104e+000

1.51369223476094e+005,-1.67077001244045e+001,-3.12439390467720e+000

1.53482259092041e+005,-1.67078192624995e+001,-3.16792871591186e+000

1.55624791585964e+005,-1.67079416317407e+001,-3.21206800033346e+000

1.57797232718936e+005,-1.67080673165988e+001,-3.25682006843490e+000

1.59999999999999e+005,-1.67081964035871e+001,-3.30219334199533e+000

1.62233516766403e+005,-1.67083289813023e+001,-3.34819635548034e+000

1.64498212264969e+005,-1.67084651404658e+001,-3.39483775745454e+000

1.66794521734578e+005,-1.67086049739659e+001,-3.44212631201256e+000

1.69122886489819e+005,-1.67087485768992e+001,-3.49007090022521e+000

1.71483754005805e+005,-1.67088960466141e+001,-3.53868052160187e+000

1.73877578004168e+005,-1.67090474827526e+001,-3.58796429557086e+000

1.76304818540256e+005,-1.67092029872943e+001,-3.63793146297523e+000

1.78765942091554e+005,-1.67093626645993e+001,-3.68859138758713e+000

1.81261421647326e+005,-1.67095266214523e+001,-3.73995355763902e+000

1.83791736799524e+005,-1.67096949671062e+001,-3.79202758737285e+000

1.86357373834951e+005,-1.67098678133268e+001,-3.84482321860854e+000

1.88958825828723e+005,-1.67100452744369e+001,-3.89835032232891e+000

1.91596592739027e+005,-1.67102274673609e+001,-3.95261890028623e+000

1.94271181503206e+005,-1.67104145116696e+001,-4.00763908662605e+000

1.96983106135185e+005,-1.67106065296253e+001,-4.06342114953178e+000

1.99732887824256e+005,-1.67108036462265e+001,-4.11997549289014e+000

2.02521055035243e+005,-1.67110059892534e+001,-4.17731265797542e+000

2.05348143610063e+005,-1.67112136893123e+001,-4.23544332515744e+000

2.08214696870707e+005,-1.67114268798814e+001,-4.29437831562938e+000

2.11121265723661e+005,-1.67116456973561e+001,-4.35412859315846e+000

2.14068408765776e+005,-1.67118702810932e+001,-4.41470526586043e+000

2.17056692391625e+005,-1.67121007734571e+001,-4.47611958799572e+000

2.20086690902357e+005,-1.67123373198642e+001,-4.53838296179164e+000

2.23158986616063e+005,-1.67125800688277e+001,-4.60150693928851e+000

2.26274169979693e+005,-1.67128291720029e+001,-4.66550322421074e+000

2.29432839682530e+005,-1.67130847842316e+001,-4.73038367386559e+000

2.32635602771247e+005,-1.67133470635864e+001,-4.79616030106825e+000

2.35883074766574e+005,-1.67136161714155e+001,-4.86284527609416e+000

2.39175879781588e+005,-1.67138922723866e+001,-4.93045092866212e+000

2.42514650641661e+005,-1.67141755345308e+001,-4.99898974994403e+000

2.45900029006080e+005,-1.67144661292867e+001,-5.06847439460834e+000

2.49332665491357e+005,-1.67147642315436e+001,-5.13891768289332e+000

2.52813219796278e+005,-1.67150700196851e+001,-5.21033260271285e+000

2.56342360828676e+005,-1.67153836756323e+001,-5.28273231179679e+000

2.59920766833993e+005,-1.67157053848868e+001,-5.35613013986569e+000

2.63549125525621e+005,-1.67160353365737e+001,-5.43053959084128e+000

2.67228134217075e+005,-1.67163737234839e+001,-5.50597434509383e+000

2.70958499956006e+005,-1.67167207421174e+001,-5.58244826172925e+000

2.74740939660078e+005,-1.67170765927252e+001,-5.65997538091349e+000

2.78576180254757e+005,-1.67174414793524e+001,-5.73856992624051e+000

2.82464958813007e+005,-1.67178156098805e+001,-5.81824630714038e+000

2.86408022696948e+005,-1.67181991960705e+001,-5.89901912133160e+000

2.90406129701488e+005,-1.67185924536052e+001,-5.98090315732016e+000

2.94460048199957e+005,-1.67189956021331e+001,-6.06391339694204e+000

2.98570557291775e+005,-1.67194088653115e+001,-6.14806501795728e+000

3.02738446952187e+005,-1.67198324708508e+001,-6.23337339669035e+000

3.06964518184081e+005,-1.67202666505591e+001,-6.31985411072414e+000

3.11249583171928e+005,-1.67207116403876e+001,-6.40752294164522e+000

3.15594465437872e+005,-1.67211676804773e+001,-6.49639587784388e+000

3.19999999999997e+005,-1.67216350152057e+001,-6.58648911737003e+000

3.24467033532806e+005,-1.67221138932363e+001,-6.67781907084593e+000

3.28996424529938e+005,-1.67226045675683e+001,-6.77040236443948e+000

3.33589043469155e+005,-1.67231072955884e+001,-6.86425584289599e+000

3.38245772979638e+005,-1.67236223391250e+001,-6.95939657263443e+000

3.42967508011610e+005,-1.67241499645034e+001,-7.05584184490562e+000

3.47755156008335e+005,-1.67246904426049e+001,-7.15360917901745e+000

3.52609637080511e+005,-1.67252440489272e+001,-7.25271632562581e+000

3.57531884183106e+005,-1.67258110636493e+001,-7.35318127009418e+000

3.62522843294651e+005,-1.67263917716983e+001,-7.45502223592356e+000

3.67583473599047e+005,-1.67269864628211e+001,-7.55825768825303e+000

3.72714747669902e+005,-1.67275954316595e+001,-7.66290633743270e+000

3.77917651657445e+005,-1.67282189778304e+001,-7.76898714267061e+000

3.83193185478053e+005,-1.67288574060099e+001,-7.87651931575497e+000

3.88542363006410e+005,-1.67295110260240e+001,-7.98552232485117e+000

3.93966212270369e+005,-1.67301801529442e+001,-8.09601589837668e+000

3.99465775648511e+005,-1.67308651071898e+001,-8.20802002895238e+000

4.05042110070485e+005,-1.67315662146362e+001,-8.32155497743344e+000

4.10696287220124e+005,-1.67322838067320e+001,-8.43664127701810e+000

4.16429393741414e+005,-1.67330182206220e+001,-8.55329973743561e+000

4.22242531447321e+005,-1.67337697992801e+001,-8.67155144921433e+000

4.28136817531551e+005,-1.67345388916500e+001,-8.79141778802808e+000

4.34113384783250e+005,-1.67353258527962e+001,-8.91292041912227e+000

4.40173381804713e+005,-1.67361310440641e+001,-9.03608130181917e+000

4.46317973232124e+005,-1.67369548332518e+001,-9.16092269410052e+000

4.52548339959385e+005,-1.67377975947923e+001,-9.28746715726858e+000

4.58865679365059e+005,-1.67386597099480e+001,-9.41573756068214e+000

4.65271205542494e+005,-1.67395415670175e+001,-9.54575708656973e+000

4.71766149533147e+005,-1.67404435615555e+001,-9.67754923491386e+000

4.78351759563174e+005,-1.67413660966063e+001,-9.81113782840911e+000

4.85029301283321e+005,-1.67423095829523e+001,-9.94654701748871e+000

4.91800058012158e+005,-1.67432744393759e+001,-1.00838012854193e+001

4.98665330982714e+005,-1.67442610929392e+001,-1.02229254534598e+001

5.05626439592555e+005,-1.67452699792775e+001,-1.03639446860828e+001

5.12684721657352e+005,-1.67463015429114e+001,-1.05068844962543e+001

5.19841533667984e+005,-1.67473562375750e+001,-1.06517707507697e+001

5.27098251051240e+005,-1.67484345265627e+001,-1.07986296756404e+001

5.34456268434150e+005,-1.67495368830937e+001,-1.09474878615295e+001

5.41916999912011e+005,-1.67506637906960e+001,-1.10983722692302e+001

