Freq.,VOut,OutRef

1.00000000000000e+004,-9.30771689188659e+000,-6.14821120996695e-002

1.01395947979003e+004,-9.30771702784057e+000,-6.23403570048177e-002

1.02811382665607e+004,-9.30771716761537e+000,-6.32105819928458e-002

1.04246576084112e+004,-9.30771731131802e+000,-6.40929542773626e-002

1.05701804056138e+004,-9.30771745905928e+000,-6.49876434002859e-002

1.07177346253629e+004,-9.30771761095231e+000,-6.58948212738995e-002

1.08673486252606e+004,-9.30771776711358e+000,-6.68146622084324e-002

1.10190511587661e+004,-9.30771792766330e+000,-6.77473429428777e-002

1.11728713807222e+004,-9.30771809272463e+000,-6.86930426853028e-002

1.13288388529580e+004,-9.30771826242428e+000,-6.96519431432274e-002

1.14869835499703e+004,-9.30771843689243e+000,-7.06242285600727e-002

1.16473358646846e+004,-9.30771861626331e+000,-7.16100857474245e-002

1.18099266142953e+004,-9.30771880067400e+000,-7.26097041290459e-002

1.19747870461893e+004,-9.30771899026681e+000,-7.36232757622034e-002

1.21419488439505e+004,-9.30771918518681e+000,-7.46509953922000e-002

1.23114441334492e+004,-9.30771938558380e+000,-7.56930604767237e-002

1.24833054890161e+004,-9.30771959161135e+000,-7.67496712305063e-002

1.26575659397028e+004,-9.30771980342770e+000,-7.78210306598502e-002

1.28342589756290e+004,-9.30772002119551e+000,-7.89073446028419e-002

1.30134185544193e+004,-9.30772024508172e+000,-8.00088217708729e-002

1.31950791077289e+004,-9.30772047525830e+000,-8.11256737843827e-002

1.33792755478611e+004,-9.30772071190161e+000,-8.22581152192549e-002

1.35660432744767e+004,-9.30772095519341e+000,-8.34063636409384e-002

1.37554181813974e+004,-9.30772120532032e+000,-8.45706396516782e-002

1.39474366635040e+004,-9.30772146247444e+000,-8.57511669291640e-002

1.41421356237309e+004,-9.30772172685252e+000,-8.69481722756881e-002

1.43395524801583e+004,-9.30772199865780e+000,-8.81618856509234e-002

1.45397251732031e+004,-9.30772227809862e+000,-8.93925402256694e-002

1.47426921729110e+004,-9.30772256538935e+000,-9.06403724219609e-002

1.49484924863494e+004,-9.30772286075029e+000,-9.19056219591233e-002

1.51571656651040e+004,-9.30772316440793e+000,-9.31885319005534e-002

1.53687518128801e+004,-9.30772347659507e+000,-9.44893486993295e-002

1.55832915932100e+004,-9.30772379755116e+000,-9.58083222447031e-002

1.58008262372675e+004,-9.30772412752227e+000,-9.71457059113578e-002

1.60213975517924e+004,-9.30772446676134e+000,-9.85017566080493e-002

1.62450479271247e+004,-9.30772481552854e+000,-9.98767348245253e-002

1.64718203453514e+004,-9.30772517409114e+000,-1.01270904684589e-001

1.67017583885674e+004,-9.30772554272395e+000,-1.02684533994760e-001

1.69349062472505e+004,-9.30772592170958e+000,-1.04117894294805e-001

1.71713087287550e+004,-9.30772631133837e+000,-1.05571260911811e-001

1.74110112659224e+004,-9.30772671190880e+000,-1.07044913012117e-001

1.76540599258131e+004,-9.30772712372804e+000,-1.08539133651386e-001

1.79005014185594e+004,-9.30772754711146e+000,-1.10054209835005e-001

1.81503831063432e+004,-9.30772798238334e+000,-1.11590432568441e-001

1.84037530124975e+004,-9.30772842987709e+000,-1.13148096914094e-001

1.86606598307361e+004,-9.30772888993560e+000,-1.14727502046438e-001

1.89211529345119e+004,-9.30772936291101e+000,-1.16328951312594e-001

1.91852823865052e+004,-9.30772984916559e+000,-1.17952752286659e-001

1.94530989482457e+004,-9.30773034907162e+000,-1.19599216830445e-001

1.97246540898671e+004,-9.30773086301191e+000,-1.21268661151621e-001

1.99999999999999e+004,-9.30773139137973e+000,-1.22961405866708e-001

2.02791895958005e+004,-9.30773193457949e+000,-1.24677776059964e-001

2.05622765331213e+004,-9.30773249302694e+000,-1.26418101345646e-001

2.08493152168224e+004,-9.30773306714937e+000,-1.28182715931857e-001

2.11403608112276e+004,-9.30773365738626e+000,-1.29971958682533e-001

2.14354692507258e+004,-9.30773426418880e+000,-1.31786173186809e-001

2.17346972505211e+004,-9.30773488802117e+000,-1.33625707818986e-001

2.20381023175322e+004,-9.30773552936068e+000,-1.35490915805921e-001

2.23457427614443e+004,-9.30773618869772e+000,-1.37382155297685e-001

2.26576777059159e+004,-9.30773686653597e+000,-1.39299789435651e-001

2.29739670999406e+004,-9.30773756339421e+000,-1.41244186414371e-001

2.32946717293690e+004,-9.30773827980452e+000,-1.43215719563921e-001

2.36198532285905e+004,-9.30773901631469e+000,-1.45214767409291e-001

2.39495740923785e+004,-9.30773977348713e+000,-1.47241713751835e-001

2.42838976879009e+004,-9.30774055190059e+000,-1.49296947733928e-001

2.46228882668982e+004,-9.30774135214953e+000,-1.51380863919857e-001

2.49666109780322e+004,-9.30774217484507e+000,-1.53493862368166e-001

2.53151318794055e+004,-9.30774302061506e+000,-1.55636348709471e-001

2.56685179512580e+004,-9.30774389010540e+000,-1.57808734219013e-001

2.60268371088386e+004,-9.30774478397957e+000,-1.60011435900292e-001

2.63901582154578e+004,-9.30774570291952e+000,-1.62244876562151e-001

2.67585510957221e+004,-9.30774664762677e+000,-1.64509484895766e-001

2.71320865489533e+004,-9.30774761882116e+000,-1.66805695566297e-001

2.75108363627948e+004,-9.30774861724373e+000,-1.69133949282042e-001

2.78948733270080e+004,-9.30774964365555e+000,-1.71494692887566e-001

2.82842712474618e+004,-9.30775069883906e+000,-1.73888379444767e-001

2.86791049603164e+004,-9.30775178359800e+000,-1.76315468322553e-001

2.90794503464061e+004,-9.30775289875888e+000,-1.78776425278136e-001

2.94853843458219e+004,-9.30775404517112e+000,-1.81271722548962e-001

2.98969849726987e+004,-9.30775522370759e+000,-1.83801838942325e-001

3.03143313302078e+004,-9.30775643526545e+000,-1.86367259925100e-001

3.07375036257601e+004,-9.30775768076648e+000,-1.88968477718172e-001

3.11665831864199e+004,-9.30775896115844e+000,-1.91605991384070e-001

3.16016524745350e+004,-9.30776027741501e+000,-1.94280306927958e-001

3.20427951035848e+004,-9.30776163053709e+000,-1.96991937388247e-001

3.24900958542493e+004,-9.30776302155300e+000,-1.99741402937764e-001

3.29436406907028e+004,-9.30776445151991e+000,-2.02529230977815e-001

3.34035167771346e+004,-9.30776592152393e+000,-2.05355956241570e-001

3.38698124945009e+004,-9.30776743268108e+000,-2.08222120894655e-001

3.43426174575100e+004,-9.30776898613890e+000,-2.11128274632231e-001

3.48220225318448e+004,-9.30777058307563e+000,-2.14074974792527e-001

3.53081198516260e+004,-9.30777222470295e+000,-2.17062786451606e-001

3.58010028371187e+004,-9.30777391226538e+000,-2.20092282537382e-001

3.63007662126863e+004,-9.30777564704212e+000,-2.23164043932971e-001

3.68075060249948e+004,-9.30777743034738e+000,-2.26278659589313e-001

3.73213196614721e+004,-9.30777926353174e+000,-2.29436726633295e-001

3.78423058690237e+004,-9.30778114798315e+000,-2.32638850480440e-001

3.83705647730104e+004,-9.30778308512712e+000,-2.35885644953043e-001

3.89061978964912e+004,-9.30778507642901e+000,-2.39177732388148e-001

3.94493081797342e+004,-9.30778712339417e+000,-2.42515743759697e-001

3.99999999999998e+004,-9.30778922756936e+000,-2.45900318795158e-001

4.05583791916010e+004,-9.30779139054370e+000,-2.49332106096034e-001

4.11245530662425e+004,-9.30779361394996e+000,-2.52811763258447e-001

4.16986304336447e+004,-9.30779589946595e+000,-2.56339956995283e-001

4.22807216224550e+004,-9.30779824881473e+000,-2.59917363266309e-001

4.28709385014515e+004,-9.30780066376725e+000,-2.63544667396425e-001

4.34693945010421e+004,-9.30780314614256e+000,-2.67222564209646e-001

4.40762046350642e+004,-9.30780569780923e+000,-2.70951758157966e-001

4.46914855228886e+004,-9.30780832068739e+000,-2.74732963448955e-001

4.53153554118317e+004,-9.30781101674893e+000,-2.78566904184826e-001

4.59479341998812e+004,-9.30781378802002e+000,-2.82454314491102e-001

4.65893434587380e+004,-9.30781663658175e+000,-2.86395938657536e-001

4.72397064571810e+004,-9.30781956457170e+000,-2.90392531275942e-001

4.78991481847569e+004,-9.30782257418593e+000,-2.94444857376620e-001

4.85677953758016e+004,-9.30782566767969e+000,-2.98553692576424e-001

4.92457765337964e+004,-9.30782884736981e+000,-3.02719823216178e-001

4.99332219560642e+004,-9.30783211563582e+000,-3.06944046509719e-001

5.06302637588109e+004,-9.30783547492136e+000,-3.11227170692873e-001

5.13370359025159e+004,-9.30783892773660e+000,-3.15570015167617e-001

5.20536742176771e+004,-9.30784247665921e+000,-3.19973410658556e-001

5.27803164309155e+004,-9.30784612433648e+000,-3.24438199363233e-001

5.35171021914442e+004,-9.30784987348700e+000,-3.28965235108346e-001

5.42641730979066e+004,-9.30785372690279e+000,-3.33555383504438e-001

5.50216727255895e+004,-9.30785768745070e+000,-3.38209522108512e-001

5.57897466540159e+004,-9.30786175807434e+000,-3.42928540584424e-001

5.65685424949235e+004,-9.30786594179671e+000,-3.47713340861784e-001

5.73582099206328e+004,-9.30787024172136e+000,-3.52564837306524e-001

5.81589006928121e+004,-9.30787466103514e+000,-3.57483956884133e-001

5.89707686916437e+004,-9.30787920300953e+000,-3.62471639332360e-001

5.97939699453972e+004,-9.30788387100380e+000,-3.67528837327229e-001

6.06286626604156e+004,-9.30788866846597e+000,-3.72656516663334e-001

6.14750072515201e+004,-9.30789359893621e+000,-3.77855656423231e-001

6.23331663728396e+004,-9.30789866604838e+000,-3.83127249158193e-001

6.32033049490698e+004,-9.30790387353257e+000,-3.88472301068145e-001

6.40855902071694e+004,-9.30790922521746e+000,-3.93891832182701e-001

6.49801917084985e+004,-9.30791472503276e+000,-3.99386876546306e-001

6.58872813814055e+004,-9.30792037701182e+000,-4.04958482403090e-001

6.68070335542691e+004,-9.30792618529374e+000,-4.10607712388015e-001

6.77396249890018e+004,-9.30793215412648e+000,-4.16335643715808e-001

6.86852349150199e+004,-9.30793828786914e+000,-4.22143368374632e-001

6.96440450636895e+004,-9.30794459099452e+000,-4.28031993323656e-001

7.06162397032520e+004,-9.30795106809212e+000,-4.34002640688222e-001

7.16020056742374e+004,-9.30795772387110e+000,-4.40056447959410e-001

7.26015324253724e+004,-9.30796456316224e+000,-4.46194568201964e-001

7.36150120499896e+004,-9.30797159092187e+000,-4.52418170252269e-001

7.46426393229441e+004,-9.30797881223413e+000,-4.58728438929940e-001

7.56846117380472e+004,-9.30798623231398e+000,-4.65126575247104e-001

7.67411295460207e+004,-9.30799385651059e+000,-4.71613796618502e-001

7.78123957929823e+004,-9.30800169030998e+000,-4.78191337078362e-001

7.88986163594682e+004,-9.30800973933842e+000,-4.84860447495417e-001

7.99999999999995e+004,-9.30801800936532e+000,-4.91622395794622e-001

8.11167583832018e+004,-9.30802650630689e+000,-4.98478467175655e-001

8.22491061324848e+004,-9.30803523622889e+000,-5.05429964340670e-001

8.33972608672892e+004,-9.30804420535034e+000,-5.12478207718761e-001

8.45614432449099e+004,-9.30805342004648e+000,-5.19624535697281e-001

8.57418770029029e+004,-9.30806288685252e+000,-5.26870304852005e-001

8.69387890020841e+004,-9.30807261246693e+000,-5.34216890182069e-001

8.81524092701283e+004,-9.30808260375473e+000,-5.41665685347870e-001

8.93829710457770e+004,-9.30809286775119e+000,-5.49218102910528e-001

9.06307108236633e+004,-9.30810341166554e+000,-5.56875574571405e-001

9.18958683997622e+004,-9.30811424288416e+000,-5.64639551420146e-001

9.31786869174758e+004,-9.30812536897427e+000,-5.72511504180887e-001

9.44794129143618e+004,-9.30813679768786e+000,-5.80492923461197e-001

9.57982963695136e+004,-9.30814853696505e+000,-5.88585320005328e-001

9.71355907516031e+004,-9.30816059493788e+000,-5.96790224949536e-001

9.84915530675926e+004,-9.30817297993393e+000,-6.05109190079845e-001

9.98664439121282e+004,-9.30818570048005e+000,-6.13543788092196e-001

1.01260527517622e+005,-9.30819876530622e+000,-6.22095612855603e-001

1.02674071805032e+005,-9.30821218334925e+000,-6.30766279676732e-001

1.04107348435354e+005,-9.30822596375619e+000,-6.39557425571542e-001

1.05560632861831e+005,-9.30824011588857e+000,-6.48470709532042e-001

1.07034204382888e+005,-9.30825464932568e+000,-6.57507812803806e-001

1.08528346195813e+005,-9.30826957386843e+000,-6.66670439160334e-001

1.10043345451179e+005,-9.30828489954304e+000,-6.75960315183212e-001

1.11579493308032e+005,-9.30830063660488e+000,-6.85379190542086e-001

1.13137084989847e+005,-9.30831679554170e+000,-6.94928838281946e-001

1.14716419841265e+005,-9.30833338707733e+000,-7.04611055109443e-001

1.16317801385624e+005,-9.30835042217558e+000,-7.14427661680974e-001

1.17941537383287e+005,-9.30836791204300e+000,-7.24380502898662e-001

1.19587939890794e+005,-9.30838586813308e+000,-7.34471448202974e-001

1.21257325320831e+005,-9.30840430214877e+000,-7.44702391873582e-001

1.22950014503040e+005,-9.30842322604632e+000,-7.55075253328105e-001

1.24666332745679e+005,-9.30844265203810e+000,-7.65591977427505e-001

1.26406609898139e+005,-9.30846259259570e+000,-7.76254534781687e-001

1.28171180414339e+005,-9.30848306045277e+000,-7.87064922059576e-001

1.29960383416997e+005,-9.30850406860788e+000,-7.98025162300807e-001

1.31774562762811e+005,-9.30852563032699e+000,-8.09137305231272e-001

1.33614067108538e+005,-9.30854775914600e+000,-8.20403427580644e-001

1.35479249978003e+005,-9.30857046887287e+000,-8.31825633403175e-001

1.37370469830040e+005,-9.30859377358986e+000,-8.43406054401615e-001

1.39288090127379e+005,-9.30861768765528e+000,-8.55146850252842e-001

1.41232479406504e+005,-9.30864222570506e+000,-8.67050208938411e-001

1.43204011348474e+005,-9.30866740265426e+000,-8.79118347076121e-001

1.45203064850745e+005,-9.30869323369801e+000,-8.91353510255946e-001

1.47230024099979e+005,-9.30871973431243e+000,-9.03757973378027e-001

1.49285278645888e+005,-9.30874692025504e+000,-9.16334040994478e-001

1.51369223476094e+005,-9.30877480756514e+000,-9.29084047653004e-001

1.53482259092041e+005,-9.30880341256322e+000,-9.42010358246022e-001

1.55624791585964e+005,-9.30883275185088e+000,-9.55115368359882e-001

1.57797232718936e+005,-9.30886284230940e+000,-9.68401504630306e-001

1.59999999999999e+005,-9.30889370109872e+000,-9.81871225098435e-001

1.62233516766403e+005,-9.30892534565537e+000,-9.95527019571851e-001

1.64498212264969e+005,-9.30895779368999e+000,-1.00937140999013e+000

1.66794521734578e+005,-9.30899106318480e+000,-1.02340695078985e+000

1.69122886489819e+005,-9.30902517238982e+000,-1.03763622927845e+000

1.71483754005805e+005,-9.30906013981909e+000,-1.05206186600688e+000

1.73877578004168e+005,-9.30909598424604e+000,-1.06668651514916e+000

1.76304818540256e+005,-9.30913272469809e+000,-1.08151286488495e+000

1.78765942091554e+005,-9.30917038045080e+000,-1.09654363778606e+000

1.81261421647326e+005,-9.30920897102114e+000,-1.11178159120679e+000

1.83791736799524e+005,-9.30924851616006e+000,-1.12722951767911e+000

1.86357373834951e+005,-9.30928903584437e+000,-1.14289024531127e+000

1.88958825828723e+005,-9.30933055026754e+000,-1.15876663819217e+000

1.91596592739027e+005,-9.30937307982969e+000,-1.17486159680088e+000

1.94271181503206e+005,-9.30941664512695e+000,-1.19117805841830e+000

1.96983106135185e+005,-9.30946126693939e+000,-1.20771899754757e+000

1.99732887824256e+005,-9.30950696621830e+000,-1.22448742633734e+000

2.02521055035243e+005,-9.30955376407237e+000,-1.24148639501093e+000

2.05348143610063e+005,-9.30960168175248e+000,-1.25871899230336e+000

2.08214696870707e+005,-9.30965074063569e+000,-1.27618834590199e+000

2.11121265723661e+005,-9.30970096220806e+000,-1.29389762289372e+000

2.14068408765776e+005,-9.30975236804564e+000,-1.31185003022242e+000

2.17056692391625e+005,-9.30980497979525e+000,-1.33004881514713e+000

2.20086690902357e+005,-9.30985881915264e+000,-1.34849726571463e+000

2.23158986616063e+005,-9.30991390784030e+000,-1.36719871123467e+000

2.26274169979693e+005,-9.30997026758344e+000,-1.38615652276456e+000

2.29432839682530e+005,-9.31002792008436e+000,-1.40537411360423e+000

2.32635602771247e+005,-9.31008688699551e+000,-1.42485493979773e+000

2.35883074766574e+005,-9.31014718989085e+000,-1.44460250064652e+000

2.39175879781588e+005,-9.31020885023566e+000,-1.46462033923047e+000

2.42514650641661e+005,-9.31027188935464e+000,-1.48491204294110e+000

2.45900029006080e+005,-9.31033632839835e+000,-1.50548124402451e+000

2.49332665491357e+005,-9.31040218830775e+000,-1.52633162013754e+000

2.52813219796278e+005,-9.31046948977695e+000,-1.54746689491499e+000

2.56342360828676e+005,-9.31053825321455e+000,-1.56889083854871e+000

2.59920766833993e+005,-9.31060849870235e+000,-1.59060726838227e+000

2.63549125525621e+005,-9.31068024595271e+000,-1.61262004951923e+000

2.67228134217075e+005,-9.31075351426369e+000,-1.63493309544544e+000

2.70958499956006e+005,-9.31082832247251e+000,-1.65755036866634e+000

2.74740939660078e+005,-9.31090468890643e+000,-1.68047588136450e+000

2.78576180254757e+005,-9.31098263133240e+000,-1.70371369606845e+000

2.82464958813007e+005,-9.31106216690372e+000,-1.72726792634560e+000

2.86408022696948e+005,-9.31114331210556e+000,-1.75114273750885e+000

2.90406129701488e+005,-9.31122608269762e+000,-1.77534234734779e+000

2.94460048199957e+005,-9.31131049365530e+000,-1.79987102687586e+000

2.98570557291775e+005,-9.31139655910848e+000,-1.82473310110270e+000

3.02738446952187e+005,-9.31148429227811e+000,-1.84993294982835e+000

3.06964518184081e+005,-9.31157370541106e+000,-1.87547500845977e+000

3.11249583171928e+005,-9.31166480971276e+000,-1.90136376885320e+000

3.15594465437872e+005,-9.31175761527787e+000,-1.92760378018132e+000

3.19999999999997e+005,-9.31185213101871e+000,-1.95419964982895e+000

3.24467033532806e+005,-9.31194836459233e+000,-1.98115604431266e+000

3.28996424529938e+005,-9.31204632232493e+000,-2.00847769023437e+000

3.33589043469155e+005,-9.31214600913519e+000,-2.03616937525936e+000

3.38245772979638e+005,-9.31224742845522e+000,-2.06423594912986e+000

3.42967508011610e+005,-9.31235058215034e+000,-2.09268232470761e+000

3.47755156008335e+005,-9.31245547043665e+000,-2.12151347905138e+000

3.52609637080511e+005,-9.31256209179792e+000,-2.15073445452675e+000

3.57531884183106e+005,-9.31267044290031e+000,-2.18035035995279e+000

3.62522843294651e+005,-9.31278051850611e+000,-2.21036637178500e+000

3.67583473599047e+005,-9.31289231138657e+000,-2.24078773533335e+000

3.72714747669902e+005,-9.31300581223320e+000,-2.27161976602169e+000

3.77917651657445e+005,-9.31312100956874e+000,-2.30286785068318e+000

3.83193185478053e+005,-9.31323788965684e+000,-2.33453744889951e+000

3.88542363006410e+005,-9.31335643641200e+000,-2.36663409437605e+000

3.93966212270369e+005,-9.31347663130802e+000,-2.39916339636525e+000

3.99465775648511e+005,-9.31359845328757e+000,-2.43213104112567e+000

4.05042110070485e+005,-9.31372187867060e+000,-2.46554279343058e+000

4.10696287220124e+005,-9.31384688106379e+000,-2.49940449811605e+000

4.16429393741414e+005,-9.31397343127017e+000,-2.53372208167489e+000

4.22242531447321e+005,-9.31410149719906e+000,-2.56850155389724e+000

4.28136817531551e+005,-9.31423104377769e+000,-2.60374900955312e+000

4.34113384783250e+005,-9.31436203286306e+000,-2.63947063012411e+000

4.40173381804713e+005,-9.31449442315598e+000,-2.67567268557807e+000

4.46317973232124e+005,-9.31462817011597e+000,-2.71236153619159e+000

4.52548339959385e+005,-9.31476322587860e+000,-2.74954363441829e+000

4.58865679365059e+005,-9.31489953917488e+000,-2.78722552680068e+000

4.65271205542494e+005,-9.31503705525262e+000,-2.82541385593149e+000

4.71766149533147e+005,-9.31517571580094e+000,-2.86411536245606e+000

4.78351759563174e+005,-9.31531545887725e+000,-2.90333688712313e+000

4.85029301283321e+005,-9.31545621883755e+000,-2.94308537287718e+000

4.91800058012158e+005,-9.31559792627021e+000,-2.98336786699488e+000

4.98665330982714e+005,-9.31574050793317e+000,-3.02419152326467e+000

5.05626439592555e+005,-9.31588388669498e+000,-3.06556360420709e+000

5.12684721657352e+005,-9.31602798148011e+000,-3.10749148333586e+000

5.19841533667984e+005,-9.31617270721826e+000,-3.14998264745813e+000

5.27098251051240e+005,-9.31631797479854e+000,-3.19304469901228e+000

5.34456268434150e+005,-9.31646369102795e+000,-3.23668535844139e+000

5.41916999912011e+005,-9.31660975859465e+000,-3.28091246660375e+000

