Freq.,VOut,OutRef

1.00000000000000e+004,-1.47401809885794e+001,-1.50786261798488e-001

1.01395947979003e+004,-1.47401812039051e+001,-1.52891147531941e-001

1.02811382665607e+004,-1.47401814252834e+001,-1.55025415862632e-001

1.04246576084112e+004,-1.47401816528838e+001,-1.57189476937133e-001

1.05701804056138e+004,-1.47401818868815e+001,-1.59383746623682e-001

1.07177346253629e+004,-1.47401821274564e+001,-1.61608646592666e-001

1.08673486252606e+004,-1.47401823747931e+001,-1.63864604404758e-001

1.10190511587661e+004,-1.47401826290817e+001,-1.66152053584747e-001

1.11728713807222e+004,-1.47401828905175e+001,-1.68471433710162e-001

1.13288388529580e+004,-1.47401831593013e+001,-1.70823190491275e-001

1.14869835499703e+004,-1.47401834356397e+001,-1.73207775860202e-001

1.16473358646846e+004,-1.47401837197450e+001,-1.75625648056818e-001

1.18099266142953e+004,-1.47401840118352e+001,-1.78077271717239e-001

1.19747870461893e+004,-1.47401843121348e+001,-1.80563117961317e-001

1.21419488439505e+004,-1.47401846208745e+001,-1.83083664484120e-001

1.23114441334492e+004,-1.47401849382913e+001,-1.85639395647392e-001

1.24833054890161e+004,-1.47401852646292e+001,-1.88230802572503e-001

1.26575659397028e+004,-1.47401856001388e+001,-1.90858383236727e-001

1.28342589756290e+004,-1.47401859450775e+001,-1.93522642566594e-001

1.30134185544193e+004,-1.47401862997107e+001,-1.96224092533217e-001

1.31950791077289e+004,-1.47401866643102e+001,-1.98963252257197e-001

1.33792755478611e+004,-1.47401870391565e+001,-2.01740648098020e-001

1.35660432744767e+004,-1.47401874245372e+001,-2.04556813767081e-001

1.37554181813974e+004,-1.47401878207483e+001,-2.07412290419464e-001

1.39474366635040e+004,-1.47401882280939e+001,-2.10307626765150e-001

1.41421356237309e+004,-1.47401886468871e+001,-2.13243379169702e-001

1.43395524801583e+004,-1.47401890774492e+001,-2.16220111764442e-001

1.45397251732031e+004,-1.47401895201108e+001,-2.19238396552910e-001

1.47426921729110e+004,-1.47401899752120e+001,-2.22298813519638e-001

1.49484924863494e+004,-1.47401904431019e+001,-2.25401950744972e-001

1.51571656651040e+004,-1.47401909241401e+001,-2.28548404514044e-001

1.53687518128801e+004,-1.47401914186954e+001,-2.31738779435213e-001

1.55832915932100e+004,-1.47401919271481e+001,-2.34973688550252e-001

1.58008262372675e+004,-1.47401924498879e+001,-2.38253753460293e-001

1.60213975517924e+004,-1.47401929873163e+001,-2.41579604436950e-001

1.62450479271247e+004,-1.47401935398458e+001,-2.44951880548113e-001

1.64718203453514e+004,-1.47401941079006e+001,-2.48371229778238e-001

1.67017583885674e+004,-1.47401946919165e+001,-2.51838309155606e-001

1.69349062472505e+004,-1.47401952923419e+001,-2.55353784874004e-001

1.71713087287550e+004,-1.47401959096375e+001,-2.58918332425765e-001

1.74110112659224e+004,-1.47401965442769e+001,-2.62532636726503e-001

1.76540599258131e+004,-1.47401971967475e+001,-2.66197392248330e-001

1.79005014185594e+004,-1.47401978675495e+001,-2.69913303156412e-001

1.81503831063432e+004,-1.47401985571977e+001,-2.73681083437950e-001

1.84037530124975e+004,-1.47401992662213e+001,-2.77501457043479e-001

1.86606598307361e+004,-1.47401999951644e+001,-2.81375158023148e-001

1.89211529345119e+004,-1.47402007445859e+001,-2.85302930671687e-001

1.91852823865052e+004,-1.47402015150610e+001,-2.89285529664770e-001

1.94530989482457e+004,-1.47402023071806e+001,-2.93323720209500e-001

1.97246540898671e+004,-1.47402031215520e+001,-2.97418278189335e-001

1.99999999999999e+004,-1.47402039588002e+001,-3.01569990309660e-001

2.02791895958005e+004,-1.47402048195672e+001,-3.05779654254287e-001

2.05622765331213e+004,-1.47402057045128e+001,-3.10048078835093e-001

2.08493152168224e+004,-1.47402066143159e+001,-3.14376084145551e-001

2.11403608112276e+004,-1.47402075496739e+001,-3.18764501721227e-001

2.14354692507258e+004,-1.47402085113041e+001,-3.23214174698481e-001

2.17346972505211e+004,-1.47402094999436e+001,-3.27725957974797e-001

2.20381023175322e+004,-1.47402105163502e+001,-3.32300718372800e-001

2.23457427614443e+004,-1.47402115613032e+001,-3.36939334807295e-001

2.26576777059159e+004,-1.47402126356035e+001,-3.41642698452868e-001

2.29739670999406e+004,-1.47402137400741e+001,-3.46411712917028e-001

2.32946717293690e+004,-1.47402148755618e+001,-3.51247294407333e-001

2.36198532285905e+004,-1.47402160429364e+001,-3.56150371915544e-001

2.39495740923785e+004,-1.47402172430924e+001,-3.61121887387542e-001

2.42838976879009e+004,-1.47402184769492e+001,-3.66162795909075e-001

2.46228882668982e+004,-1.47402197454521e+001,-3.71274065885770e-001

2.49666109780322e+004,-1.47402210495726e+001,-3.76456679229811e-001

2.53151318794055e+004,-1.47402223903095e+001,-3.81711631549395e-001

2.56685179512580e+004,-1.47402237686895e+001,-3.87039932335110e-001

2.60268371088386e+004,-1.47402251857683e+001,-3.92442605157327e-001

2.63901582154578e+004,-1.47402266426306e+001,-3.97920687860896e-001

2.67585510957221e+004,-1.47402281403916e+001,-4.03475232764299e-001

2.71320865489533e+004,-1.47402296801980e+001,-4.09107306857490e-001

2.75108363627948e+004,-1.47402312632281e+001,-4.14817992012530e-001

2.78948733270080e+004,-1.47402328906935e+001,-4.20608385184877e-001

2.82842712474618e+004,-1.47402345638394e+001,-4.26479598625028e-001

2.86791049603164e+004,-1.47402362839458e+001,-4.32432760094477e-001

2.90794503464061e+004,-1.47402380523286e+001,-4.38469013075061e-001

2.94853843458219e+004,-1.47402398703402e+001,-4.44589516994702e-001

2.98969849726987e+004,-1.47402417393710e+001,-4.50795447442699e-001

3.03143313302078e+004,-1.47402436608503e+001,-4.57087996399056e-001

3.07375036257601e+004,-1.47402456362466e+001,-4.63468372461529e-001

3.11665831864199e+004,-1.47402476670703e+001,-4.69937801074300e-001

3.16016524745350e+004,-1.47402497548733e+001,-4.76497524763926e-001

3.20427951035848e+004,-1.47402519012510e+001,-4.83148803378245e-001

3.24900958542493e+004,-1.47402541078433e+001,-4.89892914323835e-001

3.29436406907028e+004,-1.47402563763358e+001,-4.96731152812402e-001

3.34035167771346e+004,-1.47402587084608e+001,-5.03664832107665e-001

3.38698124945009e+004,-1.47402611059994e+001,-5.10695283775402e-001

3.43426174575100e+004,-1.47402635707818e+001,-5.17823857938378e-001

3.48220225318448e+004,-1.47402661046895e+001,-5.25051923533753e-001

3.53081198516260e+004,-1.47402687096562e+001,-5.32380868575639e-001

3.58010028371187e+004,-1.47402713876695e+001,-5.39812100417295e-001

3.63007662126863e+004,-1.47402741407723e+001,-5.47347046022227e-001

3.68075060249948e+004,-1.47402769710643e+001,-5.54987152234363e-001

3.73213196614721e+004,-1.47402798807034e+001,-5.62733886057341e-001

3.78423058690237e+004,-1.47402828719080e+001,-5.70588734928262e-001

3.83705647730104e+004,-1.47402859469575e+001,-5.78553207008193e-001

3.89061978964912e+004,-1.47402891081953e+001,-5.86628831463864e-001

3.94493081797342e+004,-1.47402923580291e+001,-5.94817158763439e-001

3.99999999999998e+004,-1.47402956989342e+001,-6.03119760968395e-001

4.05583791916010e+004,-1.47402991334542e+001,-6.11538232034407e-001

4.11245530662425e+004,-1.47403026642032e+001,-6.20074188115855e-001

4.16986304336447e+004,-1.47403062938680e+001,-6.28729267871991e-001

4.22807216224550e+004,-1.47403100252097e+001,-6.37505132779287e-001

4.28709385014515e+004,-1.47403138610661e+001,-6.46403467447176e-001

4.34693945010421e+004,-1.47403178043536e+001,-6.55425979938818e-001

4.40762046350642e+004,-1.47403218580690e+001,-6.64574402097202e-001

4.46914855228886e+004,-1.47403260252925e+001,-6.73850489871151e-001

4.53153554118317e+004,-1.47403303091892e+001,-6.83256023652085e-001

4.59479341998812e+004,-1.47403347130118e+001,-6.92792808611012e-001

4.65893434587380e+004,-1.47403392401030e+001,-7.02462675041187e-001

4.72397064571810e+004,-1.47403438938975e+001,-7.12267478706795e-001

4.78991481847569e+004,-1.47403486779253e+001,-7.22209101192848e-001

4.85677953758016e+004,-1.47403535958135e+001,-7.32289450264079e-001

4.92457765337964e+004,-1.47403586512892e+001,-7.42510460227662e-001

4.99332219560642e+004,-1.47403638481825e+001,-7.52874092297175e-001

5.06302637588109e+004,-1.47403691904288e+001,-7.63382334966275e-001

5.13370359025159e+004,-1.47403746820721e+001,-7.74037204384527e-001

5.20536742176771e+004,-1.47403803272673e+001,-7.84840744741330e-001

5.27803164309155e+004,-1.47403861302840e+001,-7.95795028648910e-001

5.35171021914442e+004,-1.47403920955088e+001,-8.06902157538717e-001

5.42641730979066e+004,-1.47403982274490e+001,-8.18164262056613e-001

5.50216727255895e+004,-1.47404045307355e+001,-8.29583502466345e-001

5.57897466540159e+004,-1.47404110101265e+001,-8.41162069056728e-001

5.65685424949235e+004,-1.47404176705102e+001,-8.52902182558577e-001

5.73582099206328e+004,-1.47404245169090e+001,-8.64806094560413e-001

5.81589006928121e+004,-1.47404315544827e+001,-8.76876087935216e-001

5.89707686916437e+004,-1.47404387885322e+001,-8.89114477270933e-001

5.97939699453972e+004,-1.47404462245034e+001,-9.01523609307419e-001

6.06286626604156e+004,-1.47404538679909e+001,-9.14105863376865e-001

6.14750072515201e+004,-1.47404617247416e+001,-9.26863651854950e-001

6.23331663728396e+004,-1.47404698006596e+001,-9.39799420611912e-001

6.32033049490698e+004,-1.47404781018095e+001,-9.52915649475343e-001

6.40855902071694e+004,-1.47404866344210e+001,-9.66214852694652e-001

6.49801917084985e+004,-1.47404954048934e+001,-9.79699579414693e-001

6.58872813814055e+004,-1.47405044197995e+001,-9.93372414154421e-001

6.68070335542691e+004,-1.47405136858907e+001,-1.00723597729264e+000

6.77396249890018e+004,-1.47405232101014e+001,-1.02129292555816e+000

6.86852349150199e+004,-1.47405329995537e+001,-1.03554595252953e+000

6.96440450636895e+004,-1.47405430615625e+001,-1.04999778913894e+000

7.06162397032520e+004,-1.47405534036405e+001,-1.06465120418330e+000

7.16020056742374e+004,-1.47405640335028e+001,-1.07950900484483e+000

7.26015324253724e+004,-1.47405749590730e+001,-1.09457403721205e+000

7.36150120499896e+004,-1.47405861884878e+001,-1.10984918681469e+000

7.46426393229441e+004,-1.47405977301028e+001,-1.12533737916236e+000

7.56846117380472e+004,-1.47406095924983e+001,-1.14104158028919e+000

7.67411295460207e+004,-1.47406217844845e+001,-1.15696479730761e+000

7.78123957929823e+004,-1.47406343151080e+001,-1.17311007896916e+000

7.88986163594682e+004,-1.47406471936571e+001,-1.18948051623135e+000

7.99999999999995e+004,-1.47406604296687e+001,-1.20607924283348e+000

8.11167583832018e+004,-1.47406740329339e+001,-1.22290943587894e+000

8.22491061324848e+004,-1.47406880135047e+001,-1.23997431642467e+000

8.33972608672892e+004,-1.47407023817007e+001,-1.25727715008021e+000

8.45614432449099e+004,-1.47407171481154e+001,-1.27482124761226e+000

8.57418770029029e+004,-1.47407323236234e+001,-1.29260996555811e+000

8.69387890020841e+004,-1.47407479193869e+001,-1.31064670684859e+000

8.81524092701283e+004,-1.47407639468635e+001,-1.32893492143472e+000

8.93829710457770e+004,-1.47407804178128e+001,-1.34747810692730e+000

9.06307108236633e+004,-1.47407973443042e+001,-1.36627980924108e+000

9.18958683997622e+004,-1.47408147387243e+001,-1.38534362325043e+000

9.31786869174758e+004,-1.47408326137848e+001,-1.40467319344880e+000

9.44794129143618e+004,-1.47408509825302e+001,-1.42427221462346e+000

9.57982963695136e+004,-1.47408698583457e+001,-1.44414443253075e+000

9.71355907516031e+004,-1.47408892549658e+001,-1.46429364458735e+000

9.84915530675926e+004,-1.47409091864823e+001,-1.48472370056486e+000

9.98664439121282e+004,-1.47409296673528e+001,-1.50543850329644e+000

1.01260527517622e+005,-1.47409507124096e+001,-1.52644200939126e+000

1.02674071805032e+005,-1.47409723368681e+001,-1.54773822995764e+000

1.04107348435354e+005,-1.47409945563363e+001,-1.56933123133678e+000

1.05560632861831e+005,-1.47410173868232e+001,-1.59122513584326e+000

1.07034204382888e+005,-1.47410408447490e+001,-1.61342412251828e+000

1.08528346195813e+005,-1.47410649469537e+001,-1.63593242788883e+000

1.10043345451179e+005,-1.47410897107070e+001,-1.65875434673894e+000

1.11579493308032e+005,-1.47411151537183e+001,-1.68189423288905e+000

1.13137084989847e+005,-1.47411412941463e+001,-1.70535649998688e+000

1.14716419841265e+005,-1.47411681506089e+001,-1.72914562230619e+000

1.16317801385624e+005,-1.47411957421939e+001,-1.75326613555633e+000

1.17941537383287e+005,-1.47412240884691e+001,-1.77772263770233e+000

1.19587939890794e+005,-1.47412532094925e+001,-1.80251978979521e+000

1.21257325320831e+005,-1.47412831258234e+001,-1.82766231681173e+000

1.22950014503040e+005,-1.47413138585330e+001,-1.85315500850494e+000

1.24666332745679e+005,-1.47413454292154e+001,-1.87900272026607e+000

1.26406609898139e+005,-1.47413778599983e+001,-1.90521037399603e+000

1.28171180414339e+005,-1.47414111735549e+001,-1.93178295898756e+000

1.29960383416997e+005,-1.47414453931142e+001,-1.95872553282061e+000

1.31774562762811e+005,-1.47414805424735e+001,-1.98604322226463e+000

1.33614067108538e+005,-1.47415166460091e+001,-2.01374122419681e+000

1.35479249978003e+005,-1.47415537286884e+001,-2.04182480652720e+000

1.37370469830040e+005,-1.47415918160815e+001,-2.07029930913861e+000

1.39288090127379e+005,-1.47416309343732e+001,-2.09917014483664e+000

1.41232479406504e+005,-1.47416711103746e+001,-2.12844280031086e+000

1.43204011348474e+005,-1.47417123715354e+001,-2.15812283710920e+000

1.45203064850745e+005,-1.47417547459558e+001,-2.18821589262368e+000

1.47230024099979e+005,-1.47417982623988e+001,-2.21872768108793e+000

1.49285278645888e+005,-1.47418429503025e+001,-2.24966399458836e+000

1.51369223476094e+005,-1.47418888397917e+001,-2.28103070408554e+000

1.53482259092041e+005,-1.47419359616910e+001,-2.31283376045114e+000

1.55624791585964e+005,-1.47419843475365e+001,-2.34507919551527e+000

1.57797232718936e+005,-1.47420340295884e+001,-2.37777312312798e+000

1.59999999999999e+005,-1.47420850408429e+001,-2.41092174023366e+000

1.62233516766403e+005,-1.47421374150450e+001,-2.44453132795919e+000

1.64498212264969e+005,-1.47421911867003e+001,-2.47860825271512e+000

1.66794521734578e+005,-1.47422463910871e+001,-2.51315896731096e+000

1.69122886489819e+005,-1.47423030642690e+001,-2.54819001208442e+000

1.71483754005805e+005,-1.47423612431065e+001,-2.58370801604515e+000

1.73877578004168e+005,-1.47424209652690e+001,-2.61971969803238e+000

1.76304818540256e+005,-1.47424822692465e+001,-2.65623186788773e+000

1.78765942091554e+005,-1.47425451943617e+001,-2.69325142764334e+000

1.81261421647326e+005,-1.47426097807810e+001,-2.73078537272345e+000

1.83791736799524e+005,-1.47426760695260e+001,-2.76884079316394e+000

1.86357373834951e+005,-1.47427441024850e+001,-2.80742487484592e+000

1.88958825828723e+005,-1.47428139224233e+001,-2.84654490074585e+000

1.91596592739027e+005,-1.47428855729944e+001,-2.88620825220239e+000

1.94271181503206e+005,-1.47429590987501e+001,-2.92642241019922e+000

1.96983106135185e+005,-1.47430345451509e+001,-2.96719495666600e+000

1.99732887824256e+005,-1.47431119585757e+001,-3.00853357579541e+000

2.02521055035243e+005,-1.47431913863315e+001,-3.05044605537852e+000

2.05348143610063e+005,-1.47432728766621e+001,-3.09294028815898e+000

2.08214696870707e+005,-1.47433564787575e+001,-3.13602427320494e+000

2.11121265723661e+005,-1.47434422427620e+001,-3.17970611729927e+000

2.14068408765776e+005,-1.47435302197820e+001,-3.22399403635161e+000

2.17056692391625e+005,-1.47436204618941e+001,-3.26889635682687e+000

2.20086690902357e+005,-1.47437130221515e+001,-3.31442151719702e+000

2.23158986616063e+005,-1.47438079545910e+001,-3.36057806941280e+000

2.26274169979693e+005,-1.47439053142390e+001,-3.40737468039513e+000

2.29432839682530e+005,-1.47440051571168e+001,-3.45482013355103e+000

2.32635602771247e+005,-1.47441075402460e+001,-3.50292333030984e+000

2.35883074766574e+005,-1.47442125216524e+001,-3.55169329168427e+000

2.39175879781588e+005,-1.47443201603704e+001,-3.60113915985319e+000

2.42514650641661e+005,-1.47444305164455e+001,-3.65127019977003e+000

2.45900029006080e+005,-1.47445436509374e+001,-3.70209580079598e+000

2.49332665491357e+005,-1.47446596259218e+001,-3.75362547835772e+000

2.52813219796278e+005,-1.47447785044914e+001,-3.80586887563364e+000

2.56342360828676e+005,-1.47449003507568e+001,-3.85883576526432e+000

2.59920766833993e+005,-1.47450252298466e+001,-3.91253605109274e+000

2.63549125525621e+005,-1.47451532079060e+001,-3.96697976993317e+000

2.67228134217075e+005,-1.47452843520961e+001,-4.02217709336823e+000

2.70958499956006e+005,-1.47454187305911e+001,-4.07813832957719e+000

2.74740939660078e+005,-1.47455564125761e+001,-4.13487392519541e+000

2.78576180254757e+005,-1.47456974682435e+001,-4.19239446720503e+000

2.82464958813007e+005,-1.47458419687887e+001,-4.25071068485952e+000

2.86408022696948e+005,-1.47459899864056e+001,-4.30983345164165e+000

2.90406129701488e+005,-1.47461415942813e+001,-4.36977378725627e+000

2.94460048199957e+005,-1.47462968665898e+001,-4.43054285965944e+000

2.98570557291775e+005,-1.47464558784860e+001,-4.49215198712435e+000

3.02738446952187e+005,-1.47466187060986e+001,-4.55461264034390e+000

3.06964518184081e+005,-1.47467854265226e+001,-4.61793644457539e+000

3.11249583171928e+005,-1.47469561178116e+001,-4.68213518182087e+000

3.15594465437872e+005,-1.47471308589693e+001,-4.74722079305327e+000

3.19999999999997e+005,-1.47473097299417e+001,-4.81320538048093e+000

3.24467033532806e+005,-1.47474928116077e+001,-4.88010120985840e+000

3.28996424529938e+005,-1.47476801857711e+001,-4.94792071284007e+000

3.33589043469155e+005,-1.47478719351509e+001,-5.01667648938038e+000

3.38245772979638e+005,-1.47480681433738e+001,-5.08638131018009e+000

3.42967508011610e+005,-1.47482688949646e+001,-5.15704811918127e+000

3.47755156008335e+005,-1.47484742753387e+001,-5.22869003611111e+000

3.52609637080511e+005,-1.47486843707939e+001,-5.30132035907612e+000

3.57531884183106e+005,-1.47488992685037e+001,-5.37495256720688e+000

3.62522843294651e+005,-1.47491190565105e+001,-5.44960032335701e+000

3.67583473599047e+005,-1.47493438237203e+001,-5.52527747685370e+000

3.72714747669902e+005,-1.47495736598983e+001,-5.60199806630400e+000

3.77917651657445e+005,-1.47498086556653e+001,-5.67977632245751e+000

3.83193185478053e+005,-1.47500489024963e+001,-5.75862667112345e+000

3.88542363006410e+005,-1.47502944927203e+001,-5.83856373614772e+000

3.93966212270369e+005,-1.47505455195221e+001,-5.91960234244722e+000

3.99465775648511e+005,-1.47508020769459e+001,-6.00175751910400e+000

4.05042110070485e+005,-1.47510642599015e+001,-6.08504450251931e+000

4.10696287220124e+005,-1.47513321641732e+001,-6.16947873962920e+000

4.16429393741414e+005,-1.47516058864310e+001,-6.25507589118091e+000

4.22242531447321e+005,-1.47518855242452e+001,-6.34185183507305e+000

4.28136817531551e+005,-1.47521711761043e+001,-6.42982266975620e+000

4.34113384783250e+005,-1.47524629414365e+001,-6.51900471769924e+000

4.40173381804713e+005,-1.47527609206349e+001,-6.60941452891766e+000

4.46317973232124e+005,-1.47530652150873e+001,-6.70106888456614e+000

4.52548339959385e+005,-1.47533759272100e+001,-6.79398480059561e+000

4.58865679365059e+005,-1.47536931604865e+001,-6.88817953147408e+000

4.65271205542494e+005,-1.47540170195113e+001,-6.98367057397090e+000

4.71766149533147e+005,-1.47543476100393e+001,-7.08047567100645e+000

4.78351759563174e+005,-1.47546850390405e+001,-7.17861281556383e+000

4.85029301283321e+005,-1.47550294147606e+001,-7.27810025466481e+000

4.91800058012158e+005,-1.47553808467882e+001,-7.37895649340841e+000

4.98665330982714e+005,-1.47557394461287e+001,-7.48120029907118e+000

5.05626439592555e+005,-1.47561053252841e+001,-7.58485070526948e+000

5.12684721657352e+005,-1.47564785983413e+001,-7.68992701618208e+000

5.19841533667984e+005,-1.47568593810669e+001,-7.79644881083163e+000

5.27098251051240e+005,-1.47572477910095e+001,-7.90443594742657e+000

5.34456268434150e+005,-1.47576439476111e+001,-8.01390856775785e+000

5.41916999912011e+005,-1.47580479723254e+001,-8.12488710165346e+000

