Freq.,VOut,OutRef

1.00000000000000e+004,-1.82575164581958e+001,-1.61488218086223e-002

1.01395947979003e+004,-1.82575165239518e+001,-1.63742455950632e-002

1.02811382665607e+004,-1.82575165915562e+001,-1.66028159503269e-002

1.04246576084112e+004,-1.82575166610600e+001,-1.68345767948080e-002

1.05701804056138e+004,-1.82575167325179e+001,-1.70695726480497e-002

1.07177346253629e+004,-1.82575168059837e+001,-1.73078486655326e-002

1.08673486252606e+004,-1.82575168815136e+001,-1.75494506265808e-002

1.10190511587661e+004,-1.82575169591669e+001,-1.77944249397594e-002

1.11728713807222e+004,-1.82575170390019e+001,-1.80428186789839e-002

1.13288388529580e+004,-1.82575171210812e+001,-1.82946795562948e-002

1.14869835499703e+004,-1.82575172054666e+001,-1.85500559662361e-002

1.16473358646846e+004,-1.82575172922236e+001,-1.88089969653731e-002

1.18099266142953e+004,-1.82575173814186e+001,-1.90715523017313e-002

1.19747870461893e+004,-1.82575174731203e+001,-1.93377724124698e-002

1.21419488439505e+004,-1.82575175673990e+001,-1.96077084422072e-002

1.23114441334492e+004,-1.82575176643270e+001,-1.98814122473696e-002

1.24833054890161e+004,-1.82575177639781e+001,-2.01589364110548e-002

1.26575659397028e+004,-1.82575178664299e+001,-2.04403342406557e-002

1.28342589756290e+004,-1.82575179717606e+001,-2.07256597938908e-002

1.30134185544193e+004,-1.82575180800509e+001,-2.10149678824277e-002

1.31950791077289e+004,-1.82575181913843e+001,-2.13083140782198e-002

1.33792755478611e+004,-1.82575183058459e+001,-2.16057547337879e-002

1.35660432744767e+004,-1.82575184235237e+001,-2.19073469826272e-002

1.37554181813974e+004,-1.82575185445080e+001,-2.22131487563509e-002

1.39474366635040e+004,-1.82575186688913e+001,-2.25232187978806e-002

1.41421356237309e+004,-1.82575187967696e+001,-2.28376166614270e-002

1.43395524801583e+004,-1.82575189282408e+001,-2.31564027380854e-002

1.45397251732031e+004,-1.82575190634060e+001,-2.34796382573596e-002

1.47426921729110e+004,-1.82575192023686e+001,-2.38073853052257e-002

1.49484924863494e+004,-1.82575193452350e+001,-2.41397068340417e-002

1.51571656651040e+004,-1.82575194921156e+001,-2.44766666664616e-002

1.53687518128801e+004,-1.82575196431224e+001,-2.48183295230877e-002

1.55832915932100e+004,-1.82575197983716e+001,-2.51647610220852e-002

1.58008262372675e+004,-1.82575199579818e+001,-2.55160277008785e-002

1.60213975517924e+004,-1.82575201220761e+001,-2.58721970158130e-002

1.62450479271247e+004,-1.82575202907800e+001,-2.62333373713370e-002

1.64718203453514e+004,-1.82575204642229e+001,-2.65995181227663e-002

1.67017583885674e+004,-1.82575206425378e+001,-2.69708095913279e-002

1.69349062472505e+004,-1.82575208258615e+001,-2.73472830779417e-002

1.71713087287550e+004,-1.82575210143343e+001,-2.77290108801686e-002

1.74110112659224e+004,-1.82575212081013e+001,-2.81160662966006e-002

1.76540599258131e+004,-1.82575214073105e+001,-2.85085236539413e-002

1.79005014185594e+004,-1.82575216121150e+001,-2.89064583096779e-002

1.81503831063432e+004,-1.82575218226713e+001,-2.93099466757952e-002

1.84037530124975e+004,-1.82575220391412e+001,-2.97190662240695e-002

1.86606598307361e+004,-1.82575222616907e+001,-3.01338955064343e-002

1.89211529345119e+004,-1.82575224904900e+001,-3.05545141724929e-002

1.91852823865052e+004,-1.82575227257145e+001,-3.09810029780964e-002

1.94530989482457e+004,-1.82575229675445e+001,-3.14134438049015e-002

1.97246540898671e+004,-1.82575232161653e+001,-3.18519196746061e-002

1.99999999999999e+004,-1.82575234717674e+001,-3.22965147639041e-002

2.02791895958005e+004,-1.82575237345463e+001,-3.27473144252745e-002

2.05622765331213e+004,-1.82575240047036e+001,-3.32044051950202e-002

2.08493152168224e+004,-1.82575242824463e+001,-3.36678748161252e-002

2.11403608112276e+004,-1.82575245679866e+001,-3.41378122565121e-002

2.14354692507258e+004,-1.82575248615433e+001,-3.46143077190145e-002

2.17346972505211e+004,-1.82575251633413e+001,-3.50974526613945e-002

2.20381023175322e+004,-1.82575254736119e+001,-3.55873398141687e-002

2.23457427614443e+004,-1.82575257925917e+001,-3.60840632058443e-002

2.26576777059159e+004,-1.82575261205257e+001,-3.65877181617736e-002

2.29739670999406e+004,-1.82575264576644e+001,-3.70984013428630e-002

2.32946717293690e+004,-1.82575268042658e+001,-3.76162107524125e-002

2.36198532285905e+004,-1.82575271605950e+001,-3.81412457559533e-002

2.39495740923785e+004,-1.82575275269246e+001,-3.86736071018794e-002

2.42838976879009e+004,-1.82575279035347e+001,-3.92133969415076e-002

2.46228882668982e+004,-1.82575282907136e+001,-3.97607188435179e-002

2.49666109780322e+004,-1.82575286887571e+001,-4.03156778213143e-002

2.53151318794055e+004,-1.82575290979692e+001,-4.08783803468592e-002

2.56685179512580e+004,-1.82575295186628e+001,-4.14489343733880e-002

2.60268371088386e+004,-1.82575299511599e+001,-4.20274493492443e-002

2.63901582154578e+004,-1.82575303957903e+001,-4.26140362534998e-002

2.67585510957221e+004,-1.82575308528942e+001,-4.32088076006683e-002

2.71320865489533e+004,-1.82575313228202e+001,-4.38118774743824e-002

2.75108363627948e+004,-1.82575318059273e+001,-4.44233615397932e-002

2.78948733270080e+004,-1.82575323025846e+001,-4.50433770696835e-002

2.82842712474618e+004,-1.82575328131712e+001,-4.56720429672284e-002

2.86791049603164e+004,-1.82575333380766e+001,-4.63094797868276e-002

2.90794503464061e+004,-1.82575338777016e+001,-4.69558097564261e-002

2.94853843458219e+004,-1.82575344324575e+001,-4.76111568047677e-002

2.98969849726987e+004,-1.82575350027677e+001,-4.82756465775009e-002

3.03143313302078e+004,-1.82575355890669e+001,-4.89494064661051e-002

3.07375036257601e+004,-1.82575361918022e+001,-4.96325656312547e-002

3.11665831864199e+004,-1.82575368114330e+001,-5.03252550245587e-002

3.16016524745350e+004,-1.82575374484315e+001,-5.10276074158719e-002

3.20427951035848e+004,-1.82575381032827e+001,-5.17397574180438e-002

3.24900958542493e+004,-1.82575387764859e+001,-5.24618415074843e-002

3.29436406907028e+004,-1.82575394685532e+001,-5.31939980588669e-002

3.34035167771346e+004,-1.82575401800117e+001,-5.39363673610933e-002

3.38698124945009e+004,-1.82575409114029e+001,-5.46890916507761e-002

3.43426174575100e+004,-1.82575416632830e+001,-5.54523151358314e-002

3.48220225318448e+004,-1.82575424362239e+001,-5.62261840228069e-002

3.53081198516260e+004,-1.82575432308133e+001,-5.70108465438161e-002

3.58010028371187e+004,-1.82575440476554e+001,-5.78064529827671e-002

3.63007662126863e+004,-1.82575448873704e+001,-5.86131557099234e-002

3.68075060249948e+004,-1.82575457505967e+001,-5.94311091997313e-002

3.73213196614721e+004,-1.82575466379896e+001,-6.02604700689146e-002

3.78423058690237e+004,-1.82575475502229e+001,-6.11013970996526e-002

3.83705647730104e+004,-1.82575484879883e+001,-6.19540512765819e-002

3.89061978964912e+004,-1.82575494519977e+001,-6.28185958038715e-002

3.94493081797342e+004,-1.82575504429816e+001,-6.36951961501183e-002

3.99999999999998e+004,-1.82575514616915e+001,-6.45840200669378e-002

4.05583791916010e+004,-1.82575525088991e+001,-6.54852376265124e-002

4.11245530662425e+004,-1.82575535853977e+001,-6.63990212519273e-002

4.16986304336447e+004,-1.82575546920019e+001,-6.73255457494733e-002

4.22807216224550e+004,-1.82575558295493e+001,-6.82649883384765e-002

4.28709385014515e+004,-1.82575569989003e+001,-6.92175286858389e-002

4.34693945010421e+004,-1.82575582009388e+001,-7.01833489387127e-002

4.40762046350642e+004,-1.82575594365734e+001,-7.11626337578518e-002

4.46914855228886e+004,-1.82575607067373e+001,-7.21555703510836e-002

4.53153554118317e+004,-1.82575620123893e+001,-7.31623485090023e-002

4.59479341998812e+004,-1.82575633545144e+001,-7.41831606407966e-002

4.65893434587380e+004,-1.82575647341250e+001,-7.52182018020030e-002

4.72397064571810e+004,-1.82575661522611e+001,-7.62676697381287e-002

4.78991481847569e+004,-1.82575676099908e+001,-7.73317649202878e-002

4.85677953758016e+004,-1.82575691084112e+001,-7.84106905793745e-002

4.92457765337964e+004,-1.82575706486506e+001,-7.95046527363846e-002

4.99332219560642e+004,-1.82575722318667e+001,-8.06138602550996e-002

5.06302637588109e+004,-1.82575738592493e+001,-8.17385248668151e-002

5.13370359025159e+004,-1.82575755320208e+001,-8.28788612142991e-002

5.20536742176771e+004,-1.82575772514366e+001,-8.40350868875255e-002

5.27803164309155e+004,-1.82575790187863e+001,-8.52074224672720e-002

5.35171021914442e+004,-1.82575808353947e+001,-8.63960915602135e-002

5.42641730979066e+004,-1.82575827026220e+001,-8.76013208431741e-002

5.50216727255895e+004,-1.82575846218661e+001,-8.88233400993753e-002

5.57897466540159e+004,-1.82575865945620e+001,-9.00623822637166e-002

5.65685424949235e+004,-1.82575886221842e+001,-9.13186834590785e-002

5.73582099206328e+004,-1.82575907062465e+001,-9.25924830464177e-002

5.81589006928121e+004,-1.82575928483034e+001,-9.38840236616172e-002

5.89707686916437e+004,-1.82575950499520e+001,-9.51935512569134e-002

5.97939699453972e+004,-1.82575973128321e+001,-9.65213151487204e-002

6.06286626604156e+004,-1.82575996386273e+001,-9.78675680608611e-002

6.14750072515201e+004,-1.82576020290668e+001,-9.92325661671785e-002

6.23331663728396e+004,-1.82576044859259e+001,-1.00616569137904e-001

6.32033049490698e+004,-1.82576070110278e+001,-1.02019840185630e-001

6.40855902071694e+004,-1.82576096062441e+001,-1.03442646109709e-001

6.49801917084985e+004,-1.82576122734965e+001,-1.04885257345464e-001

6.58872813814055e+004,-1.82576150147578e+001,-1.06347948009130e-001

6.68070335542691e+004,-1.82576178320541e+001,-1.07830995941854e-001

6.77396249890018e+004,-1.82576207274642e+001,-1.09334682769150e-001

6.86852349150199e+004,-1.82576237031229e+001,-1.10859293937279e-001

6.96440450636895e+004,-1.82576267612212e+001,-1.12405118768290e-001

7.06162397032520e+004,-1.82576299040084e+001,-1.13972450508256e-001

7.16020056742374e+004,-1.82576331337929e+001,-1.15561586378326e-001

7.26015324253724e+004,-1.82576364529439e+001,-1.17172827626551e-001

7.36150120499896e+004,-1.82576398638930e+001,-1.18806479574593e-001

7.46426393229441e+004,-1.82576433691360e+001,-1.20462851672944e-001

7.56846117380472e+004,-1.82576469712332e+001,-1.22142257555857e-001

7.67411295460207e+004,-1.82576506728131e+001,-1.23845015085214e-001

7.78123957929823e+004,-1.82576544765717e+001,-1.25571446413913e-001

7.88986163594682e+004,-1.82576583852757e+001,-1.27321878033288e-001

7.99999999999995e+004,-1.82576624017635e+001,-1.29096640829614e-001

8.11167583832018e+004,-1.82576665289474e+001,-1.30896070138098e-001

8.22491061324848e+004,-1.82576707698143e+001,-1.32720505800981e-001

8.33972608672892e+004,-1.82576751274289e+001,-1.34570292217824e-001

8.45614432449099e+004,-1.82576796049344e+001,-1.36445778407343e-001

8.57418770029029e+004,-1.82576842055544e+001,-1.38347318063006e-001

8.69387890020841e+004,-1.82576889325953e+001,-1.40275269609170e-001

8.81524092701283e+004,-1.82576937894477e+001,-1.42229996259021e-001

8.93829710457770e+004,-1.82576987795887e+001,-1.44211866072810e-001

9.06307108236633e+004,-1.82577039065834e+001,-1.46221252020082e-001

9.18958683997622e+004,-1.82577091740869e+001,-1.48258532035568e-001

9.31786869174758e+004,-1.82577145858466e+001,-1.50324089080620e-001

9.44794129143618e+004,-1.82577201457042e+001,-1.52418311201775e-001

9.57982963695136e+004,-1.82577258575971e+001,-1.54541591595766e-001

9.71355907516031e+004,-1.82577317255616e+001,-1.56694328665904e-001

9.84915530675926e+004,-1.82577377537336e+001,-1.58876926089486e-001

9.98664439121282e+004,-1.82577439463518e+001,-1.61089792875804e-001

1.01260527517622e+005,-1.82577503077599e+001,-1.63333343428646e-001

1.02674071805032e+005,-1.82577568424073e+001,-1.65607997615648e-001

1.04107348435354e+005,-1.82577635548534e+001,-1.67914180823451e-001

1.05560632861831e+005,-1.82577704497678e+001,-1.70252324030464e-001

1.07034204382888e+005,-1.82577775319337e+001,-1.72622863865976e-001

1.08528346195813e+005,-1.82577848062499e+001,-1.75026242677095e-001

1.10043345451179e+005,-1.82577922777330e+001,-1.77462908592588e-001

1.11579493308032e+005,-1.82577999515192e+001,-1.79933315595320e-001

1.13137084989847e+005,-1.82578078328674e+001,-1.82437923578551e-001

1.14716419841265e+005,-1.82578159271605e+001,-1.84977198422799e-001

1.16317801385624e+005,-1.82578242399086e+001,-1.87551612056218e-001

1.17941537383287e+005,-1.82578327767503e+001,-1.90161642526985e-001

1.19587939890794e+005,-1.82578415434561e+001,-1.92807774066191e-001

1.21257325320831e+005,-1.82578505459294e+001,-1.95490497162815e-001

1.22950014503040e+005,-1.82578597902095e+001,-1.98210308629213e-001

1.24666332745679e+005,-1.82578692824743e+001,-2.00967711667542e-001

1.26406609898139e+005,-1.82578790290408e+001,-2.03763215946731e-001

1.28171180414339e+005,-1.82578890363691e+001,-2.06597337666784e-001

1.29960383416997e+005,-1.82578993110640e+001,-2.09470599628720e-001

1.31774562762811e+005,-1.82579098598763e+001,-2.12383531312040e-001

1.33614067108538e+005,-1.82579206897063e+001,-2.15336668938083e-001

1.35479249978003e+005,-1.82579318076047e+001,-2.18330555546571e-001

1.37370469830040e+005,-1.82579432207751e+001,-2.21365741065670e-001

1.39288090127379e+005,-1.82579549365762e+001,-2.24442782383786e-001

1.41232479406504e+005,-1.82579669625232e+001,-2.27562243424024e-001

1.43204011348474e+005,-1.82579793062898e+001,-2.30724695216368e-001

1.45203064850745e+005,-1.82579919757105e+001,-2.33930715967717e-001

1.47230024099979e+005,-1.82580049787814e+001,-2.37180891141648e-001

1.49285278645888e+005,-1.82580183236623e+001,-2.40475813527750e-001

1.51369223476094e+005,-1.82580320186785e+001,-2.43816083316916e-001

1.53482259092041e+005,-1.82580460723216e+001,-2.47202308177436e-001

1.55624791585964e+005,-1.82580604932513e+001,-2.50635103327560e-001

1.57797232718936e+005,-1.82580752902962e+001,-2.54115091614652e-001

1.59999999999999e+005,-1.82580904724551e+001,-2.57642903586593e-001

1.62233516766403e+005,-1.82581060488981e+001,-2.61219177571555e-001

1.64498212264969e+005,-1.82581220289669e+001,-2.64844559751459e-001

1.66794521734578e+005,-1.82581384221758e+001,-2.68519704241357e-001

1.69122886489819e+005,-1.82581552382120e+001,-2.72245273167130e-001

1.71483754005805e+005,-1.82581724869358e+001,-2.76021936741402e-001

1.73877578004168e+005,-1.82581901783811e+001,-2.79850373341062e-001

1.76304818540256e+005,-1.82582083227543e+001,-2.83731269591542e-001

1.78765942091554e+005,-1.82582269304353e+001,-2.87665320440357e-001

1.81261421647326e+005,-1.82582460119755e+001,-2.91653229240204e-001

1.83791736799524e+005,-1.82582655780985e+001,-2.95695707827681e-001

1.86357373834951e+005,-1.82582856396976e+001,-2.99793476606361e-001

1.88958825828723e+005,-1.82583062078351e+001,-3.03947264629251e-001

1.91596592739027e+005,-1.82583272937408e+001,-3.08157809678607e-001

1.94271181503206e+005,-1.82583489088100e+001,-3.12425858352639e-001

1.96983106135185e+005,-1.82583710646008e+001,-3.16752166147716e-001

1.99732887824256e+005,-1.82583937728320e+001,-3.21137497545185e-001

2.02521055035243e+005,-1.82584170453802e+001,-3.25582626097661e-001

2.05348143610063e+005,-1.82584408942758e+001,-3.30088334516604e-001

2.08214696870707e+005,-1.82584653317001e+001,-3.34655414760680e-001

2.11121265723661e+005,-1.82584903699812e+001,-3.39284668124397e-001

2.14068408765776e+005,-1.82585160215888e+001,-3.43976905333947e-001

2.17056692391625e+005,-1.82585422991300e+001,-3.48732946634556e-001

2.20086690902357e+005,-1.82585692153434e+001,-3.53553621890938e-001

2.23158986616063e+005,-1.82585967830936e+001,-3.58439770678895e-001

2.26274169979693e+005,-1.82586250153648e+001,-3.63392242385199e-001

2.29432839682530e+005,-1.82586539252541e+001,-3.68411896308438e-001

2.32635602771247e+005,-1.82586835259636e+001,-3.73499601762242e-001

2.35883074766574e+005,-1.82587138307934e+001,-3.78656238177228e-001

2.39175879781588e+005,-1.82587448531324e+001,-3.83882695211210e-001

2.42514650641661e+005,-1.82587766064497e+001,-3.89179872858217e-001

2.45900029006080e+005,-1.82588091042850e+001,-3.94548681561566e-001

2.49332665491357e+005,-1.82588423602384e+001,-3.99990042329288e-001

2.52813219796278e+005,-1.82588763879597e+001,-4.05504886854881e-001

2.56342360828676e+005,-1.82589112011367e+001,-4.11094157640134e-001

2.59920766833993e+005,-1.82589468134838e+001,-4.16758808119406e-001

2.63549125525621e+005,-1.82589832387285e+001,-4.22499802795359e-001

2.67228134217075e+005,-1.82590204905990e+001,-4.28318117368682e-001

2.70958499956006e+005,-1.82590585828094e+001,-4.34214738881372e-001

2.74740939660078e+005,-1.82590975290455e+001,-4.40190665860060e-001

2.78576180254757e+005,-1.82591373429493e+001,-4.46246908465933e-001

2.82464958813007e+005,-1.82591780381028e+001,-4.52384488650324e-001

2.86408022696948e+005,-1.82592196280120e+001,-4.58604440313808e-001

2.90406129701488e+005,-1.82592621260885e+001,-4.64907809475296e-001

2.94460048199957e+005,-1.82593055456321e+001,-4.71295654445734e-001

2.98570557291775e+005,-1.82593498998121e+001,-4.77769046005480e-001

3.02738446952187e+005,-1.82593952016474e+001,-4.84329067595165e-001

3.06964518184081e+005,-1.82594414639866e+001,-4.90976815507512e-001

3.11249583171928e+005,-1.82594886994878e+001,-4.97713399092104e-001

3.15594465437872e+005,-1.82595369205960e+001,-5.04539940966856e-001

3.19999999999997e+005,-1.82595861395228e+001,-5.11457577233527e-001

3.24467033532806e+005,-1.82596363682221e+001,-5.18467457711341e-001

3.28996424529938e+005,-1.82596876183682e+001,-5.25570746172888e-001

3.33589043469155e+005,-1.82597399013314e+001,-5.32768620590594e-001

3.38245772979638e+005,-1.82597932281542e+001,-5.40062273396343e-001

3.42967508011610e+005,-1.82598476095262e+001,-5.47452911750180e-001

3.47755156008335e+005,-1.82599030557596e+001,-5.54941757818550e-001

3.52609637080511e+005,-1.82599595767632e+001,-5.62530049065464e-001

3.57531884183106e+005,-1.82600171820164e+001,-5.70219038556237e-001

3.62522843294651e+005,-1.82600758805438e+001,-5.78009995271424e-001

3.67583473599047e+005,-1.82601356808881e+001,-5.85904204433200e-001

3.72714747669902e+005,-1.82601965910839e+001,-5.93902967846947e-001

3.77917651657445e+005,-1.82602586186312e+001,-6.02007604253903e-001

3.83193185478053e+005,-1.82603217704683e+001,-6.10219449697186e-001

3.88542363006410e+005,-1.82603860529454e+001,-6.18539857903667e-001

3.93966212270369e+005,-1.82604514717982e+001,-6.26970200676993e-001

3.99465775648511e+005,-1.82605180321212e+001,-6.35511868308051e-001

4.05042110070485e+005,-1.82605857383422e+001,-6.44166269998053e-001

4.10696287220124e+005,-1.82606545941960e+001,-6.52934834295329e-001

4.16429393741414e+005,-1.82607246026996e+001,-6.61819009551990e-001

4.22242531447321e+005,-1.82607957661273e+001,-6.70820264389322e-001

4.28136817531551e+005,-1.82608680859871e+001,-6.79940088182532e-001

4.34113384783250e+005,-1.82609415629971e+001,-6.89179991560228e-001

4.40173381804713e+005,-1.82610161970631e+001,-6.98541506917906e-001

4.46317973232124e+005,-1.82610919872578e+001,-7.08026188947521e-001

4.52548339959385e+005,-1.82611689317998e+001,-7.17635615183805e-001

4.58865679365059e+005,-1.82612470280350e+001,-7.27371386561415e-001

4.65271205542494e+005,-1.82613262724186e+001,-7.37235127993400e-001

4.71766149533147e+005,-1.82614066604988e+001,-7.47228488958311e-001

4.78351759563174e+005,-1.82614881869021e+001,-7.57353144104782e-001

4.85029301283321e+005,-1.82615708453198e+001,-7.67610793872443e-001

4.91800058012158e+005,-1.82616546284970e+001,-7.78003165120702e-001

4.98665330982714e+005,-1.82617395282225e+001,-7.88532011778637e-001

5.05626439592555e+005,-1.82618255353218e+001,-7.99199115500334e-001

5.12684721657352e+005,-1.82619126396510e+001,-8.10006286339515e-001

5.19841533667984e+005,-1.82620008300938e+001,-8.20955363429569e-001

5.27098251051240e+005,-1.82620900945600e+001,-8.32048215681139e-001

5.34456268434150e+005,-1.82621804199870e+001,-8.43286742485887e-001

5.41916999912011e+005,-1.82622717923431e+001,-8.54672874433147e-001

