Freq.,VOut,OutRef

1.00000000000000e+004,-1.07506484801860e+001,-1.22744204808296e-001

1.01395947979003e+004,-1.07506484939763e+001,-1.24457643855491e-001

1.02811382665607e+004,-1.07506485081535e+001,-1.26195001356961e-001

1.04246576084112e+004,-1.07506485227284e+001,-1.27956611191599e-001

1.05701804056138e+004,-1.07506485377125e+001,-1.29742811896308e-001

1.07177346253629e+004,-1.07506485531167e+001,-1.31553946736268e-001

1.08673486252606e+004,-1.07506485689534e+001,-1.33390363764137e-001

1.10190511587661e+004,-1.07506485852341e+001,-1.35252415895736e-001

1.11728713807222e+004,-1.07506486019716e+001,-1.37140460968156e-001

1.13288388529580e+004,-1.07506486191786e+001,-1.39054861814994e-001

1.14869835499703e+004,-1.07506486368682e+001,-1.40995986335308e-001

1.16473358646846e+004,-1.07506486550538e+001,-1.42964207561999e-001

1.18099266142953e+004,-1.07506486737494e+001,-1.44959903734149e-001

1.19747870461893e+004,-1.07506486929694e+001,-1.46983458369977e-001

1.21419488439505e+004,-1.07506487127282e+001,-1.49035260343150e-001

1.23114441334492e+004,-1.07506487330409e+001,-1.51115703953061e-001

1.24833054890161e+004,-1.07506487539233e+001,-1.53225189000784e-001

1.26575659397028e+004,-1.07506487753910e+001,-1.55364120872491e-001

1.28342589756290e+004,-1.07506487974603e+001,-1.57532910609386e-001

1.30134185544193e+004,-1.07506488201484e+001,-1.59731974987868e-001

1.31950791077289e+004,-1.07506488434722e+001,-1.61961736606000e-001

1.33792755478611e+004,-1.07506488674496e+001,-1.64222623956316e-001

1.35660432744767e+004,-1.07506488920991e+001,-1.66515071512617e-001

1.37554181813974e+004,-1.07506489174390e+001,-1.68839519815066e-001

1.39474366635040e+004,-1.07506489434890e+001,-1.71196415549058e-001

1.41421356237309e+004,-1.07506489702685e+001,-1.73586211638037e-001

1.43395524801583e+004,-1.07506489977983e+001,-1.76009367322175e-001

1.45397251732031e+004,-1.07506490260989e+001,-1.78466348256270e-001

1.47426921729110e+004,-1.07506490551924e+001,-1.80957626588924e-001

1.49484924863494e+004,-1.07506490851002e+001,-1.83483681064145e-001

1.51571656651040e+004,-1.07506491158455e+001,-1.86044997102279e-001

1.53687518128801e+004,-1.07506491474516e+001,-1.88642066901030e-001

1.55832915932100e+004,-1.07506491799423e+001,-1.91275389527772e-001

1.58008262372675e+004,-1.07506492133422e+001,-1.93945471014232e-001

1.60213975517924e+004,-1.07506492476770e+001,-1.96652824453334e-001

1.62450479271247e+004,-1.07506492829723e+001,-1.99397970101372e-001

1.64718203453514e+004,-1.07506493192552e+001,-2.02181435472938e-001

1.67017583885674e+004,-1.07506493565530e+001,-2.05003755445366e-001

1.69349062472505e+004,-1.07506493948940e+001,-2.07865472361617e-001

1.71713087287550e+004,-1.07506494343072e+001,-2.10767136132216e-001

1.74110112659224e+004,-1.07506494748223e+001,-2.13709304343261e-001

1.76540599258131e+004,-1.07506495164702e+001,-2.16692542360295e-001

1.79005014185594e+004,-1.07506495592822e+001,-2.19717423440833e-001

1.81503831063432e+004,-1.07506496032906e+001,-2.22784528841426e-001

1.84037530124975e+004,-1.07506496485289e+001,-2.25894447929411e-001

1.86606598307361e+004,-1.07506496950309e+001,-2.29047778299456e-001

1.89211529345119e+004,-1.07506497428319e+001,-2.32245125882147e-001

1.91852823865052e+004,-1.07506497919678e+001,-2.35487105066375e-001

1.94530989482457e+004,-1.07506498424757e+001,-2.38774338813260e-001

1.97246540898671e+004,-1.07506498943936e+001,-2.42107458777002e-001

1.99999999999999e+004,-1.07506499477608e+001,-2.45487105427207e-001

2.02791895958005e+004,-1.07506500026171e+001,-2.48913928169961e-001

2.05622765331213e+004,-1.07506500590039e+001,-2.52388585474068e-001

2.08493152168224e+004,-1.07506501169636e+001,-2.55911744995249e-001

2.11403608112276e+004,-1.07506501765396e+001,-2.59484083707237e-001

2.14354692507258e+004,-1.07506502377766e+001,-2.63106288027951e-001

2.17346972505211e+004,-1.07506503007206e+001,-2.66779053955517e-001

2.20381023175322e+004,-1.07506503654187e+001,-2.70503087198158e-001

2.23457427614443e+004,-1.07506504319194e+001,-2.74279103310519e-001

2.26576777059159e+004,-1.07506505002724e+001,-2.78107827832694e-001

2.29739670999406e+004,-1.07506505705288e+001,-2.81989996427320e-001

2.32946717293690e+004,-1.07506506427409e+001,-2.85926355022842e-001

2.36198532285905e+004,-1.07506507169628e+001,-2.89917659952415e-001

2.39495740923785e+004,-1.07506507932498e+001,-2.93964678104229e-001

2.42838976879009e+004,-1.07506508716588e+001,-2.98068187065098e-001

2.46228882668982e+004,-1.07506509522480e+001,-3.02228975270304e-001

2.49666109780322e+004,-1.07506510350773e+001,-3.06447842156879e-001

2.53151318794055e+004,-1.07506511202084e+001,-3.10725598312396e-001

2.56685179512580e+004,-1.07506512077043e+001,-3.15063065635528e-001

2.60268371088386e+004,-1.07506512976301e+001,-3.19461077488962e-001

2.63901582154578e+004,-1.07506513900521e+001,-3.23920478863870e-001

2.67585510957221e+004,-1.07506514850389e+001,-3.28442126537056e-001

2.71320865489533e+004,-1.07506515826607e+001,-3.33026889238396e-001

2.75108363627948e+004,-1.07506516829894e+001,-3.37675647818085e-001

2.78948733270080e+004,-1.07506517860990e+001,-3.42389295411704e-001

2.82842712474618e+004,-1.07506518920654e+001,-3.47168737614591e-001

2.86791049603164e+004,-1.07506520009668e+001,-3.52014892653507e-001

2.90794503464061e+004,-1.07506521128827e+001,-3.56928691565371e-001

2.94853843458219e+004,-1.07506522278957e+001,-3.61911078370763e-001

2.98969849726987e+004,-1.07506523460896e+001,-3.66963010260867e-001

3.03143313302078e+004,-1.07506524675513e+001,-3.72085457774701e-001

3.07375036257601e+004,-1.07506525923692e+001,-3.77279404990364e-001

3.11665831864199e+004,-1.07506527206343e+001,-3.82545849710757e-001

3.16016524745350e+004,-1.07506528524403e+001,-3.87885803653485e-001

3.20427951035848e+004,-1.07506529878827e+001,-3.93300292648035e-001

3.24900958542493e+004,-1.07506531270600e+001,-3.98790356829441e-001

3.29436406907028e+004,-1.07506532700731e+001,-4.04357050837963e-001

3.34035167771346e+004,-1.07506534170253e+001,-4.10001444023135e-001

3.38698124945009e+004,-1.07506535680227e+001,-4.15724620644404e-001

3.43426174575100e+004,-1.07506537231744e+001,-4.21527680082161e-001

3.48220225318448e+004,-1.07506538825916e+001,-4.27411737047404e-001

3.53081198516260e+004,-1.07506540463891e+001,-4.33377921793022e-001

3.58010028371187e+004,-1.07506542146841e+001,-4.39427380333244e-001

3.63007662126863e+004,-1.07506543875970e+001,-4.45561274658984e-001

3.68075060249948e+004,-1.07506545652511e+001,-4.51780782964740e-001

3.73213196614721e+004,-1.07506547477730e+001,-4.58087099870521e-001

3.78423058690237e+004,-1.07506549352923e+001,-4.64481436650253e-001

3.83705647730104e+004,-1.07506551279418e+001,-4.70965021466158e-001

3.89061978964912e+004,-1.07506553258577e+001,-4.77539099600982e-001

3.94493081797342e+004,-1.07506555291796e+001,-4.84204933696225e-001

3.99999999999998e+004,-1.07506557380505e+001,-4.90963803995480e-001

4.05583791916010e+004,-1.07506559526170e+001,-4.97817008586128e-001

4.11245530662425e+004,-1.07506561730290e+001,-5.04765863649981e-001

4.16986304336447e+004,-1.07506563994404e+001,-5.11811703713828e-001

4.22807216224550e+004,-1.07506566320085e+001,-5.18955881903742e-001

4.28709385014515e+004,-1.07506568708947e+001,-5.26199770203111e-001

4.34693945010421e+004,-1.07506571162640e+001,-5.33544759716793e-001

4.40762046350642e+004,-1.07506573682856e+001,-5.40992260934219e-001

4.46914855228886e+004,-1.07506576271325e+001,-5.48543704000634e-001

4.53153554118317e+004,-1.07506578929817e+001,-5.56200538988846e-001

4.59479341998812e+004,-1.07506581660146e+001,-5.63964236174710e-001

4.65893434587380e+004,-1.07506584464167e+001,-5.71836286321278e-001

4.72397064571810e+004,-1.07506587343776e+001,-5.79818200959623e-001

4.78991481847569e+004,-1.07506590300917e+001,-5.87911512677663e-001

4.85677953758016e+004,-1.07506593337574e+001,-5.96117775414831e-001

4.92457765337964e+004,-1.07506596455777e+001,-6.04438564754304e-001

4.99332219560642e+004,-1.07506599657601e+001,-6.12875478227465e-001

5.06302637588109e+004,-1.07506602945170e+001,-6.21430135614622e-001

5.13370359025159e+004,-1.07506606320650e+001,-6.30104179255655e-001

5.20536742176771e+004,-1.07506609786259e+001,-6.38899274362551e-001

5.27803164309155e+004,-1.07506613344259e+001,-6.47817109334821e-001

5.35171021914442e+004,-1.07506616996963e+001,-6.56859396083717e-001

5.42641730979066e+004,-1.07506620746732e+001,-6.66027870355583e-001

5.50216727255895e+004,-1.07506624595976e+001,-6.75324292062715e-001

5.57897466540159e+004,-1.07506628547155e+001,-6.84750445618526e-001

5.65685424949235e+004,-1.07506632602779e+001,-6.94308140276518e-001

5.73582099206328e+004,-1.07506636765409e+001,-7.03999210474815e-001

5.81589006928121e+004,-1.07506641037658e+001,-7.13825516182184e-001

5.89707686916437e+004,-1.07506645422187e+001,-7.23788943255757e-001

5.97939699453972e+004,-1.07506649921709e+001,-7.33891403795611e-001

6.06286626604156e+004,-1.07506654538993e+001,-7.44134836508260e-001

6.14750072515201e+004,-1.07506659276853e+001,-7.54521207077046e-001

6.23331663728396e+004,-1.07506664138158e+001,-7.65052508531611e-001

6.32033049490698e+004,-1.07506669125827e+001,-7.75730761628770e-001

6.40855902071694e+004,-1.07506674242832e+001,-7.86558015233928e-001

6.49801917084985e+004,-1.07506679492193e+001,-7.97536346710792e-001

6.58872813814055e+004,-1.07506684876983e+001,-8.08667862313258e-001

6.68070335542691e+004,-1.07506690400322e+001,-8.19954697586576e-001

6.77396249890018e+004,-1.07506696065383e+001,-8.31399017768616e-001

6.86852349150199e+004,-1.07506701875385e+001,-8.43003018203186e-001

6.96440450636895e+004,-1.07506707833595e+001,-8.54768924753083e-001

7.06162397032520e+004,-1.07506713943327e+001,-8.66698994221722e-001

7.16020056742374e+004,-1.07506720207941e+001,-8.78795514779145e-001

7.26015324253724e+004,-1.07506726630839e+001,-8.91060806395656e-001

7.36150120499896e+004,-1.07506733215467e+001,-9.03497221279131e-001

7.46426393229441e+004,-1.07506739965312e+001,-9.16107144318697e-001

7.56846117380472e+004,-1.07506746883899e+001,-9.28892993536182e-001

7.67411295460207e+004,-1.07506753974790e+001,-9.41857220540690e-001

7.78123957929823e+004,-1.07506761241581e+001,-9.55002310992624e-001

7.88986163594682e+004,-1.07506768687899e+001,-9.68330785070498e-001

7.99999999999995e+004,-1.07506776317400e+001,-9.81845197945673e-001

8.11167583832018e+004,-1.07506784133766e+001,-9.95548140264986e-001

8.22491061324848e+004,-1.07506792140698e+001,-1.00944223863710e+000

8.33972608672892e+004,-1.07506800341918e+001,-1.02353015612695e+000

8.45614432449099e+004,-1.07506808741160e+001,-1.03781459275540e+000

8.57418770029029e+004,-1.07506817342167e+001,-1.05229828600840e+000

8.69387890020841e+004,-1.07506826148686e+001,-1.06698401134983e+000

8.81524092701283e+004,-1.07506835164462e+001,-1.08187458274207e+000

8.93829710457770e+004,-1.07506844393235e+001,-1.09697285317529e+000

9.06307108236633e+004,-1.07506853838728e+001,-1.11228171520104e+000

9.18958683997622e+004,-1.07506863504645e+001,-1.12780410147503e+000

9.31786869174758e+004,-1.07506873394662e+001,-1.14354298530576e+000

9.44794129143618e+004,-1.07506883512419e+001,-1.15950138121195e+000

9.57982963695136e+004,-1.07506893861512e+001,-1.17568234548538e+000

9.71355907516031e+004,-1.07506904445481e+001,-1.19208897676254e+000

9.84915530675926e+004,-1.07506915267804e+001,-1.20872441660414e+000

9.98664439121282e+004,-1.07506926331885e+001,-1.22559185008073e+000

1.01260527517622e+005,-1.07506937641041e+001,-1.24269450636745e+000

1.02674071805032e+005,-1.07506949198494e+001,-1.26003565934621e+000

1.04107348435354e+005,-1.07506961007349e+001,-1.27761862821657e+000

1.05560632861831e+005,-1.07506973070593e+001,-1.29544677811208e+000

1.07034204382888e+005,-1.07506985391068e+001,-1.31352352072799e+000

1.08528346195813e+005,-1.07506997971463e+001,-1.33185231495543e+000

1.10043345451179e+005,-1.07507010814295e+001,-1.35043666752370e+000

1.11579493308032e+005,-1.07507023921886e+001,-1.36928013365300e+000

1.13137084989847e+005,-1.07507037296352e+001,-1.38838631771282e+000

1.14716419841265e+005,-1.07507050939576e+001,-1.40775887389089e+000

1.16317801385624e+005,-1.07507064853190e+001,-1.42740150687165e+000

1.17941537383287e+005,-1.07507079038550e+001,-1.44731797252005e+000

1.19587939890794e+005,-1.07507093496707e+001,-1.46751207858024e+000

1.21257325320831e+005,-1.07507108228392e+001,-1.48798768537582e+000

1.22950014503040e+005,-1.07507123233977e+001,-1.50874870652642e+000

1.24666332745679e+005,-1.07507138513448e+001,-1.52979910966989e+000

1.26406609898139e+005,-1.07507154066379e+001,-1.55114291719363e+000

1.28171180414339e+005,-1.07507169891891e+001,-1.57278420697801e+000

1.29960383416997e+005,-1.07507185988622e+001,-1.59472711314671e+000

1.31774562762811e+005,-1.07507202354686e+001,-1.61697582682901e+000

1.33614067108538e+005,-1.07507218987635e+001,-1.63953459693104e+000

1.35479249978003e+005,-1.07507235884417e+001,-1.66240773091780e+000

1.37370469830040e+005,-1.07507253041331e+001,-1.68559959560384e+000

1.39288090127379e+005,-1.07507270453980e+001,-1.70911461795708e+000

1.41232479406504e+005,-1.07507288117218e+001,-1.73295728591033e+000

1.43204011348474e+005,-1.07507306025103e+001,-1.75713214918475e+000

1.45203064850745e+005,-1.07507324170838e+001,-1.78164382012502e+000

1.47230024099979e+005,-1.07507342546711e+001,-1.80649697454335e+000

1.49285278645888e+005,-1.07507361144035e+001,-1.83169635257669e+000

1.51369223476094e+005,-1.07507379953080e+001,-1.85724675955407e+000

1.53482259092041e+005,-1.07507398963007e+001,-1.88315306687522e+000

1.55624791585964e+005,-1.07507418161792e+001,-1.90942021290201e+000

1.57797232718936e+005,-1.07507437536151e+001,-1.93605320386049e+000

1.59999999999999e+005,-1.07507457071454e+001,-1.96305711475536e+000

1.62233516766403e+005,-1.07507476751648e+001,-1.99043709029656e+000

1.64498212264969e+005,-1.07507496559158e+001,-2.01819834583892e+000

1.66794521734578e+005,-1.07507516474798e+001,-2.04634616833207e+000

1.69122886489819e+005,-1.07507536477668e+001,-2.07488591728633e+000

1.71483754005805e+005,-1.07507556545051e+001,-2.10382302574966e+000

1.73877578004168e+005,-1.07507576652300e+001,-2.13316300129662e+000

1.76304818540256e+005,-1.07507596772724e+001,-2.16291142703477e+000

1.78765942091554e+005,-1.07507616877466e+001,-2.19307396261891e+000

1.81261421647326e+005,-1.07507636935370e+001,-2.22365634528533e+000

1.83791736799524e+005,-1.07507656912856e+001,-2.25466439089478e+000

1.86357373834951e+005,-1.07507676773767e+001,-2.28610399499448e+000

1.88958825828723e+005,-1.07507696479231e+001,-2.31798113389000e+000

1.91596592739027e+005,-1.07507715987496e+001,-2.35030186573693e+000

1.94271181503206e+005,-1.07507735253777e+001,-2.38307233164343e+000

1.96983106135185e+005,-1.07507754230076e+001,-2.41629875679167e+000

1.99732887824256e+005,-1.07507772865008e+001,-2.44998745157237e+000

2.02521055035243e+005,-1.07507791103613e+001,-2.48414481273752e+000

2.05348143610063e+005,-1.07507808887157e+001,-2.51877732456754e+000

2.08214696870707e+005,-1.07507826152932e+001,-2.55389156005788e+000

2.11121265723661e+005,-1.07507842834035e+001,-2.58949418211958e+000

2.14068408765776e+005,-1.07507858859148e+001,-2.62559194479985e+000

2.17056692391625e+005,-1.07507874152302e+001,-2.66219169451918e+000

2.20086690902357e+005,-1.07507888632634e+001,-2.69930037132743e+000

2.23158986616063e+005,-1.07507902214127e+001,-2.73692501017780e+000

2.26274169979693e+005,-1.07507914805348e+001,-2.77507274222064e+000

2.29432839682530e+005,-1.07507926309167e+001,-2.81375079611672e+000

2.32635602771247e+005,-1.07507936622469e+001,-2.85296649936934e+000

2.35883074766574e+005,-1.07507945635851e+001,-2.89272727967941e+000

2.39175879781588e+005,-1.07507953233305e+001,-2.93304066631858e+000

2.42514650641661e+005,-1.07507959291895e+001,-2.97391429152584e+000

2.45900029006080e+005,-1.07507963681415e+001,-3.01535589192545e+000

2.49332665491357e+005,-1.07507966264033e+001,-3.05737330996736e+000

2.52813219796278e+005,-1.07507966893924e+001,-3.09997449539037e+000

2.56342360828676e+005,-1.07507965416888e+001,-3.14316750671035e+000

2.59920766833993e+005,-1.07507961669954e+001,-3.18696051273107e+000

2.63549125525621e+005,-1.07507955480967e+001,-3.23136179408132e+000

2.67228134217075e+005,-1.07507946668162e+001,-3.27637974477639e+000

2.70958499956006e+005,-1.07507935039720e+001,-3.32202287380690e+000

2.74740939660078e+005,-1.07507920393312e+001,-3.36829980675350e+000

2.78576180254757e+005,-1.07507902515626e+001,-3.41521928743053e+000

2.82464958813007e+005,-1.07507881181871e+001,-3.46279017955621e+000

2.86408022696948e+005,-1.07507856155278e+001,-3.51102146845358e+000

2.90406129701488e+005,-1.07507827186569e+001,-3.55992226278038e+000

2.94460048199957e+005,-1.07507794013422e+001,-3.60950179628999e+000

2.98570557291775e+005,-1.07507756359910e+001,-3.65976942962355e+000

3.02738446952187e+005,-1.07507713935926e+001,-3.71073465213417e+000

3.06964518184081e+005,-1.07507666436594e+001,-3.76240708374523e+000

3.11249583171928e+005,-1.07507613541654e+001,-3.81479647684099e+000

3.15594465437872e+005,-1.07507554914841e+001,-3.86791271819343e+000

3.19999999999997e+005,-1.07507490203234e+001,-3.92176583092454e+000

3.24467033532806e+005,-1.07507419036596e+001,-3.97636597650523e+000

3.28996424529938e+005,-1.07507341026696e+001,-4.03172345679057e+000

3.33589043469155e+005,-1.07507255766610e+001,-4.08784871609568e+000

3.38245772979638e+005,-1.07507162830006e+001,-4.14475234330976e+000

3.42967508011610e+005,-1.07507061770410e+001,-4.20244507405012e+000

3.47755156008335e+005,-1.07506952120465e+001,-4.26093779285882e+000

3.52609637080511e+005,-1.07506833391154e+001,-4.32024153544097e+000

3.57531884183106e+005,-1.07506705071031e+001,-4.38036749094480e+000

3.62522843294651e+005,-1.07506566625411e+001,-4.44132700428985e+000

3.67583473599047e+005,-1.07506417495566e+001,-4.50313157853587e+000

3.72714747669902e+005,-1.07506257097891e+001,-4.56579287730092e+000

3.77917651657445e+005,-1.07506084823062e+001,-4.62932272722547e+000

3.83193185478053e+005,-1.07505900035178e+001,-4.69373312048493e+000

3.88542363006410e+005,-1.07505702070890e+001,-4.75903621735079e+000

3.93966212270369e+005,-1.07505490238515e+001,-4.82524434880219e+000

3.99465775648511e+005,-1.07505263817143e+001,-4.89237001918814e+000

4.05042110070485e+005,-1.07505022055721e+001,-4.96042590894168e+000

4.10696287220124e+005,-1.07504764172143e+001,-5.02942487734615e+000

4.16429393741414e+005,-1.07504489352310e+001,-5.09937996535612e+000

4.22242531447321e+005,-1.07504196749198e+001,-5.17030439847103e+000

4.28136817531551e+005,-1.07503885481909e+001,-5.24221158966537e+000

4.34113384783250e+005,-1.07503554634711e+001,-5.31511514237415e+000

4.40173381804713e+005,-1.07503203256082e+001,-5.38902885353506e+000

4.46317973232124e+005,-1.07502830357735e+001,-5.46396671668758e+000

4.52548339959385e+005,-1.07502434913649e+001,-5.53994292513082e+000

4.58865679365059e+005,-1.07502015859093e+001,-5.61697187513962e+000

4.65271205542494e+005,-1.07501572089638e+001,-5.69506816923875e+000

4.71766149533147e+005,-1.07501102460180e+001,-5.77424661953991e+000

4.78351759563174e+005,-1.07500605783955e+001,-5.85452225113417e+000

4.85029301283321e+005,-1.07500080831552e+001,-5.93591030554998e+000

4.91800058012158e+005,-1.07499526329930e+001,-6.01842624426846e+000

4.98665330982714e+005,-1.07498940961431e+001,-6.10208575230289e+000

5.05626439592555e+005,-1.07498323362805e+001,-6.18690474183723e+000

5.12684721657352e+005,-1.07497672124224e+001,-6.27289935592908e+000

5.19841533667984e+005,-1.07496985788311e+001,-6.36008597227372e+000

5.27098251051240e+005,-1.07496262849168e+001,-6.44848120703031e+000

5.34456268434150e+005,-1.07495501751404e+001,-6.53810191871144e+000

5.41916999912011e+005,-1.07494700889180e+001,-6.62896521213468e+000

