Freq.,VOut,OutRef

1.00000000000000e+004,-1.07640821351097e+001,-9.76034602939120e-002

1.01395947979003e+004,-1.07640822473771e+001,-9.89659412589134e-002

1.02811382665607e+004,-1.07640823627995e+001,-1.00347441214704e-001

1.04246576084112e+004,-1.07640824814652e+001,-1.01748225635827e-001

1.05701804056138e+004,-1.07640826034657e+001,-1.03168563697682e-001

1.07177346253629e+004,-1.07640827288941e+001,-1.04608728337903e-001

1.08673486252606e+004,-1.07640828578473e+001,-1.06068996295501e-001

1.10190511587661e+004,-1.07640829904238e+001,-1.07549648178392e-001

1.11728713807222e+004,-1.07640831267258e+001,-1.09050968505349e-001

1.13288388529580e+004,-1.07640832668575e+001,-1.10573245770351e-001

1.14869835499703e+004,-1.07640834109268e+001,-1.12116772489007e-001

1.16473358646846e+004,-1.07640835590439e+001,-1.13681845263409e-001

1.18099266142953e+004,-1.07640837113228e+001,-1.15268764830748e-001

1.19747870461893e+004,-1.07640838678802e+001,-1.16877836126510e-001

1.21419488439505e+004,-1.07640840288365e+001,-1.18509368341086e-001

1.23114441334492e+004,-1.07640841943147e+001,-1.20163674981868e-001

1.24833054890161e+004,-1.07640843644423e+001,-1.21841073926790e-001

1.26575659397028e+004,-1.07640845393494e+001,-1.23541887494279e-001

1.28342589756290e+004,-1.07640847191706e+001,-1.25266442495584e-001

1.30134185544193e+004,-1.07640849040434e+001,-1.27015070307506e-001

1.31950791077289e+004,-1.07640850941101e+001,-1.28788106924856e-001

1.33792755478611e+004,-1.07640852895160e+001,-1.30585893036953e-001

1.35660432744767e+004,-1.07640854904114e+001,-1.32408774082322e-001

1.37554181813974e+004,-1.07640856969503e+001,-1.34257100320275e-001

1.39474366635040e+004,-1.07640859092909e+001,-1.36131226901011e-001

1.41421356237309e+004,-1.07640861275961e+001,-1.38031513925773e-001

1.43395524801583e+004,-1.07640863520335e+001,-1.39958326521348e-001

1.45397251732031e+004,-1.07640865827749e+001,-1.41912034911105e-001

1.47426921729110e+004,-1.07640868199974e+001,-1.43893014480984e-001

1.49484924863494e+004,-1.07640870638830e+001,-1.45901645855880e-001

1.51571656651040e+004,-1.07640873146184e+001,-1.47938314971352e-001

1.53687518128801e+004,-1.07640875723958e+001,-1.50003413147367e-001

1.55832915932100e+004,-1.07640878374131e+001,-1.52097337162305e-001

1.58008262372675e+004,-1.07640881098730e+001,-1.54220489332840e-001

1.60213975517924e+004,-1.07640883899845e+001,-1.56373277585965e-001

1.62450479271247e+004,-1.07640886779622e+001,-1.58556115539430e-001

1.64718203453514e+004,-1.07640889740268e+001,-1.60769422583197e-001

1.67017583885674e+004,-1.07640892784053e+001,-1.63013623955672e-001

1.69349062472505e+004,-1.07640895913304e+001,-1.65289150830825e-001

1.71713087287550e+004,-1.07640899130421e+001,-1.67596440394267e-001

1.74110112659224e+004,-1.07640902437869e+001,-1.69935935930029e-001

1.76540599258131e+004,-1.07640905838178e+001,-1.72308086908739e-001

1.79005014185594e+004,-1.07640909333955e+001,-1.74713349067193e-001

1.81503831063432e+004,-1.07640912927873e+001,-1.77152184503707e-001

1.84037530124975e+004,-1.07640916622686e+001,-1.79625061756550e-001

1.86606598307361e+004,-1.07640920421222e+001,-1.82132455902827e-001

1.89211529345119e+004,-1.07640924326387e+001,-1.84674848646338e-001

1.91852823865052e+004,-1.07640928341171e+001,-1.87252728407095e-001

1.94530989482457e+004,-1.07640932468644e+001,-1.89866590420113e-001

1.97246540898671e+004,-1.07640936711967e+001,-1.92516936824280e-001

1.99999999999999e+004,-1.07640941074383e+001,-1.95204276764115e-001

2.02791895958005e+004,-1.07640945559232e+001,-1.97929126482820e-001

2.05622765331213e+004,-1.07640950169940e+001,-2.00692009425892e-001

2.08493152168224e+004,-1.07640954910035e+001,-2.03493456335264e-001

2.11403608112276e+004,-1.07640959783141e+001,-2.06334005355762e-001

2.14354692507258e+004,-1.07640964792984e+001,-2.09214202135697e-001

2.17346972505211e+004,-1.07640969943388e+001,-2.12134599934532e-001

2.20381023175322e+004,-1.07640975238296e+001,-2.15095759721219e-001

2.23457427614443e+004,-1.07640980681748e+001,-2.18098250292836e-001

2.26576777059159e+004,-1.07640986277905e+001,-2.21142648371535e-001

2.29739670999406e+004,-1.07640992031041e+001,-2.24229538722951e-001

2.32946717293690e+004,-1.07640997945548e+001,-2.27359514266760e-001

2.36198532285905e+004,-1.07641004025942e+001,-2.30533176186451e-001

2.39495740923785e+004,-1.07641010276865e+001,-2.33751134048020e-001

2.42838976879009e+004,-1.07641016703088e+001,-2.37014005913754e-001

2.46228882668982e+004,-1.07641023309515e+001,-2.40322418462765e-001

2.49666109780322e+004,-1.07641030101183e+001,-2.43677007110469e-001

2.53151318794055e+004,-1.07641037083273e+001,-2.47078416128547e-001

2.56685179512580e+004,-1.07641044261112e+001,-2.50527298766356e-001

2.60268371088386e+004,-1.07641051640169e+001,-2.54024317382933e-001

2.63901582154578e+004,-1.07641059226069e+001,-2.57570143563544e-001

2.67585510957221e+004,-1.07641067024592e+001,-2.61165458256917e-001

2.71320865489533e+004,-1.07641075041681e+001,-2.64810951898927e-001

2.75108363627948e+004,-1.07641083283439e+001,-2.68507324547840e-001

2.78948733270080e+004,-1.07641091756143e+001,-2.72255286017341e-001

2.82842712474618e+004,-1.07641100466241e+001,-2.76055556009996e-001

2.86791049603164e+004,-1.07641109420363e+001,-2.79908864257357e-001

2.90794503464061e+004,-1.07641118625321e+001,-2.83815950656751e-001

2.94853843458219e+004,-1.07641128088115e+001,-2.87777565414245e-001

2.98969849726987e+004,-1.07641137815938e+001,-2.91794469187565e-001

3.03143313302078e+004,-1.07641147816187e+001,-2.95867433228978e-001

3.07375036257601e+004,-1.07641158096459e+001,-2.99997239533825e-001

3.11665831864199e+004,-1.07641168664563e+001,-3.04184680989877e-001

3.16016524745350e+004,-1.07641179528522e+001,-3.08430561528329e-001

3.20427951035848e+004,-1.07641190696585e+001,-3.12735696275158e-001

3.24900958542493e+004,-1.07641202177225e+001,-3.17100911708432e-001

3.29436406907028e+004,-1.07641213979149e+001,-3.21527045814594e-001

3.34035167771346e+004,-1.07641226111307e+001,-3.26014948247875e-001

3.38698124945009e+004,-1.07641238582892e+001,-3.30565480492664e-001

3.43426174575100e+004,-1.07641251403355e+001,-3.35179516025194e-001

3.48220225318448e+004,-1.07641264582404e+001,-3.39857940482371e-001

3.53081198516260e+004,-1.07641278130017e+001,-3.44601651828403e-001

3.58010028371187e+004,-1.07641292056441e+001,-3.49411560527329e-001

3.63007662126863e+004,-1.07641306372212e+001,-3.54288589712127e-001

3.68075060249948e+004,-1.07641321088151e+001,-3.59233675364036e-001

3.73213196614721e+004,-1.07641336215377e+001,-3.64247766487819e-001

3.78423058690237e+004,-1.07641351765316e+001,-3.69331825292736e-001

3.83705647730104e+004,-1.07641367749703e+001,-3.74486827375658e-001

3.89061978964912e+004,-1.07641384180600e+001,-3.79713761904074e-001

3.94493081797342e+004,-1.07641401070396e+001,-3.85013631805457e-001

3.99999999999998e+004,-1.07641418431822e+001,-3.90387453955663e-001

4.05583791916010e+004,-1.07641436277951e+001,-3.95836259374724e-001

4.11245530662425e+004,-1.07641454622220e+001,-4.01361093417587e-001

4.16986304336447e+004,-1.07641473478431e+001,-4.06963015974297e-001

4.22807216224550e+004,-1.07641492860759e+001,-4.12643101672082e-001

4.28709385014515e+004,-1.07641512783769e+001,-4.18402440075336e-001

4.34693945010421e+004,-1.07641533262423e+001,-4.24242135893181e-001

4.40762046350642e+004,-1.07641554312086e+001,-4.30163309188692e-001

4.46914855228886e+004,-1.07641575948546e+001,-4.36167095588592e-001

4.53153554118317e+004,-1.07641598188015e+001,-4.42254646499679e-001

4.59479341998812e+004,-1.07641621047146e+001,-4.48427129324727e-001

4.65893434587380e+004,-1.07641644543047e+001,-4.54685727682584e-001

4.72397064571810e+004,-1.07641668693284e+001,-4.61031641631649e-001

4.78991481847569e+004,-1.07641693515899e+001,-4.67466087896657e-001

4.85677953758016e+004,-1.07641719029423e+001,-4.73990300096328e-001

4.92457765337964e+004,-1.07641745252887e+001,-4.80605528974688e-001

4.99332219560642e+004,-1.07641772205832e+001,-4.87313042639695e-001

5.06302637588109e+004,-1.07641799908329e+001,-4.94114126797745e-001

5.13370359025159e+004,-1.07641828380985e+001,-5.01010084997713e-001

5.20536742176771e+004,-1.07641857644961e+001,-5.08002238874094e-001

5.27803164309155e+004,-1.07641887721985e+001,-5.15091928396687e-001

5.35171021914442e+004,-1.07641918634368e+001,-5.22280512118906e-001

5.42641730979066e+004,-1.07641950405017e+001,-5.29569367434829e-001

5.50216727255895e+004,-1.07641983057447e+001,-5.36959890836232e-001

5.57897466540159e+004,-1.07642016615805e+001,-5.44453498173411e-001

5.65685424949235e+004,-1.07642051104876e+001,-5.52051624921151e-001

5.73582099206328e+004,-1.07642086550106e+001,-5.59755726444104e-001

5.81589006928121e+004,-1.07642122977614e+001,-5.67567278271164e-001

5.89707686916437e+004,-1.07642160414212e+001,-5.75487776370715e-001

5.97939699453972e+004,-1.07642198887420e+001,-5.83518737426621e-001

6.06286626604156e+004,-1.07642238425482e+001,-5.91661699123796e-001

6.14750072515201e+004,-1.07642279057388e+001,-5.99918220432044e-001

6.23331663728396e+004,-1.07642320812889e+001,-6.08289881897157e-001

6.32033049490698e+004,-1.07642363722516e+001,-6.16778285933768e-001

6.40855902071694e+004,-1.07642407817598e+001,-6.25385057124148e-001

6.49801917084985e+004,-1.07642453130284e+001,-6.34111842516205e-001

6.58872813814055e+004,-1.07642499693559e+001,-6.42960311931656e-001

6.68070335542691e+004,-1.07642547541265e+001,-6.51932158274794e-001

6.77396249890018e+004,-1.07642596708123e+001,-6.61029097842972e-001

6.86852349150199e+004,-1.07642647229752e+001,-6.70252870645713e-001

6.96440450636895e+004,-1.07642699142688e+001,-6.79605240725522e-001

7.06162397032520e+004,-1.07642752484411e+001,-6.89087996482127e-001

7.16020056742374e+004,-1.07642807293358e+001,-6.98702951002903e-001

7.26015324253724e+004,-1.07642863608956e+001,-7.08451942394160e-001

7.36150120499896e+004,-1.07642921471633e+001,-7.18336834121056e-001

7.46426393229441e+004,-1.07642980922848e+001,-7.28359515348527e-001

7.56846117380472e+004,-1.07643042005112e+001,-7.38521901287324e-001

7.67411295460207e+004,-1.07643104762011e+001,-7.48825933544950e-001

7.78123957929823e+004,-1.07643169238227e+001,-7.59273580480024e-001

7.88986163594682e+004,-1.07643235479571e+001,-7.69866837561265e-001

7.99999999999995e+004,-1.07643303532994e+001,-7.80607727733527e-001

8.11167583832018e+004,-1.07643373446620e+001,-7.91498301784148e-001

8.22491061324848e+004,-1.07643445269772e+001,-8.02540638715880e-001

8.33972608672892e+004,-1.07643519052990e+001,-8.13736846125546e-001

8.45614432449099e+004,-1.07643594848063e+001,-8.25089060585280e-001

8.57418770029029e+004,-1.07643672708050e+001,-8.36599448030011e-001

8.69387890020841e+004,-1.07643752687308e+001,-8.48270204148917e-001

8.81524092701283e+004,-1.07643834841516e+001,-8.60103554782303e-001

8.93829710457770e+004,-1.07643919227703e+001,-8.72101756322466e-001

9.06307108236633e+004,-1.07644005904274e+001,-8.84267096118589e-001

9.18958683997622e+004,-1.07644094931033e+001,-8.96601892891649e-001

9.31786869174758e+004,-1.07644186369213e+001,-9.09108497145036e-001

9.44794129143618e+004,-1.07644280281501e+001,-9.21789291591740e-001

9.57982963695136e+004,-1.07644376732065e+001,-9.34646691573903e-001

9.71355907516031e+004,-1.07644475786578e+001,-9.47683145501111e-001

9.84915530675926e+004,-1.07644577512247e+001,-9.60901135280541e-001

9.98664439121282e+004,-1.07644681977837e+001,-9.74303176762194e-001

1.01260527517622e+005,-1.07644789253700e+001,-9.87891820185471e-001

1.02674071805032e+005,-1.07644899411795e+001,-1.00166965062963e+000

1.04107348435354e+005,-1.07645012525722e+001,-1.01563928847299e+000

1.05560632861831e+005,-1.07645128670739e+001,-1.02980338985519e+000

1.07034204382888e+005,-1.07645247923791e+001,-1.04416464714529e+000

1.08528346195813e+005,-1.07645370363535e+001,-1.05872578941570e+000

1.10043345451179e+005,-1.07645496070359e+001,-1.07348958292230e+000

1.11579493308032e+005,-1.07645625126415e+001,-1.08845883158767e+000

1.13137084989847e+005,-1.07645757615627e+001,-1.10363637749405e+000

1.14716419841265e+005,-1.07645893623730e+001,-1.11902510137747e+000

1.16317801385624e+005,-1.07646033238276e+001,-1.13462792313053e+000

1.17941537383287e+005,-1.07646176548664e+001,-1.15044780231052e+000

1.19587939890794e+005,-1.07646323646154e+001,-1.16648773865252e+000

1.21257325320831e+005,-1.07646474623889e+001,-1.18275077258946e+000

1.22950014503040e+005,-1.07646629576908e+001,-1.19923998577695e+000

1.24666332745679e+005,-1.07646788602163e+001,-1.21595850162567e+000

1.26406609898139e+005,-1.07646951798534e+001,-1.23290948583783e+000

1.28171180414339e+005,-1.07647119266840e+001,-1.25009614695203e+000

1.29960383416997e+005,-1.07647291109851e+001,-1.26752173689262e+000

1.31774562762811e+005,-1.07647467432296e+001,-1.28518955152538e+000

1.33614067108538e+005,-1.07647648340869e+001,-1.30310293122105e+000

1.35479249978003e+005,-1.07647833944238e+001,-1.32126526142326e+000

1.37370469830040e+005,-1.07648024353040e+001,-1.33967997322469e+000

1.39288090127379e+005,-1.07648219679887e+001,-1.35835054394852e+000

1.41232479406504e+005,-1.07648420039363e+001,-1.37728049773662e+000

1.43204011348474e+005,-1.07648625548012e+001,-1.39647340614590e+000

1.45203064850745e+005,-1.07648836324338e+001,-1.41593288874912e+000

1.47230024099979e+005,-1.07649052488786e+001,-1.43566261374381e+000

1.49285278645888e+005,-1.07649274163730e+001,-1.45566629856942e+000

1.51369223476094e+005,-1.07649501473454e+001,-1.47594771052854e+000

1.53482259092041e+005,-1.07649734544124e+001,-1.49651066741786e+000

1.55624791585964e+005,-1.07649973503766e+001,-1.51735903816590e+000

1.57797232718936e+005,-1.07650218482234e+001,-1.53849674347620e+000

1.59999999999999e+005,-1.07650469611167e+001,-1.55992775648105e+000

1.62233516766403e+005,-1.07650727023957e+001,-1.58165610340009e+000

1.64498212264969e+005,-1.07650990855692e+001,-1.60368586420906e+000

1.66794521734578e+005,-1.07651261243109e+001,-1.62602117331479e+000

1.69122886489819e+005,-1.07651538324537e+001,-1.64866622023751e+000

1.71483754005805e+005,-1.07651822239826e+001,-1.67162525030481e+000

1.73877578004168e+005,-1.07652113130282e+001,-1.69490256534975e+000

1.76304818540256e+005,-1.07652411138585e+001,-1.71850252442007e+000

1.78765942091554e+005,-1.07652716408703e+001,-1.74242954449621e+000

1.81261421647326e+005,-1.07653029085801e+001,-1.76668810121585e+000

1.83791736799524e+005,-1.07653349316140e+001,-1.79128272961072e+000

1.86357373834951e+005,-1.07653677246963e+001,-1.81621802485093e+000

1.88958825828723e+005,-1.07654013026382e+001,-1.84149864299866e+000

1.91596592739027e+005,-1.07654356803245e+001,-1.86712930177247e+000

1.94271181503206e+005,-1.07654708727004e+001,-1.89311478132136e+000

1.96983106135185e+005,-1.07655068947561e+001,-1.91945992500971e+000

1.99732887824256e+005,-1.07655437615115e+001,-1.94616964021050e+000

2.02521055035243e+005,-1.07655814879991e+001,-1.97324889911430e+000

2.05348143610063e+005,-1.07656200892458e+001,-2.00070273954360e+000

2.08214696870707e+005,-1.07656595802539e+001,-2.02853626578329e+000

2.11121265723661e+005,-1.07656999759804e+001,-2.05675464942097e+000

2.14068408765776e+005,-1.07657412913153e+001,-2.08536313020013e+000

2.17056692391625e+005,-1.07657835410584e+001,-2.11436701688580e+000

2.20086690902357e+005,-1.07658267398949e+001,-2.14377168814454e+000

2.23158986616063e+005,-1.07658709023694e+001,-2.17358259343510e+000

2.26274169979693e+005,-1.07659160428583e+001,-2.20380525391777e+000

2.29432839682530e+005,-1.07659621755413e+001,-2.23444526337319e+000

2.32635602771247e+005,-1.07660093143701e+001,-2.26550828914034e+000

2.35883074766574e+005,-1.07660574730371e+001,-2.29700007306771e+000

2.39175879781588e+005,-1.07661066649405e+001,-2.32892643248229e+000

2.42514650641661e+005,-1.07661569031498e+001,-2.36129326117365e+000

2.45900029006080e+005,-1.07662082003676e+001,-2.39410653039692e+000

2.49332665491357e+005,-1.07662605688907e+001,-2.42737228989262e+000

2.52813219796278e+005,-1.07663140205691e+001,-2.46109666892706e+000

2.56342360828676e+005,-1.07663685667627e+001,-2.49528587735004e+000

2.59920766833993e+005,-1.07664242182970e+001,-2.52994620667343e+000

2.63549125525621e+005,-1.07664809854153e+001,-2.56508403117208e+000

2.67228134217075e+005,-1.07665388777306e+001,-2.60070580900483e+000

2.70958499956006e+005,-1.07665979041741e+001,-2.63681808335829e+000

2.74740939660078e+005,-1.07666580729422e+001,-2.67342748361527e+000

2.78576180254757e+005,-1.07667193914412e+001,-2.71054072654617e+000

2.82464958813007e+005,-1.07667818662302e+001,-2.74816461752620e+000

2.86408022696948e+005,-1.07668455029616e+001,-2.78630605177928e+000

2.90406129701488e+005,-1.07669103063187e+001,-2.82497201564837e+000

2.94460048199957e+005,-1.07669762799530e+001,-2.86416958789390e+000

2.98570557291775e+005,-1.07670434264170e+001,-2.90390594102253e+000

3.02738446952187e+005,-1.07671117470966e+001,-2.94418834264481e+000

3.06964518184081e+005,-1.07671812421404e+001,-2.98502415686545e+000

3.11249583171928e+005,-1.07672519103874e+001,-3.02642084570401e+000

3.15594465437872e+005,-1.07673237492918e+001,-3.06838597055255e+000

3.19999999999997e+005,-1.07673967548461e+001,-3.11092719366424e+000

3.24467033532806e+005,-1.07674709215027e+001,-3.15405227968109e+000

3.28996424529938e+005,-1.07675462420922e+001,-3.19776909719545e+000

3.33589043469155e+005,-1.07676227077407e+001,-3.24208562035325e+000

3.38245772979638e+005,-1.07677003077848e+001,-3.28700993049374e+000

3.42967508011610e+005,-1.07677790296844e+001,-3.33255021783157e+000

3.47755156008335e+005,-1.07678588589347e+001,-3.37871478317966e+000

3.52609637080511e+005,-1.07679397789752e+001,-3.42551203971564e+000

3.57531884183106e+005,-1.07680217710979e+001,-3.47295051479212e+000

3.62522843294651e+005,-1.07681048143539e+001,-3.52103885179302e+000

3.67583473599047e+005,-1.07681888854583e+001,-3.56978581203419e+000

3.72714747669902e+005,-1.07682739586942e+001,-3.61920027671504e+000

3.77917651657445e+005,-1.07683600058148e+001,-3.66929124891555e+000

3.83193185478053e+005,-1.07684469959458e+001,-3.72006785564574e+000

3.88542363006410e+005,-1.07685348954855e+001,-3.77153934994335e+000

3.93966212270369e+005,-1.07686236680050e+001,-3.82371511302579e+000

3.99465775648511e+005,-1.07687132741482e+001,-3.87660465649299e+000

4.05042110070485e+005,-1.07688036715303e+001,-3.93021762458474e+000

4.10696287220124e+005,-1.07688948146371e+001,-3.98456379649232e+000

4.16429393741414e+005,-1.07689866547242e+001,-4.03965308872518e+000

4.22242531447321e+005,-1.07690791397158e+001,-4.09549555753376e+000

4.28136817531551e+005,-1.07691722141050e+001,-4.15210140138852e+000

4.34113384783250e+005,-1.07692658188539e+001,-4.20948096351565e+000

4.40173381804713e+005,-1.07693598912946e+001,-4.26764473449192e+000

4.46317973232124e+005,-1.07694543650318e+001,-4.32660335489491e+000

4.52548339959385e+005,-1.07695491698464e+001,-4.38636761801293e+000

4.58865679365059e+005,-1.07696442316009e+001,-4.44694847261317e+000

4.65271205542494e+005,-1.07697394721460e+001,-4.50835702576676e+000

4.71766149533147e+005,-1.07698348092299e+001,-4.57060454573421e+000

4.78351759563174e+005,-1.07699301564095e+001,-4.63370246490666e+000

4.85029301283321e+005,-1.07700254229643e+001,-4.69766238280626e+000

4.91800058012158e+005,-1.07701205138122e+001,-4.76249606914342e+000

4.98665330982714e+005,-1.07702153294298e+001,-4.82821546693051e+000

5.05626439592555e+005,-1.07703097657740e+001,-4.89483269565363e+000

5.12684721657352e+005,-1.07704037142081e+001,-4.96236005449647e+000

5.19841533667984e+005,-1.07704970614312e+001,-5.03081002562194e+000

5.27098251051240e+005,-1.07705896894108e+001,-5.10019527750626e+000

5.34456268434150e+005,-1.07706814753198e+001,-5.17052866832443e+000

5.41916999912011e+005,-1.07707722914773e+001,-5.24182324938996e+000

