Freq.,VOut,OutRef

1.00000000000000e+004,-2.94919767344842e+001,-4.03408674516684e-002

1.01395947979003e+004,-2.94919770613651e+001,-4.09039788637357e-002

1.02811382665607e+004,-2.94919773974327e+001,-4.14749499116758e-002

1.04246576084112e+004,-2.94919777429457e+001,-4.20538902604448e-002

1.05701804056138e+004,-2.94919780981693e+001,-4.26409111099740e-002

1.07177346253629e+004,-2.94919784633761e+001,-4.32361252103459e-002

1.08673486252606e+004,-2.94919788388463e+001,-4.38396468826017e-002

1.10190511587661e+004,-2.94919792248690e+001,-4.44515920364375e-002

1.11728713807222e+004,-2.94919796217401e+001,-4.50720782045005e-002

1.13288388529580e+004,-2.94919800297648e+001,-4.57012245522462e-002

1.14869835499703e+004,-2.94919804492557e+001,-4.63391519124869e-002

1.16473358646846e+004,-2.94919808805355e+001,-4.69859827938998e-002

1.18099266142953e+004,-2.94919813239355e+001,-4.76418414163091e-002

1.19747870461893e+004,-2.94919817797956e+001,-4.83068537342744e-002

1.21419488439505e+004,-2.94919822484660e+001,-4.89811474531421e-002

1.23114441334492e+004,-2.94919827303070e+001,-4.96648520559062e-002

1.24833054890161e+004,-2.94919832256877e+001,-5.03580988380295e-002

1.26575659397028e+004,-2.94919837349892e+001,-5.10610209143401e-002

1.28342589756290e+004,-2.94919842586020e+001,-5.17737532623861e-002

1.30134185544193e+004,-2.94919847969281e+001,-5.24964327357691e-002

1.31950791077289e+004,-2.94919853503809e+001,-5.32291980951600e-002

1.33792755478611e+004,-2.94919859193849e+001,-5.39721900374224e-002

1.35660432744767e+004,-2.94919865043775e+001,-5.47255512117129e-002

1.37554181813974e+004,-2.94919871058069e+001,-5.54894262644202e-002

1.39474366635040e+004,-2.94919877241350e+001,-5.62639618490648e-002

1.41421356237309e+004,-2.94919883598365e+001,-5.70493066635932e-002

1.43395524801583e+004,-2.94919890133993e+001,-5.78456114752575e-002

1.45397251732031e+004,-2.94919896853245e+001,-5.86530291555953e-002

1.47426921729110e+004,-2.94919903761279e+001,-5.94717147000160e-002

1.49484924863494e+004,-2.94919910863399e+001,-6.03018252609922e-002

1.51571656651040e+004,-2.94919918165046e+001,-6.11435201864977e-002

1.53687518128801e+004,-2.94919925671832e+001,-6.19969610316226e-002

1.55832915932100e+004,-2.94919933389508e+001,-6.28623116115025e-002

1.58008262372675e+004,-2.94919941323997e+001,-6.37397380135062e-002

1.60213975517924e+004,-2.94919949481384e+001,-6.46294086405221e-002

1.62450479271247e+004,-2.94919957867927e+001,-6.55314942364882e-002

1.64718203453514e+004,-2.94919966490061e+001,-6.64461679219042e-002

1.67017583885674e+004,-2.94919975354395e+001,-6.73736052285837e-002

1.69349062472505e+004,-2.94919984467728e+001,-6.83139841269280e-002

1.71713087287550e+004,-2.94919993837048e+001,-6.92674850656589e-002

1.74110112659224e+004,-2.94920003469540e+001,-7.02342910026766e-002

1.76540599258131e+004,-2.94920013372585e+001,-7.12145874419826e-002

1.79005014185594e+004,-2.94920023553780e+001,-7.22085624641805e-002

1.81503831063432e+004,-2.94920034020930e+001,-7.32164067669157e-002

1.84037530124975e+004,-2.94920044782053e+001,-7.42383137024675e-002

1.86606598307361e+004,-2.94920055845401e+001,-7.52744793064963e-002

1.89211529345119e+004,-2.94920067219456e+001,-7.63251023401346e-002

1.91852823865052e+004,-2.94920078912927e+001,-7.73903843330786e-002

1.94530989482457e+004,-2.94920090934780e+001,-7.84705296079898e-002

1.97246540898671e+004,-2.94920103294222e+001,-7.95657453325560e-002

1.99999999999999e+004,-2.94920116000727e+001,-8.06762415489883e-002

2.02791895958005e+004,-2.94920129064022e+001,-8.18022312228330e-002

2.05622765331213e+004,-2.94920142494119e+001,-8.29439302703395e-002

2.08493152168224e+004,-2.94920156301300e+001,-8.41015576144449e-002

2.11403608112276e+004,-2.94920170496141e+001,-8.52753352116978e-002

2.14354692507258e+004,-2.94920185089510e+001,-8.64654881051979e-002

2.17346972505211e+004,-2.94920200092581e+001,-8.76722444593504e-002

2.20381023175322e+004,-2.94920215516837e+001,-8.88958356088195e-002

2.23457427614443e+004,-2.94920231374090e+001,-9.01364960926109e-002

2.26576777059159e+004,-2.94920247676474e+001,-9.13944637100665e-002

2.29739670999406e+004,-2.94920264436462e+001,-9.26699795597185e-002

2.32946717293690e+004,-2.94920281666883e+001,-9.39632880797961e-002

2.36198532285905e+004,-2.94920299380916e+001,-9.52746371025984e-002

2.39495740923785e+004,-2.94920317592112e+001,-9.66042778970138e-002

2.42838976879009e+004,-2.94920336314403e+001,-9.79524652111838e-002

2.46228882668982e+004,-2.94920355562101e+001,-9.93194573316601e-002

2.49666109780322e+004,-2.94920375349930e+001,-1.00705516115261e-001

2.53151318794055e+004,-2.94920395693015e+001,-1.02110907055469e-001

2.56685179512580e+004,-2.94920416606908e+001,-1.03535899317088e-001

2.60268371088386e+004,-2.94920438107590e+001,-1.04980765798402e-001

2.63901582154578e+004,-2.94920460211494e+001,-1.06445783170871e-001

2.67585510957221e+004,-2.94920482935508e+001,-1.07931231939299e-001

2.71320865489533e+004,-2.94920506296988e+001,-1.09437396491195e-001

2.75108363627948e+004,-2.94920530313776e+001,-1.10964565148522e-001

2.78948733270080e+004,-2.94920555004215e+001,-1.12513030218143e-001

2.82842712474618e+004,-2.94920580387155e+001,-1.14083088053942e-001

2.86791049603164e+004,-2.94920606481969e+001,-1.15675039106143e-001

2.90794503464061e+004,-2.94920633308572e+001,-1.17289187978063e-001

2.94853843458219e+004,-2.94920660887436e+001,-1.18925843479494e-001

2.98969849726987e+004,-2.94920689239597e+001,-1.20585318690584e-001

3.03143313302078e+004,-2.94920718386676e+001,-1.22267931013534e-001

3.07375036257601e+004,-2.94920748350905e+001,-1.23974002229769e-001

3.11665831864199e+004,-2.94920779155120e+001,-1.25703858568204e-001

3.16016524745350e+004,-2.94920810822803e+001,-1.27457830753324e-001

3.20427951035848e+004,-2.94920843378083e+001,-1.29236254073975e-001

3.24900958542493e+004,-2.94920876845759e+001,-1.31039468442453e-001

3.29436406907028e+004,-2.94920911251318e+001,-1.32867818456775e-001

3.34035167771346e+004,-2.94920946620960e+001,-1.34721653460459e-001

3.38698124945009e+004,-2.94920982981605e+001,-1.36601327611433e-001

3.43426174575100e+004,-2.94921020360922e+001,-1.38507199943767e-001

3.48220225318448e+004,-2.94921058787346e+001,-1.40439634433339e-001

3.53081198516260e+004,-2.94921098290102e+001,-1.42399000062035e-001

3.58010028371187e+004,-2.94921138899226e+001,-1.44385670886524e-001

3.63007662126863e+004,-2.94921180645582e+001,-1.46400026106966e-001

3.68075060249948e+004,-2.94921223560886e+001,-1.48442450134112e-001

3.73213196614721e+004,-2.94921267677737e+001,-1.50513332657323e-001

3.78423058690237e+004,-2.94921313029633e+001,-1.52613068715064e-001

3.83705647730104e+004,-2.94921359650996e+001,-1.54742058770267e-001

3.89061978964912e+004,-2.94921407577202e+001,-1.56900708773323e-001

3.94493081797342e+004,-2.94921456844602e+001,-1.59089430244018e-001

3.99999999999998e+004,-2.94921507490551e+001,-1.61308640337675e-001

4.05583791916010e+004,-2.94921559553429e+001,-1.63558761926197e-001

4.11245530662425e+004,-2.94921613072683e+001,-1.65840223665249e-001

4.16986304336447e+004,-2.94921668088841e+001,-1.68153460076782e-001

4.22807216224550e+004,-2.94921724643547e+001,-1.70498911622733e-001

4.28709385014515e+004,-2.94921782779594e+001,-1.72877024784004e-001

4.34693945010421e+004,-2.94921842540945e+001,-1.75288252140457e-001

4.40762046350642e+004,-2.94921903972781e+001,-1.77733052443422e-001

4.46914855228886e+004,-2.94921967121516e+001,-1.80211890706865e-001

4.53153554118317e+004,-2.94922032034840e+001,-1.82725238280122e-001

4.59479341998812e+004,-2.94922098761756e+001,-1.85273572931601e-001

4.65893434587380e+004,-2.94922167352601e+001,-1.87857378935741e-001

4.72397064571810e+004,-2.94922237859097e+001,-1.90477147152774e-001

4.78991481847569e+004,-2.94922310334381e+001,-1.93133375114738e-001

4.85677953758016e+004,-2.94922384833042e+001,-1.95826567110247e-001

4.92457765337964e+004,-2.94922461411161e+001,-1.98557234273644e-001

4.99332219560642e+004,-2.94922540126349e+001,-2.01325894670272e-001

5.06302637588109e+004,-2.94922621037790e+001,-2.04133073384514e-001

5.13370359025159e+004,-2.94922704206282e+001,-2.06979302610593e-001

5.20536742176771e+004,-2.94922789694277e+001,-2.09865121741547e-001

5.27803164309155e+004,-2.94922877565927e+001,-2.12791077459875e-001

5.35171021914442e+004,-2.94922967887127e+001,-2.15757723831031e-001

5.42641730979066e+004,-2.94923060725563e+001,-2.18765622395017e-001

5.50216727255895e+004,-2.94923156150754e+001,-2.21815342259614e-001

5.57897466540159e+004,-2.94923254234110e+001,-2.24907460194841e-001

5.65685424949235e+004,-2.94923355048967e+001,-2.28042560730249e-001

5.73582099206328e+004,-2.94923458670646e+001,-2.31221236249790e-001

5.81589006928121e+004,-2.94923565176505e+001,-2.34444087087647e-001

5.89707686916437e+004,-2.94923674645989e+001,-2.37711721627924e-001

5.97939699453972e+004,-2.94923787160680e+001,-2.41024756403839e-001

6.06286626604156e+004,-2.94923902804363e+001,-2.44383816194621e-001

6.14750072515201e+004,-2.94924021663068e+001,-2.47789534129809e-001

6.23331663728396e+004,-2.94924143825139e+001,-2.51242551787588e-001

6.32033049490698e+004,-2.94924269381290e+001,-2.54743519296743e-001

6.40855902071694e+004,-2.94924398424661e+001,-2.58293095442052e-001

6.49801917084985e+004,-2.94924531050883e+001,-2.61891947765979e-001

6.58872813814055e+004,-2.94924667358140e+001,-2.65540752672981e-001

6.68070335542691e+004,-2.94924807447238e+001,-2.69240195535086e-001

6.77396249890018e+004,-2.94924951421659e+001,-2.72990970798815e-001

6.86852349150199e+004,-2.94925099387640e+001,-2.76793782090401e-001

6.96440450636895e+004,-2.94925251454238e+001,-2.80649342322763e-001

7.06162397032520e+004,-2.94925407733392e+001,-2.84558373806616e-001

7.16020056742374e+004,-2.94925568340011e+001,-2.88521608353033e-001

7.26015324253724e+004,-2.94925733392026e+001,-2.92539787390880e-001

7.36150120499896e+004,-2.94925903010484e+001,-2.96613662069190e-001

7.46426393229441e+004,-2.94926077319611e+001,-3.00743993372221e-001

7.56846117380472e+004,-2.94926256446893e+001,-3.04931552229725e-001

7.67411295460207e+004,-2.94926440523157e+001,-3.09177119626020e-001

7.78123957929823e+004,-2.94926629682649e+001,-3.13481486716414e-001

7.88986163594682e+004,-2.94926824063115e+001,-3.17845454936407e-001

7.99999999999995e+004,-2.94927023805887e+001,-3.22269836116473e-001

8.11167583832018e+004,-2.94927229055966e+001,-3.26755452595026e-001

8.22491061324848e+004,-2.94927439962109e+001,-3.31303137332148e-001

8.33972608672892e+004,-2.94927656676920e+001,-3.35913734023884e-001

8.45614432449099e+004,-2.94927879356930e+001,-3.40588097217710e-001

8.57418770029029e+004,-2.94928108162703e+001,-3.45327092424783e-001

8.69387890020841e+004,-2.94928343258913e+001,-3.50131596239849e-001

8.81524092701283e+004,-2.94928584814449e+001,-3.55002496450406e-001

8.93829710457770e+004,-2.94928833002506e+001,-3.59940692156600e-001

9.06307108236633e+004,-2.94929088000683e+001,-3.64947093885098e-001

9.18958683997622e+004,-2.94929349991078e+001,-3.70022623705399e-001

9.31786869174758e+004,-2.94929619160395e+001,-3.75168215344017e-001

9.44794129143618e+004,-2.94929895700038e+001,-3.80384814301887e-001

9.57982963695136e+004,-2.94930179806219e+001,-3.85673377967260e-001

9.71355907516031e+004,-2.94930471680058e+001,-3.91034875734144e-001

9.84915530675926e+004,-2.94930771527688e+001,-3.96470289115751e-001

9.98664439121282e+004,-2.94931079560368e+001,-4.01980611856982e-001

1.01260527517622e+005,-2.94931395994579e+001,-4.07566850055037e-001

1.02674071805032e+005,-2.94931721052144e+001,-4.13230022266630e-001

1.04107348435354e+005,-2.94932054960331e+001,-4.18971159626503e-001

1.05560632861831e+005,-2.94932397951966e+001,-4.24791305958729e-001

1.07034204382888e+005,-2.94932750265544e+001,-4.30691517889017e-001

1.08528346195813e+005,-2.94933112145340e+001,-4.36672864957888e-001

1.10043345451179e+005,-2.94933483841526e+001,-4.42736429731459e-001

1.11579493308032e+005,-2.94933865610281e+001,-4.48883307910400e-001

1.13137084989847e+005,-2.94934257713907e+001,-4.55114608442512e-001

1.14716419841265e+005,-2.94934660420943e+001,-4.61431453628678e-001

1.16317801385624e+005,-2.94935074006282e+001,-4.67834979232726e-001

1.17941537383287e+005,-2.94935498751281e+001,-4.74326334586850e-001

1.19587939890794e+005,-2.94935934943883e+001,-4.80906682697291e-001

1.21257325320831e+005,-2.94936382878728e+001,-4.87577200348996e-001

1.22950014503040e+005,-2.94936842857267e+001,-4.94339078208599e-001

1.24666332745679e+005,-2.94937315187879e+001,-5.01193520926072e-001

1.26406609898139e+005,-2.94937800185984e+001,-5.08141747234958e-001

1.28171180414339e+005,-2.94938298174153e+001,-5.15184990051030e-001

1.29960383416997e+005,-2.94938809482224e+001,-5.22324496569934e-001

1.31774562762811e+005,-2.94939334447410e+001,-5.29561528361609e-001

1.33614067108538e+005,-2.94939873414405e+001,-5.36897361466334e-001

1.35479249978003e+005,-2.94940426735501e+001,-5.44333286483286e-001

1.37370469830040e+005,-2.94940994770680e+001,-5.51870608664307e-001

1.39288090127379e+005,-2.94941577887727e+001,-5.59510647999680e-001

1.41232479406504e+005,-2.94942176462327e+001,-5.67254739306158e-001

1.43204011348474e+005,-2.94942790878160e+001,-5.75104232309160e-001

1.45203064850745e+005,-2.94943421527002e+001,-5.83060491726090e-001

1.47230024099979e+005,-2.94944068808805e+001,-5.91124897346781e-001

1.49285278645888e+005,-2.94944733131795e+001,-5.99298844110592e-001

1.51369223476094e+005,-2.94945414912548e+001,-6.07583742181646e-001

1.53482259092041e+005,-2.94946114576069e+001,-6.15981017022452e-001

1.55624791585964e+005,-2.94946832555865e+001,-6.24492109465664e-001

1.57797232718936e+005,-2.94947569294012e+001,-6.33118475781270e-001

1.59999999999999e+005,-2.94948325241218e+001,-6.41861587744447e-001

1.62233516766403e+005,-2.94949100856875e+001,-6.50722932698045e-001

1.64498212264969e+005,-2.94949896609109e+001,-6.59704013615862e-001

1.66794521734578e+005,-2.94950712974820e+001,-6.68806349161648e-001

1.69122886489819e+005,-2.94951550439716e+001,-6.78031473744895e-001

1.71483754005805e+005,-2.94952409498334e+001,-6.87380937578020e-001

1.73877578004168e+005,-2.94953290654057e+001,-6.96856306727641e-001

1.76304818540256e+005,-2.94954194419123e+001,-7.06459163166033e-001

1.78765942091554e+005,-2.94955121314611e+001,-7.16191104818806e-001

1.81261421647326e+005,-2.94956071870438e+001,-7.26053745613603e-001

1.83791736799524e+005,-2.94957046625317e+001,-7.36048715524014e-001

1.86357373834951e+005,-2.94958046126736e+001,-7.46177660611803e-001

1.88958825828723e+005,-2.94959070930885e+001,-7.56442243072914e-001

1.91596592739027e+005,-2.94960121602610e+001,-7.66844141272943e-001

1.94271181503206e+005,-2.94961198715320e+001,-7.77385049792022e-001

1.96983106135185e+005,-2.94962302850897e+001,-7.88066679459589e-001

1.99732887824256e+005,-2.94963434599588e+001,-7.98890757395465e-001

2.02521055035243e+005,-2.94964594559870e+001,-8.09859027047358e-001

2.05348143610063e+005,-2.94965783338313e+001,-8.20973248229194e-001

2.08214696870707e+005,-2.94967001549419e+001,-8.32235197158191e-001

2.11121265723661e+005,-2.94968249815428e+001,-8.43646666498678e-001

2.14068408765776e+005,-2.94969528766135e+001,-8.55209465397079e-001

2.17056692391625e+005,-2.94970839038655e+001,-8.66925419529932e-001

2.20086690902357e+005,-2.94972181277186e+001,-8.78796371145343e-001

2.23158986616063e+005,-2.94973556132745e+001,-8.90824179110787e-001

2.26274169979693e+005,-2.94974964262877e+001,-9.03010718965924e-001

2.29432839682530e+005,-2.94976406331348e+001,-9.15357882975643e-001

2.32635602771247e+005,-2.94977883007804e+001,-9.27867580190574e-001

2.35883074766574e+005,-2.94979394967416e+001,-9.40541736510585e-001

2.39175879781588e+005,-2.94980942890491e+001,-9.53382294756774e-001

2.42514650641661e+005,-2.94982527462053e+001,-9.66391214750319e-001

2.45900029006080e+005,-2.94984149371411e+001,-9.79570473395420e-001

2.49332665491357e+005,-2.94985809311682e+001,-9.92922064775611e-001

2.52813219796278e+005,-2.94987507979298e+001,-1.00644800025737e+000

2.56342360828676e+005,-2.94989246073472e+001,-1.02015030860417e+000

2.59920766833993e+005,-2.94991024295650e+001,-1.03403103610217e+000

2.63549125525621e+005,-2.94992843348914e+001,-1.04809224670147e+000

2.67228134217075e+005,-2.94994703937364e+001,-1.06233602216651e+000

2.70958499956006e+005,-2.94996606765473e+001,-1.07676446224620e+000

2.74740939660078e+005,-2.94998552537399e+001,-1.09137968485798e+000

2.78576180254757e+005,-2.95000541956274e+001,-1.10618382628924e+000

2.82464958813007e+005,-2.95002575723454e+001,-1.12117904142189e+000

2.86408022696948e+005,-2.95004654537744e+001,-1.13636750397173e+000

2.90406129701488e+005,-2.95006779094585e+001,-1.15175140675417e+000

2.94460048199957e+005,-2.95008950085211e+001,-1.16733296197228e+000

2.98570557291775e+005,-2.95011168195777e+001,-1.18311440152915e+000

3.02738446952187e+005,-2.95013434106447e+001,-1.19909797736903e+000

3.06964518184081e+005,-2.95015748490462e+001,-1.21528596184532e+000

3.11249583171928e+005,-2.95018112013169e+001,-1.23168064811807e+000

3.15594465437872e+005,-2.95020525331027e+001,-1.24828435058524e+000

3.19999999999997e+005,-2.95022989090580e+001,-1.26509940534595e+000

3.24467033532806e+005,-2.95025503927397e+001,-1.28212817070137e+000

3.28996424529938e+005,-2.95028070465006e+001,-1.29937302768718e+000

3.33589043469155e+005,-2.95030689313775e+001,-1.31683638065367e+000

3.38245772979638e+005,-2.95033361069794e+001,-1.33452065787657e+000

3.42967508011610e+005,-2.95036086313722e+001,-1.35242831221835e+000

3.47755156008335e+005,-2.95038865609617e+001,-1.37056182183007e+000

3.52609637080511e+005,-2.95041699503751e+001,-1.38892369089864e+000

3.57531884183106e+005,-2.95044588523413e+001,-1.40751645044347e+000

3.62522843294651e+005,-2.95047533175688e+001,-1.42634265916204e+000

3.67583473599047e+005,-2.95050533946239e+001,-1.44540490432563e+000

3.72714747669902e+005,-2.95053591298079e+001,-1.46470580272789e+000

3.77917651657445e+005,-2.95056705670335e+001,-1.48424800168869e+000

3.83193185478053e+005,-2.95059877477018e+001,-1.50403418011065e+000

3.88542363006410e+005,-2.95063107105793e+001,-1.52406704959583e+000

3.93966212270369e+005,-2.95066394916759e+001,-1.54434935561825e+000

3.99465775648511e+005,-2.95069741241241e+001,-1.56488387875410e+000

4.05042110070485e+005,-2.95073146380593e+001,-1.58567343597768e+000

4.10696287220124e+005,-2.95076610605030e+001,-1.60672088201065e+000

4.16429393741414e+005,-2.95080134152477e+001,-1.62802911073858e+000

4.22242531447321e+005,-2.95083717227449e+001,-1.64960105668769e+000

4.28136817531551e+005,-2.95087359999973e+001,-1.67143969656324e+000

4.34113384783250e+005,-2.95091062604538e+001,-1.69354805085169e+000

4.40173381804713e+005,-2.95094825139099e+001,-1.71592918548590e+000

4.46317973232124e+005,-2.95098647664129e+001,-1.73858621356957e+000

4.52548339959385e+005,-2.95102530201721e+001,-1.76152229716813e+000

4.58865679365059e+005,-2.95106472734758e+001,-1.78474064915738e+000

4.65271205542494e+005,-2.95110475206147e+001,-1.80824453513260e+000

4.71766149533147e+005,-2.95114537518124e+001,-1.83203727537851e+000

4.78351759563174e+005,-2.95118659531631e+001,-1.85612224689567e+000

4.85029301283321e+005,-2.95122841065792e+001,-1.88050288548175e+000

4.91800058012158e+005,-2.95127081897453e+001,-1.90518268786898e+000

4.98665330982714e+005,-2.95131381760839e+001,-1.93016521391209e+000

5.05626439592555e+005,-2.95135740347291e+001,-1.95545408882539e+000

5.12684721657352e+005,-2.95140157305118e+001,-1.98105300546617e+000

5.19841533667984e+005,-2.95144632239549e+001,-2.00696572666408e+000

5.27098251051240e+005,-2.95149164712805e+001,-2.03319608758712e+000

5.34456268434150e+005,-2.95153754244281e+001,-2.05974799814799e+000

5.41916999912011e+005,-2.95158400310850e+001,-2.08662544544170e+000

