Freq.,VOut,OutRef

1.00000000000000e+004,-1.16626219413984e+001,-2.09671070508832e-002

1.01395947979003e+004,-1.16626225802999e+001,-2.12597430313982e-002

1.02811382665607e+004,-1.16626232371583e+001,-2.15564617626013e-002

1.04246576084112e+004,-1.16626239124768e+001,-2.18573201485729e-002

1.05701804056138e+004,-1.16626246067748e+001,-2.21623758710256e-002

1.07177346253629e+004,-1.16626253205855e+001,-2.24716874155835e-002

1.08673486252606e+004,-1.16626260544555e+001,-2.27853140931264e-002

1.10190511587661e+004,-1.16626268089502e+001,-2.31033160121213e-002

1.11728713807222e+004,-1.16626275846489e+001,-2.34257541303892e-002

1.13288388529580e+004,-1.16626283821456e+001,-2.37526902610478e-002

1.14869835499703e+004,-1.16626292020545e+001,-2.40841870517510e-002

1.16473358646846e+004,-1.16626300450039e+001,-2.44203080395952e-002

1.18099266142953e+004,-1.16626309116414e+001,-2.47611176319602e-002

1.19747870461893e+004,-1.16626318026327e+001,-2.51066811297342e-002

1.21419488439505e+004,-1.16626327186613e+001,-2.54570647455422e-002

1.23114441334492e+004,-1.16626336604310e+001,-2.58123356012386e-002

1.24833054890161e+004,-1.16626346286646e+001,-2.61725617553388e-002

1.26575659397028e+004,-1.16626356241050e+001,-2.65378122089382e-002

1.28342589756290e+004,-1.16626366475169e+001,-2.69081569140182e-002

1.30134185544193e+004,-1.16626376996851e+001,-2.72836667994158e-002

1.31950791077289e+004,-1.16626387814175e+001,-2.76644137695022e-002

1.33792755478611e+004,-1.16626398935447e+001,-2.80504707232899e-002

1.35660432744767e+004,-1.16626410369201e+001,-2.84419115720618e-002

1.37554181813974e+004,-1.16626422124211e+001,-2.88388112500990e-002

1.39474366635040e+004,-1.16626434209495e+001,-2.92412457282960e-002

1.41421356237309e+004,-1.16626446634328e+001,-2.96492920270910e-002

1.43395524801583e+004,-1.16626459408248e+001,-3.00630282289402e-002

1.45397251732031e+004,-1.16626472541053e+001,-3.04825335004675e-002

1.47426921729110e+004,-1.16626486042817e+001,-3.09078881015812e-002

1.49484924863494e+004,-1.16626499923906e+001,-3.13391733939527e-002

1.51571656651040e+004,-1.16626514194957e+001,-3.17764718780186e-002

1.53687518128801e+004,-1.16626528866928e+001,-3.22198671750698e-002

1.55832915932100e+004,-1.16626543951068e+001,-3.26694440733582e-002

1.58008262372675e+004,-1.16626559458955e+001,-3.31252885216722e-002

1.60213975517924e+004,-1.16626575402469e+001,-3.35874876682617e-002

1.62450479271247e+004,-1.16626591793848e+001,-3.40561298474233e-002

1.64718203453514e+004,-1.16626608645660e+001,-3.45313046180647e-002

1.67017583885674e+004,-1.16626625970824e+001,-3.50131027754556e-002

1.69349062472505e+004,-1.16626643782628e+001,-3.55016163597099e-002

1.71713087287550e+004,-1.16626662094726e+001,-3.59969386823232e-002

1.74110112659224e+004,-1.16626680921155e+001,-3.64991643396032e-002

1.76540599258131e+004,-1.16626700276349e+001,-3.70083892250744e-002

1.79005014185594e+004,-1.16626720175146e+001,-3.75247105512704e-002

1.81503831063432e+004,-1.16626740632795e+001,-3.80482268724667e-002

1.84037530124975e+004,-1.16626761664977e+001,-3.85790380896910e-002

1.86606598307361e+004,-1.16626783287808e+001,-3.91172454816910e-002

1.89211529345119e+004,-1.16626805517856e+001,-3.96629517154294e-002

1.91852823865052e+004,-1.16626828372147e+001,-4.02162608692624e-002

1.94530989482457e+004,-1.16626851868204e+001,-4.07772784383517e-002

1.97246540898671e+004,-1.16626876024015e+001,-4.13461113773257e-002

1.99999999999999e+004,-1.16626900858089e+001,-4.19228680960146e-002

2.02791895958005e+004,-1.16626926389442e+001,-4.25076584950673e-002

2.05622765331213e+004,-1.16626952637624e+001,-4.31005939774240e-002

2.08493152168224e+004,-1.16626979622734e+001,-4.37017874692502e-002

2.11403608112276e+004,-1.16627007365438e+001,-4.43113534355083e-002

2.14354692507258e+004,-1.16627035886970e+001,-4.49294079122265e-002

2.17346972505211e+004,-1.16627065209164e+001,-4.55560685145078e-002

2.20381023175322e+004,-1.16627095354456e+001,-4.61914544682632e-002

2.23457427614443e+004,-1.16627126345923e+001,-4.68356866162761e-002

2.26576777059159e+004,-1.16627158207274e+001,-4.74888874536561e-002

2.29739670999406e+004,-1.16627190962886e+001,-4.81511811417555e-002

2.32946717293690e+004,-1.16627224637815e+001,-4.88226935319733e-002

2.36198532285905e+004,-1.16627259257822e+001,-4.95035521837521e-002

2.39495740923785e+004,-1.16627294849371e+001,-5.01938863988986e-002

2.42838976879009e+004,-1.16627331439689e+001,-5.08938272197140e-002

2.46228882668982e+004,-1.16627369056740e+001,-5.16035074794435e-002

2.49666109780322e+004,-1.16627407729283e+001,-5.23230618035721e-002

2.53151318794055e+004,-1.16627447486871e+001,-5.30526266456956e-002

2.56685179512580e+004,-1.16627488359888e+001,-5.37923403000587e-002

2.60268371088386e+004,-1.16627530379561e+001,-5.45423429343389e-002

2.63901582154578e+004,-1.16627573577982e+001,-5.53027766115701e-002

2.67585510957221e+004,-1.16627617988153e+001,-5.60737853020534e-002

2.71320865489533e+004,-1.16627663643975e+001,-5.68555149301870e-002

2.75108363627948e+004,-1.16627710580314e+001,-5.76481133715633e-002

2.78948733270080e+004,-1.16627758832990e+001,-5.84517305012974e-002

2.82842712474618e+004,-1.16627808438829e+001,-5.92665182028945e-002

2.86791049603164e+004,-1.16627859435679e+001,-6.00926304022253e-002

2.90794503464061e+004,-1.16627911862444e+001,-6.09302230836943e-002

2.94853843458219e+004,-1.16627965759108e+001,-6.17794543251419e-002

2.98969849726987e+004,-1.16628021166763e+001,-6.26404843190526e-002

3.03143313302078e+004,-1.16628078127652e+001,-6.35134753928723e-002

3.07375036257601e+004,-1.16628136685182e+001,-6.43985920456235e-002

3.11665831864199e+004,-1.16628196883973e+001,-6.52960009657128e-002

3.16016524745350e+004,-1.16628258769886e+001,-6.62058710560484e-002

3.20427951035848e+004,-1.16628322390042e+001,-6.71283734733793e-002

3.24900958542493e+004,-1.16628387792889e+001,-6.80636816321319e-002

3.29436406907028e+004,-1.16628455028200e+001,-6.90119712567177e-002

3.34035167771346e+004,-1.16628524147141e+001,-6.99734203899554e-002

3.38698124945009e+004,-1.16628595202291e+001,-7.09482094267997e-002

3.43426174575100e+004,-1.16628668247684e+001,-7.19365211433831e-002

3.48220225318448e+004,-1.16628743338857e+001,-7.29385407189539e-002

3.53081198516260e+004,-1.16628820532882e+001,-7.39544557665829e-002

3.58010028371187e+004,-1.16628899888407e+001,-7.49844563637121e-002

3.63007662126863e+004,-1.16628981465707e+001,-7.60287350729576e-002

3.68075060249948e+004,-1.16629065326717e+001,-7.70874869783445e-002

3.73213196614721e+004,-1.16629151535089e+001,-7.81609097062841e-002

3.78423058690237e+004,-1.16629240156228e+001,-7.92492034569245e-002

3.83705647730104e+004,-1.16629331257356e+001,-8.03525710274980e-002

3.89061978964912e+004,-1.16629424907536e+001,-8.14712178501341e-002

3.94493081797342e+004,-1.16629521177743e+001,-8.26053520125367e-002

3.99999999999998e+004,-1.16629620140907e+001,-8.37551842868449e-002

4.05583791916010e+004,-1.16629721871966e+001,-8.49209281615202e-002

4.11245530662425e+004,-1.16629826447923e+001,-8.61027998650129e-002

4.16986304336447e+004,-1.16629933947899e+001,-8.73010183991945e-002

4.22807216224550e+004,-1.16630044453187e+001,-8.85158055652995e-002

4.28709385014515e+004,-1.16630158047318e+001,-8.97473859905517e-002

4.34693945010421e+004,-1.16630274816121e+001,-9.09959871563250e-002

4.40762046350642e+004,-1.16630394847769e+001,-9.22618394327673e-002

4.46914855228886e+004,-1.16630518232864e+001,-9.35451760981843e-002

4.53153554118317e+004,-1.16630645064487e+001,-9.48462333718976e-002

4.59479341998812e+004,-1.16630775438267e+001,-9.61652504425459e-002

4.65893434587380e+004,-1.16630909452447e+001,-9.75024694955934e-002

4.72397064571810e+004,-1.16631047207966e+001,-9.88581357338602e-002

4.78991481847569e+004,-1.16631188808511e+001,-1.00232497419169e-001

4.85677953758016e+004,-1.16631334360604e+001,-1.01625805884988e-001

4.92457765337964e+004,-1.16631483973674e+001,-1.03038315570330e-001

4.99332219560642e+004,-1.16631637760128e+001,-1.04470284048956e-001

5.06302637588109e+004,-1.16631795835442e+001,-1.05921972045945e-001

5.13370359025159e+004,-1.16631958318221e+001,-1.07393643476718e-001

5.20536742176771e+004,-1.16632125330299e+001,-1.08885565463409e-001

5.27803164309155e+004,-1.16632296996830e+001,-1.10398008355861e-001

5.35171021914442e+004,-1.16632473446339e+001,-1.11931245774759e-001

5.42641730979066e+004,-1.16632654810856e+001,-1.13485554612824e-001

5.50216727255895e+004,-1.16632841225970e+001,-1.15061215077129e-001

5.57897466540159e+004,-1.16633032830944e+001,-1.16658510699858e-001

5.65685424949235e+004,-1.16633229768800e+001,-1.18277728367710e-001

5.73582099206328e+004,-1.16633432186415e+001,-1.19919158342544e-001

5.81589006928121e+004,-1.16633640234629e+001,-1.21583094280696e-001

5.89707686916437e+004,-1.16633854068337e+001,-1.23269833254482e-001

5.97939699453972e+004,-1.16634073846603e+001,-1.24979675769502e-001

6.06286626604156e+004,-1.16634299732751e+001,-1.26712925791322e-001

6.14750072515201e+004,-1.16634531894493e+001,-1.28469890752640e-001

6.23331663728396e+004,-1.16634770504023e+001,-1.30250881579509e-001

6.32033049490698e+004,-1.16635015738146e+001,-1.32056212697156e-001

6.40855902071694e+004,-1.16635267778377e+001,-1.33886202058451e-001

6.49801917084985e+004,-1.16635526811076e+001,-1.35741171143054e-001

6.58872813814055e+004,-1.16635793027559e+001,-1.37621444981917e-001

6.68070335542691e+004,-1.16636066624225e+001,-1.39527352159599e-001

6.77396249890018e+004,-1.16636347802684e+001,-1.41459224829809e-001

6.86852349150199e+004,-1.16636636769882e+001,-1.43417398721533e-001

6.96440450636895e+004,-1.16636933738238e+001,-1.45402213145679e-001

7.06162397032520e+004,-1.16637238925771e+001,-1.47414011003039e-001

7.16020056742374e+004,-1.16637552556247e+001,-1.49453138782460e-001

7.26015324253724e+004,-1.16637874859310e+001,-1.51519946569690e-001

7.36150120499896e+004,-1.16638206070632e+001,-1.53614788041604e-001

7.46426393229441e+004,-1.16638546432049e+001,-1.55738020468057e-001

7.56846117380472e+004,-1.16638896191721e+001,-1.57890004705905e-001

7.67411295460207e+004,-1.16639255604278e+001,-1.60071105191909e-001

7.78123957929823e+004,-1.16639624930965e+001,-1.62281689940679e-001

7.88986163594682e+004,-1.16640004439813e+001,-1.64522130525562e-001

7.99999999999995e+004,-1.16640394405792e+001,-1.66792802070393e-001

8.11167583832018e+004,-1.16640795110971e+001,-1.69094083233041e-001

8.22491061324848e+004,-1.16641206844685e+001,-1.71426356189588e-001

8.33972608672892e+004,-1.16641629903705e+001,-1.73790006606320e-001

8.45614432449099e+004,-1.16642064592405e+001,-1.76185423622455e-001

8.57418770029029e+004,-1.16642511222938e+001,-1.78612999820974e-001

8.69387890020841e+004,-1.16642970115409e+001,-1.81073131195674e-001

8.81524092701283e+004,-1.16643441598062e+001,-1.83566217119160e-001

8.93829710457770e+004,-1.16643926007443e+001,-1.86092660310238e-001

9.06307108236633e+004,-1.16644423688604e+001,-1.88652866784845e-001

9.18958683997622e+004,-1.16644934995277e+001,-1.91247245818583e-001

9.31786869174758e+004,-1.16645460290074e+001,-1.93876209889815e-001

9.44794129143618e+004,-1.16645999944658e+001,-1.96540174639031e-001

9.57982963695136e+004,-1.16646554339956e+001,-1.99239558803815e-001

9.71355907516031e+004,-1.16647123866352e+001,-2.01974784154315e-001

9.84915530675926e+004,-1.16647708923871e+001,-2.04746275438410e-001

9.98664439121282e+004,-1.16648309922393e+001,-2.07554460302097e-001

1.01260527517622e+005,-1.16648927281846e+001,-2.10399769217985e-001

1.02674071805032e+005,-1.16649561432421e+001,-2.13282635399842e-001

1.04107348435354e+005,-1.16650212814752e+001,-2.16203494727671e-001

1.05560632861831e+005,-1.16650881880155e+001,-2.19162785640176e-001

1.07034204382888e+005,-1.16651569090808e+001,-2.22160949051730e-001

1.08528346195813e+005,-1.16652274919975e+001,-2.25198428241464e-001

1.10043345451179e+005,-1.16652999852207e+001,-2.28275668746851e-001

1.11579493308032e+005,-1.16653744383560e+001,-2.31393118244723e-001

1.13137084989847e+005,-1.16654509021795e+001,-2.34551226435438e-001

1.14716419841265e+005,-1.16655294286594e+001,-2.37750444910594e-001

1.16317801385624e+005,-1.16656100709776e+001,-2.40991227011812e-001

1.17941537383287e+005,-1.16656928835491e+001,-2.44274027700699e-001

1.19587939890794e+005,-1.16657779220447e+001,-2.47599303393594e-001

1.21257325320831e+005,-1.16658652434106e+001,-2.50967511814984e-001

1.22950014503040e+005,-1.16659549058891e+001,-2.54379111828163e-001

1.24666332745679e+005,-1.16660469690397e+001,-2.57834563257500e-001

1.26406609898139e+005,-1.16661414937591e+001,-2.61334326711168e-001

1.28171180414339e+005,-1.16662385423003e+001,-2.64878863390837e-001

1.29960383416997e+005,-1.16663381782937e+001,-2.68468634887077e-001

1.31774562762811e+005,-1.16664404667656e+001,-2.72104102974469e-001

1.33614067108538e+005,-1.16665454741565e+001,-2.75785729397464e-001

1.35479249978003e+005,-1.16666532683411e+001,-2.79513975634428e-001

1.37370469830040e+005,-1.16667639186445e+001,-2.83289302670709e-001

1.39288090127379e+005,-1.16668774958608e+001,-2.87112170744612e-001

1.41232479406504e+005,-1.16669940722690e+001,-2.90983039096617e-001

1.43204011348474e+005,-1.16671137216492e+001,-2.94902365698723e-001

1.45203064850745e+005,-1.16672365192977e+001,-2.98870606980487e-001

1.47230024099979e+005,-1.16673625420418e+001,-3.02888217537371e-001

1.49285278645888e+005,-1.16674918682523e+001,-3.06955649837252e-001

1.51369223476094e+005,-1.16676245778570e+001,-3.11073353905441e-001

1.53482259092041e+005,-1.16677607523506e+001,-3.15241777009639e-001

1.55624791585964e+005,-1.16679004748063e+001,-3.19461363323171e-001

1.57797232718936e+005,-1.16680438298832e+001,-3.23732553586410e-001

1.59999999999999e+005,-1.16681909038352e+001,-3.28055784745498e-001

1.62233516766403e+005,-1.16683417845156e+001,-3.32431489594770e-001

1.64498212264969e+005,-1.16684965613824e+001,-3.36860096392175e-001

1.66794521734578e+005,-1.16686553255008e+001,-3.41342028470947e-001

1.69122886489819e+005,-1.16688181695442e+001,-3.45877703839315e-001

1.71483754005805e+005,-1.16689851877926e+001,-3.50467534768014e-001

1.73877578004168e+005,-1.16691564761308e+001,-3.55111927362796e-001

1.76304818540256e+005,-1.16693321320419e+001,-3.59811281130600e-001

1.78765942091554e+005,-1.16695122546005e+001,-3.64565988531744e-001

1.81261421647326e+005,-1.16696969444630e+001,-3.69376434516908e-001

1.83791736799524e+005,-1.16698863038546e+001,-3.74242996060683e-001

1.86357373834951e+005,-1.16700804365548e+001,-3.79166041676081e-001

1.88958825828723e+005,-1.16702794478784e+001,-3.84145930925395e-001

1.91596592739027e+005,-1.16704834446555e+001,-3.89183013915782e-001

1.94271181503206e+005,-1.16706925352071e+001,-3.94277630782788e-001

1.96983106135185e+005,-1.16709068293171e+001,-3.99430111172652e-001

1.99732887824256e+005,-1.16711264382023e+001,-4.04640773704383e-001

2.02521055035243e+005,-1.16713514744766e+001,-4.09909925434829e-001

2.05348143610063e+005,-1.16715820521141e+001,-4.15237861301540e-001

2.08214696870707e+005,-1.16718182864059e+001,-4.20624863569588e-001

2.11121265723661e+005,-1.16720602939134e+001,-4.26071201270036e-001

2.14068408765776e+005,-1.16723081924188e+001,-4.31577129621192e-001

2.17056692391625e+005,-1.16725621008685e+001,-4.37142889461459e-001

2.20086690902357e+005,-1.16728221393142e+001,-4.42768706662301e-001

2.23158986616063e+005,-1.16730884288477e+001,-4.48454791549514e-001

2.26274169979693e+005,-1.16733610915315e+001,-4.54201338312779e-001

2.29432839682530e+005,-1.16736402503242e+001,-4.60008524419319e-001

2.32635602771247e+005,-1.16739260289993e+001,-4.65876510030127e-001

2.35883074766574e+005,-1.16742185520608e+001,-4.71805437408166e-001

2.39175879781588e+005,-1.16745179446514e+001,-4.77795430337755e-001

2.42514650641661e+005,-1.16748243324548e+001,-4.83846593547485e-001

2.45900029006080e+005,-1.16751378415932e+001,-4.89959012133942e-001

2.49332665491357e+005,-1.16754585985179e+001,-4.96132750998303e-001

2.52813219796278e+005,-1.16757867298934e+001,-5.02367854290216e-001

2.56342360828676e+005,-1.16761223624759e+001,-5.08664344864415e-001

2.59920766833993e+005,-1.16764656229842e+001,-5.15022223748983e-001

2.63549125525621e+005,-1.16768166379653e+001,-5.21441469630306e-001

2.67228134217075e+005,-1.16771755336516e+001,-5.27922038358644e-001

2.70958499956006e+005,-1.16775424358130e+001,-5.34463862467988e-001

2.74740939660078e+005,-1.16779174696006e+001,-5.41066850725333e-001

2.78576180254757e+005,-1.16783007593845e+001,-5.47730887700852e-001

2.82464958813007e+005,-1.16786924285834e+001,-5.54455833368388e-001

2.86408022696948e+005,-1.16790925994887e+001,-5.61241522737238e-001

2.90406129701488e+005,-1.16795013930804e+001,-5.68087765513612e-001

2.94460048199957e+005,-1.16799189288359e+001,-5.74994345805157e-001

2.98570557291775e+005,-1.16803453245327e+001,-5.81961021862338e-001

3.02738446952187e+005,-1.16807806960435e+001,-5.88987525858170e-001

3.06964518184081e+005,-1.16812251571245e+001,-5.96073563724071e-001

3.11249583171928e+005,-1.16816788191971e+001,-6.03218815026595e-001

3.15594465437872e+005,-1.16821417911233e+001,-6.10422932900848e-001

3.19999999999997e+005,-1.16826141789741e+001,-6.17685544039391e-001

3.24467033532806e+005,-1.16830960857925e+001,-6.25006248740199e-001

3.28996424529938e+005,-1.16835876113497e+001,-6.32384621020350e-001

3.33589043469155e+005,-1.16840888518963e+001,-6.39820208793348e-001

3.38245772979638e+005,-1.16845998999085e+001,-6.47312534115652e-001

3.42967508011610e+005,-1.16851208438278e+001,-6.54861093512259e-001

3.47755156008335e+005,-1.16856517677981e+001,-6.62465358374392e-001

3.52609637080511e+005,-1.16861927513977e+001,-6.70124775436221e-001

3.57531884183106e+005,-1.16867438693671e+001,-6.77838767343350e-001

3.62522843294651e+005,-1.16873051913351e+001,-6.85606733297868e-001

3.67583473599047e+005,-1.16878767815408e+001,-6.93428049802088e-001

3.72714747669902e+005,-1.16884586985551e+001,-7.01302071490304e-001

3.77917651657445e+005,-1.16890509949997e+001,-7.09228132056877e-001

3.83193185478053e+005,-1.16896537172663e+001,-7.17205545285560e-001

3.88542363006410e+005,-1.16902669052353e+001,-7.25233606179043e-001

3.93966212270369e+005,-1.16908905919962e+001,-7.33311592187488e-001

3.99465775648511e+005,-1.16915248035686e+001,-7.41438764550265e-001

4.05042110070485e+005,-1.16921695586268e+001,-7.49614369737842e-001

4.10696287220124e+005,-1.16928248682272e+001,-7.57837641006500e-001

4.16429393741414e+005,-1.16934907355406e+001,-7.66107800058983e-001

4.22242531447321e+005,-1.16941671555892e+001,-7.74424058819254e-001

4.28136817531551e+005,-1.16948541149901e+001,-7.82785621316750e-001

4.34113384783250e+005,-1.16955515917068e+001,-7.91191685680827e-001

4.40173381804713e+005,-1.16962595548082e+001,-7.99641446246527e-001

4.46317973232124e+005,-1.16969779642372e+001,-8.08134095769549e-001

4.52548339959385e+005,-1.16977067705903e+001,-8.16668827750150e-001

4.58865679365059e+005,-1.16984459149080e+001,-8.25244838864799e-001

4.65271205542494e+005,-1.16991953284790e+001,-8.33861331497354e-001

4.71766149533147e+005,-1.16999549326563e+001,-8.42517516380797e-001

4.78351759563174e+005,-1.17007246386905e+001,-8.51212615327486e-001

4.85029301283321e+005,-1.17015043475771e+001,-8.59945864061454e-001

4.91800058012158e+005,-1.17022939499214e+001,-8.68716515138519e-001

4.98665330982714e+005,-1.17030933258220e+001,-8.77523840949846e-001

5.05626439592555e+005,-1.17039023447724e+001,-8.86367136809523e-001

5.12684721657352e+005,-1.17047208655829e+001,-8.95245724113302e-001

5.19841533667984e+005,-1.17055487363238e+001,-9.04158953567179e-001

5.27098251051240e+005,-1.17063857942900e+001,-9.13106208473404e-001

5.34456268434150e+005,-1.17072318659882e+001,-9.22086908073599e-001

5.41916999912011e+005,-1.17080867671476e+001,-9.31100510936628e-001

