Freq.,VOut,OutRef

1.00000000000000e+004,-9.29545410989611e+000,-1.17357003588449e-001

1.01395947979003e+004,-9.29545417509970e+000,-1.18995233614579e-001

1.02811382665607e+004,-9.29545424213509e+000,-1.20656331939914e-001

1.04246576084112e+004,-9.29545431105363e+000,-1.22340617771519e-001

1.05701804056138e+004,-9.29545438190822e+000,-1.24048414770577e-001

1.07177346253629e+004,-9.29545445475276e+000,-1.25780051118818e-001

1.08673486252606e+004,-9.29545452964357e+000,-1.27535859572254e-001

1.10190511587661e+004,-9.29545460663796e+000,-1.29316177534427e-001

1.11728713807222e+004,-9.29545468579488e+000,-1.31121347117910e-001

1.13288388529580e+004,-9.29545476717509e+000,-1.32951715208274e-001

1.14869835499703e+004,-9.29545485084079e+000,-1.34807633534431e-001

1.16473358646846e+004,-9.29545493685625e+000,-1.36689458731382e-001

1.18099266142953e+004,-9.29545502528736e+000,-1.38597552412476e-001

1.19747870461893e+004,-9.29545511620219e+000,-1.40532281235800e-001

1.21419488439505e+004,-9.29545520966991e+000,-1.42494016980692e-001

1.23114441334492e+004,-9.29545530576235e+000,-1.44483136610960e-001

1.24833054890161e+004,-9.29545540455325e+000,-1.46500022351368e-001

1.26575659397028e+004,-9.29545550611807e+000,-1.48545061762560e-001

1.28342589756290e+004,-9.29545561053474e+000,-1.50618647811952e-001

1.30134185544193e+004,-9.29545571788336e+000,-1.52721178950361e-001

1.31950791077289e+004,-9.29545582824583e+000,-1.54853059191688e-001

1.33792755478611e+004,-9.29545594170695e+000,-1.57014698184153e-001

1.35660432744767e+004,-9.29545605835328e+000,-1.59206511295721e-001

1.37554181813974e+004,-9.29545617827445e+000,-1.61428919687137e-001

1.39474366635040e+004,-9.29545630156196e+000,-1.63682350399478e-001

1.41421356237309e+004,-9.29545642831036e+000,-1.65967236430018e-001

1.43395524801583e+004,-9.29545655861677e+000,-1.68284016818365e-001

1.45397251732031e+004,-9.29545669258056e+000,-1.70633136733430e-001

1.47426921729110e+004,-9.29545683030450e+000,-1.73015047551644e-001

1.49484924863494e+004,-9.29545697189379e+000,-1.75430206950577e-001

1.51571656651040e+004,-9.29545711745689e+000,-1.77879078991793e-001

1.53687518128801e+004,-9.29545726710491e+000,-1.80362134214562e-001

1.55832915932100e+004,-9.29545742095238e+000,-1.82879849721156e-001

1.58008262372675e+004,-9.29545757911705e+000,-1.85432709270896e-001

1.60213975517924e+004,-9.29545774171975e+000,-1.88021203373719e-001

1.62450479271247e+004,-9.29545790888463e+000,-1.90645829383964e-001

1.64718203453514e+004,-9.29545808073953e+000,-1.93307091593287e-001

1.67017583885674e+004,-9.29545825741571e+000,-1.96005501330494e-001

1.69349062472505e+004,-9.29545843904820e+000,-1.98741577057580e-001

1.71713087287550e+004,-9.29545862577571e+000,-2.01515844469826e-001

1.74110112659224e+004,-9.29545881774079e+000,-2.04328836597290e-001

1.76540599258131e+004,-9.29545901509025e+000,-2.07181093904621e-001

1.79005014185594e+004,-9.29545921797426e+000,-2.10073164400348e-001

1.81503831063432e+004,-9.29545942654809e+000,-2.13005603732696e-001

1.84037530124975e+004,-9.29545964097063e+000,-2.15978975305924e-001

1.86606598307361e+004,-9.29545986140554e+000,-2.18993850380949e-001

1.89211529345119e+004,-9.29546008802104e+000,-2.22050808188258e-001

1.91852823865052e+004,-9.29546032098973e+000,-2.25150436039941e-001

1.94530989482457e+004,-9.29546056048949e+000,-2.28293329437274e-001

1.97246540898671e+004,-9.29546080670259e+000,-2.31480092192272e-001

1.99999999999999e+004,-9.29546105981689e+000,-2.34711336535288e-001

2.02791895958005e+004,-9.29546132002497e+000,-2.37987683240039e-001

2.05622765331213e+004,-9.29546158752508e+000,-2.41309761736299e-001

2.08493152168224e+004,-9.29546186252111e+000,-2.44678210232250e-001

2.11403608112276e+004,-9.29546214522203e+000,-2.48093675840959e-001

2.14354692507258e+004,-9.29546243584330e+000,-2.51556814696633e-001

2.17346972505211e+004,-9.29546273460581e+000,-2.55068292087635e-001

2.20381023175322e+004,-9.29546304173697e+000,-2.58628782577992e-001

2.23457427614443e+004,-9.29546335747007e+000,-2.62238970142062e-001

2.26576777059159e+004,-9.29546368204519e+000,-2.65899548290283e-001

2.29739670999406e+004,-9.29546401570894e+000,-2.69611220205424e-001

2.32946717293690e+004,-9.29546435871487e+000,-2.73374698874671e-001

2.36198532285905e+004,-9.29546471132321e+000,-2.77190707229720e-001

2.39495740923785e+004,-9.29546507380184e+000,-2.81059978279976e-001

2.42838976879009e+004,-9.29546544642572e+000,-2.84983255257439e-001

2.46228882668982e+004,-9.29546582947747e+000,-2.88961291756701e-001

2.49666109780322e+004,-9.29546622324746e+000,-2.92994851879811e-001

2.53151318794055e+004,-9.29546662803420e+000,-2.97084710381168e-001

2.56685179512580e+004,-9.29546704414435e+000,-3.01231652816899e-001

2.60268371088386e+004,-9.29546747189310e+000,-3.05436475694442e-001

2.63901582154578e+004,-9.29546791160412e+000,-3.09699986626149e-001

2.67585510957221e+004,-9.29546836361019e+000,-3.14023004481255e-001

2.71320865489533e+004,-9.29546882825308e+000,-3.18406359545059e-001

2.75108363627948e+004,-9.29546930588406e+000,-3.22850893675252e-001

2.78948733270080e+004,-9.29546979686418e+000,-3.27357460463069e-001

2.82842712474618e+004,-9.29547030156402e+000,-3.31926925399103e-001

2.86791049603164e+004,-9.29547082036466e+000,-3.36560166034951e-001

2.90794503464061e+004,-9.29547135365740e+000,-3.41258072153309e-001

2.94853843458219e+004,-9.29547190184446e+000,-3.46021545935886e-001

2.98969849726987e+004,-9.29547246533898e+000,-3.50851502137209e-001

3.03143313302078e+004,-9.29547304456533e+000,-3.55748868259094e-001

3.07375036257601e+004,-9.29547363995948e+000,-3.60714584726693e-001

3.11665831864199e+004,-9.29547425196943e+000,-3.65749605068488e-001

3.16016524745350e+004,-9.29547488105532e+000,-3.70854896097810e-001

3.20427951035848e+004,-9.29547552768977e+000,-3.76031438098365e-001

3.24900958542493e+004,-9.29547619235832e+000,-3.81280225009791e-001

3.29436406907028e+004,-9.29547687555977e+000,-3.86602264617352e-001

3.34035167771346e+004,-9.29547757780637e+000,-3.91998578744880e-001

3.38698124945009e+004,-9.29547829962428e+000,-3.97470203448466e-001

3.43426174575100e+004,-9.29547904155406e+000,-4.03018189214390e-001

3.48220225318448e+004,-9.29547980415080e+000,-4.08643601158430e-001

3.53081198516260e+004,-9.29548058798466e+000,-4.14347519230262e-001

3.58010028371187e+004,-9.29548139364115e+000,-4.20131038417361e-001

3.63007662126863e+004,-9.29548222172172e+000,-4.25995268953612e-001

3.68075060249948e+004,-9.29548307284381e+000,-4.31941336532243e-001

3.73213196614721e+004,-9.29548394764177e+000,-4.37970382517014e-001

3.78423058690237e+004,-9.29548484676666e+000,-4.44083564162918e-001

3.83705647730104e+004,-9.29548577088751e+000,-4.50282054831194e-001

3.89061978964912e+004,-9.29548672069086e+000,-4.56567044217985e-001

3.94493081797342e+004,-9.29548769688181e+000,-4.62939738575975e-001

3.99999999999998e+004,-9.29548870018441e+000,-4.69401360945078e-001

4.05583791916010e+004,-9.29548973134185e+000,-4.75953151385691e-001

4.11245530662425e+004,-9.29549079111732e+000,-4.82596367211499e-001

4.16986304336447e+004,-9.29549188029438e+000,-4.89332283229556e-001

4.22807216224550e+004,-9.29549299967705e+000,-4.96162191984171e-001

4.28709385014515e+004,-9.29549415009120e+000,-5.03087403996067e-001

4.34693945010421e+004,-9.29549533238430e+000,-5.10109248016899e-001

4.40762046350642e+004,-9.29549654742622e+000,-5.17229071277967e-001

4.46914855228886e+004,-9.29549779610981e+000,-5.24448239745912e-001

4.53153554118317e+004,-9.29549907935155e+000,-5.31768138380613e-001

4.59479341998812e+004,-9.29550039809197e+000,-5.39190171398044e-001

4.65893434587380e+004,-9.29550175329617e+000,-5.46715762536448e-001

4.72397064571810e+004,-9.29550314595484e+000,-5.54346355322571e-001

4.78991481847569e+004,-9.29550457708408e+000,-5.62083413349646e-001

4.85677953758016e+004,-9.29550604772698e+000,-5.69928420547672e-001

4.92457765337964e+004,-9.29550755895350e+000,-5.77882881468192e-001

4.99332219560642e+004,-9.29550911186134e+000,-5.85948321567083e-001

5.06302637588109e+004,-9.29551070757675e+000,-5.94126287490592e-001

5.13370359025159e+004,-9.29551234725496e+000,-6.02418347369184e-001

5.20536742176771e+004,-9.29551403208113e+000,-6.10826091110876e-001

5.27803164309155e+004,-9.29551576327060e+000,-6.19351130702922e-001

5.35171021914442e+004,-9.29551754207004e+000,-6.27995100513170e-001

5.42641730979066e+004,-9.29551936975799e+000,-6.36759657598261e-001

5.50216727255895e+004,-9.29552124764536e+000,-6.45646482016083e-001

5.57897466540159e+004,-9.29552317707641e+000,-6.54657277140326e-001

5.65685424949235e+004,-9.29552515942948e+000,-6.63793769980275e-001

5.73582099206328e+004,-9.29552719611768e+000,-6.73057711504791e-001

5.81589006928121e+004,-9.29552928858956e+000,-6.82450876972391e-001

5.89707686916437e+004,-9.29553143832995e+000,-6.91975066262014e-001

5.97939699453972e+004,-9.29553364686072e+000,-7.01632104211222e-001

6.06286626604156e+004,-9.29553591574157e+000,-7.11423840957363e-001

6.14750072515201e+004,-9.29553824657101e+000,-7.21352152282580e-001

6.23331663728396e+004,-9.29554064098651e+000,-7.31418939967959e-001

6.32033049490698e+004,-9.29554310066621e+000,-7.41626132143642e-001

6.40855902071694e+004,-9.29554562732889e+000,-7.51975683653696e-001

6.49801917084985e+004,-9.29554822273548e+000,-7.62469576416213e-001

6.58872813814055e+004,-9.29555088868921e+000,-7.73109819796524e-001

6.68070335542691e+004,-9.29555362703699e+000,-7.83898450978681e-001

6.77396249890018e+004,-9.29555643966995e+000,-7.94837535345316e-001

6.86852349150199e+004,-9.29555932852413e+000,-8.05929166862884e-001

6.96440450636895e+004,-9.29556229558162e+000,-8.17175468468042e-001

7.06162397032520e+004,-9.29556534287120e+000,-8.28578592463652e-001

7.16020056742374e+004,-9.29556847246929e+000,-8.40140720916165e-001

7.26015324253724e+004,-9.29557168650034e+000,-8.51864066062565e-001

7.36150120499896e+004,-9.29557498713820e+000,-8.63750870716588e-001

7.46426393229441e+004,-9.29557837660659e+000,-8.75803408685173e-001

7.56846117380472e+004,-9.29558185717980e+000,-8.88023985188802e-001

7.67411295460207e+004,-9.29558543118394e+000,-9.00414937284646e-001

7.78123957929823e+004,-9.29558910099692e+000,-9.12978634300939e-001

7.88986163594682e+004,-9.29559286905008e+000,-9.25717478269360e-001

7.99999999999995e+004,-9.29559673782815e+000,-9.38633904370307e-001

8.11167583832018e+004,-9.29560070987039e+000,-9.51730381378248e-001

8.22491061324848e+004,-9.29560478777124e+000,-9.65009412115342e-001

8.33972608672892e+004,-9.29560897418079e+000,-9.78473533910739e-001

8.45614432449099e+004,-9.29561327180558e+000,-9.92125319064744e-001

8.57418770029029e+004,-9.29561768340900e+000,-1.00596737532021e+000

8.69387890020841e+004,-9.29562221181208e+000,-1.02000234633789e+000

8.81524092701283e+004,-9.29562685989384e+000,-1.03423291217888e+000

8.93829710457770e+004,-9.29563163059184e+000,-1.04866178979436e+000

9.06307108236633e+004,-9.29563652690241e+000,-1.06329173351926e+000

9.18958683997622e+004,-9.29564155188140e+000,-1.07812553557242e+000

9.31786869174758e+004,-9.29564670864405e+000,-1.09316602656455e+000

9.44794129143618e+004,-9.29565200036551e+000,-1.10841607601140e+000

9.57982963695136e+004,-9.29565743028095e+000,-1.12387859285213e+000

9.71355907516031e+004,-9.29566300168572e+000,-1.13955652597659e+000

9.84915530675926e+004,-9.29566871793508e+000,-1.15545286475818e+000

9.98664439121282e+004,-9.29567458244455e+000,-1.17157063959084e+000

1.01260527517622e+005,-9.29568059868948e+000,-1.18791292243676e+000

1.02674071805032e+005,-9.29568677020478e+000,-1.20448282737754e+000

1.04107348435354e+005,-9.29569310058484e+000,-1.22128351117315e+000

1.05560632861831e+005,-9.29569959348246e+000,-1.23831817382968e+000

1.07034204382888e+005,-9.29570625260890e+000,-1.25559005916931e+000

1.08528346195813e+005,-9.29571308173263e+000,-1.27310245541196e+000

1.10043345451179e+005,-9.29572008467873e+000,-1.29085869576129e+000

1.11579493308032e+005,-9.29572726532763e+000,-1.30886215899879e+000

1.13137084989847e+005,-9.29573462761393e+000,-1.32711627008534e+000

1.14716419841265e+005,-9.29574217552531e+000,-1.34562450076735e+000

1.16317801385624e+005,-9.29574991310044e+000,-1.36439037019523e+000

1.17941537383287e+005,-9.29575784442752e+000,-1.38341744554451e+000

1.19587939890794e+005,-9.29576597364225e+000,-1.40270934264647e+000

1.21257325320831e+005,-9.29577430492559e+000,-1.42226972662629e+000

1.22950014503040e+005,-9.29578284250123e+000,-1.44210231254924e+000

1.24666332745679e+005,-9.29579159063293e+000,-1.46221086607256e+000

1.26406609898139e+005,-9.29580055362145e+000,-1.48259920410871e+000

1.28171180414339e+005,-9.29580973580144e+000,-1.50327119549217e+000

1.29960383416997e+005,-9.29581914153759e+000,-1.52423076165797e+000

1.31774562762811e+005,-9.29582877522101e+000,-1.54548187732570e+000

1.33614067108538e+005,-9.29583864126460e+000,-1.56702857119397e+000

1.35479249978003e+005,-9.29584874409884e+000,-1.58887492664031e+000

1.37370469830040e+005,-9.29585908816637e+000,-1.61102508243291e+000

1.39288090127379e+005,-9.29586967791703e+000,-1.63348323344634e+000

1.41232479406504e+005,-9.29588051780146e+000,-1.65625363139169e+000

1.43204011348474e+005,-9.29589161226526e+000,-1.67934058554916e+000

1.45203064850745e+005,-9.29590296574206e+000,-1.70274846351402e+000

1.47230024099979e+005,-9.29591458264607e+000,-1.72648169194977e+000

1.49285278645888e+005,-9.29592646736448e+000,-1.75054475735025e+000

1.51369223476094e+005,-9.29593862424897e+000,-1.77494220681066e+000

1.53482259092041e+005,-9.29595105760676e+000,-1.79967864880951e+000

1.55624791585964e+005,-9.29596377169110e+000,-1.82475875399761e+000

1.57797232718936e+005,-9.29597677069081e+000,-1.85018725599904e+000

1.59999999999999e+005,-9.29599005871956e+000,-1.87596895222058e+000

1.62233516766403e+005,-9.29600363980403e+000,-1.90210870467122e+000

1.64498212264969e+005,-9.29601751787174e+000,-1.92861144079077e+000

1.66794521734578e+005,-9.29603169673765e+000,-1.95548215429201e+000

1.69122886489819e+005,-9.29604618009020e+000,-1.98272590600893e+000

1.71483754005805e+005,-9.29606097147635e+000,-2.01034782475986e+000

1.73877578004168e+005,-9.29607607428582e+000,-2.03835310821770e+000

1.76304818540256e+005,-9.29609149173429e+000,-2.06674702379383e+000

1.78765942091554e+005,-9.29610722684568e+000,-2.09553490953266e+000

1.81261421647326e+005,-9.29612328243329e+000,-2.12472217501678e+000

1.83791736799524e+005,-9.29613966107985e+000,-2.15431430228586e+000

1.86357373834951e+005,-9.29615636511653e+000,-2.18431684676572e+000

1.88958825828723e+005,-9.29617339660066e+000,-2.21473543821140e+000

1.91596592739027e+005,-9.29619075729249e+000,-2.24557578166056e+000

1.94271181503206e+005,-9.29620844862995e+000,-2.27684365840366e+000

1.96983106135185e+005,-9.29622647170321e+000,-2.30854492696258e+000

1.99732887824256e+005,-9.29624482722646e+000,-2.34068552408871e+000

2.02521055035243e+005,-9.29626351550961e+000,-2.37327146576875e+000

2.05348143610063e+005,-9.29628253642736e+000,-2.40630884825064e+000

2.08214696870707e+005,-9.29630188938754e+000,-2.43980384907995e+000

2.11121265723661e+005,-9.29632157329720e+000,-2.47376272815473e+000

2.14068408765776e+005,-9.29634158652744e+000,-2.50819182879385e+000

2.17056692391625e+005,-9.29636192687621e+000,-2.54309757882321e+000

2.20086690902357e+005,-9.29638259152962e+000,-2.57848649167712e+000

2.23158986616063e+005,-9.29640357702103e+000,-2.61436516751795e+000

2.26274169979693e+005,-9.29642487918857e+000,-2.65074029437269e+000

2.29432839682530e+005,-9.29644649313023e+000,-2.68761864928968e+000

2.32635602771247e+005,-9.29646841315739e+000,-2.72500709951107e+000

2.35883074766574e+005,-9.29649063274595e+000,-2.76291260366791e+000

2.39175879781588e+005,-9.29651314448525e+000,-2.80134221299417e+000

2.42514650641661e+005,-9.29653594002498e+000,-2.84030307256130e+000

2.45900029006080e+005,-9.29655901001953e+000,-2.87980242253497e+000

2.49332665491357e+005,-9.29658234407031e+000,-2.91984759945381e+000

2.52813219796278e+005,-9.29660593066513e+000,-2.96044603753273e+000

2.56342360828676e+005,-9.29662975711575e+000,-3.00160526998742e+000

2.59920766833993e+005,-9.29665380949250e+000,-3.04333293038637e+000

2.63549125525621e+005,-9.29667807255633e+000,-3.08563675402687e+000

2.67228134217075e+005,-9.29670252968840e+000,-3.12852457933881e+000

2.70958499956006e+005,-9.29672716281683e+000,-3.17200434931515e+000

2.74740939660078e+005,-9.29675195234068e+000,-3.21608411297179e+000

2.78576180254757e+005,-9.29677687705154e+000,-3.26077202683541e+000

2.82464958813007e+005,-9.29680191405176e+000,-3.30607635646413e+000

2.86408022696948e+005,-9.29682703867019e+000,-3.35200547799838e+000

2.90406129701488e+005,-9.29685222437499e+000,-3.39856787974452e+000

2.94460048199957e+005,-9.29687744268326e+000,-3.44577216379398e+000

2.98570557291775e+005,-9.29690266306837e+000,-3.49362704767443e+000

3.02738446952187e+005,-9.29692785286348e+000,-3.54214136604163e+000

3.06964518184081e+005,-9.29695297716295e+000,-3.59132407240455e+000

3.11249583171928e+005,-9.29697799872003e+000,-3.64118424089226e+000

3.15594465437872e+005,-9.29700287784223e+000,-3.69173106805961e+000

3.19999999999997e+005,-9.29702757228333e+000,-3.74297387473475e+000

3.24467033532806e+005,-9.29705203713256e+000,-3.79492210790902e+000

3.28996424529938e+005,-9.29707622470083e+000,-3.84758534267227e+000

3.33589043469155e+005,-9.29710008440435e+000,-3.90097328419059e+000

3.38245772979638e+005,-9.29712356264473e+000,-3.95509576973556e+000

3.42967508011610e+005,-9.29714660268717e+000,-4.00996277075671e+000

3.47755156008335e+005,-9.29716914453515e+000,-4.06558439500725e+000

3.52609637080511e+005,-9.29719112480276e+000,-4.12197088871939e+000

3.57531884183106e+005,-9.29721247658446e+000,-4.17913263883165e+000

3.62522843294651e+005,-9.29723312932233e+000,-4.23708017527107e+000

3.67583473599047e+005,-9.29725300867049e+000,-4.29582417328942e+000

3.72714747669902e+005,-9.29727203635788e+000,-4.35537545585658e+000

3.77917651657445e+005,-9.29729013004810e+000,-4.41574499611169e+000

3.83193185478053e+005,-9.29730720319771e+000,-4.47694391987295e+000

3.88542363006410e+005,-9.29732316491231e+000,-4.53898350820786e+000

3.93966212270369e+005,-9.29733791980065e+000,-4.60187520006604e+000

3.99465775648511e+005,-9.29735136782733e+000,-4.66563059497357e+000

4.05042110070485e+005,-9.29736340416392e+000,-4.73026145579119e+000

4.10696287220124e+005,-9.29737391903854e+000,-4.79577971153903e+000

4.16429393741414e+005,-9.29738279758436e+000,-4.86219746028562e+000

4.22242531447321e+005,-9.29738991968718e+000,-4.92952697210485e+000

4.28136817531551e+005,-9.29739515983191e+000,-4.99778069210069e+000

4.34113384783250e+005,-9.29739838694882e+000,-5.06697124349961e+000

4.40173381804713e+005,-9.29739946425886e+000,-5.13711143081417e+000

4.46317973232124e+005,-9.29739824911908e+000,-5.20821424307489e+000

4.52548339959385e+005,-9.29739459286785e+000,-5.28029285713384e+000

4.58865679365059e+005,-9.29738834067042e+000,-5.35336064103788e+000

4.65271205542494e+005,-9.29737933136447e+000,-5.42743115747522e+000

4.71766149533147e+005,-9.29736739730666e+000,-5.50251816729168e+000

4.78351759563174e+005,-9.29735236421947e+000,-5.57863563308020e+000

4.85029301283321e+005,-9.29733405103947e+000,-5.65579772284102e+000

4.91800058012158e+005,-9.29731226976646e+000,-5.73401881371332e+000

4.98665330982714e+005,-9.29728682531385e+000,-5.81331349578044e+000

5.05626439592555e+005,-9.29725751536077e+000,-5.89369657594433e+000

5.12684721657352e+005,-9.29722413020576e+000,-5.97518308187150e+000

5.19841533667984e+005,-9.29718645262225e+000,-6.05778826600890e+000

5.27098251051240e+005,-9.29714425771582e+000,-6.14152760967184e+000

5.34456268434150e+005,-9.29709731278407e+000,-6.22641682719692e+000

5.41916999912011e+005,-9.29704537717806e+000,-6.31247187016783e+000

