Freq.,VOut,OutRef

1.00000000000000e+004,-2.51355892756697e+001,-3.60118074860146e-001

1.01395947979003e+004,-2.51355914876894e+001,-3.65145061175884e-001

1.02811382665607e+004,-2.51355937618914e+001,-3.70242218434847e-001

1.04246576084112e+004,-2.51355961000235e+001,-3.75410526052199e-001

1.05701804056138e+004,-2.51355985038826e+001,-3.80650977109990e-001

1.07177346253629e+004,-2.51356009753162e+001,-3.85964578547063e-001

1.08673486252606e+004,-2.51356035162237e+001,-3.91352351351083e-001

1.10190511587661e+004,-2.51356061285578e+001,-3.96815330757308e-001

1.11728713807222e+004,-2.51356088143260e+001,-4.02354566446079e-001

1.13288388529580e+004,-2.51356115755925e+001,-4.07971122741127e-001

1.14869835499703e+004,-2.51356144144792e+001,-4.13666078819165e-001

1.16473358646846e+004,-2.51356173331679e+001,-4.19440528912110e-001

1.18099266142953e+004,-2.51356203339015e+001,-4.25295582518786e-001

1.19747870461893e+004,-2.51356234189859e+001,-4.31232364619731e-001

1.21419488439505e+004,-2.51356265907920e+001,-4.37252015888274e-001

1.23114441334492e+004,-2.51356298517573e+001,-4.43355692913379e-001

1.24833054890161e+004,-2.51356332043874e+001,-4.49544568420777e-001

1.26575659397028e+004,-2.51356366512588e+001,-4.55819831495165e-001

1.28342589756290e+004,-2.51356401950202e+001,-4.62182687811249e-001

1.30134185544193e+004,-2.51356438383947e+001,-4.68634359862861e-001

1.31950791077289e+004,-2.51356475841818e+001,-4.75176087199394e-001

1.33792755478611e+004,-2.51356514352597e+001,-4.81809126661333e-001

1.35660432744767e+004,-2.51356553945878e+001,-4.88534752621350e-001

1.37554181813974e+004,-2.51356594652083e+001,-4.95354257229599e-001

1.39474366635040e+004,-2.51356636502488e+001,-5.02268950661969e-001

1.41421356237309e+004,-2.51356679529250e+001,-5.09280161367956e-001

1.43395524801583e+004,-2.51356723765428e+001,-5.16389236328783e-001

1.45397251732031e+004,-2.51356769245011e+001,-5.23597541313962e-001

1.47426921729110e+004,-2.51356816002941e+001,-5.30906461141710e-001

1.49484924863494e+004,-2.51356864075144e+001,-5.38317399946527e-001

1.51571656651040e+004,-2.51356913498551e+001,-5.45831781448021e-001

1.53687518128801e+004,-2.51356964311136e+001,-5.53451049219591e-001

1.55832915932100e+004,-2.51357016551936e+001,-5.61176666970130e-001

1.58008262372675e+004,-2.51357070261084e+001,-5.69010118822647e-001

1.60213975517924e+004,-2.51357125479843e+001,-5.76952909596040e-001

1.62450479271247e+004,-2.51357182250633e+001,-5.85006565096372e-001

1.64718203453514e+004,-2.51357240617066e+001,-5.93172632406556e-001

1.67017583885674e+004,-2.51357300623978e+001,-6.01452680184488e-001

1.69349062472505e+004,-2.51357362317465e+001,-6.09848298961493e-001

1.71713087287550e+004,-2.51357425744919e+001,-6.18361101447311e-001

1.74110112659224e+004,-2.51357490955060e+001,-6.26992722839752e-001

1.76540599258131e+004,-2.51357557997978e+001,-6.35744821135835e-001

1.79005014185594e+004,-2.51357626925169e+001,-6.44619077449466e-001

1.81503831063432e+004,-2.51357697789576e+001,-6.53617196333919e-001

1.84037530124975e+004,-2.51357770645628e+001,-6.62740906106000e-001

1.86606598307361e+004,-2.51357845549280e+001,-6.71991959178886e-001

1.89211529345119e+004,-2.51357922558062e+001,-6.81372132394920e-001

1.91852823865052e+004,-2.51358001731118e+001,-6.90883227365914e-001

1.94530989482457e+004,-2.51358083129251e+001,-7.00527070818612e-001

1.97246540898671e+004,-2.51358166814972e+001,-7.10305514942159e-001

1.99999999999999e+004,-2.51358252852547e+001,-7.20220437743247e-001

2.02791895958005e+004,-2.51358341308046e+001,-7.30273743404001e-001

2.05622765331213e+004,-2.51358432249393e+001,-7.40467362645873e-001

2.08493152168224e+004,-2.51358525746420e+001,-7.50803253099053e-001

2.11403608112276e+004,-2.51358621870918e+001,-7.61283399674635e-001

2.14354692507258e+004,-2.51358720696693e+001,-7.71909814946081e-001

2.17346972505211e+004,-2.51358822299624e+001,-7.82684539529758e-001

2.20381023175322e+004,-2.51358926757716e+001,-7.93609642478732e-001

2.23457427614443e+004,-2.51359034151167e+001,-8.04687221673671e-001

2.26576777059159e+004,-2.51359144562423e+001,-8.15919404224342e-001

2.29739670999406e+004,-2.51359258076246e+001,-8.27308346876092e-001

2.32946717293690e+004,-2.51359374779772e+001,-8.38856236420779e-001

2.36198532285905e+004,-2.51359494762586e+001,-8.50565290112053e-001

2.39495740923785e+004,-2.51359618116785e+001,-8.62437756090463e-001

2.42838976879009e+004,-2.51359744937048e+001,-8.74475913809505e-001

2.46228882668982e+004,-2.51359875320714e+001,-8.86682074470578e-001

2.49666109780322e+004,-2.51360009367847e+001,-8.99058581464427e-001

2.53151318794055e+004,-2.51360147181323e+001,-9.11607810815295e-001

2.56685179512580e+004,-2.51360288866900e+001,-9.24332171634316e-001

2.60268371088386e+004,-2.51360434533303e+001,-9.37234106578095e-001

2.63901582154578e+004,-2.51360584292306e+001,-9.50316092312702e-001

2.67585510957221e+004,-2.51360738258818e+001,-9.63580639984790e-001

2.71320865489533e+004,-2.51360896550969e+001,-9.77030295699636e-001

2.75108363627948e+004,-2.51361059290201e+001,-9.90667641004498e-001

2.78948733270080e+004,-2.51361226601362e+001,-1.00449529337967e+000

2.82842712474618e+004,-2.51361398612798e+001,-1.01851590673491e+000

2.86791049603164e+004,-2.51361575456454e+001,-1.03273217191393e+000

2.90794503464061e+004,-2.51361757267972e+001,-1.04714681720565e+000

2.94853843458219e+004,-2.51361944186797e+001,-1.06176260886029e+000

2.98969849726987e+004,-2.51362136356280e+001,-1.07658235161648e+000

3.03143313302078e+004,-2.51362333923792e+001,-1.09160888923037e+000

3.07375036257601e+004,-2.51362537040829e+001,-1.10684510501739e+000

3.11665831864199e+004,-2.51362745863135e+001,-1.12229392239621e+000

3.16016524745350e+004,-2.51362960550813e+001,-1.13795830544428e+000

3.20427951035848e+004,-2.51363181268454e+001,-1.15384125945821e+000

3.24900958542493e+004,-2.51363408185257e+001,-1.16994583152151e+000

3.29436406907028e+004,-2.51363641475160e+001,-1.18627511108346e+000

3.34035167771346e+004,-2.51363881316970e+001,-1.20283223054128e+000

3.38698124945009e+004,-2.51364127894503e+001,-1.21962036583218e+000

3.43426174575100e+004,-2.51364381396719e+001,-1.23664273703434e+000

3.48220225318448e+004,-2.51364642017868e+001,-1.25390260897422e+000

3.53081198516260e+004,-2.51364909957634e+001,-1.27140329184354e+000

3.58010028371187e+004,-2.51365185421295e+001,-1.28914814182192e+000

3.63007662126863e+004,-2.51365468619867e+001,-1.30714056171137e+000

3.68075060249948e+004,-2.51365759770273e+001,-1.32538400157708e+000

3.73213196614721e+004,-2.51366059095502e+001,-1.34388195939654e+000

3.78423058690237e+004,-2.51366366824783e+001,-1.36263798171846e+000

3.83705647730104e+004,-2.51366683193752e+001,-1.38165566432906e+000

3.89061978964912e+004,-2.51367008444637e+001,-1.40093865292952e+000

3.94493081797342e+004,-2.51367342826434e+001,-1.42049064382032e+000

3.99999999999998e+004,-2.51367686595104e+001,-1.44031538459432e+000

4.05583791916010e+004,-2.51368040013759e+001,-1.46041667484106e+000

4.11245530662425e+004,-2.51368403352862e+001,-1.48079836685946e+000

4.16986304336447e+004,-2.51368776890435e+001,-1.50146436637823e+000

4.22807216224550e+004,-2.51369160912266e+001,-1.52241863328868e+000

4.28709385014515e+004,-2.51369555712124e+001,-1.54366518238515e+000

4.34693945010421e+004,-2.51369961591982e+001,-1.56520808411533e+000

4.40762046350642e+004,-2.51370378862243e+001,-1.58705146534180e+000

4.46914855228886e+004,-2.51370807841974e+001,-1.60919951011140e+000

4.53153554118317e+004,-2.51371248859148e+001,-1.63165646043595e+000

4.59479341998812e+004,-2.51371702250889e+001,-1.65442661708341e+000

4.65893434587380e+004,-2.51372168363723e+001,-1.67751434037879e+000

4.72397064571810e+004,-2.51372647553844e+001,-1.70092405101450e+000

4.78991481847569e+004,-2.51373140187376e+001,-1.72466023087270e+000

4.85677953758016e+004,-2.51373646640651e+001,-1.74872742385869e+000

4.92457765337964e+004,-2.51374167300489e+001,-1.77313023674210e+000

4.99332219560642e+004,-2.51374702564489e+001,-1.79787334001275e+000

5.06302637588109e+004,-2.51375252841324e+001,-1.82296146874389e+000

5.13370359025159e+004,-2.51375818551053e+001,-1.84839942346890e+000

5.20536742176771e+004,-2.51376400125426e+001,-1.87419207106928e+000

5.27803164309155e+004,-2.51376998008214e+001,-1.90034434567158e+000

5.35171021914442e+004,-2.51377612655537e+001,-1.92686124955733e+000

5.42641730979066e+004,-2.51378244536203e+001,-1.95374785408564e+000

5.50216727255895e+004,-2.51378894132059e+001,-1.98100930062512e+000

5.57897466540159e+004,-2.51379561938349e+001,-2.00865080149867e+000

5.65685424949235e+004,-2.51380248464083e+001,-2.03667764093986e+000

5.73582099206328e+004,-2.51380954232414e+001,-2.06509517606200e+000

5.81589006928121e+004,-2.51381679781027e+001,-2.09390883783815e+000

5.89707686916437e+004,-2.51382425662536e+001,-2.12312413209407e+000

5.97939699453972e+004,-2.51383192444896e+001,-2.15274664051337e+000

6.06286626604156e+004,-2.51383980711822e+001,-2.18278202165443e+000

6.14750072515201e+004,-2.51384791063219e+001,-2.21323601198094e+000

6.23331663728396e+004,-2.51385624115629e+001,-2.24411442690408e+000

6.32033049490698e+004,-2.51386480502680e+001,-2.27542316183807e+000

6.40855902071694e+004,-2.51387360875557e+001,-2.30716819326806e+000

6.49801917084985e+004,-2.51388265903480e+001,-2.33935557983108e+000

6.58872813814055e+004,-2.51389196274198e+001,-2.37199146341021e+000

6.68070335542691e+004,-2.51390152694487e+001,-2.40508207024233e+000

6.77396249890018e+004,-2.51391135890677e+001,-2.43863371203809e+000

6.86852349150199e+004,-2.51392146609176e+001,-2.47265278711482e+000

6.96440450636895e+004,-2.51393185617022e+001,-2.50714578154600e+000

7.06162397032520e+004,-2.51394253702438e+001,-2.54211927031955e+000

7.16020056742374e+004,-2.51395351675410e+001,-2.57757991851389e+000

7.26015324253724e+004,-2.51396480368275e+001,-2.61353448248533e+000

7.36150120499896e+004,-2.51397640636328e+001,-2.64998981107052e+000

7.46426393229441e+004,-2.51398833358437e+001,-2.68695284680114e+000

7.56846117380472e+004,-2.51400059437690e+001,-2.72443062713455e+000

7.67411295460207e+004,-2.51401319802038e+001,-2.76243028569785e+000

7.78123957929823e+004,-2.51402615404971e+001,-2.80095905354462e+000

7.88986163594682e+004,-2.51403947226204e+001,-2.84002426042840e+000

7.99999999999995e+004,-2.51405316272383e+001,-2.87963333608761e+000

8.11167583832018e+004,-2.51406723577806e+001,-2.91979381154806e+000

8.22491061324848e+004,-2.51408170205168e+001,-2.96051332043688e+000

8.33972608672892e+004,-2.51409657246318e+001,-3.00179960031177e+000

8.45614432449099e+004,-2.51411185823043e+001,-3.04366049400660e+000

8.57418770029029e+004,-2.51412757087862e+001,-3.08610395098935e+000

8.69387890020841e+004,-2.51414372224854e+001,-3.12913802873510e+000

8.81524092701283e+004,-2.51416032450489e+001,-3.17277089411448e+000

8.93829710457770e+004,-2.51417739014499e+001,-3.21701082479676e+000

9.06307108236633e+004,-2.51419493200756e+001,-3.26186621066700e+000

9.18958683997622e+004,-2.51421296328176e+001,-3.30734555525795e+000

9.31786869174758e+004,-2.51423149751654e+001,-3.35345747719805e+000

9.44794129143618e+004,-2.51425054863007e+001,-3.40021071167251e+000

9.57982963695136e+004,-2.51427013091953e+001,-3.44761411190074e+000

9.71355907516031e+004,-2.51429025907110e+001,-3.49567665062771e+000

9.84915530675926e+004,-2.51431094817014e+001,-3.54440742163035e+000

9.98664439121282e+004,-2.51433221371174e+001,-3.59381564123936e+000

1.01260527517622e+005,-2.51435407161140e+001,-3.64391064987482e+000

1.02674071805032e+005,-2.51437653821604e+001,-3.69470191359817e+000

1.04107348435354e+005,-2.51439963031528e+001,-3.74619902567693e+000

1.05560632861831e+005,-2.51442336515296e+001,-3.79841170816634e+000

1.07034204382888e+005,-2.51444776043894e+001,-3.85134981350444e+000

1.08528346195813e+005,-2.51447283436120e+001,-3.90502332612280e+000

1.10043345451179e+005,-2.51449860559821e+001,-3.95944236407027e+000

1.11579493308032e+005,-2.51452509333160e+001,-4.01461718065384e+000

1.13137084989847e+005,-2.51455231725915e+001,-4.07055816609176e+000

1.14716419841265e+005,-2.51458029760802e+001,-4.12727584918249e+000

1.16317801385624e+005,-2.51460905514837e+001,-4.18478089898768e+000

1.17941537383287e+005,-2.51463861120724e+001,-4.24308412652954e+000

1.19587939890794e+005,-2.51466898768274e+001,-4.30219648650303e+000

1.21257325320831e+005,-2.51470020705864e+001,-4.36212907900017e+000

1.22950014503040e+005,-2.51473229241919e+001,-4.42289315125143e+000

1.24666332745679e+005,-2.51476526746438e+001,-4.48450009937900e+000

1.26406609898139e+005,-2.51479915652546e+001,-4.54696147016407e+000

1.28171180414339e+005,-2.51483398458082e+001,-4.61028896282901e+000

1.29960383416997e+005,-2.51486977727231e+001,-4.67449443083122e+000

1.31774562762811e+005,-2.51490656092180e+001,-4.73958988367221e+000

1.33614067108538e+005,-2.51494436254817e+001,-4.80558748871934e+000

1.35479249978003e+005,-2.51498320988466e+001,-4.87249957304009e+000

1.37370469830040e+005,-2.51502313139662e+001,-4.94033862525023e+000

1.39288090127379e+005,-2.51506415629957e+001,-5.00911729737406e+000

1.41232479406504e+005,-2.51510631457776e+001,-5.07884840671777e+000

1.43204011348474e+005,-2.51514963700299e+001,-5.14954493775525e+000

1.45203064850745e+005,-2.51519415515394e+001,-5.22122004402570e+000

1.47230024099979e+005,-2.51523990143586e+001,-5.29388705004385e+000

1.49285278645888e+005,-2.51528690910063e+001,-5.36755945322133e+000

1.51369223476094e+005,-2.51533521226734e+001,-5.44225092580117e+000

1.53482259092041e+005,-2.51538484594316e+001,-5.51797531680187e+000

1.55624791585964e+005,-2.51543584604473e+001,-5.59474665397467e+000

1.57797232718936e+005,-2.51548824941994e+001,-5.67257914576966e+000

1.59999999999999e+005,-2.51554209387016e+001,-5.75148718331563e+000

1.62233516766403e+005,-2.51559741817290e+001,-5.83148534240731e+000

1.64498212264969e+005,-2.51565426210489e+001,-5.91258838550610e+000

1.66794521734578e+005,-2.51571266646568e+001,-5.99481126374852e+000

1.69122886489819e+005,-2.51577267310164e+001,-6.07816911896624e+000

1.71483754005805e+005,-2.51583432493040e+001,-6.16267728571575e+000

1.73877578004168e+005,-2.51589766596583e+001,-6.24835129331626e+000

1.76304818540256e+005,-2.51596274134339e+001,-6.33520686789897e+000

1.78765942091554e+005,-2.51602959734606e+001,-6.42325993446409e+000

1.81261421647326e+005,-2.51609828143065e+001,-6.51252661894753e+000

1.83791736799524e+005,-2.51616884225466e+001,-6.60302325029577e+000

1.86357373834951e+005,-2.51624132970359e+001,-6.69476636255019e+000

1.88958825828723e+005,-2.51631579491876e+001,-6.78777269693963e+000

1.91596592739027e+005,-2.51639229032559e+001,-6.88205920398023e+000

1.94271181503206e+005,-2.51647086966245e+001,-6.97764304558525e+000

1.96983106135185e+005,-2.51655158800994e+001,-7.07454159718148e+000

1.99732887824256e+005,-2.51663450182071e+001,-7.17277244983390e+000

2.02521055035243e+005,-2.51671966894980e+001,-7.27235341237889e+000

2.05348143610063e+005,-2.51680714868549e+001,-7.37330251356394e+000

2.08214696870707e+005,-2.51689700178070e+001,-7.47563800419598e+000

2.11121265723661e+005,-2.51698929048481e+001,-7.57937835929776e+000

2.14068408765776e+005,-2.51708407857618e+001,-7.68454228026942e+000

2.17056692391625e+005,-2.51718143139510e+001,-7.79114869706150e+000

2.20086690902357e+005,-2.51728141587726e+001,-7.89921677035202e+000

2.23158986616063e+005,-2.51738410058788e+001,-8.00876589373290e+000

2.26274169979693e+005,-2.51748955575628e+001,-8.11981569590494e+000

2.29432839682530e+005,-2.51759785331111e+001,-8.23238604287856e+000

2.32635602771247e+005,-2.51770906691607e+001,-8.34649704018414e+000

2.35883074766574e+005,-2.51782327200628e+001,-8.46216903509009e+000

2.39175879781588e+005,-2.51794054582515e+001,-8.57942261882921e+000

2.42514650641661e+005,-2.51806096746196e+001,-8.69827862883341e+000

2.45900029006080e+005,-2.51818461788993e+001,-8.81875815097752e+000

2.49332665491357e+005,-2.51831158000501e+001,-8.94088252183203e+000

2.52813219796278e+005,-2.51844193866517e+001,-9.06467333092513e+000

2.56342360828676e+005,-2.51857578073051e+001,-9.19015242301424e+000

2.59920766833993e+005,-2.51871319510384e+001,-9.31734190036820e+000

2.63549125525621e+005,-2.51885427277203e+001,-9.44626412505907e+000

2.67228134217075e+005,-2.51899910684806e+001,-9.57694172126502e+000

2.70958499956006e+005,-2.51914779261369e+001,-9.70939757758400e+000

2.74740939660078e+005,-2.51930042756294e+001,-9.84365484935995e+000

2.78576180254757e+005,-2.51945711144622e+001,-9.97973696101947e+000

2.82464958813007e+005,-2.51961794631535e+001,-1.01176676084221e+001

2.86408022696948e+005,-2.51978303656920e+001,-1.02574707612231e+001

2.90406129701488e+005,-2.51995248900031e+001,-1.03991706652487e+001

2.94460048199957e+005,-2.52012641284225e+001,-1.05427918448859e+001

2.98570557291775e+005,-2.52030491981786e+001,-1.06883591054858e+001

3.02738446952187e+005,-2.52048812418843e+001,-1.08358975357814e+001

3.06964518184081e+005,-2.52067614280379e+001,-1.09854325103191e+001

3.11249583171928e+005,-2.52086909515339e+001,-1.11369896919064e+001

3.15594465437872e+005,-2.52106710341839e+001,-1.12905950340735e+001

3.19999999999997e+005,-2.52127029252475e+001,-1.14462747835509e+001

3.24467033532806e+005,-2.52147879019757e+001,-1.16040554827604e+001

3.28996424529938e+005,-2.52169272701638e+001,-1.17639639723234e+001

3.33589043469155e+005,-2.52191223647178e+001,-1.19260273935821e+001

3.38245772979638e+005,-2.52213745502328e+001,-1.20902731911358e+001

3.42967508011610e+005,-2.52236852215841e+001,-1.22567291153914e+001

3.47755156008335e+005,-2.52260558045328e+001,-1.24254232251260e+001

3.52609637080511e+005,-2.52284877563448e+001,-1.25963838900630e+001

3.57531884183106e+005,-2.52309825664251e+001,-1.27696397934592e+001

3.62522843294651e+005,-2.52335417569682e+001,-1.29452199347004e+001

3.67583473599047e+005,-2.52361668836238e+001,-1.31231536319080e+001

3.72714747669902e+005,-2.52388595361804e+001,-1.33034705245489e+001

3.77917651657445e+005,-2.52416213392664e+001,-1.34862005760518e+001

3.83193185478053e+005,-2.52444539530695e+001,-1.36713740764247e+001

3.88542363006410e+005,-2.52473590740761e+001,-1.38590216448710e+001

3.93966212270369e+005,-2.52503384358307e+001,-1.40491742324009e+001

3.99465775648511e+005,-2.52533938097161e+001,-1.42418631244361e+001

4.05042110070485e+005,-2.52565270057558e+001,-1.44371199434005e+001

4.10696287220124e+005,-2.52597398734393e+001,-1.46349766512963e+001

4.16429393741414e+005,-2.52630343025713e+001,-1.48354655522563e+001

4.22242531447321e+005,-2.52664122241450e+001,-1.50386192950710e+001

4.28136817531551e+005,-2.52698756112412e+001,-1.52444708756810e+001

4.34113384783250e+005,-2.52734264799541e+001,-1.54530536396299e+001

4.40173381804713e+005,-2.52770668903443e+001,-1.56644012844705e+001

4.46317973232124e+005,-2.52807989474195e+001,-1.58785478621155e+001

4.52548339959385e+005,-2.52846248021454e+001,-1.60955277811252e+001

4.58865679365059e+005,-2.52885466524852e+001,-1.63153758089228e+001

4.65271205542494e+005,-2.52925667444706e+001,-1.65381270739279e+001

4.71766149533147e+005,-2.52966873733047e+001,-1.67638170675959e+001

4.78351759563174e+005,-2.53009108844957e+001,-1.69924816463570e+001

4.85029301283321e+005,-2.53052396750252e+001,-1.72241570334364e+001

4.91800058012158e+005,-2.53096761945487e+001,-1.74588798205495e+001

4.98665330982714e+005,-2.53142229466306e+001,-1.76966869694550e+001

5.05626439592555e+005,-2.53188824900142e+001,-1.79376158133538e+001

5.12684721657352e+005,-2.53236574399253e+001,-1.81817040581187e+001

5.19841533667984e+005,-2.53285504694126e+001,-1.84289897833403e+001

5.27098251051240e+005,-2.53335643107219e+001,-1.86795114431727e+001

5.34456268434150e+005,-2.53387017567067e+001,-1.89333078669629e+001

5.41916999912011e+005,-2.53439656622738e+001,-1.91904182596470e+001

