Freq.,VOut,OutRef

1.00000000000000e+004,-1.54499338617239e+001,-2.20910739114963e-001

1.01395947979003e+004,-1.54499343555779e+001,-2.23994513296979e-001

1.02811382665607e+004,-1.54499348633134e+001,-2.27121334309452e-001

1.04246576084112e+004,-1.54499353853207e+001,-2.30291803017454e-001

1.05701804056138e+004,-1.54499359220006e+001,-2.33506528675310e-001

1.07177346253629e+004,-1.54499364737657e+001,-2.36766129036456e-001

1.08673486252606e+004,-1.54499370410398e+001,-2.40071230479055e-001

1.10190511587661e+004,-1.54499376242586e+001,-2.43422468122263e-001

1.11728713807222e+004,-1.54499382238705e+001,-2.46820485946435e-001

1.13288388529580e+004,-1.54499388403360e+001,-2.50265936922630e-001

1.14869835499703e+004,-1.54499394741286e+001,-2.53759483132923e-001

1.16473358646846e+004,-1.54499401257353e+001,-2.57301795898764e-001

1.18099266142953e+004,-1.54499407956568e+001,-2.60893555911472e-001

1.19747870461893e+004,-1.54499414844074e+001,-2.64535453361696e-001

1.21419488439505e+004,-1.54499421925165e+001,-2.68228188070441e-001

1.23114441334492e+004,-1.54499429205281e+001,-2.71972469625032e-001

1.24833054890161e+004,-1.54499436690011e+001,-2.75769017518072e-001

1.26575659397028e+004,-1.54499444385108e+001,-2.79618561278066e-001

1.28342589756290e+004,-1.54499452296479e+001,-2.83521840618282e-001

1.30134185544193e+004,-1.54499460430205e+001,-2.87479605570621e-001

1.31950791077289e+004,-1.54499468792530e+001,-2.91492616636855e-001

1.33792755478611e+004,-1.54499477389878e+001,-2.95561644928736e-001

1.35660432744767e+004,-1.54499486228852e+001,-2.99687472319447e-001

1.37554181813974e+004,-1.54499495316242e+001,-3.03870891591339e-001

1.39474366635040e+004,-1.54499504659026e+001,-3.08112706590768e-001

1.41421356237309e+004,-1.54499514264380e+001,-3.12413732380080e-001

1.43395524801583e+004,-1.54499524139678e+001,-3.16774795394686e-001

1.45397251732031e+004,-1.54499534292507e+001,-3.21196733602246e-001

1.47426921729110e+004,-1.54499544730661e+001,-3.25680396661657e-001

1.49484924863494e+004,-1.54499555462157e+001,-3.30226646087856e-001

1.51571656651040e+004,-1.54499566495234e+001,-3.34836355417648e-001

1.53687518128801e+004,-1.54499577838367e+001,-3.39510410373581e-001

1.55832915932100e+004,-1.54499589500261e+001,-3.44249709039421e-001

1.58008262372675e+004,-1.54499601489873e+001,-3.49055162026656e-001

1.60213975517924e+004,-1.54499613816405e+001,-3.53927692654434e-001

1.62450479271247e+004,-1.54499626489325e+001,-3.58868237120973e-001

1.64718203453514e+004,-1.54499639518359e+001,-3.63877744688634e-001

1.67017583885674e+004,-1.54499652913509e+001,-3.68957177863674e-001

1.69349062472505e+004,-1.54499666685059e+001,-3.74107512578546e-001

1.71713087287550e+004,-1.54499680843581e+001,-3.79329738382008e-001

1.74110112659224e+004,-1.54499695399940e+001,-3.84624858629333e-001

1.76540599258131e+004,-1.54499710365312e+001,-3.89993890671100e-001

1.79005014185594e+004,-1.54499725751179e+001,-3.95437866052641e-001

1.81503831063432e+004,-1.54499741569354e+001,-4.00957830707045e-001

1.84037530124975e+004,-1.54499757831973e+001,-4.06554845160262e-001

1.86606598307361e+004,-1.54499774551518e+001,-4.12229984730818e-001

1.89211529345119e+004,-1.54499791740819e+001,-4.17984339737839e-001

1.91852823865052e+004,-1.54499809413064e+001,-4.23819015710018e-001

1.94530989482457e+004,-1.54499827581814e+001,-4.29735133595981e-001

1.97246540898671e+004,-1.54499846261009e+001,-4.35733829979400e-001

1.99999999999999e+004,-1.54499865464980e+001,-4.41816257298688e-001

2.02791895958005e+004,-1.54499885208458e+001,-4.47983584066089e-001

2.05622765331213e+004,-1.54499905506590e+001,-4.54236995090183e-001

2.08493152168224e+004,-1.54499926374945e+001,-4.60577691706585e-001

2.11403608112276e+004,-1.54499947829530e+001,-4.67006892004313e-001

2.14354692507258e+004,-1.54499969886799e+001,-4.73525831061092e-001

2.17346972505211e+004,-1.54499992563670e+001,-4.80135761178873e-001

2.20381023175322e+004,-1.54500015877531e+001,-4.86837952124575e-001

2.23457427614443e+004,-1.54500039846261e+001,-4.93633691371912e-001

2.26576777059159e+004,-1.54500064488237e+001,-5.00524284348416e-001

2.29739670999406e+004,-1.54500089822353e+001,-5.07511054686682e-001

2.32946717293690e+004,-1.54500115868031e+001,-5.14595344474110e-001

2.36198532285905e+004,-1.54500142645235e+001,-5.21778514514278e-001

2.39495740923785e+004,-1.54500170174494e+001,-5.29061944583019e-001

2.42838976879009e+004,-1.54500198476906e+001,-5.36447033694698e-001

2.46228882668982e+004,-1.54500227574162e+001,-5.43935200369628e-001

2.49666109780322e+004,-1.54500257488559e+001,-5.51527882906175e-001

2.53151318794055e+004,-1.54500288243020e+001,-5.59226539652572e-001

2.56685179512580e+004,-1.54500319861110e+001,-5.67032649288548e-001

2.60268371088386e+004,-1.54500352367050e+001,-5.74947711108569e-001

2.63901582154578e+004,-1.54500385785742e+001,-5.82973245305694e-001

2.67585510957221e+004,-1.54500420142783e+001,-5.91110793263820e-001

2.71320865489533e+004,-1.54500455464487e+001,-5.99361917852814e-001

2.75108363627948e+004,-1.54500491777903e+001,-6.07728203724759e-001

2.78948733270080e+004,-1.54500529110837e+001,-6.16211257619374e-001

2.82842712474618e+004,-1.54500567491872e+001,-6.24812708668886e-001

2.86791049603164e+004,-1.54500606950391e+001,-6.33534208709909e-001

2.90794503464061e+004,-1.54500647516598e+001,-6.42377432598457e-001

2.94853843458219e+004,-1.54500689221541e+001,-6.51344078530610e-001

2.98969849726987e+004,-1.54500732097134e+001,-6.60435868365434e-001

3.03143313302078e+004,-1.54500776176186e+001,-6.69654547953401e-001

3.07375036257601e+004,-1.54500821492419e+001,-6.79001887470779e-001

3.11665831864199e+004,-1.54500868080500e+001,-6.88479681756435e-001

3.16016524745350e+004,-1.54500915976061e+001,-6.98089750652785e-001

3.20427951035848e+004,-1.54500965215730e+001,-7.07833939356577e-001

3.24900958542493e+004,-1.54501015837158e+001,-7.17714118765585e-001

3.29436406907028e+004,-1.54501067879046e+001,-7.27732185838754e-001

3.34035167771346e+004,-1.54501121381175e+001,-7.37890063956262e-001

3.38698124945009e+004,-1.54501176384435e+001,-7.48189703286467e-001

3.43426174575100e+004,-1.54501232930857e+001,-7.58633081156358e-001

3.48220225318448e+004,-1.54501291063645e+001,-7.69222202428506e-001

3.53081198516260e+004,-1.54501350827204e+001,-7.79959099883288e-001

3.58010028371187e+004,-1.54501412267181e+001,-7.90845834603450e-001

3.63007662126863e+004,-1.54501475430491e+001,-8.01884496369353e-001

3.68075060249948e+004,-1.54501540365358e+001,-8.13077204053970e-001

3.73213196614721e+004,-1.54501607121348e+001,-8.24426106026126e-001

3.78423058690237e+004,-1.54501675749407e+001,-8.35933380560063e-001

3.83705647730104e+004,-1.54501746301899e+001,-8.47601236247981e-001

3.89061978964912e+004,-1.54501818832646e+001,-8.59431912419704e-001

3.94493081797342e+004,-1.54501893396965e+001,-8.71427679567792e-001

3.99999999999998e+004,-1.54501970051714e+001,-8.83590839779509e-001

4.05583791916010e+004,-1.54502048855329e+001,-8.95923727173158e-001

4.11245530662425e+004,-1.54502129867871e+001,-9.08428708339584e-001

4.16986304336447e+004,-1.54502213151071e+001,-9.21108182792490e-001

4.22807216224550e+004,-1.54502298768372e+001,-9.33964583422657e-001

4.28709385014515e+004,-1.54502386784981e+001,-9.47000376958872e-001

4.34693945010421e+004,-1.54502477267912e+001,-9.60218064435561e-001

4.40762046350642e+004,-1.54502570286040e+001,-9.73620181664947e-001

4.46914855228886e+004,-1.54502665910150e+001,-9.87209299718764e-001

4.53153554118317e+004,-1.54502764212988e+001,-1.00098802541341e+000

4.59479341998812e+004,-1.54502865269318e+001,-1.01495900180316e+000

4.65893434587380e+004,-1.54502969155974e+001,-1.02912490867949e+000

4.72397064571810e+004,-1.54503075951915e+001,-1.04348846307834e+000

4.78991481847569e+004,-1.54503185738291e+001,-1.05805241979081e+000

4.85677953758016e+004,-1.54503298598490e+001,-1.07281957188652e+000

4.92457765337964e+004,-1.54503414618211e+001,-1.08779275123762e+000

4.99332219560642e+004,-1.54503533885521e+001,-1.10297482905315e+000

5.06302637588109e+004,-1.54503656490918e+001,-1.11836871642202e+000

5.13370359025159e+004,-1.54503782527400e+001,-1.13397736485863e+000

5.20536742176771e+004,-1.54503912090532e+001,-1.14980376686076e+000

5.27803164309155e+004,-1.54504045278513e+001,-1.16585095647154e+000

5.35171021914442e+004,-1.54504182192253e+001,-1.18212200984956e+000

5.42641730979066e+004,-1.54504322935439e+001,-1.19862004584760e+000

5.50216727255895e+004,-1.54504467614615e+001,-1.21534822659911e+000

5.57897466540159e+004,-1.54504616339256e+001,-1.23230975810933e+000

5.65685424949235e+004,-1.54504769221852e+001,-1.24950789085927e+000

5.73582099206328e+004,-1.54504926377979e+001,-1.26694592041409e+000

5.81589006928121e+004,-1.54505087926395e+001,-1.28462718803916e+000

5.89707686916437e+004,-1.54505253989113e+001,-1.30255508132762e+000

5.97939699453972e+004,-1.54505424691497e+001,-1.32073303483295e+000

6.06286626604156e+004,-1.54505600162345e+001,-1.33916453071148e+000

6.14750072515201e+004,-1.54505780533987e+001,-1.35785309937204e+000

6.23331663728396e+004,-1.54505965942374e+001,-1.37680232013563e+000

6.32033049490698e+004,-1.54506156527176e+001,-1.39601582190350e+000

6.40855902071694e+004,-1.54506352431883e+001,-1.41549728383203e+000

6.49801917084985e+004,-1.54506553803903e+001,-1.43525043601908e+000

6.58872813814055e+004,-1.54506760794665e+001,-1.45527906019800e+000

6.68070335542691e+004,-1.54506973559732e+001,-1.47558699043955e+000

6.77396249890018e+004,-1.54507192258903e+001,-1.49617811386519e+000

6.86852349150199e+004,-1.54507417056327e+001,-1.51705637136805e+000

6.96440450636895e+004,-1.54507648120619e+001,-1.53822575834358e+000

7.06162397032520e+004,-1.54507885624973e+001,-1.55969032542978e+000

7.16020056742374e+004,-1.54508129747288e+001,-1.58145417925635e+000

7.26015324253724e+004,-1.54508380670285e+001,-1.60352148320446e+000

7.36150120499896e+004,-1.54508638581638e+001,-1.62589645817556e+000

7.46426393229441e+004,-1.54508903674098e+001,-1.64858338337026e+000

7.56846117380472e+004,-1.54509176145628e+001,-1.67158659707637e+000

7.67411295460207e+004,-1.54509456199537e+001,-1.69491049746856e+000

7.78123957929823e+004,-1.54509744044619e+001,-1.71855954341711e+000

7.88986163594682e+004,-1.54510039895293e+001,-1.74253825530615e+000

7.99999999999995e+004,-1.54510343971748e+001,-1.76685121586405e+000

8.11167583832018e+004,-1.54510656500094e+001,-1.79150307100322e+000

8.22491061324848e+004,-1.54510977712508e+001,-1.81649853067061e+000

8.33972608672892e+004,-1.54511307847392e+001,-1.84184236970813e+000

8.45614432449099e+004,-1.54511647149535e+001,-1.86753942872568e+000

8.57418770029029e+004,-1.54511995870266e+001,-1.89359461498365e+000

8.69387890020841e+004,-1.54512354267627e+001,-1.92001290328680e+000

8.81524092701283e+004,-1.54512722606541e+001,-1.94679933688844e+000

8.93829710457770e+004,-1.54513101158981e+001,-1.97395902840792e+000

9.06307108236633e+004,-1.54513490204151e+001,-2.00149716075726e+000

9.18958683997622e+004,-1.54513890028666e+001,-2.02941898807956e+000

9.31786869174758e+004,-1.54514300926733e+001,-2.05772983670143e+000

9.44794129143618e+004,-1.54514723200343e+001,-2.08643510609247e+000

9.57982963695136e+004,-1.54515157159462e+001,-2.11554026984120e+000

9.71355907516031e+004,-1.54515603122226e+001,-2.14505087663991e+000

9.84915530675926e+004,-1.54516061415143e+001,-2.17497255128243e+000

9.98664439121282e+004,-1.54516532373297e+001,-2.20531099567412e+000

1.01260527517622e+005,-1.54517016340554e+001,-2.23607198985365e+000

1.02674071805032e+005,-1.54517513669780e+001,-2.26726139302752e+000

1.04107348435354e+005,-1.54518024723052e+001,-2.29888514461735e+000

1.05560632861831e+005,-1.54518549871882e+001,-2.33094926531823e+000

1.07034204382888e+005,-1.54519089497443e+001,-2.36345985817137e+000

1.08528346195813e+005,-1.54519643990795e+001,-2.39642310964828e+000

1.10043345451179e+005,-1.54520213753122e+001,-2.42984529074982e+000

1.11579493308032e+005,-1.54520799195969e+001,-2.46373275811528e+000

1.13137084989847e+005,-1.54521400741486e+001,-2.49809195514707e+000

1.14716419841265e+005,-1.54522018822670e+001,-2.53292941314754e+000

1.16317801385624e+005,-1.54522653883620e+001,-2.56825175246980e+000

1.17941537383287e+005,-1.54523306379793e+001,-2.60406568368123e+000

1.19587939890794e+005,-1.54523976778259e+001,-2.64037800874138e+000

1.21257325320831e+005,-1.54524665557969e+001,-2.67719562219307e+000

1.22950014503040e+005,-1.54525373210021e+001,-2.71452551236817e+000

1.24666332745679e+005,-1.54526100237934e+001,-2.75237476260534e+000

1.26406609898139e+005,-1.54526847157922e+001,-2.79075055248564e+000

1.28171180414339e+005,-1.54527614499176e+001,-2.82966015907822e+000

1.29960383416997e+005,-1.54528402804150e+001,-2.86911095820308e+000

1.31774562762811e+005,-1.54529212628847e+001,-2.90911042570753e+000

1.33614067108538e+005,-1.54530044543114e+001,-2.94966613875863e+000

1.35479249978003e+005,-1.54530899130937e+001,-2.99078577714723e+000

1.37370469830040e+005,-1.54531776990743e+001,-3.03247712461050e+000

1.39288090127379e+005,-1.54532678735705e+001,-3.07474807016793e+000

1.41232479406504e+005,-1.54533604994045e+001,-3.11760660947322e+000

1.43204011348474e+005,-1.54534556409351e+001,-3.16106084618065e+000

1.45203064850745e+005,-1.54535533640890e+001,-3.20511899332857e+000

1.47230024099979e+005,-1.54536537363924e+001,-3.24978937473750e+000

1.49285278645888e+005,-1.54537568270035e+001,-3.29508042642457e+000

1.51369223476094e+005,-1.54538627067445e+001,-3.34100069803535e+000

1.53482259092041e+005,-1.54539714481346e+001,-3.38755885428955e+000

1.55624791585964e+005,-1.54540831254230e+001,-3.43476367644615e+000

1.57797232718936e+005,-1.54541978146219e+001,-3.48262406378286e+000

1.59999999999999e+005,-1.54543155935400e+001,-3.53114903509535e+000

1.62233516766403e+005,-1.54544365418166e+001,-3.58034773021037e+000

1.64498212264969e+005,-1.54545607409544e+001,-3.63022941152013e+000

1.66794521734578e+005,-1.54546882743549e+001,-3.68080346553124e+000

1.69122886489819e+005,-1.54548192273515e+001,-3.73207940443364e+000

1.71483754005805e+005,-1.54549536872439e+001,-3.78406686768805e+000

1.73877578004168e+005,-1.54550917433331e+001,-3.83677562363010e+000

1.76304818540256e+005,-1.54552334869549e+001,-3.89021557109573e+000

1.78765942091554e+005,-1.54553790115152e+001,-3.94439674106415e+000

1.81261421647326e+005,-1.54555284125238e+001,-3.99932929832233e+000

1.83791736799524e+005,-1.54556817876293e+001,-4.05502354314710e+000

1.86357373834951e+005,-1.54558392366529e+001,-4.11148991300999e+000

1.88958825828723e+005,-1.54560008616233e+001,-4.16873898430102e+000

1.91596592739027e+005,-1.54561667668104e+001,-4.22678147407550e+000

1.94271181503206e+005,-1.54563370587595e+001,-4.28562824182041e+000

1.96983106135185e+005,-1.54565118463250e+001,-4.34529029124549e+000

1.99732887824256e+005,-1.54566912407037e+001,-4.40577877209494e+000

2.02521055035243e+005,-1.54568753554689e+001,-4.46710498198243e+000

2.05348143610063e+005,-1.54570643066023e+001,-4.52928036825193e+000

2.08214696870707e+005,-1.54572582125274e+001,-4.59231652986089e+000

2.11121265723661e+005,-1.54574571941416e+001,-4.65622521928825e+000

2.14068408765776e+005,-1.54576613748479e+001,-4.72101834446974e+000

2.17056692391625e+005,-1.54578708805866e+001,-4.78670797075808e+000

2.20086690902357e+005,-1.54580858398658e+001,-4.85330632291121e+000

2.23158986616063e+005,-1.54583063837924e+001,-4.92082578710652e+000

2.26274169979693e+005,-1.54585326461012e+001,-4.98927891298647e+000

2.29432839682530e+005,-1.54587647631852e+001,-5.05867841573081e+000

2.32635602771247e+005,-1.54590028741232e+001,-5.12903717816057e+000

2.35883074766574e+005,-1.54592471207087e+001,-5.20036825287322e+000

2.39175879781588e+005,-1.54594976474768e+001,-5.27268486440908e+000

2.42514650641661e+005,-1.54597546017311e+001,-5.34600041145195e+000

2.45900029006080e+005,-1.54600181335695e+001,-5.42032846906324e+000

2.49332665491357e+005,-1.54602883959100e+001,-5.49568279095063e+000

2.52813219796278e+005,-1.54605655445145e+001,-5.57207731177530e+000

2.56342360828676e+005,-1.54608497380131e+001,-5.64952614949398e+000

2.59920766833993e+005,-1.54611411379272e+001,-5.72804360774211e+000

2.63549125525621e+005,-1.54614399086917e+001,-5.80764417825473e+000

2.67228134217075e+005,-1.54617462176768e+001,-5.88834254333145e+000

2.70958499956006e+005,-1.54620602352088e+001,-5.97015357834096e+000

2.74740939660078e+005,-1.54623821345904e+001,-6.05309235427251e+000

2.78576180254757e+005,-1.54627120921204e+001,-6.13717414033097e+000

2.82464958813007e+005,-1.54630502871128e+001,-6.22241440657963e+000

2.86408022696948e+005,-1.54633969019151e+001,-6.30882882663153e+000

2.90406129701488e+005,-1.54637521219266e+001,-6.39643328039068e+000

2.94460048199957e+005,-1.54641161356158e+001,-6.48524385684543e+000

2.98570557291775e+005,-1.54644891345378e+001,-6.57527685691466e+000

3.02738446952187e+005,-1.54648713133513e+001,-6.66654879634952e+000

3.06964518184081e+005,-1.54652628698357e+001,-6.75907640869088e+000

3.11249583171928e+005,-1.54656640049079e+001,-6.85287664828734e+000

3.15594465437872e+005,-1.54660749226398e+001,-6.94796669337089e+000

3.19999999999997e+005,-1.54664958302752e+001,-7.04436394919647e+000

3.24467033532806e+005,-1.54669269382481e+001,-7.14208605124478e+000

3.28996424529938e+005,-1.54673684602012e+001,-7.24115086848987e+000

3.33589043469155e+005,-1.54678206130053e+001,-7.34157650673581e+000

3.38245772979638e+005,-1.54682836167800e+001,-7.44338131202081e+000

3.42967508011610e+005,-1.54687576949154e+001,-7.54658387409310e+000

3.47755156008335e+005,-1.54692430740956e+001,-7.65120302995950e+000

3.52609637080511e+005,-1.54697399843240e+001,-7.75725786750836e+000

3.57531884183106e+005,-1.54702486589511e+001,-7.86476772920866e+000

3.62522843294651e+005,-1.54707693347039e+001,-7.97375221588643e+000

3.67583473599047e+005,-1.54713022517193e+001,-8.08423119058131e+000

3.72714747669902e+005,-1.54718476535800e+001,-8.19622478248321e+000

3.77917651657445e+005,-1.54724057873535e+001,-8.30975339095266e+000

3.83193185478053e+005,-1.54729769036363e+001,-8.42483768962220e+000

3.88542363006410e+005,-1.54735612566017e+001,-8.54149863058653e+000

3.93966212270369e+005,-1.54741591040520e+001,-8.65975744867558e+000

3.99465775648511e+005,-1.54747707074772e+001,-8.77963566581617e+000

4.05042110070485e+005,-1.54753963321184e+001,-8.90115509548243e+000

4.10696287220124e+005,-1.54760362470379e+001,-9.02433784723382e+000

4.16429393741414e+005,-1.54766907251961e+001,-9.14920633134326e+000

4.22242531447321e+005,-1.54773600435355e+001,-9.27578326351624e+000

4.28136817531551e+005,-1.54780444830729e+001,-9.40409166969832e+000

4.34113384783250e+005,-1.54787443289996e+001,-9.53415489097467e+000

4.40173381804713e+005,-1.54794598707910e+001,-9.66599658855975e+000

4.46317973232124e+005,-1.54801914023254e+001,-9.79964074887593e+000

4.52548339959385e+005,-1.54809392220133e+001,-9.93511168872309e+000

4.58865679365059e+005,-1.54817036329372e+001,-1.00724340605353e+001

4.65271205542494e+005,-1.54824849430031e+001,-1.02116328577274e+001

4.71766149533147e+005,-1.54832834651035e+001,-1.03527334201261e+001

4.78351759563174e+005,-1.54840995172939e+001,-1.04957614394872e+001

4.85029301283321e+005,-1.54849334229811e+001,-1.06407429650959e+001

4.91800058012158e+005,-1.54857855111269e+001,-1.07877044094489e+001

4.98665330982714e+005,-1.54866561164650e+001,-1.09366725540142e+001

5.05626439592555e+005,-1.54875455797335e+001,-1.10876745550697e+001

5.12684721657352e+005,-1.54884542479231e+001,-1.12407379496132e+001

5.19841533667984e+005,-1.54893824745406e+001,-1.13958906613446e+001

5.27098251051240e+005,-1.54903306198902e+001,-1.15531610067150e+001

5.34456268434150e+005,-1.54912990513712e+001,-1.17125777010397e+001

5.41916999912011e+005,-1.54922881437936e+001,-1.18741698646718e+001

