Freq.,VOut,OutRef

1.00000000000000e+004,-1.38701088154770e+001,-1.25473949466005e-001

1.01395947979003e+004,-1.38701089839141e+001,-1.27225488642364e-001

1.02811382665607e+004,-1.38701091570854e+001,-1.29001477888814e-001

1.04246576084112e+004,-1.38701093351238e+001,-1.30802258496082e-001

1.05701804056138e+004,-1.38701095181661e+001,-1.32628176514875e-001

1.07177346253629e+004,-1.38701097063529e+001,-1.34479582828062e-001

1.08673486252606e+004,-1.38701098998288e+001,-1.36356833213127e-001

1.10190511587661e+004,-1.38701100987421e+001,-1.38260288417537e-001

1.11728713807222e+004,-1.38701103032460e+001,-1.40190314218151e-001

1.13288388529580e+004,-1.38701105134973e+001,-1.42147281499036e-001

1.14869835499703e+004,-1.38701107296575e+001,-1.44131566322285e-001

1.16473358646846e+004,-1.38701109518928e+001,-1.46143549995318e-001

1.18099266142953e+004,-1.38701111803736e+001,-1.48183619148970e-001

1.19747870461893e+004,-1.38701114152754e+001,-1.50252165809982e-001

1.21419488439505e+004,-1.38701116567788e+001,-1.52349587474610e-001

1.23114441334492e+004,-1.38701119050689e+001,-1.54476287189398e-001

1.24833054890161e+004,-1.38701121603368e+001,-1.56632673621298e-001

1.26575659397028e+004,-1.38701124227780e+001,-1.58819161145699e-001

1.28342589756290e+004,-1.38701126925943e+001,-1.61036169917257e-001

1.30134185544193e+004,-1.38701129699931e+001,-1.63284125953442e-001

1.31950791077289e+004,-1.38701132551867e+001,-1.65563461222021e-001

1.33792755478611e+004,-1.38701135483947e+001,-1.67874613712299e-001

1.35660432744767e+004,-1.38701138498419e+001,-1.70218027530621e-001

1.37554181813974e+004,-1.38701141597598e+001,-1.72594152978222e-001

1.39474366635040e+004,-1.38701144783861e+001,-1.75003446642101e-001

1.41421356237309e+004,-1.38701148059657e+001,-1.77446371479266e-001

1.43395524801583e+004,-1.38701151427498e+001,-1.79923396907369e-001

1.45397251732031e+004,-1.38701154889970e+001,-1.82434998895726e-001

1.47426921729110e+004,-1.38701158449730e+001,-1.84981660054252e-001

1.49484924863494e+004,-1.38701162109510e+001,-1.87563869727726e-001

1.51571656651040e+004,-1.38701165872120e+001,-1.90182124088580e-001

1.53687518128801e+004,-1.38701169740445e+001,-1.92836926233995e-001

1.55832915932100e+004,-1.38701173717455e+001,-1.95528786279902e-001

1.58008262372675e+004,-1.38701177806201e+001,-1.98258221461901e-001

1.60213975517924e+004,-1.38701182009820e+001,-2.01025756230679e-001

1.62450479271247e+004,-1.38701186331539e+001,-2.03831922355379e-001

1.64718203453514e+004,-1.38701190774669e+001,-2.06677259027173e-001

1.67017583885674e+004,-1.38701195342625e+001,-2.09562312956128e-001

1.69349062472505e+004,-1.38701200038906e+001,-2.12487638483979e-001

1.71713087287550e+004,-1.38701204867116e+001,-2.15453797686048e-001

1.74110112659224e+004,-1.38701209830959e+001,-2.18461360478677e-001

1.76540599258131e+004,-1.38701214934242e+001,-2.21510904730948e-001

1.79005014185594e+004,-1.38701220180876e+001,-2.24603016374743e-001

1.81503831063432e+004,-1.38701225574887e+001,-2.27738289514354e-001

1.84037530124975e+004,-1.38701231120410e+001,-2.30917326545702e-001

1.86606598307361e+004,-1.38701236821698e+001,-2.34140738266010e-001

1.89211529345119e+004,-1.38701242683121e+001,-2.37409143996020e-001

1.91852823865052e+004,-1.38701248709174e+001,-2.40723171694197e-001

1.94530989482457e+004,-1.38701254904475e+001,-2.44083458081885e-001

1.97246540898671e+004,-1.38701261273773e+001,-2.47490648761223e-001

1.99999999999999e+004,-1.38701267821949e+001,-2.50945398340686e-001

2.02791895958005e+004,-1.38701274554023e+001,-2.54448370560437e-001

2.05622765331213e+004,-1.38701281475152e+001,-2.58000238419538e-001

2.08493152168224e+004,-1.38701288590641e+001,-2.61601684304411e-001

2.11403608112276e+004,-1.38701295905940e+001,-2.65253400121231e-001

2.14354692507258e+004,-1.38701303426654e+001,-2.68956087425081e-001

2.17346972505211e+004,-1.38701311158544e+001,-2.72710457559205e-001

2.20381023175322e+004,-1.38701319107532e+001,-2.76517231786580e-001

2.23457427614443e+004,-1.38701327279705e+001,-2.80377141432042e-001

2.26576777059159e+004,-1.38701335681322e+001,-2.84290928017193e-001

2.29739670999406e+004,-1.38701344318817e+001,-2.88259343408023e-001

2.32946717293690e+004,-1.38701353198801e+001,-2.92283149957237e-001

2.36198532285905e+004,-1.38701362328071e+001,-2.96363120647816e-001

2.39495740923785e+004,-1.38701371713618e+001,-3.00500039242814e-001

2.42838976879009e+004,-1.38701381362624e+001,-3.04694700435445e-001

2.46228882668982e+004,-1.38701391282471e+001,-3.08947910002221e-001

2.49666109780322e+004,-1.38701401480750e+001,-3.13260484954679e-001

2.53151318794055e+004,-1.38701411965263e+001,-3.17633253696836e-001

2.56685179512580e+004,-1.38701422744031e+001,-3.22067056184410e-001

2.60268371088386e+004,-1.38701433825295e+001,-3.26562744085861e-001

2.63901582154578e+004,-1.38701445217533e+001,-3.31121180942294e-001

2.67585510957221e+004,-1.38701456929451e+001,-3.35743242336801e-001

2.71320865489533e+004,-1.38701468970006e+001,-3.40429816058756e-001

2.75108363627948e+004,-1.38701481348400e+001,-3.45181802275635e-001

2.78948733270080e+004,-1.38701494074093e+001,-3.50000113702982e-001

2.82842712474618e+004,-1.38701507156808e+001,-3.54885675782021e-001

2.86791049603164e+004,-1.38701520606541e+001,-3.59839426851969e-001

2.90794503464061e+004,-1.38701534433565e+001,-3.64862318334759e-001

2.94853843458219e+004,-1.38701548648440e+001,-3.69955314912044e-001

2.98969849726987e+004,-1.38701563262020e+001,-3.75119394713059e-001

3.03143313302078e+004,-1.38701578285461e+001,-3.80355549499504e-001

3.07375036257601e+004,-1.38701593730228e+001,-3.85664784855765e-001

3.11665831864199e+004,-1.38701609608111e+001,-3.91048120378778e-001

3.16016524745350e+004,-1.38701625931221e+001,-3.96506589877313e-001

3.20427951035848e+004,-1.38701642712009e+001,-4.02041241565429e-001

3.24900958542493e+004,-1.38701659963275e+001,-4.07653138262246e-001

3.29436406907028e+004,-1.38701677698169e+001,-4.13343357598364e-001

3.34035167771346e+004,-1.38701695930212e+001,-4.19112992218108e-001

3.38698124945009e+004,-1.38701714673298e+001,-4.24963149988801e-001

3.43426174575100e+004,-1.38701733941705e+001,-4.30894954213424e-001

3.48220225318448e+004,-1.38701753750114e+001,-4.36909543842347e-001

3.53081198516260e+004,-1.38701774113607e+001,-4.43008073691958e-001

3.58010028371187e+004,-1.38701795047687e+001,-4.49191714665961e-001

3.63007662126863e+004,-1.38701816568287e+001,-4.55461653975169e-001

3.68075060249948e+004,-1.38701838691782e+001,-4.61819095366603e-001

3.73213196614721e+004,-1.38701861435001e+001,-4.68265259351505e-001

3.78423058690237e+004,-1.38701884815236e+001,-4.74801383438221e-001

3.83705647730104e+004,-1.38701908850264e+001,-4.81428722365868e-001

3.89061978964912e+004,-1.38701933558350e+001,-4.88148548346032e-001

3.94493081797342e+004,-1.38701958958264e+001,-4.94962151303082e-001

3.99999999999998e+004,-1.38701985069297e+001,-5.01870839119965e-001

4.05583791916010e+004,-1.38702011911274e+001,-5.08875937885691e-001

4.11245530662425e+004,-1.38702039504563e+001,-5.15978792150509e-001

4.16986304336447e+004,-1.38702067870101e+001,-5.23180765176609e-001

4.22807216224550e+004,-1.38702097029398e+001,-5.30483239201849e-001

4.28709385014515e+004,-1.38702127004561e+001,-5.37887615699318e-001

4.34693945010421e+004,-1.38702157818304e+001,-5.45395315644634e-001

4.40762046350642e+004,-1.38702189493968e+001,-5.53007779784217e-001

4.46914855228886e+004,-1.38702222055536e+001,-5.60726468911384e-001

4.53153554118317e+004,-1.38702255527653e+001,-5.68552864140041e-001

4.59479341998812e+004,-1.38702289935641e+001,-5.76488467187949e-001

4.65893434587380e+004,-1.38702325305517e+001,-5.84534800660168e-001

4.72397064571810e+004,-1.38702361664017e+001,-5.92693408336786e-001

4.78991481847569e+004,-1.38702399038605e+001,-6.00965855468174e-001

4.85677953758016e+004,-1.38702437457504e+001,-6.09353729067325e-001

4.92457765337964e+004,-1.38702476949709e+001,-6.17858638213411e-001

4.99332219560642e+004,-1.38702517545009e+001,-6.26482214354119e-001

5.06302637588109e+004,-1.38702559274008e+001,-6.35226111614748e-001

5.13370359025159e+004,-1.38702602168150e+001,-6.44092007111509e-001

5.20536742176771e+004,-1.38702646259737e+001,-6.53081601265862e-001

5.27803164309155e+004,-1.38702691581954e+001,-6.62196618129043e-001

5.35171021914442e+004,-1.38702738168891e+001,-6.71438805704684e-001

5.42641730979066e+004,-1.38702786055568e+001,-6.80809936279516e-001

5.50216727255895e+004,-1.38702835277960e+001,-6.90311806756802e-001

5.57897466540159e+004,-1.38702885873023e+001,-6.99946238996134e-001

5.65685424949235e+004,-1.38702937878714e+001,-7.09715080155426e-001

5.73582099206328e+004,-1.38702991334025e+001,-7.19620203039592e-001

5.81589006928121e+004,-1.38703046279005e+001,-7.29663506450902e-001

5.89707686916437e+004,-1.38703102754790e+001,-7.39846915548957e-001

5.97939699453972e+004,-1.38703160803632e+001,-7.50172382208581e-001

6.06286626604156e+004,-1.38703220468923e+001,-7.60641885390456e-001

6.14750072515201e+004,-1.38703281795230e+001,-7.71257431509493e-001

6.23331663728396e+004,-1.38703344828325e+001,-7.82021054812723e-001

6.32033049490698e+004,-1.38703409615212e+001,-7.92934817759847e-001

6.40855902071694e+004,-1.38703476204164e+001,-8.04000811408961e-001

6.49801917084985e+004,-1.38703544644752e+001,-8.15221155809549e-001

6.58872813814055e+004,-1.38703614987878e+001,-8.26598000398632e-001

6.68070335542691e+004,-1.38703687285813e+001,-8.38133524401358e-001

6.77396249890018e+004,-1.38703761592226e+001,-8.49829937238874e-001

6.86852349150199e+004,-1.38703837962226e+001,-8.61689478941293e-001

6.96440450636895e+004,-1.38703916452391e+001,-8.73714420564486e-001

7.06162397032520e+004,-1.38703997120815e+001,-8.85907064613048e-001

7.16020056742374e+004,-1.38704080027135e+001,-8.98269745471325e-001

7.26015324253724e+004,-1.38704165232577e+001,-9.10804829835467e-001

7.36150120499896e+004,-1.38704252799996e+001,-9.23514717153128e-001

7.46426393229441e+004,-1.38704342793909e+001,-9.36401840071699e-001

7.56846117380472e+004,-1.38704435280547e+001,-9.49468664887924e-001

7.67411295460207e+004,-1.38704530327889e+001,-9.62717692005528e-001

7.78123957929823e+004,-1.38704628005708e+001,-9.76151456398509e-001

7.88986163594682e+004,-1.38704728385615e+001,-9.89772528080507e-001

7.99999999999995e+004,-1.38704831541105e+001,-1.00358351258009e+000

8.11167583832018e+004,-1.38704937547601e+001,-1.01758705142215e+000

8.22491061324848e+004,-1.38705046482498e+001,-1.03178582261546e+000

8.33972608672892e+004,-1.38705158425218e+001,-1.04618254114616e+000

8.45614432449099e+004,-1.38705273457252e+001,-1.06077995947821e+000

8.57418770029029e+004,-1.38705391662211e+001,-1.07558086805965e+000

8.69387890020841e+004,-1.38705513125877e+001,-1.09058809583568e+000

8.81524092701283e+004,-1.38705637936253e+001,-1.10580451076809e+000

8.93829710457770e+004,-1.38705766183619e+001,-1.12123302036083e+000

9.06307108236633e+004,-1.38705897960578e+001,-1.13687657219376e+000

9.18958683997622e+004,-1.38706033362117e+001,-1.15273815446088e+000

9.31786869174758e+004,-1.38706172485655e+001,-1.16882079651697e+000

9.44794129143618e+004,-1.38706315431106e+001,-1.18512756943126e+000

9.57982963695136e+004,-1.38706462300928e+001,-1.20166158654677e+000

9.71355907516031e+004,-1.38706613200189e+001,-1.21842600404681e+000

9.84915530675926e+004,-1.38706768236616e+001,-1.23542402153120e+000

9.98664439121282e+004,-1.38706927520661e+001,-1.25265888259477e+000

1.01260527517622e+005,-1.38707091165559e+001,-1.27013387541801e+000

1.02674071805032e+005,-1.38707259287389e+001,-1.28785233336199e+000

1.04107348435354e+005,-1.38707432005133e+001,-1.30581763557174e+000

1.05560632861831e+005,-1.38707609440743e+001,-1.32403320758724e+000

1.07034204382888e+005,-1.38707791719202e+001,-1.34250252196055e+000

1.08528346195813e+005,-1.38707978968585e+001,-1.36122909888352e+000

1.10043345451179e+005,-1.38708171320129e+001,-1.38021650681991e+000

1.11579493308032e+005,-1.38708368908295e+001,-1.39946836314720e+000

1.13137084989847e+005,-1.38708571870836e+001,-1.41898833480481e+000

1.14716419841265e+005,-1.38708780348858e+001,-1.43878013895406e+000

1.16317801385624e+005,-1.38708994486894e+001,-1.45884754363981e+000

1.17941537383287e+005,-1.38709214432967e+001,-1.47919436846599e+000

1.19587939890794e+005,-1.38709440338661e+001,-1.49982448527666e+000

1.21257325320831e+005,-1.38709672359186e+001,-1.52074181884542e+000

1.22950014503040e+005,-1.38709910653450e+001,-1.54195034757338e+000

1.24666332745679e+005,-1.38710155384123e+001,-1.56345410419703e+000

1.26406609898139e+005,-1.38710406717712e+001,-1.58525717650226e+000

1.28171180414339e+005,-1.38710664824626e+001,-1.60736370804816e+000

1.29960383416997e+005,-1.38710929879247e+001,-1.62977789890007e+000

1.31774562762811e+005,-1.38711202059999e+001,-1.65250400637125e+000

1.33614067108538e+005,-1.38711481549415e+001,-1.67554634577281e+000

1.35479249978003e+005,-1.38711768534209e+001,-1.69890929117297e+000

1.37370469830040e+005,-1.38712063205342e+001,-1.72259727616676e+000

1.39288090127379e+005,-1.38712365758090e+001,-1.74661479465253e+000

1.41232479406504e+005,-1.38712676392114e+001,-1.77096640162004e+000

1.43204011348474e+005,-1.38712995311522e+001,-1.79565671394735e+000

1.45203064850745e+005,-1.38713322724940e+001,-1.82069041120675e+000

1.47230024099979e+005,-1.38713658845573e+001,-1.84607223648124e+000

1.49285278645888e+005,-1.38714003891268e+001,-1.87180699719038e+000

1.51369223476094e+005,-1.38714358084584e+001,-1.89789956592657e+000

1.53482259092041e+005,-1.38714721652842e+001,-1.92435488130070e+000

1.55624791585964e+005,-1.38715094828194e+001,-1.95117794879988e+000

1.57797232718936e+005,-1.38715477847677e+001,-1.97837384165227e+000

1.59999999999999e+005,-1.38715870953265e+001,-2.00594770170700e+000

1.62233516766403e+005,-1.38716274391931e+001,-2.03390474032124e+000

1.64498212264969e+005,-1.38716688415690e+001,-2.06225023925841e+000

1.66794521734578e+005,-1.38717113281656e+001,-2.09098955160053e+000

1.69122886489819e+005,-1.38717549252079e+001,-2.12012810266922e+000

1.71483754005805e+005,-1.38717996594399e+001,-2.14967139095666e+000

1.73877578004168e+005,-1.38718455581272e+001,-2.17962498907399e+000

1.76304818540256e+005,-1.38718926490622e+001,-2.20999454470455e+000

1.78765942091554e+005,-1.38719409605661e+001,-2.24078578157514e+000

1.81261421647326e+005,-1.38719905214926e+001,-2.27200450043492e+000

1.83791736799524e+005,-1.38720413612299e+001,-2.30365658005106e+000

1.86357373834951e+005,-1.38720935097030e+001,-2.33574797821389e+000

1.88958825828723e+005,-1.38721469973751e+001,-2.36828473275633e+000

1.91596592739027e+005,-1.38722018552485e+001,-2.40127296258818e+000

1.94271181503206e+005,-1.38722581148656e+001,-2.43471886874101e+000

1.96983106135185e+005,-1.38723158083081e+001,-2.46862873543033e+000

1.99732887824256e+005,-1.38723749681970e+001,-2.50300893112817e+000

2.02521055035243e+005,-1.38724356276910e+001,-2.53786590965564e+000

2.05348143610063e+005,-1.38724978204846e+001,-2.57320621128403e+000

2.08214696870707e+005,-1.38725615808054e+001,-2.60903646385711e+000

2.11121265723661e+005,-1.38726269434109e+001,-2.64536338392535e+000

2.14068408765776e+005,-1.38726939435844e+001,-2.68219377789711e+000

2.17056692391625e+005,-1.38727626171298e+001,-2.71953454320837e+000

2.20086690902357e+005,-1.38728330003662e+001,-2.75739266950648e+000

2.23158986616063e+005,-1.38729051301212e+001,-2.79577523985320e+000

2.26274169979693e+005,-1.38729790437235e+001,-2.83468943194534e+000

2.29432839682530e+005,-1.38730547789943e+001,-2.87414251935365e+000

2.32635602771247e+005,-1.38731323742383e+001,-2.91414187278114e+000

2.35883074766574e+005,-1.38732118682332e+001,-2.95469496134042e+000

2.39175879781588e+005,-1.38732933002184e+001,-2.99580935385112e+000

2.42514650641661e+005,-1.38733767098826e+001,-3.03749272015931e+000

2.45900029006080e+005,-1.38734621373504e+001,-3.07975283247634e+000

2.49332665491357e+005,-1.38735496231679e+001,-3.12259756674096e+000

2.52813219796278e+005,-1.38736392082867e+001,-3.16603490400465e+000

2.56342360828676e+005,-1.38737309340477e+001,-3.21007293183802e+000

2.59920766833993e+005,-1.38738248421624e+001,-3.25471984576505e+000

2.63549125525621e+005,-1.38739209746946e+001,-3.29998395071832e+000

2.67228134217075e+005,-1.38740193740392e+001,-3.34587366252315e+000

2.70958499956006e+005,-1.38741200829014e+001,-3.39239750940680e+000

2.74740939660078e+005,-1.38742231442735e+001,-3.43956413353437e+000

2.78576180254757e+005,-1.38743286014112e+001,-3.48738229257514e+000

2.82464958813007e+005,-1.38744364978081e+001,-3.53586086129584e+000

2.86408022696948e+005,-1.38745468771696e+001,-3.58500883318573e+000

2.90406129701488e+005,-1.38746597833850e+001,-3.63483532211154e+000

2.94460048199957e+005,-1.38747752604990e+001,-3.68534956400560e+000

2.98570557291775e+005,-1.38748933526813e+001,-3.73656091858555e+000

3.02738446952187e+005,-1.38750141041954e+001,-3.78847887110982e+000

3.06964518184081e+005,-1.38751375593669e+001,-3.84111303416721e+000

3.11249583171928e+005,-1.38752637625495e+001,-3.89447314950224e+000

3.15594465437872e+005,-1.38753927580906e+001,-3.94856908987953e+000

3.19999999999997e+005,-1.38755245902961e+001,-4.00341086098474e+000

3.24467033532806e+005,-1.38756593033942e+001,-4.05900860336612e+000

3.28996424529938e+005,-1.38757969414973e+001,-4.11537259441625e+000

3.33589043469155e+005,-1.38759375485650e+001,-4.17251325039552e+000

3.38245772979638e+005,-1.38760811683645e+001,-4.23044112849919e+000

3.42967508011610e+005,-1.38762278444318e+001,-4.28916692896793e+000

3.47755156008335e+005,-1.38763776200312e+001,-4.34870149724319e+000

3.52609637080511e+005,-1.38765305381153e+001,-4.40905582617026e+000

3.57531884183106e+005,-1.38766866412844e+001,-4.47024105824710e+000

3.62522843294651e+005,-1.38768459717455e+001,-4.53226848792350e+000

3.67583473599047e+005,-1.38770085712715e+001,-4.59514956394878e+000

3.72714747669902e+005,-1.38771744811605e+001,-4.65889589177087e+000

3.77917651657445e+005,-1.38773437421952e+001,-4.72351923598624e+000

3.83193185478053e+005,-1.38775163946032e+001,-4.78903152284475e+000

3.88542363006410e+005,-1.38776924780175e+001,-4.85544484280527e+000

3.93966212270369e+005,-1.38778720314374e+001,-4.92277145314993e+000

3.99465775648511e+005,-1.38780550931917e+001,-4.99102378065045e+000

4.05042110070485e+005,-1.38782417009020e+001,-5.06021442429269e+000

4.10696287220124e+005,-1.38784318914475e+001,-5.13035615805905e+000

4.16429393741414e+005,-1.38786257009321e+001,-5.20146193376740e+000

4.22242531447321e+005,-1.38788231646530e+001,-5.27354488397004e+000

4.28136817531551e+005,-1.38790243170708e+001,-5.34661832491039e+000

4.34113384783250e+005,-1.38792291917835e+001,-5.42069575954124e+000

4.40173381804713e+005,-1.38794378215012e+001,-5.49579088060175e+000

4.46317973232124e+005,-1.38796502380257e+001,-5.57191757375554e+000

4.52548339959385e+005,-1.38798664722312e+001,-5.64908992078880e+000

4.58865679365059e+005,-1.38800865540501e+001,-5.72732220287027e+000

4.65271205542494e+005,-1.38803105124613e+001,-5.80662890387144e+000

4.71766149533147e+005,-1.38805383754833e+001,-5.88702471374698e+000

4.78351759563174e+005,-1.38807701701707e+001,-5.96852453197719e+000

4.85029301283321e+005,-1.38810059226158e+001,-6.05114347106869e+000

4.91800058012158e+005,-1.38812456579546e+001,-6.13489686011750e+000

4.98665330982714e+005,-1.38814894003779e+001,-6.21980024842889e+000

5.05626439592555e+005,-1.38817371731476e+001,-6.30586940919760e+000

5.12684721657352e+005,-1.38819889986184e+001,-6.39312034324563e+000

5.19841533667984e+005,-1.38822448982656e+001,-6.48156928281688e+000

5.27098251051240e+005,-1.38825048927183e+001,-6.57123269542797e+000

5.34456268434150e+005,-1.38827690017996e+001,-6.66212728777458e+000

5.41916999912011e+005,-1.38830372445719e+001,-6.75427000969059e+000

