Freq.,VOut,OutRef

1.00000000000000e+004,-1.90200544256135e+001,-1.98456348464921e-001

1.01395947979003e+004,-1.90200549822533e+001,-2.01226676558406e-001

1.02811382665607e+004,-1.90200555545406e+001,-2.04035676171843e-001

1.04246576084112e+004,-1.90200561429152e+001,-2.06883887104803e-001

1.05701804056138e+004,-1.90200567478290e+001,-2.09771856691159e-001

1.07177346253629e+004,-1.90200573697473e+001,-2.12700139902021e-001

1.08673486252606e+004,-1.90200580091477e+001,-2.15669299455974e-001

1.10190511587661e+004,-1.90200586665217e+001,-2.18679905924248e-001

1.11728713807222e+004,-1.90200593423743e+001,-2.21732537842250e-001

1.13288388529580e+004,-1.90200600372252e+001,-2.24827781817132e-001

1.14869835499703e+004,-1.90200607516081e+001,-2.27966232645486e-001

1.16473358646846e+004,-1.90200614860719e+001,-2.31148493424971e-001

1.18099266142953e+004,-1.90200622411812e+001,-2.34375175666896e-001

1.19747870461893e+004,-1.90200630175161e+001,-2.37646899421446e-001

1.21419488439505e+004,-1.90200638156733e+001,-2.40964293387453e-001

1.23114441334492e+004,-1.90200646362657e+001,-2.44327995042524e-001

1.24833054890161e+004,-1.90200654799243e+001,-2.47738650756066e-001

1.26575659397028e+004,-1.90200663472971e+001,-2.51196915921334e-001

1.28342589756290e+004,-1.90200672390505e+001,-2.54703455076687e-001

1.30134185544193e+004,-1.90200681558700e+001,-2.58258942033122e-001

1.31950791077289e+004,-1.90200690984597e+001,-2.61864060007038e-001

1.33792755478611e+004,-1.90200700675439e+001,-2.65519501748202e-001

1.35660432744767e+004,-1.90200710638673e+001,-2.69225969672928e-001

1.37554181813974e+004,-1.90200720881952e+001,-2.72984176001167e-001

1.39474366635040e+004,-1.90200731413148e+001,-2.76794842890034e-001

1.41421356237309e+004,-1.90200742240349e+001,-2.80658702575771e-001

1.43395524801583e+004,-1.90200753371874e+001,-2.84576497511480e-001

1.45397251732031e+004,-1.90200764816277e+001,-2.88548980510072e-001

1.47426921729110e+004,-1.90200776582347e+001,-2.92576914891122e-001

1.49484924863494e+004,-1.90200788679124e+001,-2.96661074624720e-001

1.51571656651040e+004,-1.90200801115902e+001,-3.00802244479975e-001

1.53687518128801e+004,-1.90200813902234e+001,-3.05001220177778e-001

1.55832915932100e+004,-1.90200827047941e+001,-3.09258808541336e-001

1.58008262372675e+004,-1.90200840563121e+001,-3.13575827652250e-001

1.60213975517924e+004,-1.90200854458157e+001,-3.17953107006609e-001

1.62450479271247e+004,-1.90200868743722e+001,-3.22391487674013e-001

1.64718203453514e+004,-1.90200883430787e+001,-3.26891822461317e-001

1.67017583885674e+004,-1.90200898530634e+001,-3.31454976071952e-001

1.69349062472505e+004,-1.90200914054860e+001,-3.36081825275291e-001

1.71713087287550e+004,-1.90200930015389e+001,-3.40773259073700e-001

1.74110112659224e+004,-1.90200946424478e+001,-3.45530178872822e-001

1.76540599258131e+004,-1.90200963294730e+001,-3.50353498654490e-001

1.79005014185594e+004,-1.90200980639100e+001,-3.55244145151830e-001

1.81503831063432e+004,-1.90200998470909e+001,-3.60203058027900e-001

1.84037530124975e+004,-1.90201016803850e+001,-3.65231190054216e-001

1.86606598307361e+004,-1.90201035652002e+001,-3.70329507295216e-001

1.89211529345119e+004,-1.90201055029835e+001,-3.75498989293141e-001

1.91852823865052e+004,-1.90201074952231e+001,-3.80740629254581e-001

1.94530989482457e+004,-1.90201095434488e+001,-3.86055434240282e-001

1.97246540898671e+004,-1.90201116492330e+001,-3.91444425361922e-001

1.99999999999999e+004,-1.90201138141926e+001,-3.96908637974216e-001

2.02791895958005e+004,-1.90201160399897e+001,-4.02449121875125e-001

2.05622765331213e+004,-1.90201183283332e+001,-4.08066941504760e-001

2.08493152168224e+004,-1.90201206809796e+001,-4.13763176153226e-001

2.11403608112276e+004,-1.90201230997352e+001,-4.19538920163337e-001

2.14354692507258e+004,-1.90201255864567e+001,-4.25395283143020e-001

2.17346972505211e+004,-1.90201281430527e+001,-4.31333390176890e-001

2.20381023175322e+004,-1.90201307714857e+001,-4.37354382042494e-001

2.23457427614443e+004,-1.90201334737731e+001,-4.43459415426202e-001

2.26576777059159e+004,-1.90201362519889e+001,-4.49649663148197e-001

2.29739670999406e+004,-1.90201391082652e+001,-4.55926314386241e-001

2.32946717293690e+004,-1.90201420447940e+001,-4.62290574900922e-001

2.36198532285905e+004,-1.90201450638289e+001,-4.68743667268849e-001

2.39495740923785e+004,-1.90201481676864e+001,-4.75286831116384e-001

2.42838976879009e+004,-1.90201513587480e+001,-4.81921323356980e-001

2.46228882668982e+004,-1.90201546394625e+001,-4.88648418429825e-001

2.49666109780322e+004,-1.90201580123465e+001,-4.95469408547595e-001

2.53151318794055e+004,-1.90201614799879e+001,-5.02385603939296e-001

2.56685179512580e+004,-1.90201650450467e+001,-5.09398333104464e-001

2.60268371088386e+004,-1.90201687102577e+001,-5.16508943065283e-001

2.63901582154578e+004,-1.90201724784322e+001,-5.23718799625422e-001

2.67585510957221e+004,-1.90201763524605e+001,-5.31029287629552e-001

2.71320865489533e+004,-1.90201803353137e+001,-5.38441811229959e-001

2.75108363627948e+004,-1.90201844300462e+001,-5.45957794154994e-001

2.78948733270080e+004,-1.90201886397981e+001,-5.53578679979322e-001

2.82842712474618e+004,-1.90201929677973e+001,-5.61305932402017e-001

2.86791049603164e+004,-1.90201974173622e+001,-5.69141035525316e-001

2.90794503464061e+004,-1.90202019919042e+001,-5.77085494137721e-001

2.94853843458219e+004,-1.90202066949302e+001,-5.85140834003086e-001

2.98969849726987e+004,-1.90202115300454e+001,-5.93308602149957e-001

3.03143313302078e+004,-1.90202165009558e+001,-6.01590367168225e-001

3.07375036257601e+004,-1.90202216114713e+001,-6.09987719509598e-001

3.11665831864199e+004,-1.90202268655084e+001,-6.18502271789015e-001

3.16016524745350e+004,-1.90202322670932e+001,-6.27135659093899e-001

3.20427951035848e+004,-1.90202378203646e+001,-6.35889539296824e-001

3.24900958542493e+004,-1.90202435295773e+001,-6.44765593370245e-001

3.29436406907028e+004,-1.90202493991049e+001,-6.53765525707803e-001

3.34035167771346e+004,-1.90202554334436e+001,-6.62891064449886e-001

3.38698124945009e+004,-1.90202616372154e+001,-6.72143961812479e-001

3.43426174575100e+004,-1.90202680151712e+001,-6.81525994422703e-001

3.48220225318448e+004,-1.90202745721952e+001,-6.91038963655552e-001

3.53081198516260e+004,-1.90202813133080e+001,-7.00684695977500e-001

3.58010028371187e+004,-1.90202882436705e+001,-7.10465043295977e-001

3.63007662126863e+004,-1.90202953685880e+001,-7.20381883310571e-001

3.68075060249948e+004,-1.90203026935142e+001,-7.30437119871142e-001

3.73213196614721e+004,-1.90203102240548e+001,-7.40632683341014e-001

3.78423058690237e+004,-1.90203179659725e+001,-7.50970530962951e-001

3.83705647730104e+004,-1.90203259251909e+001,-7.61452647232023e-001

3.89061978964912e+004,-1.90203341077990e+001,-7.72081044274724e-001

3.94493081797342e+004,-1.90203425200559e+001,-7.82857762229284e-001

3.99999999999998e+004,-1.90203511683953e+001,-7.93784869634855e-001

4.05583791916010e+004,-1.90203600594308e+001,-8.04864463824500e-001

4.11245530662425e+004,-1.90203691999604e+001,-8.16098671323886e-001

4.16986304336447e+004,-1.90203785969716e+001,-8.27489648254829e-001

4.22807216224550e+004,-1.90203882576473e+001,-8.39039580744625e-001

4.28709385014515e+004,-1.90203981893704e+001,-8.50750685341246e-001

4.34693945010421e+004,-1.90204083997298e+001,-8.62625209434789e-001

4.40762046350642e+004,-1.90204188965260e+001,-8.74665431682004e-001

4.46914855228886e+004,-1.90204296877769e+001,-8.86873662440174e-001

4.53153554118317e+004,-1.90204407817238e+001,-8.99252244203725e-001

4.59479341998812e+004,-1.90204521868376e+001,-9.11803552049069e-001

4.65893434587380e+004,-1.90204639118253e+001,-9.24529994083923e-001

4.72397064571810e+004,-1.90204759656362e+001,-9.37434011903791e-001

4.78991481847569e+004,-1.90204883574687e+001,-9.50518081053316e-001

4.85677953758016e+004,-1.90205010967774e+001,-9.63784711494775e-001

4.92457765337964e+004,-1.90205141932796e+001,-9.77236448084138e-001

4.99332219560642e+004,-1.90205276569634e+001,-9.90875871049500e-001

5.06302637588109e+004,-1.90205414980942e+001,-1.00470559648157e+000

5.13370359025159e+004,-1.90205557272230e+001,-1.01872827682435e+000

5.20536742176771e+004,-1.90205703551938e+001,-1.03294660137901e+000

5.27803164309155e+004,-1.90205853931521e+001,-1.04736329680997e+000

5.35171021914442e+004,-1.90206008525528e+001,-1.06198112765793e+000

5.42641730979066e+004,-1.90206167451686e+001,-1.07680289686315e+000

5.50216727255895e+004,-1.90206330830995e+001,-1.09183144629171e+000

5.57897466540159e+004,-1.90206498787804e+001,-1.10706965727180e+000

5.65685424949235e+004,-1.90206671449918e+001,-1.12252045113398e+000

5.73582099206328e+004,-1.90206848948679e+001,-1.13818678976366e+000

5.81589006928121e+004,-1.90207031419071e+001,-1.15407167615496e+000

5.89707686916437e+004,-1.90207218999820e+001,-1.17017815497596e+000

5.97939699453972e+004,-1.90207411833487e+001,-1.18650931314058e+000

6.06286626604156e+004,-1.90207610066583e+001,-1.20306828038771e+000

6.14750072515201e+004,-1.90207813849670e+001,-1.21985822986692e+000

6.23331663728396e+004,-1.90208023337475e+001,-1.23688237873426e+000

6.32033049490698e+004,-1.90208238688999e+001,-1.25414398875404e+000

6.40855902071694e+004,-1.90208460067640e+001,-1.27164636690927e+000

6.49801917084985e+004,-1.90208687641302e+001,-1.28939286602028e+000

6.58872813814055e+004,-1.90208921582528e+001,-1.30738688537098e+000

6.68070335542691e+004,-1.90209162068619e+001,-1.32563187134324e+000

6.77396249890018e+004,-1.90209409281763e+001,-1.34413131805993e+000

6.86852349150199e+004,-1.90209663409169e+001,-1.36288876803723e+000

6.96440450636895e+004,-1.90209924643204e+001,-1.38190781284281e+000

7.06162397032520e+004,-1.90210193181526e+001,-1.40119209376662e+000

7.16020056742374e+004,-1.90210469227234e+001,-1.42074530249482e+000

7.26015324253724e+004,-1.90210752989008e+001,-1.44057118179930e+000

7.36150120499896e+004,-1.90211044681263e+001,-1.46067352622954e+000

7.46426393229441e+004,-1.90211344524300e+001,-1.48105618281841e+000

7.56846117380472e+004,-1.90211652744468e+001,-1.50172305179370e+000

7.67411295460207e+004,-1.90211969574319e+001,-1.52267808730095e+000

7.78123957929823e+004,-1.90212295252781e+001,-1.54392529813413e+000

7.88986163594682e+004,-1.90212630025322e+001,-1.56546874847730e+000

7.99999999999995e+004,-1.90212974144130e+001,-1.58731255865416e+000

8.11167583832018e+004,-1.90213327868287e+001,-1.60946090588701e+000

8.22491061324848e+004,-1.90213691463952e+001,-1.63191802506831e+000

8.33972608672892e+004,-1.90214065204555e+001,-1.65468820953738e+000

8.45614432449099e+004,-1.90214449370982e+001,-1.67777581187184e+000

8.57418770029029e+004,-1.90214844251775e+001,-1.70118524468521e+000

8.69387890020841e+004,-1.90215250143337e+001,-1.72492098143573e+000

8.81524092701283e+004,-1.90215667350133e+001,-1.74898755724791e+000

8.93829710457770e+004,-1.90216096184908e+001,-1.77338956973932e+000

9.06307108236633e+004,-1.90216536968899e+001,-1.79813167986348e+000

9.18958683997622e+004,-1.90216990032064e+001,-1.82321861275811e+000

9.31786869174758e+004,-1.90217455713303e+001,-1.84865515860763e+000

9.44794129143618e+004,-1.90217934360695e+001,-1.87444617351537e+000

9.57982963695136e+004,-1.90218426331738e+001,-1.90059658038485e+000

9.71355907516031e+004,-1.90218931993590e+001,-1.92711136981505e+000

9.84915530675926e+004,-1.90219451723327e+001,-1.95399560100361e+000

9.98664439121282e+004,-1.90219985908187e+001,-1.98125440266459e+000

1.01260527517622e+005,-1.90220534945847e+001,-2.00889297395356e+000

1.02674071805032e+005,-1.90221099244682e+001,-2.03691658540743e+000

1.04107348435354e+005,-1.90221679224041e+001,-2.06533057989406e+000

1.05560632861831e+005,-1.90222275314534e+001,-2.09414037357374e+000

1.07034204382888e+005,-1.90222887958312e+001,-2.12335145687209e+000

1.08528346195813e+005,-1.90223517609369e+001,-2.15296939546572e+000

1.10043345451179e+005,-1.90224164733838e+001,-2.18299983127886e+000

1.11579493308032e+005,-1.90224829810299e+001,-2.21344848349205e+000

1.13137084989847e+005,-1.90225513330100e+001,-2.24432114956371e+000

1.14716419841265e+005,-1.90226215797670e+001,-2.27562370626265e+000

1.16317801385624e+005,-1.90226937730856e+001,-2.30736211071568e+000

1.17941537383287e+005,-1.90227679661254e+001,-2.33954240146291e+000

1.19587939890794e+005,-1.90228442134557e+001,-2.37217069953106e+000

1.21257325320831e+005,-1.90229225710904e+001,-2.40525320951582e+000

1.22950014503040e+005,-1.90230030965237e+001,-2.43879622067773e+000

1.24666332745679e+005,-1.90230858487674e+001,-2.47280610805244e+000

1.26406609898139e+005,-1.90231708883877e+001,-2.50728933357263e+000

1.28171180414339e+005,-1.90232582775436e+001,-2.54225244720316e+000

1.29960383416997e+005,-1.90233480800265e+001,-2.57770208808989e+000

1.31774562762811e+005,-1.90234403612989e+001,-2.61364498572259e+000

1.33614067108538e+005,-1.90235351885364e+001,-2.65008796111036e+000

1.35479249978003e+005,-1.90236326306682e+001,-2.68703792797047e+000

1.37370469830040e+005,-1.90237327584200e+001,-2.72450189393276e+000

1.39288090127379e+005,-1.90238356443571e+001,-2.76248696175646e+000

1.41232479406504e+005,-1.90239413629282e+001,-2.80100033056133e+000

1.43204011348474e+005,-1.90240499905108e+001,-2.84004929707371e+000

1.45203064850745e+005,-1.90241616054566e+001,-2.87964125688629e+000

1.47230024099979e+005,-1.90242762881386e+001,-2.91978370573231e+000

1.49285278645888e+005,-1.90243941209982e+001,-2.96048424077543e+000

1.51369223476094e+005,-1.90245151885942e+001,-3.00175056191349e+000

1.53482259092041e+005,-1.90246395776520e+001,-3.04359047309733e+000

1.55624791585964e+005,-1.90247673771138e+001,-3.08601188366522e+000

1.57797232718936e+005,-1.90248986781902e+001,-3.12902280969229e+000

1.59999999999999e+005,-1.90250335744120e+001,-3.17263137535559e+000

1.62233516766403e+005,-1.90251721616837e+001,-3.21684581431488e+000

1.64498212264969e+005,-1.90253145383374e+001,-3.26167447110921e+000

1.66794521734578e+005,-1.90254608051878e+001,-3.30712580256946e+000

1.69122886489819e+005,-1.90256110655882e+001,-3.35320837924761e+000

1.71483754005805e+005,-1.90257654254876e+001,-3.39993088686135e+000

1.73877578004168e+005,-1.90259239934883e+001,-3.44730212775780e+000

1.76304818540256e+005,-1.90260868809052e+001,-3.49533102239065e+000

1.78765942091554e+005,-1.90262542018255e+001,-3.54402661081822e+000

1.81261421647326e+005,-1.90264260731692e+001,-3.59339805421609e+000

1.83791736799524e+005,-1.90266026147517e+001,-3.64345463640849e+000

1.86357373834951e+005,-1.90267839493457e+001,-3.69420576541859e+000

1.88958825828723e+005,-1.90269702027461e+001,-3.74566097503494e+000

1.91596592739027e+005,-1.90271615038337e+001,-3.79782992639825e+000

1.94271181503206e+005,-1.90273579846420e+001,-3.85072240960646e+000

1.96983106135185e+005,-1.90275597804234e+001,-3.90434834533902e+000

1.99732887824256e+005,-1.90277670297176e+001,-3.95871778649992e+000

2.02521055035243e+005,-1.90279798744199e+001,-4.01384091988206e+000

2.05348143610063e+005,-1.90281984598516e+001,-4.06972806785099e+000

2.08214696870707e+005,-1.90284229348311e+001,-4.12638969004949e+000

2.11121265723661e+005,-1.90286534517452e+001,-4.18383638512248e+000

2.14068408765776e+005,-1.90288901666230e+001,-4.24207889246578e+000

2.17056692391625e+005,-1.90291332392094e+001,-4.30112809399344e+000

2.20086690902357e+005,-1.90293828330409e+001,-4.36099501593018e+000

2.23158986616063e+005,-1.90296391155215e+001,-4.42169083062606e+000

2.26274169979693e+005,-1.90299022580001e+001,-4.48322685839362e+000

2.29432839682530e+005,-1.90301724358495e+001,-4.54561456937016e+000

2.32635602771247e+005,-1.90304498285457e+001,-4.60886558540433e+000

2.35883074766574e+005,-1.90307346197490e+001,-4.67299168196725e+000

2.39175879781588e+005,-1.90310269973858e+001,-4.73800479009016e+000

2.42514650641661e+005,-1.90313271537323e+001,-4.80391699832781e+000

2.45900029006080e+005,-1.90316352854986e+001,-4.87074055474942e+000

2.49332665491357e+005,-1.90319515939149e+001,-4.93848786895648e+000

2.52813219796278e+005,-1.90322762848186e+001,-5.00717151413058e+000

2.56342360828676e+005,-1.90326095687424e+001,-5.07680422910876e+000

2.59920766833993e+005,-1.90329516610048e+001,-5.14739892048979e+000

2.63549125525621e+005,-1.90333027818016e+001,-5.21896866477036e+000

2.67228134217075e+005,-1.90336631562979e+001,-5.29152671051451e+000

2.70958499956006e+005,-1.90340330147239e+001,-5.36508648055295e+000

2.74740939660078e+005,-1.90344125924703e+001,-5.43966157421832e+000

2.78576180254757e+005,-1.90348021301866e+001,-5.51526576961196e+000

2.82464958813007e+005,-1.90352018738804e+001,-5.59191302590852e+000

2.86408022696948e+005,-1.90356120750202e+001,-5.66961748569406e+000

2.90406129701488e+005,-1.90360329906380e+001,-5.74839347734254e+000

2.94460048199957e+005,-1.90364648834358e+001,-5.82825551743013e+000

2.98570557291775e+005,-1.90369080218936e+001,-5.90921831318765e+000

3.02738446952187e+005,-1.90373626803801e+001,-5.99129676499418e+000

3.06964518184081e+005,-1.90378291392656e+001,-6.07450596891026e+000

3.11249583171928e+005,-1.90383076850379e+001,-6.15886121925402e+000

3.15594465437872e+005,-1.90387986104210e+001,-6.24437801121948e+000

3.19999999999997e+005,-1.90393022144964e+001,-6.33107204354025e+000

3.24467033532806e+005,-1.90398188028285e+001,-6.41895922119586e+000

3.28996424529938e+005,-1.90403486875926e+001,-6.50805565816627e+000

3.33589043469155e+005,-1.90408921877066e+001,-6.59837768023308e+000

3.38245772979638e+005,-1.90414496289675e+001,-6.68994182782698e+000

3.42967508011610e+005,-1.90420213441903e+001,-6.78276485892711e+000

3.47755156008335e+005,-1.90426076733536e+001,-6.87686375200685e+000

3.52609637080511e+005,-1.90432089637471e+001,-6.97225570903389e+000

3.57531884183106e+005,-1.90438255701264e+001,-7.06895815851889e+000

3.62522843294651e+005,-1.90444578548718e+001,-7.16698875861895e+000

3.67583473599047e+005,-1.90451061881530e+001,-7.26636540029236e+000

3.72714747669902e+005,-1.90457709480994e+001,-7.36710621050864e+000

3.77917651657445e+005,-1.90464525209771e+001,-7.46922955551288e+000

3.83193185478053e+005,-1.90471513013724e+001,-7.57275404414355e+000

3.88542363006410e+005,-1.90478676923818e+001,-7.67769853120819e+000

3.93966212270369e+005,-1.90486021058102e+001,-7.78408212091294e+000

3.99465775648511e+005,-1.90493549623761e+001,-7.89192417034950e+000

4.05042110070485e+005,-1.90501266919258e+001,-8.00124429303676e+000

4.10696287220124e+005,-1.90509177336558e+001,-8.11206236252047e+000

4.16429393741414e+005,-1.90517285363442e+001,-8.22439851602753e+000

4.22242531447321e+005,-1.90525595585924e+001,-8.33827315817661e+000

4.28136817531551e+005,-1.90534112690762e+001,-8.45370696474386e+000

4.34113384783250e+005,-1.90542841468077e+001,-8.57072088648430e+000

4.40173381804713e+005,-1.90551786814087e+001,-8.68933615300585e+000

4.46317973232124e+005,-1.90560953733948e+001,-8.80957427669779e+000

4.52548339959385e+005,-1.90570347344728e+001,-8.93145705671026e+000

4.58865679365059e+005,-1.90579972878496e+001,-9.05500658298515e+000

4.65271205542494e+005,-1.90589835685552e+001,-9.18024524033541e+000

4.71766149533147e+005,-1.90599941237787e+001,-9.30719571257316e+000

4.78351759563174e+005,-1.90610295132192e+001,-9.43588098668144e+000

4.85029301283321e+005,-1.90620903094510e+001,-9.56632435703124e+000

4.91800058012158e+005,-1.90631770983042e+001,-9.69854942963867e+000

4.98665330982714e+005,-1.90642904792614e+001,-9.83258012646022e+000

5.05626439592555e+005,-1.90654310658706e+001,-9.96844068972468e+000

5.12684721657352e+005,-1.90665994861747e+001,-1.01061556862970e+001

5.19841533667984e+005,-1.90677963831591e+001,-1.02457500120712e+001

5.27098251051240e+005,-1.90690224152163e+001,-1.03872488963899e+001

5.34456268434150e+005,-1.90702782566295e+001,-1.05306779064850e+001

5.41916999912011e+005,-1.90715645980746e+001,-1.06760629519374e+001

