Freq.,VOut,OutRef

1.00000000000000e+004,-1.10728202984059e+001,-1.06299340211858e-001

1.01395947979003e+004,-1.10728204812659e+001,-1.07783205214880e-001

1.02811382665607e+004,-1.10728206692644e+001,-1.09287783418317e-001

1.04246576084112e+004,-1.10728208625464e+001,-1.10813363930811e-001

1.05701804056138e+004,-1.10728210612598e+001,-1.12360239901552e-001

1.07177346253629e+004,-1.10728212655572e+001,-1.13928708567930e-001

1.08673486252606e+004,-1.10728214755960e+001,-1.15519071311948e-001

1.10190511587661e+004,-1.10728216915367e+001,-1.17131633728361e-001

1.11728713807222e+004,-1.10728219135457e+001,-1.18766705668086e-001

1.13288388529580e+004,-1.10728221417930e+001,-1.20424601312972e-001

1.14869835499703e+004,-1.10728223764541e+001,-1.22105639222854e-001

1.16473358646846e+004,-1.10728226177089e+001,-1.23810142407542e-001

1.18099266142953e+004,-1.10728228657429e+001,-1.25538438379060e-001

1.19747870461893e+004,-1.10728231207462e+001,-1.27290859224152e-001

1.21419488439505e+004,-1.10728233829145e+001,-1.29067741660328e-001

1.23114441334492e+004,-1.10728236524491e+001,-1.30869427103276e-001

1.24833054890161e+004,-1.10728239295569e+001,-1.32696261733244e-001

1.26575659397028e+004,-1.10728242144505e+001,-1.34548596560163e-001

1.28342589756290e+004,-1.10728245073487e+001,-1.36426787490092e-001

1.30134185544193e+004,-1.10728248084759e+001,-1.38331195397880e-001

1.31950791077289e+004,-1.10728251180634e+001,-1.40262186190742e-001

1.33792755478611e+004,-1.10728254363487e+001,-1.42220130880726e-001

1.35660432744767e+004,-1.10728257635757e+001,-1.44205405659339e-001

1.37554181813974e+004,-1.10728260999961e+001,-1.46218391959961e-001

1.39474366635040e+004,-1.10728264458674e+001,-1.48259476544090e-001

1.41421356237309e+004,-1.10728268014550e+001,-1.50329051565879e-001

1.43395524801583e+004,-1.10728271670318e+001,-1.52427514649385e-001

1.45397251732031e+004,-1.10728275428778e+001,-1.54555268968255e-001

1.47426921729110e+004,-1.10728279292819e+001,-1.56712723315871e-001

1.49484924863494e+004,-1.10728283265399e+001,-1.58900292193909e-001

1.51571656651040e+004,-1.10728287349568e+001,-1.61118395880646e-001

1.53687518128801e+004,-1.10728291548452e+001,-1.63367460522661e-001

1.55832915932100e+004,-1.10728295865277e+001,-1.65647918204607e-001

1.58008262372675e+004,-1.10728300303348e+001,-1.67960207042190e-001

1.60213975517924e+004,-1.10728304866068e+001,-1.70304771261829e-001

1.62450479271247e+004,-1.10728309556936e+001,-1.72682061283752e-001

1.64718203453514e+004,-1.10728314379543e+001,-1.75092533814089e-001

1.67017583885674e+004,-1.10728319337591e+001,-1.77536651923964e-001

1.69349062472505e+004,-1.10728324434877e+001,-1.80014885146212e-001

1.71713087287550e+004,-1.10728329675306e+001,-1.82527709562065e-001

1.74110112659224e+004,-1.10728335062892e+001,-1.85075607892049e-001

1.76540599258131e+004,-1.10728340601766e+001,-1.87659069586552e-001

1.79005014185594e+004,-1.10728346296169e+001,-1.90278590924481e-001

1.81503831063432e+004,-1.10728352150463e+001,-1.92934675104293e-001

1.84037530124975e+004,-1.10728358169130e+001,-1.95627832341343e-001

1.86606598307361e+004,-1.10728364356783e+001,-1.98358579964029e-001

1.89211529345119e+004,-1.10728370718157e+001,-2.01127442517479e-001

1.91852823865052e+004,-1.10728377258124e+001,-2.03934951857737e-001

1.94530989482457e+004,-1.10728383981689e+001,-2.06781647258753e-001

1.97246540898671e+004,-1.10728390894000e+001,-2.09668075512152e-001

1.99999999999999e+004,-1.10728398000346e+001,-2.12594791033975e-001

2.02791895958005e+004,-1.10728405306168e+001,-2.15562355967144e-001

2.05622765331213e+004,-1.10728412817053e+001,-2.18571340294182e-001

2.08493152168224e+004,-1.10728420538750e+001,-2.21622321942568e-001

2.11403608112276e+004,-1.10728428477164e+001,-2.24715886895887e-001

2.14354692507258e+004,-1.10728436638367e+001,-2.27852629306052e-001

2.17346972505211e+004,-1.10728445028601e+001,-2.31033151606611e-001

2.20381023175322e+004,-1.10728453654281e+001,-2.34258064629015e-001

2.23457427614443e+004,-1.10728462522001e+001,-2.37527987716935e-001

2.26576777059159e+004,-1.10728471638542e+001,-2.40843548846127e-001

2.29739670999406e+004,-1.10728481010868e+001,-2.44205384745559e-001

2.32946717293690e+004,-1.10728490646142e+001,-2.47614141016806e-001

2.36198532285905e+004,-1.10728500551728e+001,-2.51070472256268e-001

2.39495740923785e+004,-1.10728510735188e+001,-2.54575042184783e-001

2.42838976879009e+004,-1.10728521204304e+001,-2.58128523768950e-001

2.46228882668982e+004,-1.10728531967069e+001,-2.61731599353377e-001

2.49666109780322e+004,-1.10728543031699e+001,-2.65384960788472e-001

2.53151318794055e+004,-1.10728554406641e+001,-2.69089309563484e-001

2.56685179512580e+004,-1.10728566100575e+001,-2.72845356940544e-001

2.60268371088386e+004,-1.10728578122423e+001,-2.76653824089436e-001

2.63901582154578e+004,-1.10728590481358e+001,-2.80515442224372e-001

2.67585510957221e+004,-1.10728603186803e+001,-2.84430952745296e-001

2.71320865489533e+004,-1.10728616248448e+001,-2.88401107377597e-001

2.75108363627948e+004,-1.10728629676250e+001,-2.92426668314953e-001

2.78948733270080e+004,-1.10728643480442e+001,-2.96508408367241e-001

2.82842712474618e+004,-1.10728657671543e+001,-3.00647111102987e-001

2.86791049603164e+004,-1.10728672260363e+001,-3.04843571002644e-001

2.90794503464061e+004,-1.10728687258013e+001,-3.09098593606695e-001

2.94853843458219e+004,-1.10728702675910e+001,-3.13412995672533e-001

2.98969849726987e+004,-1.10728718525793e+001,-3.17787605323990e-001

3.03143313302078e+004,-1.10728734819719e+001,-3.22223262215393e-001

3.07375036257601e+004,-1.10728751570086e+001,-3.26720817686083e-001

3.11665831864199e+004,-1.10728768789632e+001,-3.31281134923373e-001

3.16016524745350e+004,-1.10728786491448e+001,-3.35905089129228e-001

3.20427951035848e+004,-1.10728804688989e+001,-3.40593567681481e-001

3.24900958542493e+004,-1.10728823396079e+001,-3.45347470306696e-001

3.29436406907028e+004,-1.10728842626931e+001,-3.50167709246643e-001

3.34035167771346e+004,-1.10728862396141e+001,-3.55055209437251e-001

3.38698124945009e+004,-1.10728882718719e+001,-3.60010908675696e-001

3.43426174575100e+004,-1.10728903610082e+001,-3.65035757806087e-001

3.48220225318448e+004,-1.10728925086075e+001,-3.70130720895202e-001

3.53081198516260e+004,-1.10728947162982e+001,-3.75296775414235e-001

3.58010028371187e+004,-1.10728969857533e+001,-3.80534912426963e-001

3.63007662126863e+004,-1.10728993186922e+001,-3.85846136774818e-001

3.68075060249948e+004,-1.10729017168814e+001,-3.91231467268267e-001

3.73213196614721e+004,-1.10729041821362e+001,-3.96691936878209e-001

3.78423058690237e+004,-1.10729067163217e+001,-4.02228592932357e-001

3.83705647730104e+004,-1.10729093213546e+001,-4.07842497310771e-001

3.89061978964912e+004,-1.10729119992037e+001,-4.13534726649602e-001

3.94493081797342e+004,-1.10729147518926e+001,-4.19306372539854e-001

3.99999999999998e+004,-1.10729175815000e+001,-4.25158541737200e-001

4.05583791916010e+004,-1.10729204901615e+001,-4.31092356369113e-001

4.11245530662425e+004,-1.10729234800714e+001,-4.37108954145131e-001

4.16986304336447e+004,-1.10729265534843e+001,-4.43209488571565e-001

4.22807216224550e+004,-1.10729297127160e+001,-4.49395129170207e-001

4.28709385014515e+004,-1.10729329601460e+001,-4.55667061694337e-001

4.34693945010421e+004,-1.10729362982189e+001,-4.62026488355313e-001

4.40762046350642e+004,-1.10729397294456e+001,-4.68474628047246e-001

4.46914855228886e+004,-1.10729432564058e+001,-4.75012716574888e-001

4.53153554118317e+004,-1.10729468817495e+001,-4.81642006884517e-001

4.59479341998812e+004,-1.10729506081987e+001,-4.88363769302206e-001

4.65893434587380e+004,-1.10729544385497e+001,-4.95179291767120e-001

4.72397064571810e+004,-1.10729583756743e+001,-5.02089880076992e-001

4.78991481847569e+004,-1.10729624225229e+001,-5.09096858128864e-001

4.85677953758016e+004,-1.10729665821254e+001,-5.16201568168667e-001

4.92457765337964e+004,-1.10729708575941e+001,-5.23405371040749e-001

4.99332219560642e+004,-1.10729752521255e+001,-5.30709646440892e-001

5.06302637588109e+004,-1.10729797690025e+001,-5.38115793175786e-001

5.13370359025159e+004,-1.10729844115964e+001,-5.45625229422893e-001

5.20536742176771e+004,-1.10729891833697e+001,-5.53239392993000e-001

5.27803164309155e+004,-1.10729940878782e+001,-5.60959741598123e-001

5.35171021914442e+004,-1.10729991287733e+001,-5.68787753123565e-001

5.42641730979066e+004,-1.10730043098046e+001,-5.76724925900935e-001

5.50216727255895e+004,-1.10730096348220e+001,-5.84772778986447e-001

5.57897466540159e+004,-1.10730151077791e+001,-5.92932852441468e-001

5.65685424949235e+004,-1.10730207327350e+001,-6.01206707619768e-001

5.73582099206328e+004,-1.10730265138573e+001,-6.09595927453942e-001

5.81589006928121e+004,-1.10730324554247e+001,-6.18102116748983e-001

5.89707686916437e+004,-1.10730385618303e+001,-6.26726902477025e-001

5.97939699453972e+004,-1.10730448375838e+001,-6.35471934079182e-001

6.06286626604156e+004,-1.10730512873145e+001,-6.44338883768223e-001

6.14750072515201e+004,-1.10730579157747e+001,-6.53329446835166e-001

6.23331663728396e+004,-1.10730647278426e+001,-6.62445341961919e-001

6.32033049490698e+004,-1.10730717285250e+001,-6.71688311535919e-001

6.40855902071694e+004,-1.10730789229609e+001,-6.81060121970853e-001

6.49801917084985e+004,-1.10730863164244e+001,-6.90562564027261e-001

6.58872813814055e+004,-1.10730939143285e+001,-7.00197453141258e-001

6.68070335542691e+004,-1.10731017222280e+001,-7.09966629755952e-001

6.77396249890018e+004,-1.10731097458227e+001,-7.19871959658007e-001

6.86852349150199e+004,-1.10731179909618e+001,-7.29915334313284e-001

6.96440450636895e+004,-1.10731264636465e+001,-7.40098671215702e-001

7.06162397032520e+004,-1.10731351700340e+001,-7.50423914232794e-001

7.16020056742374e+004,-1.10731441164414e+001,-7.60893033955787e-001

7.26015324253724e+004,-1.10731533093489e+001,-7.71508028061266e-001

7.36150120499896e+004,-1.10731627554041e+001,-7.82270921667435e-001

7.46426393229441e+004,-1.10731724614258e+001,-7.93183767701248e-001

7.56846117380472e+004,-1.10731824344075e+001,-8.04248647268800e-001

7.67411295460207e+004,-1.10731926815221e+001,-8.15467670028569e-001

7.78123957929823e+004,-1.10732032101253e+001,-8.26842974569921e-001

7.88986163594682e+004,-1.10732140277600e+001,-8.38376728796637e-001

7.99999999999995e+004,-1.10732251421609e+001,-8.50071130313887e-001

8.11167583832018e+004,-1.10732365612578e+001,-8.61928406822581e-001

8.22491061324848e+004,-1.10732482931807e+001,-8.73950816513421e-001

8.33972608672892e+004,-1.10732603462640e+001,-8.86140648470934e-001

8.45614432449099e+004,-1.10732727290505e+001,-8.98500223078359e-001

8.57418770029029e+004,-1.10732854502963e+001,-9.11031892429601e-001

8.69387890020841e+004,-1.10732985189754e+001,-9.23738040743775e-001

8.81524092701283e+004,-1.10733119442835e+001,-9.36621084788002e-001

8.93829710457770e+004,-1.10733257356438e+001,-9.49683474299926e-001

9.06307108236633e+004,-1.10733399027103e+001,-9.62927692421512e-001

9.18958683997622e+004,-1.10733544553736e+001,-9.76356256131587e-001

9.31786869174758e+004,-1.10733694037652e+001,-9.89971716686431e-001

9.44794129143618e+004,-1.10733847582620e+001,-1.00377666006640e+000

9.57982963695136e+004,-1.10734005294914e+001,-1.01777370742506e+000

9.71355907516031e+004,-1.10734167283361e+001,-1.03196551554495e+000

9.84915530675926e+004,-1.10734333659386e+001,-1.04635477729726e+000

9.98664439121282e+004,-1.10734504537065e+001,-1.06094422210752e+000

1.01260527517622e+005,-1.10734680033168e+001,-1.07573661642671e+000

1.02674071805032e+005,-1.10734860267213e+001,-1.09073476420654e+000

1.04107348435354e+005,-1.10735045361508e+001,-1.10594150738093e+000

1.05560632861831e+005,-1.10735235441205e+001,-1.12135972635115e+000

1.07034204382888e+005,-1.10735430634342e+001,-1.13699234047870e+000

1.08528346195813e+005,-1.10735631071896e+001,-1.15284230858156e+000

1.10043345451179e+005,-1.10735836887828e+001,-1.16891262943553e+000

1.11579493308032e+005,-1.10736048219127e+001,-1.18520634228391e+000

1.13137084989847e+005,-1.10736265205858e+001,-1.20172652734806e+000

1.14716419841265e+005,-1.10736487991210e+001,-1.21847630634708e+000

1.16317801385624e+005,-1.10736716721534e+001,-1.23545884302192e+000

1.17941537383287e+005,-1.10736951546394e+001,-1.25267734366398e+000

1.19587939890794e+005,-1.10737192618603e+001,-1.27013505765056e+000

1.21257325320831e+005,-1.10737440094268e+001,-1.28783527798548e+000

1.22950014503040e+005,-1.10737694132827e+001,-1.30578134184525e+000

1.24666332745679e+005,-1.10737954897090e+001,-1.32397663113025e+000

1.26406609898139e+005,-1.10738222553274e+001,-1.34242457302346e+000

1.28171180414339e+005,-1.10738497271037e+001,-1.36112864055335e+000

1.29960383416997e+005,-1.10738779223512e+001,-1.38009235316233e+000

1.31774562762811e+005,-1.10739068587336e+001,-1.39931927728222e+000

1.33614067108538e+005,-1.10739365542680e+001,-1.41881302691641e+000

1.35479249978003e+005,-1.10739670273271e+001,-1.43857726422422e+000

1.37370469830040e+005,-1.10739982966417e+001,-1.45861570011594e+000

1.39288090127379e+005,-1.10740303813027e+001,-1.47893209485019e+000

1.41232479406504e+005,-1.10740633007621e+001,-1.49953025864077e+000

1.43204011348474e+005,-1.10740970748350e+001,-1.52041405226560e+000

1.45203064850745e+005,-1.10741317236998e+001,-1.54158738768703e+000

1.47230024099979e+005,-1.10741672678990e+001,-1.56305422867285e+000

1.49285278645888e+005,-1.10742037283388e+001,-1.58481859142896e+000

1.51369223476094e+005,-1.10742411262888e+001,-1.60688454523504e+000

1.53482259092041e+005,-1.10742794833809e+001,-1.62925621308806e+000

1.55624791585964e+005,-1.10743188216078e+001,-1.65193777235266e+000

1.57797232718936e+005,-1.10743591633205e+001,-1.67493345541854e+000

1.59999999999999e+005,-1.10744005312257e+001,-1.69824755036348e+000

1.62233516766403e+005,-1.10744429483823e+001,-1.72188440162496e+000

1.64498212264969e+005,-1.10744864381973e+001,-1.74584841067846e+000

1.66794521734578e+005,-1.10745310244204e+001,-1.77014403672272e+000

1.69122886489819e+005,-1.10745767311392e+001,-1.79477579737264e+000

1.71483754005805e+005,-1.10746235827717e+001,-1.81974826935983e+000

1.73877578004168e+005,-1.10746716040594e+001,-1.84506608924162e+000

1.76304818540256e+005,-1.10747208200586e+001,-1.87073395411817e+000

1.78765942091554e+005,-1.10747712561314e+001,-1.89675662235552e+000

1.81261421647326e+005,-1.10748229379351e+001,-1.92313891431947e+000

1.83791736799524e+005,-1.10748758914108e+001,-1.94988571311943e+000

1.86357373834951e+005,-1.10749301427708e+001,-1.97700196535599e+000

1.88958825828723e+005,-1.10749857184845e+001,-2.00449268188372e+000

1.91596592739027e+005,-1.10750426452640e+001,-2.03236293857940e+000

1.94271181503206e+005,-1.10751009500472e+001,-2.06061787712169e+000

1.96983106135185e+005,-1.10751606599799e+001,-2.08926270578044e+000

1.99732887824256e+005,-1.10752218023973e+001,-2.11830270021763e+000

2.02521055035243e+005,-1.10752844048028e+001,-2.14774320429641e+000

2.05348143610063e+005,-1.10753484948456e+001,-2.17758963090579e+000

2.08214696870707e+005,-1.10754141002975e+001,-2.20784746279197e+000

2.11121265723661e+005,-1.10754812490266e+001,-2.23852225340583e+000

2.14068408765776e+005,-1.10755499689706e+001,-2.26961962776060e+000

2.17056692391625e+005,-1.10756202881069e+001,-2.30114528330416e+000

2.20086690902357e+005,-1.10756922344223e+001,-2.33310499080448e+000

2.23158986616063e+005,-1.10757658358796e+001,-2.36550459524817e+000

2.26274169979693e+005,-1.10758411203824e+001,-2.39835001675639e+000

2.29432839682530e+005,-1.10759181157381e+001,-2.43164725151353e+000

2.32635602771247e+005,-1.10759968496186e+001,-2.46540237271354e+000

2.35883074766574e+005,-1.10760773495186e+001,-2.49962153152322e+000

2.39175879781588e+005,-1.10761596427120e+001,-2.53431095806157e+000

2.42514650641661e+005,-1.10762437562052e+001,-2.56947696240014e+000

2.45900029006080e+005,-1.10763297166885e+001,-2.60512593557977e+000

2.49332665491357e+005,-1.10764175504853e+001,-2.64126435064911e+000

2.52813219796278e+005,-1.10765072834977e+001,-2.67789876372371e+000

2.56342360828676e+005,-1.10765989411509e+001,-2.71503581506658e+000

2.59920766833993e+005,-1.10766925483334e+001,-2.75268223019231e+000

2.63549125525621e+005,-1.10767881293357e+001,-2.79084482099480e+000

2.67228134217075e+005,-1.10768857077857e+001,-2.82953048689922e+000

2.70958499956006e+005,-1.10769853065811e+001,-2.86874621604150e+000

2.74740939660078e+005,-1.10770869478193e+001,-2.90849908647440e+000

2.78576180254757e+005,-1.10771906527248e+001,-2.94879626740104e+000

2.82464958813007e+005,-1.10772964415723e+001,-2.98964502043933e+000

2.86408022696948e+005,-1.10774043336085e+001,-3.03105270091743e+000

2.90406129701488e+005,-1.10775143469696e+001,-3.07302675920074e+000

2.94460048199957e+005,-1.10776264985971e+001,-3.11557474205249e+000

2.98570557291775e+005,-1.10777408041494e+001,-3.15870429402990e+000

3.02738446952187e+005,-1.10778572779111e+001,-3.20242315891632e+000

3.06964518184081e+005,-1.10779759326998e+001,-3.24673918119163e+000

3.11249583171928e+005,-1.10780967797685e+001,-3.29166030754174e+000

3.15594465437872e+005,-1.10782198287072e+001,-3.33719458840906e+000

3.19999999999997e+005,-1.10783450873397e+001,-3.38335017958520e+000

3.24467033532806e+005,-1.10784725616188e+001,-3.43013534384814e+000

3.28996424529938e+005,-1.10786022555187e+001,-3.47755845264439e+000

3.33589043469155e+005,-1.10787341709239e+001,-3.52562798781938e+000

3.38245772979638e+005,-1.10788683075170e+001,-3.57435254339470e+000

3.42967508011610e+005,-1.10790046626630e+001,-3.62374082739787e+000

3.47755156008335e+005,-1.10791432312911e+001,-3.67380166374297e+000

3.52609637080511e+005,-1.10792840057758e+001,-3.72454399416392e+000

3.57531884183106e+005,-1.10794269758142e+001,-3.77597688020558e+000

3.62522843294651e+005,-1.10795721283024e+001,-3.82810950526842e+000

3.67583473599047e+005,-1.10797194472103e+001,-3.88095117671397e+000

3.72714747669902e+005,-1.10798689134545e+001,-3.93451132802806e+000

3.77917651657445e+005,-1.10800205047700e+001,-3.98879952104648e+000

3.83193185478053e+005,-1.10801741955807e+001,-4.04382544824262e+000

3.88542363006410e+005,-1.10803299568698e+001,-4.09959893507978e+000

3.93966212270369e+005,-1.10804877560483e+001,-4.15612994242694e+000

3.99465775648511e+005,-1.10806475568245e+001,-4.21342856904315e+000

4.05042110070485e+005,-1.10808093190724e+001,-4.27150505412743e+000

4.10696287220124e+005,-1.10809729987009e+001,-4.33036977993895e+000

4.16429393741414e+005,-1.10811385475234e+001,-4.39003327448476e+000

4.22242531447321e+005,-1.10813059131282e+001,-4.45050621428023e+000

4.28136817531551e+005,-1.10814750387499e+001,-4.51179942717724e+000

4.34113384783250e+005,-1.10816458631424e+001,-4.57392389526798e+000

4.40173381804713e+005,-1.10818183204539e+001,-4.63689075785629e+000

4.46317973232124e+005,-1.10819923401037e+001,-4.70071131450495e+000

4.52548339959385e+005,-1.10821678466614e+001,-4.76539702815369e+000

4.58865679365059e+005,-1.10823447597299e+001,-4.83095952831008e+000

4.65271205542494e+005,-1.10825229938301e+001,-4.89741061431233e+000

4.71766149533147e+005,-1.10827024582904e+001,-4.96476225866498e+000

4.78351759563174e+005,-1.10828830571396e+001,-5.03302661044463e+000

4.85029301283321e+005,-1.10830646890039e+001,-5.10221599877857e+000

4.91800058012158e+005,-1.10832472470090e+001,-5.17234293639162e+000

4.98665330982714e+005,-1.10834306186863e+001,-5.24342012322337e+000

5.05626439592555e+005,-1.10836146858853e+001,-5.31546045011199e+000

5.12684721657352e+005,-1.10837993246910e+001,-5.38847700254609e+000

5.19841533667984e+005,-1.10839844053468e+001,-5.46248306448031e+000

5.27098251051240e+005,-1.10841697921848e+001,-5.53749212221460e+000

5.34456268434150e+005,-1.10843553435606e+001,-5.61351786833614e+000

5.41916999912011e+005,-1.10845409117966e+001,-5.69057420571912e+000

