Freq.,VOut,OutRef

1.00000000000000e+004,-1.37328911825348e+001,-1.10852300768844e-001

1.01395947979003e+004,-1.37328914745300e+001,-1.12399718085066e-001

1.02811382665607e+004,-1.37328917747314e+001,-1.13968735561018e-001

1.04246576084112e+004,-1.37328920833701e+001,-1.15559654679884e-001

1.05701804056138e+004,-1.37328924006829e+001,-1.17172781135158e-001

1.07177346253629e+004,-1.37328927269137e+001,-1.18808424883435e-001

1.08673486252606e+004,-1.37328930623127e+001,-1.20466900208477e-001

1.10190511587661e+004,-1.37328934071379e+001,-1.22148525776043e-001

1.11728713807222e+004,-1.37328937616538e+001,-1.23853624701271e-001

1.13288388529580e+004,-1.37328941261326e+001,-1.25582524607391e-001

1.14869835499703e+004,-1.37328945008545e+001,-1.27335557686568e-001

1.16473358646846e+004,-1.37328948861070e+001,-1.29113060767669e-001

1.18099266142953e+004,-1.37328952821859e+001,-1.30915375378908e-001

1.19747870461893e+004,-1.37328956893957e+001,-1.32742847811329e-001

1.21419488439505e+004,-1.37328961080485e+001,-1.34595829192283e-001

1.23114441334492e+004,-1.37328965384659e+001,-1.36474675543164e-001

1.24833054890161e+004,-1.37328969809787e+001,-1.38379747853150e-001

1.26575659397028e+004,-1.37328974359263e+001,-1.40311412148748e-001

1.28342589756290e+004,-1.37328979036580e+001,-1.42270039563497e-001

1.30134185544193e+004,-1.37328983845329e+001,-1.44256006406288e-001

1.31950791077289e+004,-1.37328988789200e+001,-1.46269694237989e-001

1.33792755478611e+004,-1.37328993871990e+001,-1.48311489940336e-001

1.35660432744767e+004,-1.37328999097599e+001,-1.50381785793155e-001

1.37554181813974e+004,-1.37329004470039e+001,-1.52480979546536e-001

1.39474366635040e+004,-1.37329009993433e+001,-1.54609474501365e-001

1.41421356237309e+004,-1.37329015672018e+001,-1.56767679584178e-001

1.43395524801583e+004,-1.37329021510153e+001,-1.58956009423799e-001

1.45397251732031e+004,-1.37329027512319e+001,-1.61174884433007e-001

1.47426921729110e+004,-1.37329033683121e+001,-1.63424730888054e-001

1.49484924863494e+004,-1.37329040027294e+001,-1.65705981011379e-001

1.51571656651040e+004,-1.37329046549707e+001,-1.68019073054438e-001

1.53687518128801e+004,-1.37329053255360e+001,-1.70364451381482e-001

1.55832915932100e+004,-1.37329060149401e+001,-1.72742566550868e-001

1.58008262372675e+004,-1.37329067237118e+001,-1.75153875408057e-001

1.60213975517924e+004,-1.37329074523948e+001,-1.77598841168007e-001

1.62450479271247e+004,-1.37329082015479e+001,-1.80077933507477e-001

1.64718203453514e+004,-1.37329089717458e+001,-1.82591628649354e-001

1.67017583885674e+004,-1.37329097635792e+001,-1.85140409460879e-001

1.69349062472505e+004,-1.37329105776553e+001,-1.87724765540978e-001

1.71713087287550e+004,-1.37329114145984e+001,-1.90345193315370e-001

1.74110112659224e+004,-1.37329122750501e+001,-1.93002196133171e-001

1.76540599258131e+004,-1.37329131596702e+001,-1.95696284360282e-001

1.79005014185594e+004,-1.37329140691371e+001,-1.98427975478083e-001

1.81503831063432e+004,-1.37329150041478e+001,-2.01197794185063e-001

1.84037530124975e+004,-1.37329159654191e+001,-2.04006272493321e-001

1.86606598307361e+004,-1.37329169536877e+001,-2.06853949831217e-001

1.89211529345119e+004,-1.37329179697111e+001,-2.09741373149230e-001

1.91852823865052e+004,-1.37329190142679e+001,-2.12669097020724e-001

1.94530989482457e+004,-1.37329200881584e+001,-2.15637683750792e-001

1.97246540898671e+004,-1.37329211922059e+001,-2.18647703479484e-001

1.99999999999999e+004,-1.37329223272557e+001,-2.21699734299206e-001

2.02791895958005e+004,-1.37329234941776e+001,-2.24794362354470e-001

2.05622765331213e+004,-1.37329246938654e+001,-2.27932181963273e-001

2.08493152168224e+004,-1.37329259272379e+001,-2.31113795722951e-001

2.11403608112276e+004,-1.37329271952397e+001,-2.34339814631692e-001

2.14354692507258e+004,-1.37329284988419e+001,-2.37610858199271e-001

2.17346972505211e+004,-1.37329298390423e+001,-2.40927554571904e-001

2.20381023175322e+004,-1.37329312168672e+001,-2.44290540644134e-001

2.23457427614443e+004,-1.37329326333712e+001,-2.47700462188368e-001

2.26576777059159e+004,-1.37329340896386e+001,-2.51157973971523e-001

2.29739670999406e+004,-1.37329355867836e+001,-2.54663739885150e-001

2.32946717293690e+004,-1.37329371259521e+001,-2.58218433067055e-001

2.36198532285905e+004,-1.37329387083216e+001,-2.61822736033877e-001

2.39495740923785e+004,-1.37329403351026e+001,-2.65477340809024e-001

2.42838976879009e+004,-1.37329420075396e+001,-2.69182949053268e-001

2.46228882668982e+004,-1.37329437269112e+001,-2.72940272204018e-001

2.49666109780322e+004,-1.37329454945326e+001,-2.76750031601298e-001

2.53151318794055e+004,-1.37329473117550e+001,-2.80612958635330e-001

2.56685179512580e+004,-1.37329491799678e+001,-2.84529794877932e-001

2.60268371088386e+004,-1.37329511005986e+001,-2.88501292228627e-001

2.63901582154578e+004,-1.37329530751152e+001,-2.92528213054964e-001

2.67585510957221e+004,-1.37329551050265e+001,-2.96611330337246e-001

2.71320865489533e+004,-1.37329571918829e+001,-3.00751427818853e-001

2.75108363627948e+004,-1.37329593372785e+001,-3.04949300150764e-001

2.78948733270080e+004,-1.37329615428517e+001,-3.09205753044869e-001

2.82842712474618e+004,-1.37329638102861e+001,-3.13521603429539e-001

2.86791049603164e+004,-1.37329661413131e+001,-3.17897679597374e-001

2.90794503464061e+004,-1.37329685377113e+001,-3.22334821371695e-001

2.94853843458219e+004,-1.37329710013096e+001,-3.26833880257598e-001

2.98969849726987e+004,-1.37329735339874e+001,-3.31395719608846e-001

3.03143313302078e+004,-1.37329761376764e+001,-3.36021214790343e-001

3.07375036257601e+004,-1.37329788143620e+001,-3.40711253343020e-001

3.11665831864199e+004,-1.37329815660850e+001,-3.45466735152617e-001

3.16016524745350e+004,-1.37329843949428e+001,-3.50288572619344e-001

3.20427951035848e+004,-1.37329873030908e+001,-3.55177690833458e-001

3.24900958542493e+004,-1.37329902927449e+001,-3.60135027745546e-001

3.29436406907028e+004,-1.37329933661820e+001,-3.65161534348614e-001

3.34035167771346e+004,-1.37329965257421e+001,-3.70258174856099e-001

3.38698124945009e+004,-1.37329997738306e+001,-3.75425926882460e-001

3.43426174575100e+004,-1.37330031129195e+001,-3.80665781629724e-001

3.48220225318448e+004,-1.37330065455489e+001,-3.85978744075649e-001

3.53081198516260e+004,-1.37330100743297e+001,-3.91365833161167e-001

3.58010028371187e+004,-1.37330137019452e+001,-3.96828081982118e-001

3.63007662126863e+004,-1.37330174311526e+001,-4.02366537988094e-001

3.68075060249948e+004,-1.37330212647857e+001,-4.07982263174901e-001

3.73213196614721e+004,-1.37330252057566e+001,-4.13676334287071e-001

3.78423058690237e+004,-1.37330292570581e+001,-4.19449843021346e-001

3.83705647730104e+004,-1.37330334217654e+001,-4.25303896229213e-001

3.89061978964912e+004,-1.37330377030389e+001,-4.31239616128959e-001

3.94493081797342e+004,-1.37330421041263e+001,-4.37258140511990e-001

3.99999999999998e+004,-1.37330466283647e+001,-4.43360622959725e-001

4.05583791916010e+004,-1.37330512791834e+001,-4.49548233059829e-001

4.11245530662425e+004,-1.37330560601063e+001,-4.55822156623570e-001

4.16986304336447e+004,-1.37330609747542e+001,-4.62183595909925e-001

4.22807216224550e+004,-1.37330660268478e+001,-4.68633769850798e-001

4.28709385014515e+004,-1.37330712202101e+001,-4.75173914276895e-001

4.34693945010421e+004,-1.37330765587693e+001,-4.81805282152090e-001

4.40762046350642e+004,-1.37330820465617e+001,-4.88529143804221e-001

4.46914855228886e+004,-1.37330876877341e+001,-4.95346787165771e-001

4.53153554118317e+004,-1.37330934865475e+001,-5.02259518011053e-001

4.59479341998812e+004,-1.37330994473796e+001,-5.09268660201781e-001

4.65893434587380e+004,-1.37331055747283e+001,-5.16375555931869e-001

4.72397064571810e+004,-1.37331118732144e+001,-5.23581565979436e-001

4.78991481847569e+004,-1.37331183475856e+001,-5.30888069956802e-001

4.85677953758016e+004,-1.37331250027190e+001,-5.38296466571070e-001

4.92457765337964e+004,-1.37331318436255e+001,-5.45808173879352e-001

4.99332219560642e+004,-1.37331388754525e+001,-5.53424629553799e-001

5.06302637588109e+004,-1.37331461034879e+001,-5.61147291148903e-001

5.13370359025159e+004,-1.37331535331640e+001,-5.68977636369192e-001

5.20536742176771e+004,-1.37331611700607e+001,-5.76917163343161e-001

5.27803164309155e+004,-1.37331690199100e+001,-5.84967390901128e-001

5.35171021914442e+004,-1.37331770885998e+001,-5.93129858853535e-001

5.42641730979066e+004,-1.37331853821778e+001,-6.01406128276160e-001

5.50216727255895e+004,-1.37331939068559e+001,-6.09797781796884e-001

5.57897466540159e+004,-1.37332026690143e+001,-6.18306423886214e-001

5.65685424949235e+004,-1.37332116752060e+001,-6.26933681153078e-001

5.73582099206328e+004,-1.37332209321616e+001,-6.35681202641568e-001

5.81589006928121e+004,-1.37332304467930e+001,-6.44550660135500e-001

5.89707686916437e+004,-1.37332402261991e+001,-6.53543748460572e-001

5.97939699453972e+004,-1.37332502776700e+001,-6.62662185798411e-001

6.06286626604156e+004,-1.37332606086922e+001,-6.71907713996397e-001

6.14750072515201e+004,-1.37332712269535e+001,-6.81282098886191e-001

6.23331663728396e+004,-1.37332821403481e+001,-6.90787130606460e-001

6.32033049490698e+004,-1.37332933569819e+001,-7.00424623926318e-001

6.40855902071694e+004,-1.37333048851784e+001,-7.10196418574058e-001

6.49801917084985e+004,-1.37333167334832e+001,-7.20104379572946e-001

6.58872813814055e+004,-1.37333289106703e+001,-7.30150397576651e-001

6.68070335542691e+004,-1.37333414257480e+001,-7.40336389209643e-001

6.77396249890018e+004,-1.37333542879642e+001,-7.50664297415632e-001

6.86852349150199e+004,-1.37333675068127e+001,-7.61136091804460e-001

6.96440450636895e+004,-1.37333810920395e+001,-7.71753769006938e-001

7.06162397032520e+004,-1.37333950536488e+001,-7.82519353032982e-001

7.16020056742374e+004,-1.37334094019094e+001,-7.93434895634075e-001

7.26015324253724e+004,-1.37334241473614e+001,-8.04502476668803e-001

7.36150120499896e+004,-1.37334393008226e+001,-8.15724204474998e-001

7.46426393229441e+004,-1.37334548733956e+001,-8.27102216244495e-001

7.56846117380472e+004,-1.37334708764747e+001,-8.38638678401169e-001

7.67411295460207e+004,-1.37334873217522e+001,-8.50335786988008e-001

7.78123957929823e+004,-1.37335042212270e+001,-8.62195768052788e-001

7.88986163594682e+004,-1.37335215872104e+001,-8.74220878043059e-001

7.99999999999995e+004,-1.37335394323349e+001,-8.86413404201108e-001

8.11167583832018e+004,-1.37335577695609e+001,-8.98775664968094e-001

8.22491061324848e+004,-1.37335766121849e+001,-9.11310010389254e-001

8.33972608672892e+004,-1.37335959738472e+001,-9.24018822525734e-001

8.45614432449099e+004,-1.37336158685400e+001,-9.36904515869618e-001

8.57418770029029e+004,-1.37336363106153e+001,-9.49969537764740e-001

8.69387890020841e+004,-1.37336573147939e+001,-9.63216368830098e-001

8.81524092701283e+004,-1.37336788961730e+001,-9.76647523391530e-001

8.93829710457770e+004,-1.37337010702352e+001,-9.90265549915053e-001

9.06307108236633e+004,-1.37337238528570e+001,-1.00407303144593e+000

9.18958683997622e+004,-1.37337472603178e+001,-1.01807258605231e+000

9.31786869174758e+004,-1.37337713093090e+001,-1.03226686727339e+000

9.44794129143618e+004,-1.37337960169426e+001,-1.04665856457390e+000

9.57982963695136e+004,-1.37338214007607e+001,-1.06125040380169e+000

9.71355907516031e+004,-1.37338474787449e+001,-1.07604514765056e+000

9.84915530675926e+004,-1.37338742693257e+001,-1.09104559612778e+000

9.98664439121282e+004,-1.37339017913916e+001,-1.10625458702815e+000

1.01260527517622e+005,-1.37339300642997e+001,-1.12167499640974e+000

1.02674071805032e+005,-1.37339591078845e+001,-1.13730973907857e+000

1.04107348435354e+005,-1.37339889424680e+001,-1.15316176907451e+000

1.05560632861831e+005,-1.37340195888705e+001,-1.16923408016365e+000

1.07034204382888e+005,-1.37340510684191e+001,-1.18552970633693e+000

1.08528346195813e+005,-1.37340834029592e+001,-1.20205172231196e+000

1.10043345451179e+005,-1.37341166148639e+001,-1.21880324403940e+000

1.11579493308032e+005,-1.37341507270445e+001,-1.23578742921683e+000

1.13137084989847e+005,-1.37341857629607e+001,-1.25300747780607e+000

1.14716419841265e+005,-1.37342217466311e+001,-1.27046663255403e+000

1.16317801385624e+005,-1.37342587026431e+001,-1.28816817952276e+000

1.17941537383287e+005,-1.37342966561640e+001,-1.30611544861979e+000

1.19587939890794e+005,-1.37343356329506e+001,-1.32431181413819e+000

1.21257325320831e+005,-1.37343756593604e+001,-1.34276069529668e+000

1.22950014503040e+005,-1.37344167623612e+001,-1.36146555679033e+000

1.24666332745679e+005,-1.37344589695417e+001,-1.38042990934311e+000

1.26406609898139e+005,-1.37345023091220e+001,-1.39965731026523e+000

1.28171180414339e+005,-1.37345468099636e+001,-1.41915136401722e+000

1.29960383416997e+005,-1.37345925015793e+001,-1.43891572278060e+000

1.31774562762811e+005,-1.37346394141437e+001,-1.45895408702897e+000

1.33614067108538e+005,-1.37346875785025e+001,-1.47927020611095e+000

1.35479249978003e+005,-1.37347370261828e+001,-1.49986787883162e+000

1.37370469830040e+005,-1.37347877894022e+001,-1.52075095404531e+000

1.39288090127379e+005,-1.37348399010783e+001,-1.54192333125044e+000

1.41232479406504e+005,-1.37348933948382e+001,-1.56338896119010e+000

1.43204011348474e+005,-1.37349483050265e+001,-1.58515184645931e+000

1.45203064850745e+005,-1.37350046667151e+001,-1.60721604211708e+000

1.47230024099979e+005,-1.37350625157103e+001,-1.62958565630462e+000

1.49285278645888e+005,-1.37351218885617e+001,-1.65226485086787e+000

1.51369223476094e+005,-1.37351828225694e+001,-1.67525784198779e+000

1.53482259092041e+005,-1.37352453557911e+001,-1.69856890081526e+000

1.55624791585964e+005,-1.37353095270490e+001,-1.72220235411182e+000

1.57797232718936e+005,-1.37353753759362e+001,-1.74616258489694e+000

1.59999999999999e+005,-1.37354429428219e+001,-1.77045403310222e+000

1.62233516766403e+005,-1.37355122688574e+001,-1.79508119622929e+000

1.64498212264969e+005,-1.37355833959801e+001,-1.82004863001624e+000

1.66794521734578e+005,-1.37356563669175e+001,-1.84536094911110e+000

1.69122886489819e+005,-1.37357312251907e+001,-1.87102282774969e+000

1.71483754005805e+005,-1.37358080151166e+001,-1.89703900044110e+000

1.73877578004168e+005,-1.37358867818099e+001,-1.92341426266208e+000

1.76304818540256e+005,-1.37359675711837e+001,-1.95015347155563e+000

1.78765942091554e+005,-1.37360504299498e+001,-1.97726154663897e+000

1.81261421647326e+005,-1.37361354056174e+001,-2.00474347051886e+000

1.83791736799524e+005,-1.37362225464913e+001,-2.03260428961386e+000

1.86357373834951e+005,-1.37363119016687e+001,-2.06084911488568e+000

1.88958825828723e+005,-1.37364035210353e+001,-2.08948312257868e+000

1.91596592739027e+005,-1.37364974552596e+001,-2.11851155496693e+000

1.94271181503206e+005,-1.37365937557866e+001,-2.14793972111363e+000

1.96983106135185e+005,-1.37366924748297e+001,-2.17777299763431e+000

1.99732887824256e+005,-1.37367936653614e+001,-2.20801682947638e+000

2.02521055035243e+005,-1.37368973811025e+001,-2.23867673070300e+000

2.05348143610063e+005,-1.37370036765101e+001,-2.26975828529175e+000

2.08214696870707e+005,-1.37371126067632e+001,-2.30126714794193e+000

2.11121265723661e+005,-1.37372242277480e+001,-2.33320904489377e+000

2.14068408765776e+005,-1.37373385960398e+001,-2.36558977476118e+000

2.17056692391625e+005,-1.37374557688845e+001,-2.39841520937601e+000

2.20086690902357e+005,-1.37375758041777e+001,-2.43169129464440e+000

2.23158986616063e+005,-1.37376987604415e+001,-2.46542405141925e+000

2.26274169979693e+005,-1.37378246968001e+001,-2.49961957638666e+000

2.29432839682530e+005,-1.37379536729524e+001,-2.53428404296651e+000

2.32635602771247e+005,-1.37380857491435e+001,-2.56942370222934e+000

2.35883074766574e+005,-1.37382209861328e+001,-2.60504488383219e+000

2.39175879781588e+005,-1.37383594451609e+001,-2.64115399696810e+000

2.42514650641661e+005,-1.37385011879131e+001,-2.67775753133931e+000

2.45900029006080e+005,-1.37386462764820e+001,-2.71486205814410e+000

2.49332665491357e+005,-1.37387947733255e+001,-2.75247423108949e+000

2.52813219796278e+005,-1.37389467412243e+001,-2.79060078742194e+000

2.56342360828676e+005,-1.37391022432359e+001,-2.82924854898156e+000

2.59920766833993e+005,-1.37392613426453e+001,-2.86842442328129e+000

2.63549125525621e+005,-1.37394241029147e+001,-2.90813540460859e+000

2.67228134217075e+005,-1.37395905876288e+001,-2.94838857515544e+000

2.70958499956006e+005,-1.37397608604384e+001,-2.98919110617406e+000

2.74740939660078e+005,-1.37399349850007e+001,-3.03055025916253e+000

2.78576180254757e+005,-1.37401130249174e+001,-3.07247338707984e+000

2.82464958813007e+005,-1.37402950436687e+001,-3.11496793559250e+000

2.86408022696948e+005,-1.37404811045463e+001,-3.15804144435417e+000

2.90406129701488e+005,-1.37406712705818e+001,-3.20170154831964e+000

2.94460048199957e+005,-1.37408656044736e+001,-3.24595597909529e+000

2.98570557291775e+005,-1.37410641685103e+001,-3.29081256632663e+000

3.02738446952187e+005,-1.37412670244915e+001,-3.33627923912507e+000

3.06964518184081e+005,-1.37414742336459e+001,-3.38236402753651e+000

3.11249583171928e+005,-1.37416858565472e+001,-3.42907506405120e+000

3.15594465437872e+005,-1.37419019530262e+001,-3.47642058515985e+000

3.19999999999997e+005,-1.37421225820821e+001,-3.52440893295317e+000

3.24467033532806e+005,-1.37423478017896e+001,-3.57304855677278e+000

3.28996424529938e+005,-1.37425776692053e+001,-3.62234801490890e+000

3.33589043469155e+005,-1.37428122402710e+001,-3.67231597635139e+000

3.38245772979638e+005,-1.37430515697151e+001,-3.72296122259308e+000

3.42967508011610e+005,-1.37432957109524e+001,-3.77429264948959e+000

3.47755156008335e+005,-1.37435447159821e+001,-3.82631926917473e+000

3.52609637080511e+005,-1.37437986352842e+001,-3.87905021203619e+000

3.57531884183106e+005,-1.37440575177146e+001,-3.93249472875061e+000

3.62522843294651e+005,-1.37443214104000e+001,-3.98666219238087e+000

3.67583473599047e+005,-1.37445903586302e+001,-4.04156210053973e+000

3.72714747669902e+005,-1.37448644057520e+001,-4.09720407761554e+000

3.77917651657445e+005,-1.37451435930612e+001,-4.15359787706915e+000

3.83193185478053e+005,-1.37454279596958e+001,-4.21075338379594e+000

3.88542363006410e+005,-1.37457175425286e+001,-4.26868061656095e+000

3.93966212270369e+005,-1.37460123760616e+001,-4.32738973050444e+000

3.99465775648511e+005,-1.37463124923208e+001,-4.38689101972065e+000

4.05042110070485e+005,-1.37466179207525e+001,-4.44719491991010e+000

4.10696287220124e+005,-1.37469286881216e+001,-4.50831201110756e+000

4.16429393741414e+005,-1.37472448184127e+001,-4.57025302048673e+000

4.22242531447321e+005,-1.37475663327327e+001,-4.63302882523893e+000

4.28136817531551e+005,-1.37478932492179e+001,-4.69665045553358e+000

4.34113384783250e+005,-1.37482255829436e+001,-4.76112909755193e+000

4.40173381804713e+005,-1.37485633458384e+001,-4.82647609660179e+000

4.46317973232124e+005,-1.37489065466029e+001,-4.89270296030992e+000

4.52548339959385e+005,-1.37492551906331e+001,-4.95982136189149e+000

4.58865679365059e+005,-1.37496092799499e+001,-5.02784314349890e+000

4.65271205542494e+005,-1.37499688131336e+001,-5.09678031964674e+000

4.71766149533147e+005,-1.37503337852660e+001,-5.16664508071341e+000

4.78351759563174e+005,-1.37507041878787e+001,-5.23744979651957e+000

4.85029301283321e+005,-1.37510800089089e+001,-5.30920701997963e+000

4.91800058012158e+005,-1.37514612326632e+001,-5.38192949082766e+000

4.98665330982714e+005,-1.37518478397900e+001,-5.45563013941334e+000

5.05626439592555e+005,-1.37522398072603e+001,-5.53032209057018e+000

5.12684721657352e+005,-1.37526371083580e+001,-5.60601866754877e+000

5.19841533667984e+005,-1.37530397126802e+001,-5.68273339601680e+000

5.27098251051240e+005,-1.37534475861466e+001,-5.76048000812238e+000

5.34456268434150e+005,-1.37538606910207e+001,-5.83927244661657e+000

5.41916999912011e+005,-1.37542789859408e+001,-5.91912486903437e+000

