Freq.,VOut,OutRef

1.00000000000000e+004,-1.40012220428978e+001,-8.25095635194170e-002

1.01395947979003e+004,-1.40012225881510e+001,-8.36613090190561e-002

1.02811382665607e+004,-1.40012231487283e+001,-8.48291303728666e-002

1.04246576084112e+004,-1.40012237250602e+001,-8.60132519103240e-002

1.05701804056138e+004,-1.40012243175895e+001,-8.72139010879087e-002

1.07177346253629e+004,-1.40012249267712e+001,-8.84313085352313e-002

1.08673486252606e+004,-1.40012255530732e+001,-8.96657080966036e-002

1.10190511587661e+004,-1.40012261969761e+001,-9.09173368785890e-002

1.11728713807222e+004,-1.40012268589748e+001,-9.21864352895226e-002

1.13288388529580e+004,-1.40012275395775e+001,-9.34732470938597e-002

1.14869835499703e+004,-1.40012282393068e+001,-9.47780194522192e-002

1.16473358646846e+004,-1.40012289587001e+001,-9.61010029698419e-002

1.18099266142953e+004,-1.40012296983093e+001,-9.74424517508547e-002

1.19747870461893e+004,-1.40012304587027e+001,-9.88026234345923e-002

1.21419488439505e+004,-1.40012312404642e+001,-1.00181779253789e-001

1.23114441334492e+004,-1.40012320441934e+001,-1.01580184086598e-001

1.24833054890161e+004,-1.40012328705080e+001,-1.02998106496068e-001

1.26575659397028e+004,-1.40012337200420e+001,-1.04435818794918e-001

1.28342589756290e+004,-1.40012345934473e+001,-1.05893597087873e-001

1.30134185544193e+004,-1.40012354913948e+001,-1.07371721325680e-001

1.31950791077289e+004,-1.40012364145736e+001,-1.08870475364100e-001

1.33792755478611e+004,-1.40012373636920e+001,-1.10390147013162e-001

1.35660432744767e+004,-1.40012383394788e+001,-1.11931028091884e-001

1.37554181813974e+004,-1.40012393426828e+001,-1.13493414486138e-001

1.39474366635040e+004,-1.40012403740737e+001,-1.15077606205487e-001

1.41421356237309e+004,-1.40012414344432e+001,-1.16683907437480e-001

1.43395524801583e+004,-1.40012425246049e+001,-1.18312626608640e-001

1.45397251732031e+004,-1.40012436453953e+001,-1.19964076440914e-001

1.47426921729110e+004,-1.40012447976744e+001,-1.21638574013153e-001

1.49484924863494e+004,-1.40012459823263e+001,-1.23336440820375e-001

1.51571656651040e+004,-1.40012472002595e+001,-1.25058002836621e-001

1.53687518128801e+004,-1.40012484524089e+001,-1.26803590572171e-001

1.55832915932100e+004,-1.40012497397346e+001,-1.28573539144753e-001

1.58008262372675e+004,-1.40012510632243e+001,-1.30368188334531e-001

1.60213975517924e+004,-1.40012524238930e+001,-1.32187882655759e-001

1.62450479271247e+004,-1.40012538227842e+001,-1.34032971418632e-001

1.64718203453514e+004,-1.40012552609709e+001,-1.35903808795190e-001

1.67017583885674e+004,-1.40012567395559e+001,-1.37800753889768e-001

1.69349062472505e+004,-1.40012582596729e+001,-1.39724170804642e-001

1.71713087287550e+004,-1.40012598224874e+001,-1.41674428710711e-001

1.74110112659224e+004,-1.40012614291978e+001,-1.43651901914849e-001

1.76540599258131e+004,-1.40012630810356e+001,-1.45656969936074e-001

1.79005014185594e+004,-1.40012647792674e+001,-1.47690017570717e-001

1.81503831063432e+004,-1.40012665251945e+001,-1.49751434974411e-001

1.84037530124975e+004,-1.40012683201552e+001,-1.51841617726561e-001

1.86606598307361e+004,-1.40012701655252e+001,-1.53960966911790e-001

1.89211529345119e+004,-1.40012720627186e+001,-1.56109889192479e-001

1.91852823865052e+004,-1.40012740131891e+001,-1.58288796889439e-001

1.94530989482457e+004,-1.40012760184310e+001,-1.60498108056273e-001

1.97246540898671e+004,-1.40012780799805e+001,-1.62738246561426e-001

1.99999999999999e+004,-1.40012801994169e+001,-1.65009642164851e-001

2.02791895958005e+004,-1.40012823783634e+001,-1.67312730603616e-001

2.05622765331213e+004,-1.40012846184889e+001,-1.69647953671111e-001

2.08493152168224e+004,-1.40012869215088e+001,-1.72015759301139e-001

2.11403608112276e+004,-1.40012892891866e+001,-1.74416601654230e-001

2.14354692507258e+004,-1.40012917233349e+001,-1.76850941201418e-001

2.17346972505211e+004,-1.40012942258171e+001,-1.79319244812468e-001

2.20381023175322e+004,-1.40012967985489e+001,-1.81821985841466e-001

2.23457427614443e+004,-1.40012994434989e+001,-1.84359644221219e-001

2.26576777059159e+004,-1.40013021626914e+001,-1.86932706546843e-001

2.29739670999406e+004,-1.40013049582070e+001,-1.89541666171686e-001

2.32946717293690e+004,-1.40013078321842e+001,-1.92187023301875e-001

2.36198532285905e+004,-1.40013107868213e+001,-1.94869285086324e-001

2.39495740923785e+004,-1.40013138243785e+001,-1.97588965711316e-001

2.42838976879009e+004,-1.40013169471783e+001,-2.00346586503443e-001

2.46228882668982e+004,-1.40013201576087e+001,-2.03142676019338e-001

2.49666109780322e+004,-1.40013234581236e+001,-2.05977770153540e-001

2.53151318794055e+004,-1.40013268512460e+001,-2.08852412231188e-001

2.56685179512580e+004,-1.40013303395693e+001,-2.11767153112325e-001

2.60268371088386e+004,-1.40013339257586e+001,-2.14722551298173e-001

2.63901582154578e+004,-1.40013376125540e+001,-2.17719173030829e-001

2.67585510957221e+004,-1.40013414027712e+001,-2.20757592404655e-001

2.71320865489533e+004,-1.40013452993053e+001,-2.23838391465002e-001

2.75108363627948e+004,-1.40013493051313e+001,-2.26962160327355e-001

2.78948733270080e+004,-1.40013534233074e+001,-2.30129497278730e-001

2.82842712474618e+004,-1.40013576569769e+001,-2.33341008893920e-001

2.86791049603164e+004,-1.40013620093706e+001,-2.36597310146117e-001

2.90794503464061e+004,-1.40013664838091e+001,-2.39899024523745e-001

2.94853843458219e+004,-1.40013710837056e+001,-2.43246784142299e-001

2.98969849726987e+004,-1.40013758125680e+001,-2.46641229866394e-001

3.03143313302078e+004,-1.40013806740018e+001,-2.50083011425453e-001

3.07375036257601e+004,-1.40013856717129e+001,-2.53572787533825e-001

3.11665831864199e+004,-1.40013908095099e+001,-2.57111226016467e-001

3.16016524745350e+004,-1.40013960913075e+001,-2.60699003927349e-001

3.20427951035848e+004,-1.40014015211287e+001,-2.64336807677739e-001

3.24900958542493e+004,-1.40014071031086e+001,-2.68025333162775e-001

3.29436406907028e+004,-1.40014128414968e+001,-2.71765285887493e-001

3.34035167771346e+004,-1.40014187406608e+001,-2.75557381099227e-001

3.38698124945009e+004,-1.40014248050890e+001,-2.79402343918569e-001

3.43426174575100e+004,-1.40014310393948e+001,-2.83300909469066e-001

3.48220225318448e+004,-1.40014374483189e+001,-2.87253823017662e-001

3.53081198516260e+004,-1.40014440367332e+001,-2.91261840108359e-001

3.58010028371187e+004,-1.40014508096451e+001,-2.95325726697489e-001

3.63007662126863e+004,-1.40014577721998e+001,-2.99446259299778e-001

3.68075060249948e+004,-1.40014649296853e+001,-3.03624225124016e-001

3.73213196614721e+004,-1.40014722875356e+001,-3.07860422220323e-001

3.78423058690237e+004,-1.40014798513348e+001,-3.12155659624100e-001

3.83705647730104e+004,-1.40014876268215e+001,-3.16510757500974e-001

3.89061978964912e+004,-1.40014956198924e+001,-3.20926547298186e-001

3.94493081797342e+004,-1.40015038366069e+001,-3.25403871894888e-001

3.99999999999998e+004,-1.40015122831917e+001,-3.29943585750746e-001

4.05583791916010e+004,-1.40015209660448e+001,-3.34546555065473e-001

4.11245530662425e+004,-1.40015298917409e+001,-3.39213657928670e-001

4.16986304336447e+004,-1.40015390670351e+001,-3.43945784483548e-001

4.22807216224550e+004,-1.40015484988688e+001,-3.48743837082010e-001

4.28709385014515e+004,-1.40015581943740e+001,-3.53608730448764e-001

4.34693945010421e+004,-1.40015681608789e+001,-3.58541391841802e-001

4.40762046350642e+004,-1.40015784059124e+001,-3.63542761222769e-001

4.46914855228886e+004,-1.40015889372107e+001,-3.68613791416481e-001

4.53153554118317e+004,-1.40015997627217e+001,-3.73755448287880e-001

4.59479341998812e+004,-1.40016108906113e+001,-3.78968710907017e-001

4.65893434587380e+004,-1.40016223292686e+001,-3.84254571726848e-001

4.72397064571810e+004,-1.40016340873126e+001,-3.89614036753328e-001

4.78991481847569e+004,-1.40016461735979e+001,-3.95048125725456e-001

4.85677953758016e+004,-1.40016585972210e+001,-4.00557872292153e-001

4.92457765337964e+004,-1.40016713675265e+001,-4.06144324196215e-001

4.99332219560642e+004,-1.40016844941141e+001,-4.11808543451708e-001

5.06302637588109e+004,-1.40016979868449e+001,-4.17551606534030e-001

5.13370359025159e+004,-1.40017118558485e+001,-4.23374604562928e-001

5.20536742176771e+004,-1.40017261115300e+001,-4.29278643493358e-001

5.27803164309155e+004,-1.40017407645774e+001,-4.35264844304112e-001

5.35171021914442e+004,-1.40017558259685e+001,-4.41334343193032e-001

5.42641730979066e+004,-1.40017713069792e+001,-4.47488291768932e-001

5.50216727255895e+004,-1.40017872191906e+001,-4.53727857249929e-001

5.57897466540159e+004,-1.40018035744973e+001,-4.60054222662408e-001

5.65685424949235e+004,-1.40018203851157e+001,-4.66468587039156e-001

5.73582099206328e+004,-1.40018376635915e+001,-4.72972165626326e-001

5.81589006928121e+004,-1.40018554228091e+001,-4.79566190083479e-001

5.89707686916437e+004,-1.40018736760002e+001,-4.86251908692719e-001

5.97939699453972e+004,-1.40018924367521e+001,-4.93030586566603e-001

6.06286626604156e+004,-1.40019117190174e+001,-4.99903505860084e-001

6.14750072515201e+004,-1.40019315371230e+001,-5.06871965981070e-001

6.23331663728396e+004,-1.40019519057800e+001,-5.13937283804592e-001

6.32033049490698e+004,-1.40019728400930e+001,-5.21100793892017e-001

6.40855902071694e+004,-1.40019943555703e+001,-5.28363848706355e-001

6.49801917084985e+004,-1.40020164681341e+001,-5.35727818835390e-001

6.58872813814055e+004,-1.40020391941307e+001,-5.43194093211174e-001

6.68070335542691e+004,-1.40020625503414e+001,-5.50764079335287e-001

6.77396249890018e+004,-1.40020865539931e+001,-5.58439203505983e-001

6.86852349150199e+004,-1.40021112227696e+001,-5.66220911043241e-001

6.96440450636895e+004,-1.40021365748227e+001,-5.74110666520664e-001

7.06162397032520e+004,-1.40021626287839e+001,-5.82109953996000e-001

7.16020056742374e+004,-1.40021894037761e+001,-5.90220277244770e-001

7.26015324253724e+004,-1.40022169194256e+001,-5.98443159993885e-001

7.36150120499896e+004,-1.40022451958747e+001,-6.06780146159982e-001

7.46426393229441e+004,-1.40022742537934e+001,-6.15232800086700e-001

7.56846117380472e+004,-1.40023041143931e+001,-6.23802706785758e-001

7.67411295460207e+004,-1.40023347994389e+001,-6.32491472175805e-001

7.78123957929823e+004,-1.40023663312631e+001,-6.41300723329855e-001

7.88986163594682e+004,-1.40023987327788e+001,-6.50232108714883e-001

7.99999999999995e+004,-1.40024320274932e+001,-6.59287298442600e-001

8.11167583832018e+004,-1.40024662395221e+001,-6.68467984514816e-001

8.22491061324848e+004,-1.40025013936037e+001,-6.77775881071948e-001

8.33972608672892e+004,-1.40025375151133e+001,-6.87212724644400e-001

8.45614432449099e+004,-1.40025746300777e+001,-6.96780274404558e-001

8.57418770029029e+004,-1.40026127651905e+001,-7.06480312417629e-001

8.69387890020841e+004,-1.40026519478271e+001,-7.16314643898441e-001

8.81524092701283e+004,-1.40026922060601e+001,-7.26285097463436e-001

8.93829710457770e+004,-1.40027335686747e+001,-7.36393525390516e-001

9.06307108236633e+004,-1.40027760651852e+001,-7.46641803872732e-001

9.18958683997622e+004,-1.40028197258507e+001,-7.57031833277749e-001

9.31786869174758e+004,-1.40028645816910e+001,-7.67565538407869e-001

9.44794129143618e+004,-1.40029106645041e+001,-7.78244868757272e-001

9.57982963695136e+004,-1.40029580068820e+001,-7.89071798774519e-001

9.71355907516031e+004,-1.40030066422282e+001,-8.00048328122207e-001

9.84915530675926e+004,-1.40030566047746e+001,-8.11176481938994e-001

9.98664439121282e+004,-1.40031079295987e+001,-8.22458311101809e-001

1.01260527517622e+005,-1.40031606526415e+001,-8.33895892486148e-001

1.02674071805032e+005,-1.40032148107246e+001,-8.45491329231615e-001

1.04107348435354e+005,-1.40032704415683e+001,-8.57246751001966e-001

1.05560632861831e+005,-1.40033275838095e+001,-8.69164314248591e-001

1.07034204382888e+005,-1.40033862770196e+001,-8.81246202474142e-001

1.08528346195813e+005,-1.40034465617229e+001,-8.93494626493564e-001

1.10043345451179e+005,-1.40035084794146e+001,-9.05911824697265e-001

1.11579493308032e+005,-1.40035720725792e+001,-9.18500063311844e-001

1.13137084989847e+005,-1.40036373847088e+001,-9.31261636664503e-001

1.14716419841265e+005,-1.40037044603217e+001,-9.44198867439366e-001

1.16317801385624e+005,-1.40037733449804e+001,-9.57314106942727e-001

1.17941537383287e+005,-1.40038440853107e+001,-9.70609735357863e-001

1.19587939890794e+005,-1.40039167290192e+001,-9.84088162007284e-001

1.21257325320831e+005,-1.40039913249123e+001,-9.97751825607261e-001

1.22950014503040e+005,-1.40040679229138e+001,-1.01160319452751e+000

1.24666332745679e+005,-1.40041465740837e+001,-1.02564476704227e+000

1.26406609898139e+005,-1.40042273306349e+001,-1.03987907158870e+000

1.28171180414339e+005,-1.40043102459526e+001,-1.05430866701481e+000

1.29960383416997e+005,-1.40043953746102e+001,-1.06893614283407e+000

1.31774562762811e+005,-1.40044827723874e+001,-1.08376411947174e+000

1.33614067108538e+005,-1.40045724962868e+001,-1.09879524851438e+000

1.35479249978003e+005,-1.40046646045505e+001,-1.11403221295327e+000

1.37370469830040e+005,-1.40047591566761e+001,-1.12947772742997e+000

1.39288090127379e+005,-1.40048562134329e+001,-1.14513453847560e+000

1.41232479406504e+005,-1.40049558368761e+001,-1.16100542475263e+000

1.43204011348474e+005,-1.40050580903625e+001,-1.17709319728948e+000

1.45203064850745e+005,-1.40051630385636e+001,-1.19340069971742e+000

1.47230024099979e+005,-1.40052707474796e+001,-1.20993080850141e+000

1.49285278645888e+005,-1.40053812844516e+001,-1.22668643316960e+000

1.51369223476094e+005,-1.40054947181733e+001,-1.24367051654370e+000

1.53482259092041e+005,-1.40056111187023e+001,-1.26088603496013e+000

1.55624791585964e+005,-1.40057305574700e+001,-1.27833599849425e+000

1.57797232718936e+005,-1.40058531072897e+001,-1.29602345118181e+000

1.59999999999999e+005,-1.40059788423657e+001,-1.31395147123257e+000

1.62233516766403e+005,-1.40061078382991e+001,-1.33212317124792e+000

1.64498212264969e+005,-1.40062401720933e+001,-1.35054169843223e+000

1.66794521734578e+005,-1.40063759221584e+001,-1.36921023480224e+000

1.69122886489819e+005,-1.40065151683129e+001,-1.38813199739593e+000

1.71483754005805e+005,-1.40066579917858e+001,-1.40731023847546e+000

1.73877578004168e+005,-1.40068044752153e+001,-1.42674824573197e+000

1.76304818540256e+005,-1.40069547026461e+001,-1.44644934248773e+000

1.78765942091554e+005,-1.40071087595260e+001,-1.46641688789206e+000

1.81261421647326e+005,-1.40072667326992e+001,-1.48665427712231e+000

1.83791736799524e+005,-1.40074287103978e+001,-1.50716494157889e+000

1.86357373834951e+005,-1.40075947822315e+001,-1.52795234908093e+000

1.88958825828723e+005,-1.40077650391750e+001,-1.54902000406104e+000

1.91596592739027e+005,-1.40079395735523e+001,-1.57037144775888e+000

1.94271181503206e+005,-1.40081184790191e+001,-1.59201025841669e+000

1.96983106135185e+005,-1.40083018505423e+001,-1.61394005147256e+000

1.99732887824256e+005,-1.40084897843764e+001,-1.63616447975802e+000

2.02521055035243e+005,-1.40086823780374e+001,-1.65868723369333e+000

2.05348143610063e+005,-1.40088797302732e+001,-1.68151204148806e+000

2.08214696870707e+005,-1.40090819410311e+001,-1.70464266934252e+000

2.11121265723661e+005,-1.40092891114214e+001,-1.72808292165348e+000

2.14068408765776e+005,-1.40095013436783e+001,-1.75183664122428e+000

2.17056692391625e+005,-1.40097187411162e+001,-1.77590770947857e+000

2.20086690902357e+005,-1.40099414080831e+001,-1.80030004668161e+000

2.23158986616063e+005,-1.40101694499090e+001,-1.82501761216795e+000

2.26274169979693e+005,-1.40104029728517e+001,-1.85006440457650e+000

2.29432839682530e+005,-1.40106420840364e+001,-1.87544446209523e+000

2.32635602771247e+005,-1.40108868913929e+001,-1.90116186271703e+000

2.35883074766574e+005,-1.40111375035871e+001,-1.92722072450286e+000

2.39175879781588e+005,-1.40113940299478e+001,-1.95362520586512e+000

2.42514650641661e+005,-1.40116565803897e+001,-1.98037950585763e+000

2.45900029006080e+005,-1.40119252653304e+001,-2.00748786448631e+000

2.49332665491357e+005,-1.40122001956029e+001,-2.03495456303508e+000

2.52813219796278e+005,-1.40124814823630e+001,-2.06278392441243e+000

2.56342360828676e+005,-1.40127692369914e+001,-2.09098031351683e+000

2.59920766833993e+005,-1.40130635709900e+001,-2.11954813762654e+000

2.63549125525621e+005,-1.40133645958736e+001,-2.14849184681357e+000

2.67228134217075e+005,-1.40136724230551e+001,-2.17781593438398e+000

2.70958499956006e+005,-1.40139871637261e+001,-2.20752493734749e+000

2.74740939660078e+005,-1.40143089287308e+001,-2.23762343691839e+000

2.78576180254757e+005,-1.40146378284350e+001,-2.26811605904979e+000

2.82464958813007e+005,-1.40149739725887e+001,-2.29900747500313e+000

2.86408022696948e+005,-1.40153174701838e+001,-2.33030240195689e+000

2.90406129701488e+005,-1.40156684293050e+001,-2.36200560365614e+000

2.94460048199957e+005,-1.40160269569755e+001,-2.39412189110555e+000

2.98570557291775e+005,-1.40163931589974e+001,-2.42665612330781e+000

3.02738446952187e+005,-1.40167671397851e+001,-2.45961320805439e+000

3.06964518184081e+005,-1.40171490021950e+001,-2.49299810276366e+000

3.11249583171928e+005,-1.40175388473479e+001,-2.52681581537813e+000

3.15594465437872e+005,-1.40179367744471e+001,-2.56107140531805e+000

3.19999999999997e+005,-1.40183428805915e+001,-2.59576998449538e+000

3.24467033532806e+005,-1.40187572605828e+001,-2.63091671839350e+000

3.28996424529938e+005,-1.40191800067284e+001,-2.66651682721259e+000

3.33589043469155e+005,-1.40196112086401e+001,-2.70257558708664e+000

3.38245772979638e+005,-1.40200509530279e+001,-2.73909833137256e+000

3.42967508011610e+005,-1.40204993234899e+001,-2.77609045201707e+000

3.47755156008335e+005,-1.40209564002990e+001,-2.81355740100338e+000

3.52609637080511e+005,-1.40214222601863e+001,-2.85150469187793e+000

3.57531884183106e+005,-1.40218969761207e+001,-2.88993790136681e+000

3.62522843294651e+005,-1.40223806170875e+001,-2.92886267107841e+000

3.67583473599047e+005,-1.40228732478638e+001,-2.96828470929653e+000

3.72714747669902e+005,-1.40233749287935e+001,-3.00820979287054e+000

3.77917651657445e+005,-1.40238857155604e+001,-3.04864376920052e+000

3.83193185478053e+005,-1.40244056589618e+001,-3.08959255832183e+000

3.88542363006410e+005,-1.40249348046822e+001,-3.13106215509109e+000

3.93966212270369e+005,-1.40254731930678e+001,-3.17305863147713e+000

3.99465775648511e+005,-1.40260208589025e+001,-3.21558813895674e+000

4.05042110070485e+005,-1.40265778311869e+001,-3.25865691101704e+000

4.10696287220124e+005,-1.40271441329201e+001,-3.30227126576826e+000

4.16429393741414e+005,-1.40277197808847e+001,-3.34643760866567e+000

4.22242531447321e+005,-1.40283047854379e+001,-3.39116243534351e+000

4.28136817531551e+005,-1.40288991503070e+001,-3.43645233455821e+000

4.34113384783250e+005,-1.40295028723921e+001,-3.48231399124661e+000

4.40173381804713e+005,-1.40301159415748e+001,-3.52875418969413e+000

4.46317973232124e+005,-1.40307383405371e+001,-3.57577981681437e+000

4.52548339959385e+005,-1.40313700445875e+001,-3.62339786554041e+000

4.58865679365059e+005,-1.40320110214979e+001,-3.67161543832582e+000

4.65271205542494e+005,-1.40326612313516e+001,-3.72043975075146e+000

4.71766149533147e+005,-1.40333206264027e+001,-3.76987813524070e+000

4.78351759563174e+005,-1.40339891509484e+001,-3.81993804487747e+000

4.85029301283321e+005,-1.40346667412149e+001,-3.87062705732429e+000

4.91800058012158e+005,-1.40353533252584e+001,-3.92195287883779e+000

4.98665330982714e+005,-1.40360488228805e+001,-3.97392334837920e+000

5.05626439592555e+005,-1.40367531455612e+001,-4.02654644181195e+000

5.12684721657352e+005,-1.40374661964076e+001,-4.07983027618644e+000

5.19841533667984e+005,-1.40381878701217e+001,-4.13378311410278e+000

5.27098251051240e+005,-1.40389180529865e+001,-4.18841336814867e+000

5.34456268434150e+005,-1.40396566228711e+001,-4.24372960540474e+000

5.41916999912011e+005,-1.40404034492562e+001,-4.29974055201302e+000

