Freq.,VOut,OutRef

1.00000000000000e+004,-1.46751162028388e+001,-3.02326879301243e-002

1.01395947979003e+004,-1.46751164027470e+001,-3.06547038997813e-002

1.02811382665607e+004,-1.46751166082736e+001,-3.10826102872841e-002

1.04246576084112e+004,-1.46751168195762e+001,-3.15164892901480e-002

1.05701804056138e+004,-1.46751170368174e+001,-3.19564242508185e-002

1.07177346253629e+004,-1.46751172601636e+001,-3.24024996762048e-002

1.08673486252606e+004,-1.46751174897870e+001,-3.28548012473380e-002

1.10190511587661e+004,-1.46751177258632e+001,-3.33134158464600e-002

1.11728713807222e+004,-1.46751179685740e+001,-3.37784315595937e-002

1.13288388529580e+004,-1.46751182181060e+001,-3.42499377042102e-002

1.14869835499703e+004,-1.46751184746501e+001,-3.47280248462457e-002

1.16473358646846e+004,-1.46751187384036e+001,-3.52127848106639e-002

1.18099266142953e+004,-1.46751190095691e+001,-3.57043107022465e-002

1.19747870461893e+004,-1.46751192883548e+001,-3.62026969235245e-002

1.21419488439505e+004,-1.46751195749746e+001,-3.67080391949344e-002

1.23114441334492e+004,-1.46751198696487e+001,-3.72204345697829e-002

1.24833054890161e+004,-1.46751201726031e+001,-3.77399814545767e-002

1.26575659397028e+004,-1.46751204840703e+001,-3.82667796283316e-002

1.28342589756290e+004,-1.46751208042900e+001,-3.88009302549105e-002

1.30134185544193e+004,-1.46751211335074e+001,-3.93425359173596e-002

1.31950791077289e+004,-1.46751214719752e+001,-3.98917006223615e-002

1.33792755478611e+004,-1.46751218199536e+001,-4.04485298241259e-002

1.35660432744767e+004,-1.46751221777095e+001,-4.10131304506461e-002

1.37554181813974e+004,-1.46751225455173e+001,-4.15856109194724e-002

1.39474366635040e+004,-1.46751229236595e+001,-4.21660811557602e-002

1.41421356237309e+004,-1.46751233124261e+001,-4.27546526181402e-002

1.43395524801583e+004,-1.46751237121155e+001,-4.33514383178487e-002

1.45397251732031e+004,-1.46751241230344e+001,-4.39565528403930e-002

1.47426921729110e+004,-1.46751245454980e+001,-4.45701123667204e-002

1.49484924863494e+004,-1.46751249798305e+001,-4.51922346964359e-002

1.51571656651040e+004,-1.46751254263650e+001,-4.58230392705467e-002

1.53687518128801e+004,-1.46751258854443e+001,-4.64626471911953e-002

1.55832915932100e+004,-1.46751263574203e+001,-4.71111812497639e-002

1.58008262372675e+004,-1.46751268426552e+001,-4.77687659461079e-002

1.60213975517924e+004,-1.46751273415212e+001,-4.84355275128914e-002

1.62450479271247e+004,-1.46751278544005e+001,-4.91115939438258e-002

1.64718203453514e+004,-1.46751283816871e+001,-4.97970950078140e-002

1.67017583885674e+004,-1.46751289237849e+001,-5.04921622875497e-002

1.69349062472505e+004,-1.46751294811096e+001,-5.11969291934739e-002

1.71713087287550e+004,-1.46751300540884e+001,-5.19115309943625e-002

1.74110112659224e+004,-1.46751306431608e+001,-5.26361048394026e-002

1.76540599258131e+004,-1.46751312487786e+001,-5.33707897876422e-002

1.79005014185594e+004,-1.46751318714057e+001,-5.41157268339689e-002

1.81503831063432e+004,-1.46751325115197e+001,-5.48710589340502e-002

1.84037530124975e+004,-1.46751331696106e+001,-5.56369310350892e-002

1.86606598307361e+004,-1.46751338461830e+001,-5.64134900970156e-002

1.89211529345119e+004,-1.46751345417557e+001,-5.72008851242159e-002

1.91852823865052e+004,-1.46751352568614e+001,-5.79992671955609e-002

1.94530989482457e+004,-1.46751359920479e+001,-5.88087894919062e-002

1.97246540898671e+004,-1.46751367478787e+001,-5.96296073192988e-002

1.99999999999999e+004,-1.46751375249322e+001,-6.04618781502976e-002

2.02791895958005e+004,-1.46751383238043e+001,-6.13057616388953e-002

2.05622765331213e+004,-1.46751391451063e+001,-6.21614196653095e-002

2.08493152168224e+004,-1.46751399894674e+001,-6.30290163557247e-002

2.11403608112276e+004,-1.46751408575340e+001,-6.39087181178574e-002

2.14354692507258e+004,-1.46751417499705e+001,-6.48006936747455e-002

2.17346972505211e+004,-1.46751426674605e+001,-6.57051140889283e-002

2.20381023175322e+004,-1.46751436107060e+001,-6.66221528030374e-002

2.23457427614443e+004,-1.46751445804289e+001,-6.75519856679002e-002

2.26576777059159e+004,-1.46751455773710e+001,-6.84947909777231e-002

2.29739670999406e+004,-1.46751466022956e+001,-6.94507494993619e-002

2.32946717293690e+004,-1.46751476559868e+001,-7.04200445109111e-002

2.36198532285905e+004,-1.46751487392500e+001,-7.14028618389180e-002

2.39495740923785e+004,-1.46751498529140e+001,-7.23993898851891e-002

2.42838976879009e+004,-1.46751509978307e+001,-7.34098196643651e-002

2.46228882668982e+004,-1.46751521748750e+001,-7.44343448469197e-002

2.49666109780322e+004,-1.46751533849470e+001,-7.54731617872145e-002

2.53151318794055e+004,-1.46751546289716e+001,-7.65264695620095e-002

2.56685179512580e+004,-1.46751559078993e+001,-7.75944700127743e-002

2.60268371088386e+004,-1.46751572227077e+001,-7.86773677750204e-002

2.63901582154578e+004,-1.46751585744010e+001,-7.97753703252763e-002

2.67585510957221e+004,-1.46751599640114e+001,-8.08886880158102e-002

2.71320865489533e+004,-1.46751613926008e+001,-8.20175341092533e-002

2.75108363627948e+004,-1.46751628612597e+001,-8.31621248275673e-002

2.78948733270080e+004,-1.46751643711088e+001,-8.43226793885032e-002

2.82842712474618e+004,-1.46751659233014e+001,-8.54994200406217e-002

2.86791049603164e+004,-1.46751675190210e+001,-8.66925721170298e-002

2.90794503464061e+004,-1.46751691594859e+001,-8.79023640628937e-002

2.94853843458219e+004,-1.46751708459466e+001,-8.91290274915426e-002

2.98969849726987e+004,-1.46751725796899e+001,-9.03727972145998e-002

3.03143313302078e+004,-1.46751743620373e+001,-9.16339112977608e-002

3.07375036257601e+004,-1.46751761943473e+001,-9.29126110967105e-002

3.11665831864199e+004,-1.46751780780164e+001,-9.42091413029734e-002

3.16016524745350e+004,-1.46751800144800e+001,-9.55237499899919e-002

3.20427951035848e+004,-1.46751820052126e+001,-9.68566886630015e-002

3.24900958542493e+004,-1.46751840517303e+001,-9.82082122983394e-002

3.29436406907028e+004,-1.46751861555912e+001,-9.95785793935511e-002

3.34035167771346e+004,-1.46751883183962e+001,-1.00968052018301e-001

3.38698124945009e+004,-1.46751905417914e+001,-1.02376895853834e-001

3.43426174575100e+004,-1.46751928274675e+001,-1.03805380253228e-001

3.48220225318448e+004,-1.46751951771628e+001,-1.05253778281168e-001

3.53081198516260e+004,-1.46751975926633e+001,-1.06722366769430e-001

3.58010028371187e+004,-1.46752000758050e+001,-1.08211426361994e-001

3.63007662126863e+004,-1.46752026284737e+001,-1.09721241576026e-001

3.68075060249948e+004,-1.46752052526087e+001,-1.11252100840571e-001

3.73213196614721e+004,-1.46752079502017e+001,-1.12804296561910e-001

3.78423058690237e+004,-1.46752107233000e+001,-1.14378125167833e-001

3.83705647730104e+004,-1.46752135740074e+001,-1.15973887164213e-001

3.89061978964912e+004,-1.46752165044856e+001,-1.17591887191771e-001

3.94493081797342e+004,-1.46752195169562e+001,-1.19232434077304e-001

3.99999999999998e+004,-1.46752226137018e+001,-1.20895840891365e-001

4.05583791916010e+004,-1.46752257970682e+001,-1.22582425004202e-001

4.11245530662425e+004,-1.46752290694652e+001,-1.24292508145690e-001

4.16986304336447e+004,-1.46752324333696e+001,-1.26026416456935e-001

4.22807216224550e+004,-1.46752358913263e+001,-1.27784480553136e-001

4.28709385014515e+004,-1.46752394459497e+001,-1.29567035584115e-001

4.34693945010421e+004,-1.46752430999262e+001,-1.31374421290275e-001

4.40762046350642e+004,-1.46752468560160e+001,-1.33206982064932e-001

4.46914855228886e+004,-1.46752507170551e+001,-1.35065067015518e-001

4.53153554118317e+004,-1.46752546859574e+001,-1.36949030023981e-001

4.59479341998812e+004,-1.46752587657163e+001,-1.38859229813307e-001

4.65893434587380e+004,-1.46752629594074e+001,-1.40796030004681e-001

4.72397064571810e+004,-1.46752672701902e+001,-1.42759799188706e-001

4.78991481847569e+004,-1.46752717013109e+001,-1.44750910984626e-001

4.85677953758016e+004,-1.46752762561039e+001,-1.46769744108433e-001

4.92457765337964e+004,-1.46752809379954e+001,-1.48816682435901e-001

4.99332219560642e+004,-1.46752857505039e+001,-1.50892115075899e-001

5.06302637588109e+004,-1.46752906972449e+001,-1.52996436430654e-001

5.13370359025159e+004,-1.46752957819314e+001,-1.55130046269083e-001

5.20536742176771e+004,-1.46753010083779e+001,-1.57293349793287e-001

5.27803164309155e+004,-1.46753063805026e+001,-1.59486757709043e-001

5.35171021914442e+004,-1.46753119023298e+001,-1.61710686297159e-001

5.42641730979066e+004,-1.46753175779928e+001,-1.63965557484900e-001

5.50216727255895e+004,-1.46753234117370e+001,-1.66251798916124e-001

5.57897466540159e+004,-1.46753294079229e+001,-1.68569844024808e-001

5.65685424949235e+004,-1.46753355710288e+001,-1.70920132108182e-001

5.73582099206328e+004,-1.46753419056533e+001,-1.73303108404295e-001

5.81589006928121e+004,-1.46753484165200e+001,-1.75719224159914e-001

5.89707686916437e+004,-1.46753551084787e+001,-1.78168936715113e-001

5.97939699453972e+004,-1.46753619865106e+001,-1.80652709569783e-001

6.06286626604156e+004,-1.46753690557298e+001,-1.83171012470437e-001

6.14750072515201e+004,-1.46753763213884e+001,-1.85724321479444e-001

6.23331663728396e+004,-1.46753837888790e+001,-1.88313119058259e-001

6.32033049490698e+004,-1.46753914637382e+001,-1.90937894147779e-001

6.40855902071694e+004,-1.46753993516507e+001,-1.93599142244617e-001

6.49801917084985e+004,-1.46754074584530e+001,-1.96297365482692e-001

6.58872813814055e+004,-1.46754157901371e+001,-1.99033072714639e-001

6.68070335542691e+004,-1.46754243528539e+001,-2.01806779597575e-001

6.77396249890018e+004,-1.46754331529181e+001,-2.04619008669172e-001

6.86852349150199e+004,-1.46754421968117e+001,-2.07470289435491e-001

6.96440450636895e+004,-1.46754514911881e+001,-2.10361158453388e-001

7.06162397032520e+004,-1.46754610428767e+001,-2.13292159414799e-001

7.16020056742374e+004,-1.46754708588866e+001,-2.16263843234767e-001

7.26015324253724e+004,-1.46754809464118e+001,-2.19276768133248e-001

7.36150120499896e+004,-1.46754913128350e+001,-2.22331499725272e-001

7.46426393229441e+004,-1.46755019657325e+001,-2.25428611105218e-001

7.56846117380472e+004,-1.46755129128787e+001,-2.28568682937127e-001

7.67411295460207e+004,-1.46755241622513e+001,-2.31752303541434e-001

7.78123957929823e+004,-1.46755357220357e+001,-2.34980068982738e-001

7.88986163594682e+004,-1.46755476006297e+001,-2.38252583162878e-001

7.99999999999995e+004,-1.46755598066491e+001,-2.41570457909346e-001

8.11167583832018e+004,-1.46755723489329e+001,-2.44934313061240e-001

8.22491061324848e+004,-1.46755852365475e+001,-2.48344776569948e-001

8.33972608672892e+004,-1.46755984787933e+001,-2.51802484579859e-001

8.45614432449099e+004,-1.46756120852090e+001,-2.55308081529689e-001

8.57418770029029e+004,-1.46756260655778e+001,-2.58862220236995e-001

8.69387890020841e+004,-1.46756404299326e+001,-2.62465561996302e-001

8.81524092701283e+004,-1.46756551885615e+001,-2.66118776672236e-001

8.93829710457770e+004,-1.46756703520140e+001,-2.69822542788387e-001

9.06307108236633e+004,-1.46756859311063e+001,-2.73577547627387e-001

9.18958683997622e+004,-1.46757019369276e+001,-2.77384487319580e-001

9.31786869174758e+004,-1.46757183808459e+001,-2.81244066941203e-001

9.44794129143618e+004,-1.46757352745138e+001,-2.85157000608942e-001

9.57982963695136e+004,-1.46757526298748e+001,-2.89124011573729e-001

9.71355907516031e+004,-1.46757704591700e+001,-2.93145832315596e-001

9.84915530675926e+004,-1.46757887749433e+001,-2.97223204640324e-001

9.98664439121282e+004,-1.46758075900489e+001,-3.01356879775029e-001

1.01260527517622e+005,-1.46758269176566e+001,-3.05547618463182e-001

1.02674071805032e+005,-1.46758467712590e+001,-3.09796191061301e-001

1.04107348435354e+005,-1.46758671646775e+001,-3.14103377632958e-001

1.05560632861831e+005,-1.46758881120694e+001,-3.18469968046734e-001

1.07034204382888e+005,-1.46759096279340e+001,-3.22896762069878e-001

1.08528346195813e+005,-1.46759317271195e+001,-3.27384569465471e-001

1.10043345451179e+005,-1.46759544248294e+001,-3.31934210089025e-001

1.11579493308032e+005,-1.46759777366295e+001,-3.36546513980016e-001

1.13137084989847e+005,-1.46760016784542e+001,-3.41222321462192e-001

1.14716419841265e+005,-1.46760262666138e+001,-3.45962483234408e-001

1.16317801385624e+005,-1.46760515178007e+001,-3.50767860467392e-001

1.17941537383287e+005,-1.46760774490963e+001,-3.55639324897770e-001

1.19587939890794e+005,-1.46761040779774e+001,-3.60577758923213e-001

1.21257325320831e+005,-1.46761314223236e+001,-3.65584055693841e-001

1.22950014503040e+005,-1.46761595004231e+001,-3.70659119207993e-001

1.24666332745679e+005,-1.46761883309797e+001,-3.75803864402552e-001

1.26406609898139e+005,-1.46762179331194e+001,-3.81019217247408e-001

1.28171180414339e+005,-1.46762483263963e+001,-3.86306114836903e-001

1.29960383416997e+005,-1.46762795307997e+001,-3.91665505478593e-001

1.31774562762811e+005,-1.46763115667600e+001,-3.97098348785920e-001

1.33614067108538e+005,-1.46763444551544e+001,-4.02605615768953e-001

1.35479249978003e+005,-1.46763782173137e+001,-4.08188288919768e-001

1.37370469830040e+005,-1.46764128750276e+001,-4.13847362304533e-001

1.39288090127379e+005,-1.46764484505506e+001,-4.19583841648714e-001

1.41232479406504e+005,-1.46764849666073e+001,-4.25398744424387e-001

1.43204011348474e+005,-1.46765224463979e+001,-4.31293099937348e-001

1.45203064850745e+005,-1.46765609136030e+001,-4.37267949408931e-001

1.47230024099979e+005,-1.46766003923888e+001,-4.43324346063597e-001

1.49285278645888e+005,-1.46766409074109e+001,-4.49463355209615e-001

1.51369223476094e+005,-1.46766824838194e+001,-4.55686054322369e-001

1.53482259092041e+005,-1.46767251472623e+001,-4.61993533124176e-001

1.55624791585964e+005,-1.46767689238887e+001,-4.68386893667816e-001

1.57797232718936e+005,-1.46768138403528e+001,-4.74867250410455e-001

1.59999999999999e+005,-1.46768599238157e+001,-4.81435730297832e-001

1.62233516766403e+005,-1.46769072019489e+001,-4.88093472835647e-001

1.64498212264969e+005,-1.46769557029345e+001,-4.94841630171443e-001

1.66794521734578e+005,-1.46770054554683e+001,-5.01681367165678e-001

1.69122886489819e+005,-1.46770564887591e+001,-5.08613861467990e-001

1.71483754005805e+005,-1.46771088325298e+001,-5.15640303591667e-001

1.73877578004168e+005,-1.46771625170165e+001,-5.22761896984124e-001

1.76304818540256e+005,-1.46772175729679e+001,-5.29979858101296e-001

1.78765942091554e+005,-1.46772740316431e+001,-5.37295416475889e-001

1.81261421647326e+005,-1.46773319248094e+001,-5.44709814791753e-001

1.83791736799524e+005,-1.46773912847387e+001,-5.52224308951120e-001

1.86357373834951e+005,-1.46774521442039e+001,-5.59840168145323e-001

1.88958825828723e+005,-1.46775145364735e+001,-5.67558674924101e-001

1.91596592739027e+005,-1.46775784953063e+001,-5.75381125263238e-001

1.94271181503206e+005,-1.46776440549438e+001,-5.83308828637278e-001

1.96983106135185e+005,-1.46777112501031e+001,-5.91343108083772e-001

1.99732887824256e+005,-1.46777801159678e+001,-5.99485300276742e-001

2.02521055035243e+005,-1.46778506881777e+001,-6.07736755595007e-001

2.05348143610063e+005,-1.46779230028183e+001,-6.16098838192238e-001

2.08214696870707e+005,-1.46779970964079e+001,-6.24572926069721e-001

2.11121265723661e+005,-1.46780730058845e+001,-6.33160411148597e-001

2.14068408765776e+005,-1.46781507685905e+001,-6.41862699343476e-001

2.17056692391625e+005,-1.46782304222566e+001,-6.50681210640065e-001

2.20086690902357e+005,-1.46783120049843e+001,-6.59617379170574e-001

2.23158986616063e+005,-1.46783955552264e+001,-6.68672653298163e-001

2.26274169979693e+005,-1.46784811117668e+001,-6.77848495695431e-001

2.29432839682530e+005,-1.46785687136977e+001,-6.87146383436690e-001

2.32635602771247e+005,-1.46786584003962e+001,-6.96567808083503e-001

2.35883074766574e+005,-1.46787502114985e+001,-7.06114275781403e-001

2.39175879781588e+005,-1.46788441868727e+001,-7.15787307359929e-001

2.42514650641661e+005,-1.46789403665899e+001,-7.25588438433122e-001

2.45900029006080e+005,-1.46790387908928e+001,-7.35519219514574e-001

2.49332665491357e+005,-1.46791395001635e+001,-7.45581216130853e-001

2.52813219796278e+005,-1.46792425348887e+001,-7.55776008944147e-001

2.56342360828676e+005,-1.46793479356226e+001,-7.66105193885504e-001

2.59920766833993e+005,-1.46794557429490e+001,-7.76570382291884e-001

2.63549125525621e+005,-1.46795659974399e+001,-7.87173201055291e-001

2.67228134217075e+005,-1.46796787396130e+001,-7.97915292781291e-001

2.70958499956006e+005,-1.46797940098874e+001,-8.08798315955912e-001

2.74740939660078e+005,-1.46799118485356e+001,-8.19823945126069e-001

2.78576180254757e+005,-1.46800322956354e+001,-8.30993871092751e-001

2.82464958813007e+005,-1.46801553910179e+001,-8.42309801114580e-001

2.86408022696948e+005,-1.46802811742143e+001,-8.53773459128819e-001

2.90406129701488e+005,-1.46804096844009e+001,-8.65386585982620e-001

2.94460048199957e+005,-1.46805409603404e+001,-8.77150939687521e-001

2.98570557291775e+005,-1.46806750403225e+001,-8.89068295683895e-001

3.02738446952187e+005,-1.46808119621022e+001,-9.01140447125816e-001

3.06964518184081e+005,-1.46809517628351e+001,-9.13369205187345e-001

3.11249583171928e+005,-1.46810944790115e+001,-9.25756399386534e-001

3.15594465437872e+005,-1.46812401463885e+001,-9.38303877930294e-001

3.19999999999997e+005,-1.46813887999192e+001,-9.51013508084669e-001

3.24467033532806e+005,-1.46815404736815e+001,-9.63887176564356e-001

3.28996424529938e+005,-1.46816952008033e+001,-9.76926789952228e-001

3.33589043469155e+005,-1.46818530133878e+001,-9.90134275138377e-001

3.38245772979638e+005,-1.46820139424358e+001,-1.00351157979351e+000

3.42967508011610e+005,-1.46821780177671e+001,-1.01706067286356e+000

3.47755156008335e+005,-1.46823452679402e+001,-1.03078354509785e+000

3.52609637080511e+005,-1.46825157201711e+001,-1.04468220960803e+000

3.57531884183106e+005,-1.46826894002509e+001,-1.05875870245331e+000

3.62522843294651e+005,-1.46828663324617e+001,-1.07301508326745e+000

3.67583473599047e+005,-1.46830465394933e+001,-1.08745343591018e+000

3.72714747669902e+005,-1.46832300423574e+001,-1.10207586915857e+000

3.77917651657445e+005,-1.46834168603030e+001,-1.11688451743436e+000

3.83193185478053e+005,-1.46836070107307e+001,-1.13188154156463e+000

3.88542363006410e+005,-1.46838005091075e+001,-1.14706912958313e+000

3.93966212270369e+005,-1.46839973688811e+001,-1.16244949756909e+000

3.99465775648511e+005,-1.46841976013964e+001,-1.17802489052337e+000

4.05042110070485e+005,-1.46844012158108e+001,-1.19379758328723e+000

4.10696287220124e+005,-1.46846082190119e+001,-1.20976988149938e+000

4.16429393741414e+005,-1.46848186155362e+001,-1.22594412259313e+000

4.22242531447321e+005,-1.46850324074893e+001,-1.24232267683830e+000

4.28136817531551e+005,-1.46852495944683e+001,-1.25890794841955e+000

4.34113384783250e+005,-1.46854701734862e+001,-1.27570237656058e+000

4.40173381804713e+005,-1.46856941388996e+001,-1.29270843668502e+000

4.46317973232124e+005,-1.46859214823382e+001,-1.30992864162457e+000

4.52548339959385e+005,-1.46861521926385e+001,-1.32736554286423e+000

4.58865679365059e+005,-1.46863862557806e+001,-1.34502173182812e+000

4.65271205542494e+005,-1.46866236548296e+001,-1.36289984120697e+000

4.71766149533147e+005,-1.46868643698805e+001,-1.38100254632387e+000

4.78351759563174e+005,-1.46871083780079e+001,-1.39933256654212e+000

4.85029301283321e+005,-1.46873556532211e+001,-1.41789266670213e+000

4.91800058012158e+005,-1.46876061664243e+001,-1.43668565860544e+000

4.98665330982714e+005,-1.46878598853820e+001,-1.45571440252492e+000

5.05626439592555e+005,-1.46881167746910e+001,-1.47498180875216e+000

5.12684721657352e+005,-1.46883767957581e+001,-1.49449083917792e+000

5.19841533667984e+005,-1.46886399067851e+001,-1.51424450889713e+000

5.27098251051240e+005,-1.46889060627592e+001,-1.53424588784940e+000

5.34456268434150e+005,-1.46891752154522e+001,-1.55449810247639e+000

5.41916999912011e+005,-1.46894473134257e+001,-1.57500433741041e+000

