Freq.,VOut,OutRef

1.00000000000000e+004,-2.20946107827370e+001,-1.31012623032542e-001

1.01395947979003e+004,-2.20946115308309e+001,-1.32841441686104e-001

1.02811382665607e+004,-2.20946122999512e+001,-1.34695787599413e-001

1.04246576084112e+004,-2.20946130906888e+001,-1.36576017030043e-001

1.05701804056138e+004,-2.20946139036511e+001,-1.38482491205234e-001

1.07177346253629e+004,-2.20946147394623e+001,-1.40415576392922e-001

1.08673486252606e+004,-2.20946155987649e+001,-1.42375643965869e-001

1.10190511587661e+004,-2.20946164822186e+001,-1.44363070480534e-001

1.11728713807222e+004,-2.20946173905021e+001,-1.46378237743053e-001

1.13288388529580e+004,-2.20946183243130e+001,-1.48421532886294e-001

1.14869835499703e+004,-2.20946192843685e+001,-1.50493348441431e-001

1.16473358646846e+004,-2.20946202714059e+001,-1.52594082414521e-001

1.18099266142953e+004,-2.20946212861836e+001,-1.54724138361049e-001

1.19747870461893e+004,-2.20946223294806e+001,-1.56883925466885e-001

1.21419488439505e+004,-2.20946234020982e+001,-1.59073858622716e-001

1.23114441334492e+004,-2.20946245048602e+001,-1.61294358504952e-001

1.24833054890161e+004,-2.20946256386134e+001,-1.63545851656104e-001

1.26575659397028e+004,-2.20946268042284e+001,-1.65828770566833e-001

1.28342589756290e+004,-2.20946280026003e+001,-1.68143553758604e-001

1.30134185544193e+004,-2.20946292346492e+001,-1.70490645866792e-001

1.31950791077289e+004,-2.20946305013211e+001,-1.72870497726878e-001

1.33792755478611e+004,-2.20946318035886e+001,-1.75283566459392e-001

1.35660432744767e+004,-2.20946331424517e+001,-1.77730315558444e-001

1.37554181813974e+004,-2.20946345189381e+001,-1.80211214980314e-001

1.39474366635040e+004,-2.20946359341046e+001,-1.82726741232633e-001

1.41421356237309e+004,-2.20946373890377e+001,-1.85277377465491e-001

1.43395524801583e+004,-2.20946388848541e+001,-1.87863613564535e-001

1.45397251732031e+004,-2.20946404227023e+001,-1.90485946243716e-001

1.47426921729110e+004,-2.20946420037626e+001,-1.93144879141455e-001

1.49484924863494e+004,-2.20946436292487e+001,-1.95840922914380e-001

1.51571656651040e+004,-2.20946453004079e+001,-1.98574595338982e-001

1.53687518128801e+004,-2.20946470185230e+001,-2.01346421406122e-001

1.55832915932100e+004,-2.20946487849127e+001,-2.04156933423097e-001

1.58008262372675e+004,-2.20946506009324e+001,-2.07006671116219e-001

1.60213975517924e+004,-2.20946524679757e+001,-2.09896181733058e-001

1.62450479271247e+004,-2.20946543874754e+001,-2.12826020145507e-001

1.64718203453514e+004,-2.20946563609042e+001,-2.15796748958438e-001

1.67017583885674e+004,-2.20946583897763e+001,-2.18808938615045e-001

1.69349062472505e+004,-2.20946604756483e+001,-2.21863167505422e-001

1.71713087287550e+004,-2.20946626201203e+001,-2.24960022078956e-001

1.74110112659224e+004,-2.20946648248375e+001,-2.28100096952928e-001

1.76540599258131e+004,-2.20946670914912e+001,-2.31283995028879e-001

1.79005014185594e+004,-2.20946694218200e+001,-2.34512327604932e-001

1.81503831063432e+004,-2.20946718176112e+001,-2.37785714495219e-001

1.84037530124975e+004,-2.20946742807021e+001,-2.41104784146095e-001

1.86606598307361e+004,-2.20946768129817e+001,-2.44470173754604e-001

1.89211529345119e+004,-2.20946794163921e+001,-2.47882529391183e-001

1.91852823865052e+004,-2.20946820929290e+001,-2.51342506125551e-001

1.94530989482457e+004,-2.20946848446452e+001,-2.54850768143395e-001

1.97246540898671e+004,-2.20946876736500e+001,-2.58407988881763e-001

1.99999999999999e+004,-2.20946905821120e+001,-2.62014851152386e-001

2.02791895958005e+004,-2.20946935722610e+001,-2.65672047269728e-001

2.05622765331213e+004,-2.20946966463888e+001,-2.69380279187409e-001

2.08493152168224e+004,-2.20946998068514e+001,-2.73140258628087e-001

2.11403608112276e+004,-2.20947030560710e+001,-2.76952707219079e-001

2.14354692507258e+004,-2.20947063965374e+001,-2.80818356630959e-001

2.17346972505211e+004,-2.20947098308099e+001,-2.84737948715445e-001

2.20381023175322e+004,-2.20947133615199e+001,-2.88712235644933e-001

2.23457427614443e+004,-2.20947169913722e+001,-2.92741980056182e-001

2.26576777059159e+004,-2.20947207231470e+001,-2.96827955197276e-001

2.29739670999406e+004,-2.20947245597029e+001,-3.00970945068279e-001

2.32946717293690e+004,-2.20947285039779e+001,-3.05171744575635e-001

2.36198532285905e+004,-2.20947325589924e+001,-3.09431159680201e-001

2.39495740923785e+004,-2.20947367278510e+001,-3.13750007550153e-001

2.42838976879009e+004,-2.20947410137456e+001,-3.18129116713650e-001

2.46228882668982e+004,-2.20947454199569e+001,-3.22569327219131e-001

2.49666109780322e+004,-2.20947499498575e+001,-3.27071490790635e-001

2.53151318794055e+004,-2.20947546069142e+001,-3.31636470992119e-001

2.56685179512580e+004,-2.20947593946905e+001,-3.36265143387369e-001

2.60268371088386e+004,-2.20947643168497e+001,-3.40958395707193e-001

2.63901582154578e+004,-2.20947693771574e+001,-3.45717128015555e-001

2.67585510957221e+004,-2.20947745794841e+001,-3.50542252880923e-001

2.71320865489533e+004,-2.20947799278085e+001,-3.55434695547098e-001

2.75108363627948e+004,-2.20947854262204e+001,-3.60395394107883e-001

2.78948733270080e+004,-2.20947910789238e+001,-3.65425299683263e-001

2.82842712474618e+004,-2.20947968902398e+001,-3.70525376598230e-001

2.86791049603164e+004,-2.20948028646104e+001,-3.75696602565291e-001

2.90794503464061e+004,-2.20948090066011e+001,-3.80939968867321e-001

2.94853843458219e+004,-2.20948153209048e+001,-3.86256480543614e-001

2.98969849726987e+004,-2.20948218123454e+001,-3.91647156578474e-001

3.03143313302078e+004,-2.20948284858811e+001,-3.97113030092467e-001

3.07375036257601e+004,-2.20948353466083e+001,-4.02655148537284e-001

3.11665831864199e+004,-2.20948423997654e+001,-4.08274573889001e-001

3.16016524745350e+004,-2.20948496507366e+001,-4.13972382849831e-001

3.20427951035848e+004,-2.20948571050562e+001,-4.19749667047223e-001

3.24900958542493e+004,-2.20948647684123e+001,-4.25607533240421e-001

3.29436406907028e+004,-2.20948726466514e+001,-4.31547103523681e-001

3.34035167771346e+004,-2.20948807457828e+001,-4.37569515538122e-001

3.38698124945009e+004,-2.20948890719826e+001,-4.43675922684555e-001

3.43426174575100e+004,-2.20948976315988e+001,-4.49867494334666e-001

3.48220225318448e+004,-2.20949064311560e+001,-4.56145416052119e-001

3.53081198516260e+004,-2.20949154773598e+001,-4.62510889811900e-001

3.58010028371187e+004,-2.20949247771022e+001,-4.68965134222913e-001

3.63007662126863e+004,-2.20949343374665e+001,-4.75509384754580e-001

3.68075060249948e+004,-2.20949441657326e+001,-4.82144893966427e-001

3.73213196614721e+004,-2.20949542693825e+001,-4.88872931739341e-001

3.78423058690237e+004,-2.20949646561055e+001,-4.95694785511427e-001

3.83705647730104e+004,-2.20949753338045e+001,-5.02611760513277e-001

3.89061978964912e+004,-2.20949863106009e+001,-5.09625180013736e-001

3.94493081797342e+004,-2.20949975948416e+001,-5.16736385558850e-001

3.99999999999998e+004,-2.20950091951041e+001,-5.23946737223023e-001

4.05583791916010e+004,-2.20950211202039e+001,-5.31257613856084e-001

4.11245530662425e+004,-2.20950333791999e+001,-5.38670413339236e-001

4.16986304336447e+004,-2.20950459814019e+001,-5.46186552839808e-001

4.22807216224550e+004,-2.20950589363769e+001,-5.53807469071895e-001

4.28709385014515e+004,-2.20950722539561e+001,-5.61534618558741e-001

4.34693945010421e+004,-2.20950859442424e+001,-5.69369477899985e-001

4.40762046350642e+004,-2.20951000176175e+001,-5.77313544040598e-001

4.46914855228886e+004,-2.20951144847494e+001,-5.85368334542944e-001

4.53153554118317e+004,-2.20951293566004e+001,-5.93535387864921e-001

4.59479341998812e+004,-2.20951446444347e+001,-6.01816263637790e-001

4.65893434587380e+004,-2.20951603598270e+001,-6.10212542949051e-001

4.72397064571810e+004,-2.20951765146703e+001,-6.18725828632068e-001

4.78991481847569e+004,-2.20951931211851e+001,-6.27357745550416e-001

4.85677953758016e+004,-2.20952101919275e+001,-6.36109940897663e-001

4.92457765337964e+004,-2.20952277397988e+001,-6.44984084488763e-001

4.99332219560642e+004,-2.20952457780545e+001,-6.53981869063952e-001

5.06302637588109e+004,-2.20952643203138e+001,-6.63105010591153e-001

5.13370359025159e+004,-2.20952833805693e+001,-6.72355248574617e-001

5.20536742176771e+004,-2.20953029731972e+001,-6.81734346364025e-001

5.27803164309155e+004,-2.20953231129669e+001,-6.91244091473314e-001

5.35171021914442e+004,-2.20953438150521e+001,-7.00886295895552e-001

5.42641730979066e+004,-2.20953650950416e+001,-7.10662796425919e-001

5.50216727255895e+004,-2.20953869689495e+001,-7.20575454989094e-001

5.57897466540159e+004,-2.20954094532275e+001,-7.30626158967602e-001

5.65685424949235e+004,-2.20954325647756e+001,-7.40816821536039e-001

5.73582099206328e+004,-2.20954563209545e+001,-7.51149381996456e-001

5.81589006928121e+004,-2.20954807395973e+001,-7.61625806122701e-001

5.89707686916437e+004,-2.20955058390223e+001,-7.72248086501423e-001

5.97939699453972e+004,-2.20955316380456e+001,-7.83018242882882e-001

6.06286626604156e+004,-2.20955581559939e+001,-7.93938322533583e-001

6.14750072515201e+004,-2.20955854127183e+001,-8.05010400590590e-001

6.23331663728396e+004,-2.20956134286072e+001,-8.16236580424081e-001

6.32033049490698e+004,-2.20956422246013e+001,-8.27618993999396e-001

6.40855902071694e+004,-2.20956718222072e+001,-8.39159802245729e-001

6.49801917084985e+004,-2.20957022435123e+001,-8.50861195427681e-001

6.58872813814055e+004,-2.20957335111995e+001,-8.62725393522610e-001

6.68070335542691e+004,-2.20957656485630e+001,-8.74754646596492e-001

6.77396249890018e+004,-2.20957986795238e+001,-8.86951235191202e-001

6.86852349150199e+004,-2.20958326286456e+001,-8.99317470709855e-001

6.96440450636895e+004,-2.20958675211514e+001,-9.11855695808896e-001

7.06162397032520e+004,-2.20959033829405e+001,-9.24568284792587e-001

7.16020056742374e+004,-2.20959402406049e+001,-9.37457644013635e-001

7.26015324253724e+004,-2.20959781214480e+001,-9.50526212274270e-001

7.36150120499896e+004,-2.20960170535014e+001,-9.63776461235210e-001

7.46426393229441e+004,-2.20960570655441e+001,-9.77210895824619e-001

7.56846117380472e+004,-2.20960981871207e+001,-9.90832054654406e-001

7.67411295460207e+004,-2.20961404485609e+001,-1.00464251043847e+000

7.78123957929823e+004,-2.20961838809984e+001,-1.01864487041500e+000

7.88986163594682e+004,-2.20962285163920e+001,-1.03284177677206e+000

7.99999999999995e+004,-2.20962743875449e+001,-1.04723590707864e+000

8.11167583832018e+004,-2.20963215281259e+001,-1.06182997471954e+000

8.22491061324848e+004,-2.20963699726905e+001,-1.07662672933132e+000

8.33972608672892e+004,-2.20964197567029e+001,-1.09162895724374e+000

8.45614432449099e+004,-2.20964709165577e+001,-1.10683948192756e+000

8.57418770029029e+004,-2.20965234896025e+001,-1.12226116443993e+000

8.69387890020841e+004,-2.20965775141609e+001,-1.13789690387973e+000

8.81524092701283e+004,-2.20966330295560e+001,-1.15374963784329e+000

8.93829710457770e+004,-2.20966900761338e+001,-1.16982234288223e+000

9.06307108236633e+004,-2.20967486952881e+001,-1.18611803496980e+000

9.18958683997622e+004,-2.20968089294845e+001,-1.20263976996574e+000

9.31786869174758e+004,-2.20968708222864e+001,-1.21939064408708e+000

9.44794129143618e+004,-2.20969344183797e+001,-1.23637379438215e+000

9.57982963695136e+004,-2.20969997635995e+001,-1.25359239920786e+000

9.71355907516031e+004,-2.20970669049563e+001,-1.27104967870924e+000

9.84915530675926e+004,-2.20971358906628e+001,-1.28874889530415e+000

9.98664439121282e+004,-2.20972067701616e+001,-1.30669335416965e+000

1.01260527517622e+005,-2.20972795941528e+001,-1.32488640373199e+000

1.02674071805032e+005,-2.20973544146219e+001,-1.34333143616017e+000

1.04107348435354e+005,-2.20974312848690e+001,-1.36203188786060e+000

1.05560632861831e+005,-2.20975102595375e+001,-1.38099123997831e+000

1.07034204382888e+005,-2.20975913946433e+001,-1.40021301889720e+000

1.08528346195813e+005,-2.20976747476054e+001,-1.41970079674444e+000

1.10043345451179e+005,-2.20977603772751e+001,-1.43945819189953e+000

1.11579493308032e+005,-2.20978483439674e+001,-1.45948886950295e+000

1.13137084989847e+005,-2.20979387094916e+001,-1.47979654196868e+000

1.14716419841265e+005,-2.20980315371829e+001,-1.50038496949983e+000

1.16317801385624e+005,-2.20981268919335e+001,-1.52125796060573e+000

1.17941537383287e+005,-2.20982248402251e+001,-1.54241937262227e+000

1.19587939890794e+005,-2.20983254501608e+001,-1.56387311223287e+000

1.21257325320831e+005,-2.20984287914978e+001,-1.58562313599338e+000

1.22950014503040e+005,-2.20985349356802e+001,-1.60767345085761e+000

1.24666332745679e+005,-2.20986439558719e+001,-1.63002811470636e+000

1.26406609898139e+005,-2.20987559269899e+001,-1.65269123687681e+000

1.28171180414339e+005,-2.20988709257378e+001,-1.67566697869466e+000

1.29960383416997e+005,-2.20989890306392e+001,-1.69895955400744e+000

1.31774562762811e+005,-2.20991103220714e+001,-1.72257322972065e+000

1.33614067108538e+005,-2.20992348822994e+001,-1.74651232633337e+000

1.35479249978003e+005,-2.20993627955094e+001,-1.77078121847822e+000

1.37370469830040e+005,-2.20994941478428e+001,-1.79538433545952e+000

1.39288090127379e+005,-2.20996290274301e+001,-1.82032616179570e+000

1.41232479406504e+005,-2.20997675244245e+001,-1.84561123776207e+000

1.43204011348474e+005,-2.20999097310355e+001,-1.87124415993393e+000

1.45203064850745e+005,-2.21000557415626e+001,-1.89722958173153e+000

1.47230024099979e+005,-2.21002056524282e+001,-1.92357221396797e+000

1.49285278645888e+005,-2.21003595622110e+001,-1.95027682539538e+000

1.51369223476094e+005,-2.21005175716781e+001,-1.97734824325385e+000

1.53482259092041e+005,-2.21006797838181e+001,-2.00479135382169e+000

1.55624791585964e+005,-2.21008463038719e+001,-2.03261110296700e+000

1.57797232718936e+005,-2.21010172393649e+001,-2.06081249669925e+000

1.59999999999999e+005,-2.21011927001373e+001,-2.08940060172316e+000

1.62233516766403e+005,-2.21013727983743e+001,-2.11838054599448e+000

1.64498212264969e+005,-2.21015576486354e+001,-2.14775751927526e+000

1.66794521734578e+005,-2.21017473678829e+001,-2.17753677369248e+000

1.69122886489819e+005,-2.21019420755100e+001,-2.20772362429770e+000

1.71483754005805e+005,-2.21021418933668e+001,-2.23832344962821e+000

1.73877578004168e+005,-2.21023469457862e+001,-2.26934169227083e+000

1.76304818540256e+005,-2.21025573596090e+001,-2.30078385942692e+000

1.78765942091554e+005,-2.21027732642059e+001,-2.33265552348074e+000

1.81261421647326e+005,-2.21029947915005e+001,-2.36496232256988e+000

1.83791736799524e+005,-2.21032220759895e+001,-2.39770996115879e+000

1.86357373834951e+005,-2.21034552547608e+001,-2.43090421061663e+000

1.88958825828723e+005,-2.21036944675119e+001,-2.46455090979633e+000

1.91596592739027e+005,-2.21039398565647e+001,-2.49865596562086e+000

1.94271181503206e+005,-2.21041915668792e+001,-2.53322535367152e+000

1.96983106135185e+005,-2.21044497460652e+001,-2.56826511878303e+000

1.99732887824256e+005,-2.21047145443918e+001,-2.60378137564309e+000

2.02521055035243e+005,-2.21049861147945e+001,-2.63978030939922e+000

2.05348143610063e+005,-2.21052646128806e+001,-2.67626817627157e+000

2.08214696870707e+005,-2.21055501969312e+001,-2.71325130417388e+000

2.11121265723661e+005,-2.21058430279010e+001,-2.75073609334392e+000

2.14068408765776e+005,-2.21061432694160e+001,-2.78872901698047e+000

2.17056692391625e+005,-2.21064510877675e+001,-2.82723662189361e+000

2.20086690902357e+005,-2.21067666519034e+001,-2.86626552916433e+000

2.23158986616063e+005,-2.21070901334167e+001,-2.90582243481725e+000

2.26274169979693e+005,-2.21074217065305e+001,-2.94591411050607e+000

2.29432839682530e+005,-2.21077615480796e+001,-2.98654740421449e+000

2.32635602771247e+005,-2.21081098374891e+001,-3.02772924097256e+000

2.35883074766574e+005,-2.21084667567490e+001,-3.06946662358990e+000

2.39175879781588e+005,-2.21088324903854e+001,-3.11176663340960e+000

2.42514650641661e+005,-2.21092072254277e+001,-3.15463643107942e+000

2.45900029006080e+005,-2.21095911513722e+001,-3.19808325734774e+000

2.49332665491357e+005,-2.21099844601414e+001,-3.24211443388240e+000

2.52813219796278e+005,-2.21103873460398e+001,-3.28673736411340e+000

2.56342360828676e+005,-2.21108000057050e+001,-3.33195953410591e+000

2.59920766833993e+005,-2.21112226380546e+001,-3.37778851346077e+000

2.63549125525621e+005,-2.21116554442297e+001,-3.42423195624741e+000

2.67228134217075e+005,-2.21120986275329e+001,-3.47129760196968e+000

2.70958499956006e+005,-2.21125523933627e+001,-3.51899327656931e+000

2.74740939660078e+005,-2.21130169491435e+001,-3.56732689346719e+000

2.78576180254757e+005,-2.21134925042512e+001,-3.61630645464416e+000

2.82464958813007e+005,-2.21139792699341e+001,-3.66594005176822e+000

2.86408022696948e+005,-2.21144774592301e+001,-3.71623586736567e+000

2.90406129701488e+005,-2.21149872868791e+001,-3.76720217604269e+000

2.94460048199957e+005,-2.21155089692314e+001,-3.81884734575809e+000

2.98570557291775e+005,-2.21160427241524e+001,-3.87117983915079e+000

3.02738446952187e+005,-2.21165887709224e+001,-3.92420821492611e+000

3.06964518184081e+005,-2.21171473301339e+001,-3.97794112930094e+000

3.11249583171928e+005,-2.21177186235835e+001,-4.03238733751545e+000

3.15594465437872e+005,-2.21183028741621e+001,-4.08755569540997e+000

3.19999999999997e+005,-2.21189003057406e+001,-4.14345516107247e+000

3.24467033532806e+005,-2.21195111430534e+001,-4.20009479656064e+000

3.28996424529938e+005,-2.21201356115786e+001,-4.25748376970022e+000

3.33589043469155e+005,-2.21207739374165e+001,-4.31563135596330e+000

3.38245772979638e+005,-2.21214263471654e+001,-4.37454694043010e+000

3.42967508011610e+005,-2.21220930677963e+001,-4.43424001983768e+000

3.47755156008335e+005,-2.21227743265262e+001,-4.49472020471863e+000

3.52609637080511e+005,-2.21234703506910e+001,-4.55599722163239e+000

3.57531884183106e+005,-2.21241813676177e+001,-4.61808091549264e+000

3.62522843294651e+005,-2.21249076044976e+001,-4.68098125199519e+000

3.67583473599047e+005,-2.21256492882599e+001,-4.74470832014578e+000

3.72714747669902e+005,-2.21264066454470e+001,-4.80927233489581e+000

3.77917651657445e+005,-2.21271799020927e+001,-4.87468363988200e+000

3.83193185478053e+005,-2.21279692836022e+001,-4.94095271028031e+000

3.88542363006410e+005,-2.21287750146370e+001,-5.00809015576829e+000

3.93966212270369e+005,-2.21295973190037e+001,-5.07610672360516e+000

3.99465775648511e+005,-2.21304364195478e+001,-5.14501330182682e+000

4.05042110070485e+005,-2.21312925380550e+001,-5.21482092255864e+000

4.10696287220124e+005,-2.21321658951580e+001,-5.28554076544939e+000

4.16429393741414e+005,-2.21330567102527e+001,-5.35718416122405e+000

4.22242531447321e+005,-2.21339652014226e+001,-5.42976259535810e+000

4.28136817531551e+005,-2.21348915853735e+001,-5.50328771187478e+000

4.34113384783250e+005,-2.21358360773792e+001,-5.57777131726300e+000

4.40173381804713e+005,-2.21367988912395e+001,-5.65322538451656e+000

4.46317973232124e+005,-2.21377802392512e+001,-5.72966205729483e+000

4.52548339959385e+005,-2.21387803321932e+001,-5.80709365420203e+000

4.58865679365059e+005,-2.21397993793272e+001,-5.88553267318545e+000

4.65271205542494e+005,-2.21408375884150e+001,-5.96499179604853e+000

4.71766149533147e+005,-2.21418951657526e+001,-6.04548389307787e+000

4.78351759563174e+005,-2.21429723162243e+001,-6.12702202778028e+000

4.85029301283321e+005,-2.21440692433751e+001,-6.20961946172645e+000

4.91800058012158e+005,-2.21451861495054e+001,-6.29328965949822e+000

4.98665330982714e+005,-2.21463232357863e+001,-6.37804629373250e+000

5.05626439592555e+005,-2.21474807023993e+001,-6.46390325026081e+000

5.12684721657352e+005,-2.21486587486990e+001,-6.55087463333386e+000

5.19841533667984e+005,-2.21498575734008e+001,-6.63897477093072e+000

5.27098251051240e+005,-2.21510773747959e+001,-6.72821822014014e+000

5.34456268434150e+005,-2.21523183509914e+001,-6.81861977261344e+000

5.41916999912011e+005,-2.21535807001792e+001,-6.91019446007521e+000

