Freq.,VOut,OutRef

1.00000000000000e+004,-1.44787663849647e+001,-7.00964807635842e-002

1.01395947979003e+004,-1.44787668568715e+001,-7.10749523173064e-002

1.02811382665607e+004,-1.44787673420411e+001,-7.20670811759990e-002

1.04246576084112e+004,-1.44787678408460e+001,-7.30730579181164e-002

1.05701804056138e+004,-1.44787683536694e+001,-7.40930757801753e-002

1.07177346253629e+004,-1.44787688809051e+001,-7.51273306922667e-002

1.08673486252606e+004,-1.44787694229580e+001,-7.61760213179977e-002

1.10190511587661e+004,-1.44787699802447e+001,-7.72393490868487e-002

1.11728713807222e+004,-1.44787705531928e+001,-7.83175182416700e-002

1.13288388529580e+004,-1.44787711422424e+001,-7.94107358700726e-002

1.14869835499703e+004,-1.44787717478455e+001,-8.05192119490366e-002

1.16473358646846e+004,-1.44787723704675e+001,-8.16431593786296e-002

1.18099266142953e+004,-1.44787730105864e+001,-8.27827940292710e-002

1.19747870461893e+004,-1.44787736686936e+001,-8.39383347811431e-002

1.21419488439505e+004,-1.44787743452942e+001,-8.51100035655820e-002

1.23114441334492e+004,-1.44787750409081e+001,-8.62980254032256e-002

1.24833054890161e+004,-1.44787757560688e+001,-8.75026284570624e-002

1.26575659397028e+004,-1.44787764913255e+001,-8.87240440655329e-002

1.28342589756290e+004,-1.44787772472428e+001,-8.99625067931006e-002

1.30134185544193e+004,-1.44787780244009e+001,-9.12182544706091e-002

1.31950791077289e+004,-1.44787788233963e+001,-9.24915282467388e-002

1.33792755478611e+004,-1.44787796448419e+001,-9.37825726301764e-002

1.35660432744767e+004,-1.44787804893688e+001,-9.50916355322422e-002

1.37554181813974e+004,-1.44787813576248e+001,-9.64189683225740e-002

1.39474366635040e+004,-1.44787822502762e+001,-9.77648258718707e-002

1.41421356237309e+004,-1.44787831680080e+001,-9.91294666022001e-002

1.43395524801583e+004,-1.44787841115247e+001,-1.00513152533731e-001

1.45397251732031e+004,-1.44787850815502e+001,-1.01916149336912e-001

1.47426921729110e+004,-1.44787860788284e+001,-1.03338726386686e-001

1.49484924863494e+004,-1.44787871041249e+001,-1.04781156803926e-001

1.51571656651040e+004,-1.44787881582263e+001,-1.06243717516623e-001

1.53687518128801e+004,-1.44787892419411e+001,-1.07726689310309e-001

1.55832915932100e+004,-1.44787903561006e+001,-1.09230356879069e-001

1.58008262372675e+004,-1.44787915015594e+001,-1.10755008881450e-001

1.60213975517924e+004,-1.44787926791962e+001,-1.12300937995609e-001

1.62450479271247e+004,-1.44787938899142e+001,-1.13868440973859e-001

1.64718203453514e+004,-1.44787951346418e+001,-1.15457818700784e-001

1.67017583885674e+004,-1.44787964143337e+001,-1.17069376248254e-001

1.69349062472505e+004,-1.44787977299711e+001,-1.18703422935752e-001

1.71713087287550e+004,-1.44787990825625e+001,-1.20360272389010e-001

1.74110112659224e+004,-1.44788004731455e+001,-1.22040242593461e-001

1.76540599258131e+004,-1.44788019027858e+001,-1.23743655966391e-001

1.79005014185594e+004,-1.44788033725795e+001,-1.25470839406221e-001

1.81503831063432e+004,-1.44788048836529e+001,-1.27222124363946e-001

1.84037530124975e+004,-1.44788064371644e+001,-1.28997846899234e-001

1.86606598307361e+004,-1.44788080343046e+001,-1.30798347745776e-001

1.89211529345119e+004,-1.44788096762975e+001,-1.32623972378533e-001

1.91852823865052e+004,-1.44788113644009e+001,-1.34475071078843e-001

1.94530989482457e+004,-1.44788130999088e+001,-1.36351998994182e-001

1.97246540898671e+004,-1.44788148841503e+001,-1.38255116216455e-001

1.99999999999999e+004,-1.44788167184922e+001,-1.40184787840890e-001

2.02791895958005e+004,-1.44788186043399e+001,-1.42141384038125e-001

2.05622765331213e+004,-1.44788205431373e+001,-1.44125280126566e-001

2.08493152168224e+004,-1.44788225363693e+001,-1.46136856639109e-001

2.11403608112276e+004,-1.44788245855622e+001,-1.48176499397182e-001

2.14354692507258e+004,-1.44788266922849e+001,-1.50244599585158e-001

2.17346972505211e+004,-1.44788288581499e+001,-1.52341553821820e-001

2.20381023175322e+004,-1.44788310848155e+001,-1.54467764232811e-001

2.23457427614443e+004,-1.44788333739856e+001,-1.56623638533768e-001

2.26576777059159e+004,-1.44788357274122e+001,-1.58809590099264e-001

2.29739670999406e+004,-1.44788381468958e+001,-1.61026038046846e-001

2.32946717293690e+004,-1.44788406342875e+001,-1.63273407311683e-001

2.36198532285905e+004,-1.44788431914902e+001,-1.65552128726498e-001

2.39495740923785e+004,-1.44788458204596e+001,-1.67862639106811e-001

2.42838976879009e+004,-1.44788485232062e+001,-1.70205381327051e-001

2.46228882668982e+004,-1.44788513017966e+001,-1.72580804409685e-001

2.49666109780322e+004,-1.44788541583551e+001,-1.74989363603177e-001

2.53151318794055e+004,-1.44788570950651e+001,-1.77431520474111e-001

2.56685179512580e+004,-1.44788601141711e+001,-1.79907742986026e-001

2.60268371088386e+004,-1.44788632179800e+001,-1.82418505594734e-001

2.63901582154578e+004,-1.44788664088633e+001,-1.84964289330369e-001

2.67585510957221e+004,-1.44788696892582e+001,-1.87545581892966e-001

2.71320865489533e+004,-1.44788730616703e+001,-1.90162877737927e-001

2.75108363627948e+004,-1.44788765286745e+001,-1.92816678173371e-001

2.78948733270080e+004,-1.44788800929179e+001,-1.95507491449508e-001

2.82842712474618e+004,-1.44788837571209e+001,-1.98235832857149e-001

2.86791049603164e+004,-1.44788875240798e+001,-2.01002224819438e-001

2.90794503464061e+004,-1.44788913966690e+001,-2.03807196991704e-001

2.94853843458219e+004,-1.44788953778424e+001,-2.06651286359691e-001

2.98969849726987e+004,-1.44788994706362e+001,-2.09535037339187e-001

3.03143313302078e+004,-1.44789036781712e+001,-2.12459001874223e-001

3.07375036257601e+004,-1.44789080036549e+001,-2.15423739543375e-001

3.11665831864199e+004,-1.44789124503838e+001,-2.18429817661514e-001

3.16016524745350e+004,-1.44789170217460e+001,-2.21477811383156e-001

3.20427951035848e+004,-1.44789217212239e+001,-2.24568303809418e-001

3.24900958542493e+004,-1.44789265523962e+001,-2.27701886099625e-001

3.29436406907028e+004,-1.44789315189412e+001,-2.30879157572794e-001

3.34035167771346e+004,-1.44789366246394e+001,-2.34100725822236e-001

3.38698124945009e+004,-1.44789418733754e+001,-2.37367206829504e-001

3.43426174575100e+004,-1.44789472691424e+001,-2.40679225070931e-001

3.48220225318448e+004,-1.44789528160435e+001,-2.44037413637748e-001

3.53081198516260e+004,-1.44789585182959e+001,-2.47442414348179e-001

3.58010028371187e+004,-1.44789643802334e+001,-2.50894877868243e-001

3.63007662126863e+004,-1.44789704063095e+001,-2.54395463828015e-001

3.68075060249948e+004,-1.44789766011014e+001,-2.57944840939838e-001

3.73213196614721e+004,-1.44789829693122e+001,-2.61543687126951e-001

3.78423058690237e+004,-1.44789895157758e+001,-2.65192689637168e-001

3.83705647730104e+004,-1.44789962454586e+001,-2.68892545177386e-001

3.89061978964912e+004,-1.44790031634649e+001,-2.72643960030710e-001

3.94493081797342e+004,-1.44790102750396e+001,-2.76447650190473e-001

3.99999999999998e+004,-1.44790175855719e+001,-2.80304341487673e-001

4.05583791916010e+004,-1.44790251006001e+001,-2.84214769718776e-001

4.11245530662425e+004,-1.44790328258148e+001,-2.88179680781822e-001

4.16986304336447e+004,-1.44790407670632e+001,-2.92199830809763e-001

4.22807216224550e+004,-1.44790489303533e+001,-2.96275986303662e-001

4.28709385014515e+004,-1.44790573218587e+001,-3.00408924270623e-001

4.34693945010421e+004,-1.44790659479224e+001,-3.04599432363841e-001

4.40762046350642e+004,-1.44790748150614e+001,-3.08848309021723e-001

4.46914855228886e+004,-1.44790839299718e+001,-3.13156363608849e-001

4.53153554118317e+004,-1.44790932995333e+001,-3.17524416560566e-001

4.59479341998812e+004,-1.44791029308140e+001,-3.21953299529353e-001

4.65893434587380e+004,-1.44791128310759e+001,-3.26443855525968e-001

4.72397064571810e+004,-1.44791230077794e+001,-3.30996939074582e-001

4.78991481847569e+004,-1.44791334685889e+001,-3.35613416360138e-001

4.85677953758016e+004,-1.44791442213784e+001,-3.40294165378425e-001

4.92457765337964e+004,-1.44791552742369e+001,-3.45040076090015e-001

4.99332219560642e+004,-1.44791666354735e+001,-3.49852050578370e-001

5.06302637588109e+004,-1.44791783136245e+001,-3.54731003201105e-001

5.13370359025159e+004,-1.44791903174581e+001,-3.59677860753173e-001

5.20536742176771e+004,-1.44792026559814e+001,-3.64693562623057e-001

5.27803164309155e+004,-1.44792153384458e+001,-3.69779060958243e-001

5.35171021914442e+004,-1.44792283743544e+001,-3.74935320824724e-001

5.42641730979066e+004,-1.44792417734678e+001,-3.80163320375008e-001

5.50216727255895e+004,-1.44792555458112e+001,-3.85464051013113e-001

5.57897466540159e+004,-1.44792697016809e+001,-3.90838517563962e-001

5.65685424949235e+004,-1.44792842516519e+001,-3.96287738442071e-001

5.73582099206328e+004,-1.44792992065847e+001,-4.01812745825538e-001

5.81589006928121e+004,-1.44793145776327e+001,-4.07414585827256e-001

5.89707686916437e+004,-1.44793303762499e+001,-4.13094318671162e-001

5.97939699453972e+004,-1.44793466141986e+001,-4.18853018869371e-001

6.06286626604156e+004,-1.44793633035571e+001,-4.24691775399225e-001

6.14750072515201e+004,-1.44793804567279e+001,-4.30611691885216e-001

6.23331663728396e+004,-1.44793980864461e+001,-4.36613886778496e-001

6.32033049490698e+004,-1.44794162057877e+001,-4.42699493542927e-001

6.40855902071694e+004,-1.44794348281781e+001,-4.48869660837116e-001

6.49801917084985e+004,-1.44794539674012e+001,-4.55125552702314e-001

6.58872813814055e+004,-1.44794736376082e+001,-4.61468348753228e-001

6.68070335542691e+004,-1.44794938533268e+001,-4.67899244362543e-001

6.77396249890018e+004,-1.44795146294709e+001,-4.74419450855873e-001

6.86852349150199e+004,-1.44795359813496e+001,-4.81030195705083e-001

6.96440450636895e+004,-1.44795579246778e+001,-4.87732722719149e-001

7.06162397032520e+004,-1.44795804755855e+001,-4.94528292243789e-001

7.16020056742374e+004,-1.44796036506284e+001,-5.01418181356927e-001

7.26015324253724e+004,-1.44796274667982e+001,-5.08403684067548e-001

7.36150120499896e+004,-1.44796519415332e+001,-5.15486111517296e-001

7.46426393229441e+004,-1.44796770927293e+001,-5.22666792179255e-001

7.56846117380472e+004,-1.44797029387508e+001,-5.29947072064291e-001

7.67411295460207e+004,-1.44797294984418e+001,-5.37328314923492e-001

7.78123957929823e+004,-1.44797567911377e+001,-5.44811902454407e-001

7.88986163594682e+004,-1.44797848366768e+001,-5.52399234507323e-001

7.99999999999995e+004,-1.44798136554123e+001,-5.60091729294938e-001

8.11167583832018e+004,-1.44798432682243e+001,-5.67890823598699e-001

8.22491061324848e+004,-1.44798736965322e+001,-5.75797972982583e-001

8.33972608672892e+004,-1.44799049623071e+001,-5.83814652003220e-001

8.45614432449099e+004,-1.44799370880847e+001,-5.91942354422375e-001

8.57418770029029e+004,-1.44799700969785e+001,-6.00182593419613e-001

8.69387890020841e+004,-1.44800040126921e+001,-6.08536901809735e-001

8.81524092701283e+004,-1.44800388595336e+001,-6.17006832255044e-001

8.93829710457770e+004,-1.44800746624286e+001,-6.25593957483195e-001

9.06307108236633e+004,-1.44801114469341e+001,-6.34299870504792e-001

9.18958683997622e+004,-1.44801492392523e+001,-6.43126184829497e-001

9.31786869174758e+004,-1.44801880662452e+001,-6.52074534686029e-001

9.44794129143618e+004,-1.44802279554481e+001,-6.61146575241165e-001

9.57982963695136e+004,-1.44802689350853e+001,-6.70343982817487e-001

9.71355907516031e+004,-1.44803110340839e+001,-6.79668455114687e-001

9.84915530675926e+004,-1.44803542820888e+001,-6.89121711431366e-001

9.98664439121282e+004,-1.44803987094782e+001,-6.98705492882159e-001

1.01260527517622e+005,-1.44804443473782e+001,-7.08421562621827e-001

1.02674071805032e+005,-1.44804912276783e+001,-7.18271706065567e-001

1.04107348435354e+005,-1.44805393830472e+001,-7.28257731108276e-001

1.05560632861831e+005,-1.44805888469479e+001,-7.38381468348067e-001

1.07034204382888e+005,-1.44806396536534e+001,-7.48644771307034e-001

1.08528346195813e+005,-1.44806918382631e+001,-7.59049516648668e-001

1.10043345451179e+005,-1.44807454367180e+001,-7.69597604402905e-001

1.11579493308032e+005,-1.44808004858166e+001,-7.80290958183953e-001

1.13137084989847e+005,-1.44808570232313e+001,-7.91131525409626e-001

1.14716419841265e+005,-1.44809150875245e+001,-8.02121277520943e-001

1.16317801385624e+005,-1.44809747181638e+001,-8.13262210201431e-001

1.17941537383287e+005,-1.44810359555390e+001,-8.24556343592529e-001

1.19587939890794e+005,-1.44810988409774e+001,-8.36005722512761e-001

1.21257325320831e+005,-1.44811634167600e+001,-8.47612416672081e-001

1.22950014503040e+005,-1.44812297261375e+001,-8.59378520886323e-001

1.24666332745679e+005,-1.44812978133456e+001,-8.71306155293430e-001

1.26406609898139e+005,-1.44813677236213e+001,-8.83397465561591e-001

1.28171180414339e+005,-1.44814395032175e+001,-8.95654623104212e-001

1.29960383416997e+005,-1.44815131994188e+001,-9.08079825287683e-001

1.31774562762811e+005,-1.44815888605569e+001,-9.20675295638597e-001

1.33614067108538e+005,-1.44816665360243e+001,-9.33443284052304e-001

1.35479249978003e+005,-1.44817462762897e+001,-9.46386066995909e-001

1.37370469830040e+005,-1.44818281329119e+001,-9.59505947711456e-001

1.39288090127379e+005,-1.44819121585532e+001,-9.72805256417349e-001

1.41232479406504e+005,-1.44819984069932e+001,-9.86286350507500e-001

1.43204011348474e+005,-1.44820869331412e+001,-9.99951614747679e-001

1.45203064850745e+005,-1.44821777930488e+001,-1.01380346147103e+000

1.47230024099979e+005,-1.44822710439217e+001,-1.02784433076988e+000

1.49285278645888e+005,-1.44823667441304e+001,-1.04207669068793e+000

1.51369223476094e+005,-1.44824649532211e+001,-1.05650303740659e+000

1.53482259092041e+005,-1.44825657319252e+001,-1.07112589543211e+000

1.55624791585964e+005,-1.44826691421679e+001,-1.08594781777946e+000

1.57797232718936e+005,-1.44827752470765e+001,-1.10097138615320e+000

1.59999999999999e+005,-1.44828841109874e+001,-1.11619921112645e+000

1.62233516766403e+005,-1.44829957994522e+001,-1.13163393231707e+000

1.64498212264969e+005,-1.44831103792424e+001,-1.14727821856427e+000

1.66794521734578e+005,-1.44832279183533e+001,-1.16313476809783e+000

1.69122886489819e+005,-1.44833484860068e+001,-1.17920630871071e+000

1.71483754005805e+005,-1.44834721526521e+001,-1.19549559792576e+000

1.73877578004168e+005,-1.44835989899661e+001,-1.21200542316154e+000

1.76304818540256e+005,-1.44837290708511e+001,-1.22873860189791e+000

1.78765942091554e+005,-1.44838624694319e+001,-1.24569798183737e+000

1.81261421647326e+005,-1.44839992610509e+001,-1.26288644106516e+000

1.83791736799524e+005,-1.44841395222609e+001,-1.28030688821213e+000

1.86357373834951e+005,-1.44842833308170e+001,-1.29796226260929e+000

1.88958825828723e+005,-1.44844307656654e+001,-1.31585553444922e+000

1.91596592739027e+005,-1.44845819069311e+001,-1.33398970494104e+000

1.94271181503206e+005,-1.44847368359028e+001,-1.35236780646952e+000

1.96983106135185e+005,-1.44848956350158e+001,-1.37099290275053e+000

1.99732887824256e+005,-1.44850583878319e+001,-1.38986808899076e+000

2.02521055035243e+005,-1.44852251790179e+001,-1.40899649204651e+000

2.05348143610063e+005,-1.44853960943199e+001,-1.42838127058397e+000

2.08214696870707e+005,-1.44855712205362e+001,-1.44802561524393e+000

2.11121265723661e+005,-1.44857506454868e+001,-1.46793274880451e+000

2.14068408765776e+005,-1.44859344579794e+001,-1.48810592635449e+000

2.17056692391625e+005,-1.44861227477730e+001,-1.50854843546325e+000

2.20086690902357e+005,-1.44863156055377e+001,-1.52926359636077e+000

2.23158986616063e+005,-1.44865131228117e+001,-1.55025476212171e+000

2.26274169979693e+005,-1.44867153919539e+001,-1.57152531885583e+000

2.29432839682530e+005,-1.44869225060938e+001,-1.59307868590672e+000

2.32635602771247e+005,-1.44871345590770e+001,-1.61491831605785e+000

2.35883074766574e+005,-1.44873516454072e+001,-1.63704769574941e+000

2.39175879781588e+005,-1.44875738601839e+001,-1.65947034530704e+000

2.42514650641661e+005,-1.44878012990364e+001,-1.68218981918021e+000

2.45900029006080e+005,-1.44880340580529e+001,-1.70520970619507e+000

2.49332665491357e+005,-1.44882722337062e+001,-1.72853362982285e+000

2.52813219796278e+005,-1.44885159227746e+001,-1.75216524846273e+000

2.56342360828676e+005,-1.44887652222573e+001,-1.77610825574528e+000

2.59920766833993e+005,-1.44890202292872e+001,-1.80036638085119e+000

2.63549125525621e+005,-1.44892810410372e+001,-1.82494338885489e+000

2.67228134217075e+005,-1.44895477546227e+001,-1.84984308108893e+000

2.70958499956006e+005,-1.44898204669990e+001,-1.87506929553320e+000

2.74740939660078e+005,-1.44900992748538e+001,-1.90062590723157e+000

2.78576180254757e+005,-1.44903842744951e+001,-1.92651682873525e+000

2.82464958813007e+005,-1.44906755617334e+001,-1.95274601058056e+000

2.86408022696948e+005,-1.44909732317601e+001,-1.97931744179352e+000

2.90406129701488e+005,-1.44912773790197e+001,-2.00623515043635e+000

2.94460048199957e+005,-1.44915880970781e+001,-2.03350320418563e+000

2.98570557291775e+005,-1.44919054784854e+001,-2.06112571095366e+000

3.02738446952187e+005,-1.44922296146338e+001,-2.08910681955002e+000

3.06964518184081e+005,-1.44925605956114e+001,-2.11745072038917e+000

3.11249583171928e+005,-1.44928985100501e+001,-2.14616164624386e+000

3.15594465437872e+005,-1.44932434449704e+001,-2.17524387304846e+000

3.19999999999997e+005,-1.44935954856204e+001,-2.20470172075567e+000

3.24467033532806e+005,-1.44939547153112e+001,-2.23453955424760e+000

3.28996424529938e+005,-1.44943212152482e+001,-2.26476178430350e+000

3.33589043469155e+005,-1.44946950643582e+001,-2.29537286862938e+000

3.38245772979638e+005,-1.44950763391131e+001,-2.32637731294930e+000

3.42967508011610e+005,-1.44954651133500e+001,-2.35777967216363e+000

3.47755156008335e+005,-1.44958614580882e+001,-2.38958455157447e+000

3.52609637080511e+005,-1.44962654413435e+001,-2.42179660818211e+000

3.57531884183106e+005,-1.44966771279401e+001,-2.45442055205649e+000

3.62522843294651e+005,-1.44970965793202e+001,-2.48746114778251e+000

3.67583473599047e+005,-1.44975238533521e+001,-2.52092321598564e+000

3.72714747669902e+005,-1.44979590041372e+001,-2.55481163493730e+000

3.77917651657445e+005,-1.44984020818160e+001,-2.58913134224464e+000

3.83193185478053e+005,-1.44988531323738e+001,-2.62388733662379e+000

3.88542363006410e+005,-1.44993121974475e+001,-2.65908467976099e+000

3.93966212270369e+005,-1.44997793141317e+001,-2.69472849826533e+000

3.99465775648511e+005,-1.45002545147880e+001,-2.73082398570752e+000

4.05042110070485e+005,-1.45007378268553e+001,-2.76737640475491e+000

4.10696287220124e+005,-1.45012292726627e+001,-2.80439108939841e+000

4.16429393741414e+005,-1.45017288692469e+001,-2.84187344727365e+000

4.22242531447321e+005,-1.45022366281721e+001,-2.87982896207940e+000

4.28136817531551e+005,-1.45027525553562e+001,-2.91826319608906e+000

4.34113384783250e+005,-1.45032766509017e+001,-2.95718179276047e+000

4.40173381804713e+005,-1.45038089089329e+001,-2.99659047944169e+000

4.46317973232124e+005,-1.45043493174408e+001,-3.03649507017074e+000

4.52548339959385e+005,-1.45048978581352e+001,-3.07690146857409e+000

4.58865679365059e+005,-1.45054545063056e+001,-3.11781567085429e+000

4.65271205542494e+005,-1.45060192306920e+001,-3.15924376887530e+000

4.71766149533147e+005,-1.45065919933650e+001,-3.20119195333565e+000

4.78351759563174e+005,-1.45071727496184e+001,-3.24366651703135e+000

4.85029301283321e+005,-1.45077614478716e+001,-3.28667385820643e+000

4.91800058012158e+005,-1.45083580295872e+001,-3.33022048398465e+000

4.98665330982714e+005,-1.45089624291991e+001,-3.37431301388480e+000

5.05626439592555e+005,-1.45095745740572e+001,-3.41895818340977e+000

5.12684721657352e+005,-1.45101943843852e+001,-3.46416284771099e+000

5.19841533667984e+005,-1.45108217732550e+001,-3.50993398531833e+000

5.27098251051240e+005,-1.45114566465766e+001,-3.55627870193703e+000

5.34456268434150e+005,-1.45120989031051e+001,-3.60320423430061e+000

5.41916999912011e+005,-1.45127484344650e+001,-3.65071795407736e+000

