Freq.,VOut,OutRef

1.00000000000000e+004,-3.62927025509206e+001,-1.31969904838541e-001

1.01395947979003e+004,-3.62927031979419e+001,-1.33812099380816e-001

1.02811382665607e+004,-3.62927038631495e+001,-1.35680008443483e-001

1.04246576084112e+004,-3.62927045470543e+001,-1.37573990922065e-001

1.05701804056138e+004,-3.62927052501821e+001,-1.39494410718236e-001

1.07177346253629e+004,-3.62927059730729e+001,-1.41441636811082e-001

1.08673486252606e+004,-3.62927067162819e+001,-1.43416043329300e-001

1.10190511587661e+004,-3.62927074803802e+001,-1.45418009618148e-001

1.11728713807222e+004,-3.62927082659549e+001,-1.47447920315935e-001

1.13288388529580e+004,-3.62927090736092e+001,-1.49506165428604e-001

1.14869835499703e+004,-3.62927099039637e+001,-1.51593140400209e-001

1.16473358646846e+004,-3.62927107576562e+001,-1.53709246193152e-001

1.18099266142953e+004,-3.62927116353422e+001,-1.55854889363812e-001

1.19747870461893e+004,-3.62927125376963e+001,-1.58030482135083e-001

1.21419488439505e+004,-3.62927134654115e+001,-1.60236442485529e-001

1.23114441334492e+004,-3.62927144192001e+001,-1.62473194221682e-001

1.24833054890161e+004,-3.62927153997949e+001,-1.64741167062145e-001

1.26575659397028e+004,-3.62927164079489e+001,-1.67040796718575e-001

1.28342589756290e+004,-3.62927174444366e+001,-1.69372524979348e-001

1.30134185544193e+004,-3.62927185100537e+001,-1.71736799797715e-001

1.31950791077289e+004,-3.62927196056188e+001,-1.74134075371915e-001

1.33792755478611e+004,-3.62927207319731e+001,-1.76564812235717e-001

1.35660432744767e+004,-3.62927218899818e+001,-1.79029477344797e-001

1.37554181813974e+004,-3.62927230805340e+001,-1.81528544168931e-001

1.39474366635040e+004,-3.62927243045437e+001,-1.84062492781050e-001

1.41421356237309e+004,-3.62927255629512e+001,-1.86631809945063e-001

1.43395524801583e+004,-3.62927268567223e+001,-1.89236989217911e-001

1.45397251732031e+004,-3.62927281868507e+001,-1.91878531036002e-001

1.47426921729110e+004,-3.62927295543576e+001,-1.94556942814771e-001

1.49484924863494e+004,-3.62927309602927e+001,-1.97272739045186e-001

1.51571656651040e+004,-3.62927324057355e+001,-2.00026441391785e-001

1.53687518128801e+004,-3.62927338917957e+001,-2.02818578792053e-001

1.55832915932100e+004,-3.62927354196142e+001,-2.05649687558764e-001

1.58008262372675e+004,-3.62927369903634e+001,-2.08520311483757e-001

1.60213975517924e+004,-3.62927386052494e+001,-2.11431001936371e-001

1.62450479271247e+004,-3.62927402655116e+001,-2.14382317975186e-001

1.64718203453514e+004,-3.62927419724244e+001,-2.17374826451525e-001

1.67017583885674e+004,-3.62927437272975e+001,-2.20409102120576e-001

1.69349062472505e+004,-3.62927455314781e+001,-2.23485727746059e-001

1.71713087287550e+004,-3.62927473863506e+001,-2.26605294216747e-001

1.74110112659224e+004,-3.62927492933385e+001,-2.29768400656658e-001

1.76540599258131e+004,-3.62927512539052e+001,-2.32975654540874e-001

1.79005014185594e+004,-3.62927532695547e+001,-2.36227671811129e-001

1.81503831063432e+004,-3.62927553418338e+001,-2.39525076992439e-001

1.84037530124975e+004,-3.62927574723325e+001,-2.42868503312683e-001

1.86606598307361e+004,-3.62927596626850e+001,-2.46258592826332e-001

1.89211529345119e+004,-3.62927619145720e+001,-2.49695996530488e-001

1.91852823865052e+004,-3.62927642297204e+001,-2.53181374497643e-001

1.94530989482457e+004,-3.62927666099064e+001,-2.56715395994229e-001

1.97246540898671e+004,-3.62927690569555e+001,-2.60298739610703e-001

1.99999999999999e+004,-3.62927715727444e+001,-2.63932093394343e-001

2.02791895958005e+004,-3.62927741592024e+001,-2.67616154974634e-001

2.05622765331213e+004,-3.62927768183131e+001,-2.71351631699994e-001

2.08493152168224e+004,-3.62927795521153e+001,-2.75139240772382e-001

2.11403608112276e+004,-3.62927823627052e+001,-2.78979709381227e-001

2.14354692507258e+004,-3.62927852522375e+001,-2.82873774846545e-001

2.17346972505211e+004,-3.62927882229275e+001,-2.86822184753734e-001

2.20381023175322e+004,-3.62927912770522e+001,-2.90825697102136e-001

2.23457427614443e+004,-3.62927944169528e+001,-2.94885080442787e-001

2.26576777059159e+004,-3.62927976450355e+001,-2.99001114029968e-001

2.29739670999406e+004,-3.62928009637746e+001,-3.03174587965985e-001

2.32946717293690e+004,-3.62928043757129e+001,-3.07406303352996e-001

2.36198532285905e+004,-3.62928078834649e+001,-3.11697072446165e-001

2.39495740923785e+004,-3.62928114897180e+001,-3.16047718805629e-001

2.42838976879009e+004,-3.62928151972348e+001,-3.20459077454513e-001

2.46228882668982e+004,-3.62928190088554e+001,-3.24931995037572e-001

2.49666109780322e+004,-3.62928229274992e+001,-3.29467329980919e-001

2.53151318794055e+004,-3.62928269561673e+001,-3.34065952655805e-001

2.56685179512580e+004,-3.62928310979447e+001,-3.38728745543411e-001

2.60268371088386e+004,-3.62928353560026e+001,-3.43456603403421e-001

2.63901582154578e+004,-3.62928397336011e+001,-3.48250433441446e-001

2.67585510957221e+004,-3.62928442340913e+001,-3.53111155481519e-001

2.71320865489533e+004,-3.62928488609177e+001,-3.58039702142761e-001

2.75108363627948e+004,-3.62928536176216e+001,-3.63037019012305e-001

2.78948733270080e+004,-3.62928585078427e+001,-3.68104064827491e-001

2.82842712474618e+004,-3.62928635353227e+001,-3.73241811655736e-001

2.86791049603164e+004,-3.62928687039078e+001,-3.78451245076467e-001

2.90794503464061e+004,-3.62928740175514e+001,-3.83733364372279e-001

2.94853843458219e+004,-3.62928794803176e+001,-3.89089182713241e-001

2.98969849726987e+004,-3.62928850963837e+001,-3.94519727349894e-001

3.03143313302078e+004,-3.62928908700435e+001,-4.00026039809236e-001

3.07375036257601e+004,-3.62928968057110e+001,-4.05609176086106e-001

3.11665831864199e+004,-3.62929029079229e+001,-4.11270206848149e-001

3.16016524745350e+004,-3.62929091813428e+001,-4.17010217632459e-001

3.20427951035848e+004,-3.62929156307640e+001,-4.22830309054929e-001

3.24900958542493e+004,-3.62929222611138e+001,-4.28731597013004e-001

3.29436406907028e+004,-3.62929290774566e+001,-4.34715212899101e-001

3.34035167771346e+004,-3.62929360849978e+001,-4.40782303811252e-001

3.38698124945009e+004,-3.62929432890883e+001,-4.46934032768467e-001

3.43426174575100e+004,-3.62929506952274e+001,-4.53171578932383e-001

3.48220225318448e+004,-3.62929583090681e+001,-4.59496137823969e-001

3.53081198516260e+004,-3.62929661364203e+001,-4.65908921551540e-001

3.58010028371187e+004,-3.62929741832559e+001,-4.72411159035410e-001

3.63007662126863e+004,-3.62929824557127e+001,-4.79004096240428e-001

3.68075060249948e+004,-3.62929909600995e+001,-4.85688996406918e-001

3.73213196614721e+004,-3.62929997029001e+001,-4.92467140288523e-001

3.78423058690237e+004,-3.62930086907790e+001,-4.99339826390734e-001

3.83705647730104e+004,-3.62930179305856e+001,-5.06308371213973e-001

3.89061978964912e+004,-3.62930274293594e+001,-5.13374109499572e-001

3.94493081797342e+004,-3.62930371943358e+001,-5.20538394476596e-001

3.99999999999998e+004,-3.62930472329507e+001,-5.27802598117334e-001

4.05583791916010e+004,-3.62930575528464e+001,-5.35168111389402e-001

4.11245530662425e+004,-3.62930681618774e+001,-5.42636344516039e-001

4.16986304336447e+004,-3.62930790681156e+001,-5.50208727239381e-001

4.22807216224550e+004,-3.62930902798569e+001,-5.57886709083216e-001

4.28709385014515e+004,-3.62931018056270e+001,-5.65671759622360e-001

4.34693945010421e+004,-3.62931136541877e+001,-5.73565368757205e-001

4.40762046350642e+004,-3.62931258345433e+001,-5.81569046987166e-001

4.46914855228886e+004,-3.62931383559473e+001,-5.89684325690828e-001

4.53153554118317e+004,-3.62931512279091e+001,-5.97912757408349e-001

4.59479341998812e+004,-3.62931644602010e+001,-6.06255916128781e-001

4.65893434587380e+004,-3.62931780628653e+001,-6.14715397579326e-001

4.72397064571810e+004,-3.62931920462217e+001,-6.23292819519014e-001

4.78991481847569e+004,-3.62932064208747e+001,-6.31989822037199e-001

4.85677953758016e+004,-3.62932211977217e+001,-6.40808067852889e-001

4.92457765337964e+004,-3.62932363879599e+001,-6.49749242622177e-001

4.99332219560642e+004,-3.62932520030959e+001,-6.58815055244210e-001

5.06302637588109e+004,-3.62932680549527e+001,-6.68007238176377e-001

5.13370359025159e+004,-3.62932845556791e+001,-6.77327547749099e-001

5.20536742176771e+004,-3.62933015177579e+001,-6.86777764486018e-001

5.27803164309155e+004,-3.62933189540153e+001,-6.96359693430452e-001

5.35171021914442e+004,-3.62933368776298e+001,-7.06075164471293e-001

5.42641730979066e+004,-3.62933553021422e+001,-7.15926032676347e-001

5.50216727255895e+004,-3.62933742414643e+001,-7.25914178629665e-001

5.57897466540159e+004,-3.62933937098898e+001,-7.36041508769948e-001

5.65685424949235e+004,-3.62934137221040e+001,-7.46309955737303e-001

5.73582099206328e+004,-3.62934342931945e+001,-7.56721478720567e-001

5.81589006928121e+004,-3.62934554386616e+001,-7.67278063810293e-001

5.89707686916437e+004,-3.62934771744296e+001,-7.77981724356178e-001

5.97939699453972e+004,-3.62934995168578e+001,-7.88834501329841e-001

6.06286626604156e+004,-3.62935224827521e+001,-7.99838463687611e-001

6.14750072515201e+004,-3.62935460893769e+001,-8.10995708743443e-001

6.23331663728396e+004,-3.62935703544670e+001,-8.22308362540922e-001

6.32033049490698e+004,-3.62935952962403e+001,-8.33778580233202e-001

6.40855902071694e+004,-3.62936209334103e+001,-8.45408546465892e-001

6.49801917084985e+004,-3.62936472851992e+001,-8.57200475764111e-001

6.58872813814055e+004,-3.62936743713510e+001,-8.69156612925440e-001

6.68070335542691e+004,-3.62937022121453e+001,-8.81279233415372e-001

6.77396249890018e+004,-3.62937308284117e+001,-8.93570643767853e-001

6.86852349150199e+004,-3.62937602415433e+001,-9.06033181992921e-001

6.96440450636895e+004,-3.62937904735119e+001,-9.18669217983247e-001

7.06162397032520e+004,-3.62938215468829e+001,-9.31481153932689e-001

7.16020056742374e+004,-3.62938534848304e+001,-9.44471424752440e-001

7.26015324253724e+004,-3.62938863111534e+001,-9.57642498495391e-001

7.36150120499896e+004,-3.62939200502914e+001,-9.70996876786023e-001

7.46426393229441e+004,-3.62939547273409e+001,-9.84537095251294e-001

7.56846117380472e+004,-3.62939903680725e+001,-9.98265723960160e-001

7.67411295460207e+004,-3.62940269989479e+001,-1.01218536786520e+000

7.78123957929823e+004,-3.62940646471373e+001,-1.02629866724948e+000

7.88986163594682e+004,-3.62941033405380e+001,-1.04060829817838e+000

7.99999999999995e+004,-3.62941431077918e+001,-1.05511697295748e+000

8.11167583832018e+004,-3.62941839783048e+001,-1.06982744059204e+000

8.22491061324848e+004,-3.62942259822658e+001,-1.08474248725381e+000

8.33972608672892e+004,-3.62942691506667e+001,-1.09986493675125e+000

8.45614432449099e+004,-3.62943135153215e+001,-1.11519765100633e+000

8.57418770029029e+004,-3.62943591088878e+001,-1.13074353053371e+000

8.69387890020841e+004,-3.62944059648871e+001,-1.14650551492535e+000

8.81524092701283e+004,-3.62944541177262e+001,-1.16248658334130e+000

8.93829710457770e+004,-3.62945036027192e+001,-1.17868975500447e+000

9.06307108236633e+004,-3.62945544561093e+001,-1.19511808969880e+000

9.18958683997622e+004,-3.62946067150919e+001,-1.21177468827408e+000

9.31786869174758e+004,-3.62946604178376e+001,-1.22866269315431e+000

9.44794129143618e+004,-3.62947156035156e+001,-1.24578528885257e+000

9.57982963695136e+004,-3.62947723123179e+001,-1.26314570248632e+000

9.71355907516031e+004,-3.62948305854836e+001,-1.28074720430468e+000

9.84915530675926e+004,-3.62948904653242e+001,-1.29859310821276e+000

9.98664439121282e+004,-3.62949519952487e+001,-1.31668677230553e+000

1.01260527517622e+005,-3.62950152197897e+001,-1.33503159940429e+000

1.02674071805032e+005,-3.62950801846296e+001,-1.35363103759997e+000

1.04107348435354e+005,-3.62951469366275e+001,-1.37248858079737e+000

1.05560632861831e+005,-3.62952155238467e+001,-1.39160776926820e+000

1.07034204382888e+005,-3.62952859955819e+001,-1.41099219020606e+000

1.08528346195813e+005,-3.62953584023880e+001,-1.43064547828578e+000

1.10043345451179e+005,-3.62954327961086e+001,-1.45057131623071e+000

1.11579493308032e+005,-3.62955092299051e+001,-1.47077343537926e+000

1.13137084989847e+005,-3.62955877582861e+001,-1.49125561626146e+000

1.14716419841265e+005,-3.62956684371381e+001,-1.51202168917506e+000

1.16317801385624e+005,-3.62957513237550e+001,-1.53307553477040e+000

1.17941537383287e+005,-3.62958364768702e+001,-1.55442108463645e+000

1.19587939890794e+005,-3.62959239566868e+001,-1.57606232189377e+000

1.21257325320831e+005,-3.62960138249104e+001,-1.59800328178885e+000

1.22950014503040e+005,-3.62961061447805e+001,-1.62024805229688e+000

1.24666332745679e+005,-3.62962009811039e+001,-1.64280077472468e+000

1.26406609898139e+005,-3.62962984002866e+001,-1.66566564432100e+000

1.28171180414339e+005,-3.62963984703685e+001,-1.68884691088978e+000

1.29960383416997e+005,-3.62965012610560e+001,-1.71234887940707e+000

1.31774562762811e+005,-3.62966068437566e+001,-1.73617591064460e+000

1.33614067108538e+005,-3.62967152916133e+001,-1.76033242179461e+000

1.35479249978003e+005,-3.62968266795391e+001,-1.78482288710093e+000

1.37370469830040e+005,-3.62969410842526e+001,-1.80965183849252e+000

1.39288090127379e+005,-3.62970585843120e+001,-1.83482386622462e+000

1.41232479406504e+005,-3.62971792601523e+001,-1.86034361951921e+000

1.43204011348474e+005,-3.62973031941197e+001,-1.88621580721352e+000

1.45203064850745e+005,-3.62974304705080e+001,-1.91244519841194e+000

1.47230024099979e+005,-3.62975611755950e+001,-1.93903662313940e+000

1.49285278645888e+005,-3.62976953976782e+001,-1.96599497300467e+000

1.51369223476094e+005,-3.62978332271115e+001,-1.99332520186113e+000

1.53482259092041e+005,-3.62979747563415e+001,-2.02103232647668e+000

1.55624791585964e+005,-3.62981200799439e+001,-2.04912142720780e+000

1.57797232718936e+005,-3.62982692946599e+001,-2.07759764867362e+000

1.59999999999999e+005,-3.62984224994328e+001,-2.10646620044075e+000

1.62233516766403e+005,-3.62985797954440e+001,-2.13573235770724e+000

1.64498212264969e+005,-3.62987412861493e+001,-2.16540146199514e+000

1.66794521734578e+005,-3.62989070773150e+001,-2.19547892184491e+000

1.69122886489819e+005,-3.62990772770536e+001,-2.22597021351654e+000

1.71483754005805e+005,-3.62992519958590e+001,-2.25688088169554e+000

1.73877578004168e+005,-3.62994313466421e+001,-2.28821654020276e+000

1.76304818540256e+005,-3.62996154447653e+001,-2.31998287271177e+000

1.78765942091554e+005,-3.62998044080770e+001,-2.35218563346980e+000

1.81261421647326e+005,-3.62999983569450e+001,-2.38483064802626e+000

1.83791736799524e+005,-3.63001974142905e+001,-2.41792381396572e+000

1.86357373834951e+005,-3.63004017056201e+001,-2.45147110164894e+000

1.88958825828723e+005,-3.63006113590580e+001,-2.48547855495853e+000

1.91596592739027e+005,-3.63008265053774e+001,-2.51995229205431e+000

1.94271181503206e+005,-3.63010472780306e+001,-2.55489850613373e+000

1.96983106135185e+005,-3.63012738131786e+001,-2.59032346620100e+000

1.99732887824256e+005,-3.63015062497198e+001,-2.62623351784516e+000

2.02521055035243e+005,-3.63017447293174e+001,-2.66263508402580e+000

2.05348143610063e+005,-3.63019893964257e+001,-2.69953466586850e+000

2.08214696870707e+005,-3.63022403983156e+001,-2.73693884347040e+000

2.11121265723661e+005,-3.63024978850986e+001,-2.77485427671552e+000

2.14068408765776e+005,-3.63027620097493e+001,-2.81328770610272e+000

2.17056692391625e+005,-3.63030329281268e+001,-2.85224595358283e+000

2.20086690902357e+005,-3.63033107989948e+001,-2.89173592341117e+000

2.23158986616063e+005,-3.63035957840393e+001,-2.93176460301245e+000

2.26274169979693e+005,-3.63038880478863e+001,-2.97233906385787e+000

2.29432839682530e+005,-3.63041877581157e+001,-3.01346646236178e+000

2.32635602771247e+005,-3.63044950852756e+001,-3.05515404078996e+000

2.35883074766574e+005,-3.63048102028933e+001,-3.09740912818765e+000

2.39175879781588e+005,-3.63051332874852e+001,-3.14023914132566e+000

2.42514650641661e+005,-3.63054645185643e+001,-3.18365158566513e+000

2.45900029006080e+005,-3.63058040786463e+001,-3.22765405634323e+000

2.49332665491357e+005,-3.63061521532535e+001,-3.27225423918189e+000

2.52813219796278e+005,-3.63065089309161e+001,-3.31745991171707e+000

2.56342360828676e+005,-3.63068746031721e+001,-3.36327894425672e+000

2.59920766833993e+005,-3.63072493645653e+001,-3.40971930096125e+000

2.63549125525621e+005,-3.63076334126400e+001,-3.45678904095502e+000

2.67228134217075e+005,-3.63080269479350e+001,-3.50449631946388e+000

2.70958499956006e+005,-3.63084301739744e+001,-3.55284938898718e+000

2.74740939660078e+005,-3.63088432972570e+001,-3.60185660050070e+000

2.78576180254757e+005,-3.63092665272431e+001,-3.65152640469433e+000

2.82464958813007e+005,-3.63097000763397e+001,-3.70186735324770e+000

2.86408022696948e+005,-3.63101441598832e+001,-3.75288810014305e+000

2.90406129701488e+005,-3.63105989961208e+001,-3.80459740302000e+000

2.94460048199957e+005,-3.63110648061894e+001,-3.85700412457092e+000

2.98570557291775e+005,-3.63115418140934e+001,-3.91011723398465e+000

3.02738446952187e+005,-3.63120302466801e+001,-3.96394580843322e+000

3.06964518184081e+005,-3.63125303336145e+001,-4.01849903461096e+000

3.11249583171928e+005,-3.63130423073523e+001,-4.07378621032419e+000

3.15594465437872e+005,-3.63135664031115e+001,-4.12981674613390e+000

3.19999999999997e+005,-3.63141028588435e+001,-4.18660016705560e+000

3.24467033532806e+005,-3.63146519152035e+001,-4.24414611431793e+000

3.28996424529938e+005,-3.63152138155202e+001,-4.30246434718156e+000

3.33589043469155e+005,-3.63157888057649e+001,-4.36156474482119e+000

3.38245772979638e+005,-3.63163771345223e+001,-4.42145730827426e+000

3.42967508011610e+005,-3.63169790529593e+001,-4.48215216245705e+000

3.47755156008335e+005,-3.63175948147971e+001,-4.54365955825048e+000

3.52609637080511e+005,-3.63182246762825e+001,-4.60598987466034e+000

3.57531884183106e+005,-3.63188688961623e+001,-4.66915362105028e+000

3.62522843294651e+005,-3.63195277356585e+001,-4.73316143945382e+000

3.67583473599047e+005,-3.63202014584473e+001,-4.79802410696378e+000

3.72714747669902e+005,-3.63208903306399e+001,-4.86375253820406e+000

3.77917651657445e+005,-3.63215946207678e+001,-4.93035778788435e+000

3.83193185478053e+005,-3.63223145997719e+001,-4.99785105343870e+000

3.88542363006410e+005,-3.63230505409965e+001,-5.06624367775159e+000

3.93966212270369e+005,-3.63238027201879e+001,-5.13554715197174e+000

3.99465775648511e+005,-3.63245714155009e+001,-5.20577311841425e+000

4.05042110070485e+005,-3.63253569075097e+001,-5.27693337355473e+000

4.10696287220124e+005,-3.63261594792280e+001,-5.34903987111246e+000

4.16429393741414e+005,-3.63269794161368e+001,-5.42210472522763e+000

4.22242531447321e+005,-3.63278170062203e+001,-5.49614021373009e+000

4.28136817531551e+005,-3.63286725400134e+001,-5.57115878149934e+000

4.34113384783250e+005,-3.63295463106578e+001,-5.64717304391946e+000

4.40173381804713e+005,-3.63304386139705e+001,-5.72419579042398e+000

4.46317973232124e+005,-3.63313497485248e+001,-5.80223998813333e+000

4.52548339959385e+005,-3.63322800157434e+001,-5.88131878558197e+000

4.58865679365059e+005,-3.63332297200067e+001,-5.96144551653467e+000

4.65271205542494e+005,-3.63341991687746e+001,-6.04263370389096e+000

4.71766149533147e+005,-3.63351886727255e+001,-6.12489706367331e+000

4.78351759563174e+005,-3.63361985459103e+001,-6.20824950909971e+000

4.85029301283321e+005,-3.63372291059258e+001,-6.29270515473510e+000

4.91800058012158e+005,-3.63382806741044e+001,-6.37827832072084e+000

4.98665330982714e+005,-3.63393535757249e+001,-6.46498353707658e+000

5.05626439592555e+005,-3.63404481402419e+001,-6.55283554807285e+000

5.12684721657352e+005,-3.63415647015375e+001,-6.64184931666727e+000

5.19841533667984e+005,-3.63427035981934e+001,-6.73204002900249e+000

5.27098251051240e+005,-3.63438651737863e+001,-6.82342309895901e+000

5.34456268434150e+005,-3.63450497772068e+001,-6.91601417275800e+000

5.41916999912011e+005,-3.63462577630011e+001,-7.00982913360893e+000

