Freq.,VOut,OutRef

1.00000000000000e+004,-2.05824955261285e+001,-1.92612450082933e-001

1.01395947979003e+004,-2.05824962749658e+001,-1.95301185372384e-001

1.02811382665607e+004,-2.05824970448525e+001,-1.98027452550166e-001

1.04246576084112e+004,-2.05824978363797e+001,-2.00791775481888e-001

1.05701804056138e+004,-2.05824986501560e+001,-2.03594685339731e-001

1.07177346253629e+004,-2.05824994868065e+001,-2.06436720711533e-001

1.08673486252606e+004,-2.05825003469741e+001,-2.09318427697428e-001

1.10190511587661e+004,-2.05825012313198e+001,-2.12240360020004e-001

1.11728713807222e+004,-2.05825021405227e+001,-2.15203079129235e-001

1.13288388529580e+004,-2.05825030752819e+001,-2.18207154305850e-001

1.14869835499703e+004,-2.05825040363151e+001,-2.21253162778201e-001

1.16473358646846e+004,-2.05825050243610e+001,-2.24341689825892e-001

1.18099266142953e+004,-2.05825060401785e+001,-2.27473328896316e-001

1.19747870461893e+004,-2.05825070845482e+001,-2.30648681717591e-001

1.21419488439505e+004,-2.05825081582722e+001,-2.33868358413207e-001

1.23114441334492e+004,-2.05825092621756e+001,-2.37132977619815e-001

1.24833054890161e+004,-2.05825103971063e+001,-2.40443166604176e-001

1.26575659397028e+004,-2.05825115639363e+001,-2.43799561387140e-001

1.28342589756290e+004,-2.05825127635618e+001,-2.47202806861803e-001

1.30134185544193e+004,-2.05825139969044e+001,-2.50653556919800e-001

1.31950791077289e+004,-2.05825152649115e+001,-2.54152474574132e-001

1.33792755478611e+004,-2.05825165685571e+001,-2.57700232089302e-001

1.35660432744767e+004,-2.05825179088427e+001,-2.61297511106973e-001

1.37554181813974e+004,-2.05825192867976e+001,-2.64945002781702e-001

1.39474366635040e+004,-2.05825207034802e+001,-2.68643407906547e-001

1.41421356237309e+004,-2.05825221599787e+001,-2.72393437052644e-001

1.43395524801583e+004,-2.05825236574118e+001,-2.76195810703567e-001

1.45397251732031e+004,-2.05825251969295e+001,-2.80051259394354e-001

1.47426921729110e+004,-2.05825267797141e+001,-2.83960523849360e-001

1.49484924863494e+004,-2.05825284069813e+001,-2.87924355126970e-001

1.51571656651040e+004,-2.05825300799806e+001,-2.91943514761975e-001

1.53687518128801e+004,-2.05825317999970e+001,-2.96018774910578e-001

1.55832915932100e+004,-2.05825335683512e+001,-3.00150918500907e-001

1.58008262372675e+004,-2.05825353864011e+001,-3.04340739381407e-001

1.60213975517924e+004,-2.05825372555428e+001,-3.08589042471858e-001

1.62450479271247e+004,-2.05825391772113e+001,-3.12896643921226e-001

1.64718203453514e+004,-2.05825411528825e+001,-3.17264371257974e-001

1.67017583885674e+004,-2.05825431840729e+001,-3.21693063556540e-001

1.69349062472505e+004,-2.05825452723422e+001,-3.26183571589776e-001

1.71713087287550e+004,-2.05825474192936e+001,-3.30736757997354e-001

1.74110112659224e+004,-2.05825496265753e+001,-3.35353497449321e-001

1.76540599258131e+004,-2.05825518958817e+001,-3.40034676813142e-001

1.79005014185594e+004,-2.05825542289550e+001,-3.44781195324286e-001

1.81503831063432e+004,-2.05825566275860e+001,-3.49593964756373e-001

1.84037530124975e+004,-2.05825590936160e+001,-3.54473909598693e-001

1.86606598307361e+004,-2.05825616289375e+001,-3.59421967231470e-001

1.89211529345119e+004,-2.05825642354967e+001,-3.64439088103252e-001

1.91852823865052e+004,-2.05825669152938e+001,-3.69526235917902e-001

1.94530989482457e+004,-2.05825696703856e+001,-3.74684387812927e-001

1.97246540898671e+004,-2.05825725028864e+001,-3.79914534550306e-001

1.99999999999999e+004,-2.05825754149695e+001,-3.85217680706033e-001

2.02791895958005e+004,-2.05825784088697e+001,-3.90594844858521e-001

2.05622765331213e+004,-2.05825814868840e+001,-3.96047059787535e-001

2.08493152168224e+004,-2.05825846513743e+001,-4.01575372668621e-001

2.11403608112276e+004,-2.05825879047680e+001,-4.07180845276365e-001

2.14354692507258e+004,-2.05825912495612e+001,-4.12864554183329e-001

2.17346972505211e+004,-2.05825946883196e+001,-4.18627590968928e-001

2.20381023175322e+004,-2.05825982236811e+001,-4.24471062426285e-001

2.23457427614443e+004,-2.05826018583572e+001,-4.30396090775180e-001

2.26576777059159e+004,-2.05826055951360e+001,-4.36403813872069e-001

2.29739670999406e+004,-2.05826094368828e+001,-4.42495385435192e-001

2.32946717293690e+004,-2.05826133865439e+001,-4.48671975257186e-001

2.36198532285905e+004,-2.05826174471482e+001,-4.54934769430053e-001

2.39495740923785e+004,-2.05826216218087e+001,-4.61284970576684e-001

2.42838976879009e+004,-2.05826259137265e+001,-4.67723798073363e-001

2.46228882668982e+004,-2.05826303261919e+001,-4.74252488285576e-001

2.49666109780322e+004,-2.05826348625874e+001,-4.80872294803947e-001

2.53151318794055e+004,-2.05826395263903e+001,-4.87584488682910e-001

2.56685179512580e+004,-2.05826443211751e+001,-4.94390358682371e-001

2.60268371088386e+004,-2.05826492506166e+001,-5.01291211513963e-001

2.63901582154578e+004,-2.05826543184923e+001,-5.08288372089511e-001

2.67585510957221e+004,-2.05826595286856e+001,-5.15383183774581e-001

2.71320865489533e+004,-2.05826648851883e+001,-5.22577008642713e-001

2.75108363627948e+004,-2.05826703921043e+001,-5.29871227735412e-001

2.78948733270080e+004,-2.05826760536521e+001,-5.37267241323906e-001

2.82842712474618e+004,-2.05826818741682e+001,-5.44766469178959e-001

2.86791049603164e+004,-2.05826878581104e+001,-5.52370350836829e-001

2.90794503464061e+004,-2.05826940100613e+001,-5.60080345875771e-001

2.94853843458219e+004,-2.05827003347317e+001,-5.67897934191132e-001

2.98969849726987e+004,-2.05827068369638e+001,-5.75824616279933e-001

3.03143313302078e+004,-2.05827135217355e+001,-5.83861913522986e-001

3.07375036257601e+004,-2.05827203941638e+001,-5.92011368474841e-001

3.11665831864199e+004,-2.05827274595084e+001,-6.00274545157366e-001

3.16016524745350e+004,-2.05827347231764e+001,-6.08653029355608e-001

3.20427951035848e+004,-2.05827421907256e+001,-6.17148428918692e-001

3.24900958542493e+004,-2.05827498678694e+001,-6.25762374065807e-001

3.29436406907028e+004,-2.05827577604805e+001,-6.34496517694707e-001

3.34035167771346e+004,-2.05827658745956e+001,-6.43352535694440e-001

3.38698124945009e+004,-2.05827742164201e+001,-6.52332127263520e-001

3.43426174575100e+004,-2.05827827923324e+001,-6.61437015231501e-001

3.48220225318448e+004,-2.05827916088890e+001,-6.70668946386260e-001

3.53081198516260e+004,-2.05828006728294e+001,-6.80029691801529e-001

3.58010028371187e+004,-2.05828099910810e+001,-6.89521047175226e-001

3.63007662126863e+004,-2.05828195707644e+001,-6.99144833167615e-001

3.68075060249948e+004,-2.05828294191987e+001,-7.08902895744484e-001

3.73213196614721e+004,-2.05828395439072e+001,-7.18797106527689e-001

3.78423058690237e+004,-2.05828499526228e+001,-7.28829363146004e-001

3.83705647730104e+004,-2.05828606532937e+001,-7.39001589596781e-001

3.89061978964912e+004,-2.05828716540896e+001,-7.49315736605014e-001

3.94493081797342e+004,-2.05828829634078e+001,-7.59773781993965e-001

3.99999999999998e+004,-2.05828945898793e+001,-7.70377731055439e-001

4.05583791916010e+004,-2.05829065423753e+001,-7.81129616930252e-001

4.11245530662425e+004,-2.05829188300139e+001,-7.92031500988512e-001

4.16986304336447e+004,-2.05829314621668e+001,-8.03085473217571e-001

4.22807216224550e+004,-2.05829444484665e+001,-8.14293652615933e-001

4.28709385014515e+004,-2.05829577988129e+001,-8.25658187591709e-001

4.34693945010421e+004,-2.05829715233814e+001,-8.37181256363926e-001

4.40762046350642e+004,-2.05829856326299e+001,-8.48865067372944e-001

4.46914855228886e+004,-2.05830001373069e+001,-8.60711859694427e-001

4.53153554118317e+004,-2.05830150484592e+001,-8.72723903458016e-001

4.59479341998812e+004,-2.05830303774402e+001,-8.84903500273761e-001

4.65893434587380e+004,-2.05830461359184e+001,-8.97252983661159e-001

4.72397064571810e+004,-2.05830623358857e+001,-9.09774719486983e-001

4.78991481847569e+004,-2.05830789896668e+001,-9.22471106406484e-001

4.85677953758016e+004,-2.05830961099276e+001,-9.35344576311505e-001

4.92457765337964e+004,-2.05831137096851e+001,-9.48397594783753e-001

4.99332219560642e+004,-2.05831318023165e+001,-9.61632661554888e-001

5.06302637588109e+004,-2.05831504015696e+001,-9.75052310972635e-001

5.13370359025159e+004,-2.05831695215722e+001,-9.88659112470514e-001

5.20536742176771e+004,-2.05831891768430e+001,-1.00245567104768e+000

5.27803164309155e+004,-2.05832093823020e+001,-1.01644462775069e+000

5.35171021914442e+004,-2.05832301532811e+001,-1.03062866016634e+000

5.42641730979066e+004,-2.05832515055361e+001,-1.04501048291529e+000

5.50216727255895e+004,-2.05832734552573e+001,-1.05959284815651e+000

5.57897466540159e+004,-2.05832960190816e+001,-1.07437854609669e+000

5.65685424949235e+004,-2.05833192141048e+001,-1.08937040550466e+000

5.73582099206328e+004,-2.05833430578936e+001,-1.10457129423545e+000

5.81589006928121e+004,-2.05833675684988e+001,-1.11998411975738e+000

5.89707686916437e+004,-2.05833927644677e+001,-1.13561182969014e+000

5.97939699453972e+004,-2.05834186648581e+001,-1.15145741234491e+000

6.06286626604156e+004,-2.05834452892514e+001,-1.16752389727505e+000

6.14750072515201e+004,-2.05834726577674e+001,-1.18381435583239e+000

6.23331663728396e+004,-2.05835007910779e+001,-1.20033190172997e+000

6.32033049490698e+004,-2.05835297104223e+001,-1.21707969161244e+000

6.40855902071694e+004,-2.05835594376221e+001,-1.23406092563374e+000

6.49801917084985e+004,-2.05835899950969e+001,-1.25127884804139e+000

6.58872813814055e+004,-2.05836214058802e+001,-1.26873674776830e+000

6.68070335542691e+004,-2.05836536936355e+001,-1.28643795903272e+000

6.77396249890018e+004,-2.05836868826735e+001,-1.30438586194379e+000

6.86852349150199e+004,-2.05837209979689e+001,-1.32258388311612e+000

6.96440450636895e+004,-2.05837560651783e+001,-1.34103549629132e+000

7.06162397032520e+004,-2.05837921106579e+001,-1.35974422296670e+000

7.16020056742374e+004,-2.05838291614823e+001,-1.37871363303287e+000

7.26015324253724e+004,-2.05838672454629e+001,-1.39794734541772e+000

7.36150120499896e+004,-2.05839063911684e+001,-1.41744902873793e+000

7.46426393229441e+004,-2.05839466279433e+001,-1.43722240196047e+000

7.56846117380472e+004,-2.05839879859291e+001,-1.45727123507050e+000

7.67411295460207e+004,-2.05840304960851e+001,-1.47759934974608e+000

7.78123957929823e+004,-2.05840741902092e+001,-1.49821062004337e+000

7.88986163594682e+004,-2.05841191009605e+001,-1.51910897308856e+000

7.99999999999995e+004,-2.05841652618812e+001,-1.54029838977797e+000

8.11167583832018e+004,-2.05842127074194e+001,-1.56178290548630e+000

8.22491061324848e+004,-2.05842614729530e+001,-1.58356661078432e+000

8.33972608672892e+004,-2.05843115948134e+001,-1.60565365216229e+000

8.45614432449099e+004,-2.05843631103099e+001,-1.62804823276611e+000

8.57418770029029e+004,-2.05844160577552e+001,-1.65075461313632e+000

8.69387890020841e+004,-2.05844704764910e+001,-1.67377711196085e+000

8.81524092701283e+004,-2.05845264069138e+001,-1.69712010683281e+000

8.93829710457770e+004,-2.05845838905026e+001,-1.72078803501871e+000

9.06307108236633e+004,-2.05846429698457e+001,-1.74478539423438e+000

9.18958683997622e+004,-2.05847036886693e+001,-1.76911674342980e+000

9.31786869174758e+004,-2.05847660918657e+001,-1.79378670358448e+000

9.44794129143618e+004,-2.05848302255231e+001,-1.81879995850796e+000

9.57982963695136e+004,-2.05848961369558e+001,-1.84416125565235e+000

9.71355907516031e+004,-2.05849638747341e+001,-1.86987540693322e+000

9.84915530675926e+004,-2.05850334887161e+001,-1.89594728955851e+000

9.98664439121282e+004,-2.05851050300802e+001,-1.92238184686649e+000

1.01260527517622e+005,-2.05851785513565e+001,-1.94918408917437e+000

1.02674071805032e+005,-2.05852541064615e+001,-1.97635909463383e+000

1.04107348435354e+005,-2.05853317507313e+001,-2.00391201009781e+000

1.05560632861831e+005,-2.05854115409565e+001,-2.03184805199493e+000

1.07034204382888e+005,-2.05854935354181e+001,-2.06017250721341e+000

1.08528346195813e+005,-2.05855777939231e+001,-2.08889073399525e+000

1.10043345451179e+005,-2.05856643778418e+001,-2.11800816283873e+000

1.11579493308032e+005,-2.05857533501450e+001,-2.14753029741109e+000

1.13137084989847e+005,-2.05858447754432e+001,-2.17746271546875e+000

1.14716419841265e+005,-2.05859387200245e+001,-2.20781106979074e+000

1.16317801385624e+005,-2.05860352518955e+001,-2.23858108911688e+000

1.17941537383287e+005,-2.05861344408213e+001,-2.26977857909928e+000

1.19587939890794e+005,-2.05862363583671e+001,-2.30140942326228e+000

1.21257325320831e+005,-2.05863410779401e+001,-2.33347958396982e+000

1.22950014503040e+005,-2.05864486748324e+001,-2.36599510340741e+000

1.24666332745679e+005,-2.05865592262647e+001,-2.39896210456768e+000

1.26406609898139e+005,-2.05866728114305e+001,-2.43238679225105e+000

1.28171180414339e+005,-2.05867895115412e+001,-2.46627545407290e+000

1.29960383416997e+005,-2.05869094098721e+001,-2.50063446148130e+000

1.31774562762811e+005,-2.05870325918090e+001,-2.53547027078634e+000

1.33614067108538e+005,-2.05871591448953e+001,-2.57078942419606e+000

1.35479249978003e+005,-2.05872891588803e+001,-2.60659855086577e+000

1.37370469830040e+005,-2.05874227257682e+001,-2.64290436795534e+000

1.39288090127379e+005,-2.05875599398672e+001,-2.67971368169697e+000

1.41232479406504e+005,-2.05877008978403e+001,-2.71703338847361e+000

1.43204011348474e+005,-2.05878456987560e+001,-2.75487047590745e+000

1.45203064850745e+005,-2.05879944441401e+001,-2.79323202395834e+000

1.47230024099979e+005,-2.05881472380281e+001,-2.83212520603285e+000

1.49285278645888e+005,-2.05883041870186e+001,-2.87155729010368e+000

1.51369223476094e+005,-2.05884654003263e+001,-2.91153563984059e+000

1.53482259092041e+005,-2.05886309898374e+001,-2.95206771574971e+000

1.55624791585964e+005,-2.05888010701640e+001,-2.99316107632651e+000

1.57797232718936e+005,-2.05889757587001e+001,-3.03482337921697e+000

1.59999999999999e+005,-2.05891551756779e+001,-3.07706238239228e+000

1.62233516766403e+005,-2.05893394442245e+001,-3.11988594533204e+000

1.64498212264969e+005,-2.05895286904197e+001,-3.16330203022120e+000

1.66794521734578e+005,-2.05897230433536e+001,-3.20731870315710e+000

1.69122886489819e+005,-2.05899226351854e+001,-3.25194413536812e+000

1.71483754005805e+005,-2.05901276012024e+001,-3.29718660444457e+000

1.73877578004168e+005,-2.05903380798795e+001,-3.34305449558227e+000

1.76304818540256e+005,-2.05905542129391e+001,-3.38955630283637e+000

1.78765942091554e+005,-2.05907761454113e+001,-3.43670063039012e+000

1.81261421647326e+005,-2.05910040256949e+001,-3.48449619383488e+000

1.83791736799524e+005,-2.05912380056183e+001,-3.53295182146281e+000

1.86357373834951e+005,-2.05914782405007e+001,-3.58207645557519e+000

1.88958825828723e+005,-2.05917248892145e+001,-3.63187915380120e+000

1.91596592739027e+005,-2.05919781142462e+001,-3.68236909043360e+000

1.94271181503206e+005,-2.05922380817595e+001,-3.73355555777762e+000

1.96983106135185e+005,-2.05925049616569e+001,-3.78544796751420e+000

1.99732887824256e+005,-2.05927789276426e+001,-3.83805585207917e+000

2.02521055035243e+005,-2.05930601572849e+001,-3.89138886605870e+000

2.05348143610063e+005,-2.05933488320787e+001,-3.94545678759950e+000

2.08214696870707e+005,-2.05936451375085e+001,-4.00026951983782e+000

2.11121265723661e+005,-2.05939492631108e+001,-4.05583709234372e+000

2.14068408765776e+005,-2.05942614025370e+001,-4.11216966258449e+000

2.17056692391625e+005,-2.05945817536155e+001,-4.16927751740791e+000

2.20086690902357e+005,-2.05949105184145e+001,-4.22717107454134e+000

2.23158986616063e+005,-2.05952479033044e+001,-4.28586088411528e+000

2.26274169979693e+005,-2.05955941190197e+001,-4.34535763020428e+000

2.29432839682530e+005,-2.05959493807207e+001,-4.40567213239174e+000

2.32635602771247e+005,-2.05963139080560e+001,-4.46681534735625e+000

2.35883074766574e+005,-2.05966879252233e+001,-4.52879837048169e+000

2.39175879781588e+005,-2.05970716610309e+001,-4.59163243749220e+000

2.42514650641661e+005,-2.05974653489584e+001,-4.65532892611243e+000

2.45900029006080e+005,-2.05978692272181e+001,-4.71989935775404e+000

2.49332665491357e+005,-2.05982835388142e+001,-4.78535539923066e+000

2.52813219796278e+005,-2.05987085316041e+001,-4.85170886450186e+000

2.56342360828676e+005,-2.05991444583574e+001,-4.91897171644654e+000

2.59920766833993e+005,-2.05995915768158e+001,-4.98715606866861e+000

2.63549125525621e+005,-2.06000501497527e+001,-5.05627418733467e+000

2.67228134217075e+005,-2.06005204450317e+001,-5.12633849304782e+000

2.70958499956006e+005,-2.06010027356663e+001,-5.19736156275481e+000

2.74740939660078e+005,-2.06014972998783e+001,-5.26935613169225e+000

2.78576180254757e+005,-2.06020044211571e+001,-5.34233509537074e+000

2.82464958813007e+005,-2.06025243883182e+001,-5.41631151160069e+000

2.86408022696948e+005,-2.06030574955626e+001,-5.49129860255829e+000

2.90406129701488e+005,-2.06036040425359e+001,-5.56730975689733e+000

2.94460048199957e+005,-2.06041643343883e+001,-5.64435853190527e+000

2.98570557291775e+005,-2.06047386818345e+001,-5.72245865570821e+000

3.02738446952187e+005,-2.06053274012144e+001,-5.80162402952288e+000

3.06964518184081e+005,-2.06059308145554e+001,-5.88186872996210e+000

3.11249583171928e+005,-2.06065492496346e+001,-5.96320701139211e+000

3.15594465437872e+005,-2.06071830400426e+001,-6.04565330834482e+000

3.19999999999997e+005,-2.06078325252495e+001,-6.12922223798672e+000

3.24467033532806e+005,-2.06084980506718e+001,-6.21392860264789e+000

3.28996424529938e+005,-2.06091799677411e+001,-6.29978739240967e+000

3.33589043469155e+005,-2.06098786339760e+001,-6.38681378775725e+000

3.38245772979638e+005,-2.06105944130563e+001,-6.47502316229461e+000

3.42967508011610e+005,-2.06113276748995e+001,-6.56443108552755e+000

3.47755156008335e+005,-2.06120787957414e+001,-6.65505332571426e+000

3.52609637080511e+005,-2.06128481582205e+001,-6.74690585278600e+000

3.57531884183106e+005,-2.06136361514660e+001,-6.84000484133953e+000

3.62522843294651e+005,-2.06144431711908e+001,-6.93436667370330e+000

3.67583473599047e+005,-2.06152696197897e+001,-7.03000794307805e+000

3.72714747669902e+005,-2.06161159064429e+001,-7.12694545675456e+000

3.77917651657445e+005,-2.06169824472264e+001,-7.22519623940889e+000

3.83193185478053e+005,-2.06178696652278e+001,-7.32477753647613e+000

3.88542363006410e+005,-2.06187779906711e+001,-7.42570681760571e+000

3.93966212270369e+005,-2.06197078610483e+001,-7.52800178019582e+000

3.99465775648511e+005,-2.06206597212596e+001,-7.63168035301214e+000

4.05042110070485e+005,-2.06216340237639e+001,-7.73676069988584e+000

4.10696287220124e+005,-2.06226312287382e+001,-7.84326122349721e+000

4.16429393741414e+005,-2.06236518042484e+001,-7.95120056924012e+000

4.22242531447321e+005,-2.06246962264309e+001,-8.06059762917044e+000

4.28136817531551e+005,-2.06257649796874e+001,-8.17147154603599e+000

4.34113384783250e+005,-2.06268585568916e+001,-8.28384171738907e+000

4.40173381804713e+005,-2.06279774596105e+001,-8.39772779977865e+000

4.46317973232124e+005,-2.06291221983402e+001,-8.51314971302324e+000

4.52548339959385e+005,-2.06302932927568e+001,-8.63012764456166e+000

4.58865679365059e+005,-2.06314912719842e+001,-8.74868205387897e+000

4.65271205542494e+005,-2.06327166748781e+001,-8.86883367700831e+000

4.71766149533147e+005,-2.06339700503294e+001,-8.99060353110186e+000

4.78351759563174e+005,-2.06352519575850e+001,-9.11401291907271e+000

4.85029301283321e+005,-2.06365629665892e+001,-9.23908343430026e+000

4.91800058012158e+005,-2.06379036583452e+001,-9.36583696539829e+000

4.98665330982714e+005,-2.06392746252987e+001,-9.49429570103983e+000

5.05626439592555e+005,-2.06406764717424e+001,-9.62448213483649e+000

5.12684721657352e+005,-2.06421098142445e+001,-9.75641907026469e+000

5.19841533667984e+005,-2.06435752821008e+001,-9.89012962563639e+000

5.27098251051240e+005,-2.06450735178110e+001,-1.00256372391072e+001

5.34456268434150e+005,-2.06466051775801e+001,-1.01629656737161e+001

5.41916999912011e+005,-2.06481709318466e+001,-1.03021390224511e+001

