Freq.,VOut,OutRef

1.00000000000000e+004,-9.61434473783475e+000,-2.44843196935686e-002

1.01395947979003e+004,-9.61434543093866e+000,-2.48260494684881e-002

1.02811382665607e+004,-9.61434614352188e+000,-2.51725471256520e-002

1.04246576084112e+004,-9.61434687613190e+000,-2.55238791153514e-002

1.05701804056138e+004,-9.61434762933084e+000,-2.58801128158055e-002

1.07177346253629e+004,-9.61434840369747e+000,-2.62413165351598e-002

1.08673486252606e+004,-9.61434919982647e+000,-2.66075595324923e-002

1.10190511587661e+004,-9.61435001832925e+000,-2.69789120285434e-002

1.11728713807222e+004,-9.61435085983433e+000,-2.73554452195054e-002

1.13288388529580e+004,-9.61435172498783e+000,-2.77372312897957e-002

1.14869835499703e+004,-9.61435261445350e+000,-2.81243434292601e-002

1.16473358646846e+004,-9.61435352891514e+000,-2.85168558339833e-002

1.18099266142953e+004,-9.61435446907470e+000,-2.89148437368265e-002

1.19747870461893e+004,-9.61435543565342e+000,-2.93183834167604e-002

1.21419488439505e+004,-9.61435642939379e+000,-2.97275522035581e-002

1.23114441334492e+004,-9.61435745105883e+000,-3.01424285025454e-002

1.24833054890161e+004,-9.61435850143307e+000,-3.05630918045800e-002

1.26575659397028e+004,-9.61435958132173e+000,-3.09896227116940e-002

1.28342589756290e+004,-9.61436069155522e+000,-3.14221029257724e-002

1.30134185544193e+004,-9.61436183298398e+000,-3.18606153023679e-002

1.31950791077289e+004,-9.61436300648600e+000,-3.23052438207095e-002

1.33792755478611e+004,-9.61436421296069e+000,-3.27560736442322e-002

1.35660432744767e+004,-9.61436545333458e+000,-3.32131911036214e-002

1.37554181813974e+004,-9.61436672855905e+000,-3.36766837319269e-002

1.39474366635040e+004,-9.61436803961352e+000,-3.41466402651984e-002

1.41421356237309e+004,-9.61436938750284e+000,-3.46231506805190e-002

1.43395524801583e+004,-9.61437077326236e+000,-3.51063061852089e-002

1.45397251732031e+004,-9.61437219795507e+000,-3.55961992565290e-002

1.47426921729110e+004,-9.61437366267402e+000,-3.60929236494747e-002

1.49484924863494e+004,-9.61437516854267e+000,-3.65965744164309e-002

1.51571656651040e+004,-9.61437671671633e+000,-3.71072479210194e-002

1.53687518128801e+004,-9.61437830838259e+000,-3.76250418592522e-002

1.55832915932100e+004,-9.61437994476325e+000,-3.81500552704822e-002

1.58008262372675e+004,-9.61438162711207e+000,-3.86823885766319e-002

1.60213975517924e+004,-9.61438335672019e+000,-3.92221435710995e-002

1.62450479271247e+004,-9.61438513491386e+000,-3.97694234591365e-002

1.64718203453514e+004,-9.61438696305661e+000,-4.03243328689588e-002

1.67017583885674e+004,-9.61438884255013e+000,-4.08869778718218e-002

1.69349062472505e+004,-9.61439077483596e+000,-4.14574659980233e-002

1.71713087287550e+004,-9.61439276139506e+000,-4.20359062654643e-002

1.74110112659224e+004,-9.61439480375123e+000,-4.26224091853217e-002

1.76540599258131e+004,-9.61439690346928e+000,-4.32170868014707e-002

1.79005014185594e+004,-9.61439906215869e+000,-4.38200526942172e-002

1.81503831063432e+004,-9.61440128147458e+000,-4.44314220039674e-002

1.84037530124975e+004,-9.61440356311745e+000,-4.50513114600676e-002

1.86606598307361e+004,-9.61440590883571e+000,-4.56798393954394e-002

1.89211529345119e+004,-9.61440832042666e+000,-4.63171257692508e-002

1.91852823865052e+004,-9.61441079973830e+000,-4.69632921859980e-002

1.94530989482457e+004,-9.61441334866968e+000,-4.76184619244843e-002

1.97246540898671e+004,-9.61441596917384e+000,-4.82827599492804e-002

1.99999999999999e+004,-9.61441866325805e+000,-4.89563129424662e-002

2.02791895958005e+004,-9.61442143298487e+000,-4.96392493281213e-002

2.05622765331213e+004,-9.61442428047544e+000,-5.03316992844384e-002

2.08493152168224e+004,-9.61442720791123e+000,-5.10337947663972e-002

2.11403608112276e+004,-9.61443021753193e+000,-5.17456695529424e-002

2.14354692507258e+004,-9.61443331164287e+000,-5.24674592337072e-002

2.17346972505211e+004,-9.61443649261176e+000,-5.31993012657037e-002

2.20381023175322e+004,-9.61443976287304e+000,-5.39413349809059e-002

2.23457427614443e+004,-9.61444312492981e+000,-5.46937016098638e-002

2.26576777059159e+004,-9.61444658135421e+000,-5.54565443163346e-002

2.29739670999406e+004,-9.61445013479047e+000,-5.62300082157455e-002

2.32946717293690e+004,-9.61445378795713e+000,-5.70142403978997e-002

2.36198532285905e+004,-9.61445754364803e+000,-5.78093899607377e-002

2.39495740923785e+004,-9.61446140473512e+000,-5.86156080307490e-002

2.42838976879009e+004,-9.61446537417125e+000,-5.94330477850260e-002

2.46228882668982e+004,-9.61446945499034e+000,-6.02618644918112e-002

2.49666109780322e+004,-9.61447365031234e+000,-6.11022155187271e-002

2.53151318794055e+004,-9.61447796334327e+000,-6.19542603754801e-002

2.56685179512580e+004,-9.61448239737836e+000,-6.28181607358264e-002

2.60268371088386e+004,-9.61448695580608e+000,-6.36940804554216e-002

2.63901582154578e+004,-9.61449164210787e+000,-6.45821856175276e-002

2.67585510957221e+004,-9.61449645986306e+000,-6.54826445465092e-002

2.71320865489533e+004,-9.61450141275034e+000,-6.63956278425820e-002

2.75108363627948e+004,-9.61450650455097e+000,-6.73213084096013e-002

2.78948733270080e+004,-9.61451173915141e+000,-6.82598614833394e-002

2.82842712474618e+004,-9.61451712054662e+000,-6.92114646592953e-002

2.86791049603164e+004,-9.61452265284214e+000,-7.01762979268718e-002

2.90794503464061e+004,-9.61452834025833e+000,-7.11545436919532e-002

2.94853843458219e+004,-9.61453418713239e+000,-7.21463868142724e-002

2.98969849726987e+004,-9.61454019792288e+000,-7.31520146286192e-002

3.03143313302078e+004,-9.61454637721173e+000,-7.41716169838830e-002

3.07375036257601e+004,-9.61455272970823e+000,-7.52053862703092e-002

3.11665831864199e+004,-9.61455926025233e+000,-7.62535174513100e-002

3.16016524745350e+004,-9.61456597381917e+000,-7.73162080883586e-002

3.20427951035848e+004,-9.61457287552103e+000,-7.83936583834649e-002

3.24900958542493e+004,-9.61457997061264e+000,-7.94860712017539e-002

3.29436406907028e+004,-9.61458726449404e+000,-8.05936521091614e-002

3.34035167771346e+004,-9.61459476271586e+000,-8.17166093960318e-002

3.38698124945009e+004,-9.61460247098155e+000,-8.28551541216553e-002

3.43426174575100e+004,-9.61461039515318e+000,-8.40095001367470e-002

3.48220225318448e+004,-9.61461854125494e+000,-8.51798641206122e-002

3.53081198516260e+004,-9.61462691547805e+000,-8.63664656113868e-002

3.58010028371187e+004,-9.61463552418476e+000,-8.75695270422530e-002

3.63007662126863e+004,-9.61464437391361e+000,-8.87892737712287e-002

3.68075060249948e+004,-9.61465347138353e+000,-9.00259341183806e-002

3.73213196614721e+004,-9.61466282349946e+000,-9.12797393952042e-002

3.78423058690237e+004,-9.61467243735663e+000,-9.25509239428719e-002

3.83705647730104e+004,-9.61468232024694e+000,-9.38397251583954e-002

3.89061978964912e+004,-9.61469247966253e+000,-9.51463835399394e-002

3.94493081797342e+004,-9.61470292330266e+000,-9.64711427110756e-002

3.99999999999998e+004,-9.61471365907862e+000,-9.78142494594167e-002

4.05583791916010e+004,-9.61472469511985e+000,-9.91759537684874e-002

4.11245530662425e+004,-9.61473603977949e+000,-1.00556508853950e-001

4.16986304336447e+004,-9.61474770164026e+000,-1.01956171198701e-001

4.22807216224550e+004,-9.61475968952098e+000,-1.03375200585556e-001

4.28709385014515e+004,-9.61477201248321e+000,-1.04813860128606e-001

4.34693945010421e+004,-9.61478467983688e+000,-1.06272416314760e-001

4.40762046350642e+004,-9.61479770114772e+000,-1.07751139031440e-001

4.46914855228886e+004,-9.61481108624337e+000,-1.09250301606730e-001

4.53153554118317e+004,-9.61482484522111e+000,-1.10770180838308e-001

4.59479341998812e+004,-9.61483898845476e+000,-1.12311057030046e-001

4.65893434587380e+004,-9.61485352660184e+000,-1.13873214026429e-001

4.72397064571810e+004,-9.61486847061142e+000,-1.15456939245266e-001

4.78991481847569e+004,-9.61488383173150e+000,-1.17062523713642e-001

4.85677953758016e+004,-9.61489962151754e+000,-1.18690262096857e-001

4.92457765337964e+004,-9.61491585183933e+000,-1.20340452740551e-001

4.99332219560642e+004,-9.61493253489133e+000,-1.22013397690455e-001

5.06302637588109e+004,-9.61494968319903e+000,-1.23709402738915e-001

5.13370359025159e+004,-9.61496730962891e+000,-1.25428777450168e-001

5.20536742176771e+004,-9.61498542739765e+000,-1.27171835189867e-001

5.27803164309155e+004,-9.61500405007987e+000,-1.28938893166803e-001

5.35171021914442e+004,-9.61502319161909e+000,-1.30730272452923e-001

5.42641730979066e+004,-9.61504286633606e+000,-1.32546298023607e-001

5.50216727255895e+004,-9.61506308893953e+000,-1.34387298781234e-001

5.57897466540159e+004,-9.61508387453617e+000,-1.36253607586051e-001

5.65685424949235e+004,-9.61510523863961e+000,-1.38145561293214e-001

5.73582099206328e+004,-9.61512719718306e+000,-1.40063500768824e-001

5.81589006928121e+004,-9.61514976652865e+000,-1.42007770925711e-001

5.89707686916437e+004,-9.61517296347803e+000,-1.43978720755110e-001

5.97939699453972e+004,-9.61519680528577e+000,-1.45976703337285e-001

6.06286626604156e+004,-9.61522130966859e+000,-1.48002075883758e-001

6.14750072515201e+004,-9.61524649481805e+000,-1.50055199755152e-001

6.23331663728396e+004,-9.61527237941332e+000,-1.52136440480053e-001

6.32033049490698e+004,-9.61529898263224e+000,-1.54246167786774e-001

6.40855902071694e+004,-9.61532632416475e+000,-1.56384755618361e-001

6.49801917084985e+004,-9.61535442422535e+000,-1.58552582156287e-001

6.58872813814055e+004,-9.61538330356647e+000,-1.60750029837786e-001

6.68070335542691e+004,-9.61541298349194e+000,-1.62977485373542e-001

6.77396249890018e+004,-9.61544348587062e+000,-1.65235339764508e-001

6.86852349150199e+004,-9.61547483314997e+000,-1.67523988319524e-001

6.96440450636895e+004,-9.61550704837096e+000,-1.69843830665218e-001

7.06162397032520e+004,-9.61554015518281e+000,-1.72195270755677e-001

7.16020056742374e+004,-9.61557417785647e+000,-1.74578716892297e-001

7.26015324253724e+004,-9.61560914130189e+000,-1.76994581718774e-001

7.36150120499896e+004,-9.61564507108194e+000,-1.79443282236057e-001

7.46426393229441e+004,-9.61568199342809e+000,-1.81925239808157e-001

7.56846117380472e+004,-9.61571993525793e+000,-1.84440880155060e-001

7.67411295460207e+004,-9.61575892419015e+000,-1.86990633360971e-001

7.78123957929823e+004,-9.61579898856141e+000,-1.89574933870983e-001

7.88986163594682e+004,-9.61584015744451e+000,-1.92194220478704e-001

7.99999999999995e+004,-9.61588246066363e+000,-1.94848936331526e-001

8.11167583832018e+004,-9.61592592881392e+000,-1.97539528908210e-001

8.22491061324848e+004,-9.61597059327806e+000,-2.00266450013434e-001

8.33972608672892e+004,-9.61601648624509e+000,-2.03030155759107e-001

8.45614432449099e+004,-9.61606364072877e+000,-2.05831106544500e-001

8.57418770029029e+004,-9.61611209058626e+000,-2.08669767036460e-001

8.69387890020841e+004,-9.61616187053678e+000,-2.11546606144575e-001

8.81524092701283e+004,-9.61621301618234e+000,-2.14462096984839e-001

8.93829710457770e+004,-9.61626556402532e+000,-2.17416716858826e-001

9.06307108236633e+004,-9.61631955149052e+000,-2.20410947203996e-001

9.18958683997622e+004,-9.61637501694388e+000,-2.23445273562910e-001

9.31786869174758e+004,-9.61643199971361e+000,-2.26520185532587e-001

9.44794129143618e+004,-9.61649054011022e+000,-2.29636176721154e-001

9.57982963695136e+004,-9.61655067944823e+000,-2.32793744688680e-001

9.71355907516031e+004,-9.61661246006757e+000,-2.35993390887397e-001

9.84915530675926e+004,-9.61667592535349e+000,-2.39235620609268e-001

9.98664439121282e+004,-9.61674111975994e+000,-2.42520942904078e-001

1.01260527517622e+005,-9.61680808883050e+000,-2.45849870514660e-001

1.02674071805032e+005,-9.61687687922009e+000,-2.49222919797426e-001

1.04107348435354e+005,-9.61694753871828e+000,-2.52640610631580e-001

1.05560632861831e+005,-9.61702011627028e+000,-2.56103466337172e-001

1.07034204382888e+005,-9.61709466200042e+000,-2.59612013571615e-001

1.08528346195813e+005,-9.61717122723416e+000,-2.63166782230825e-001

1.10043345451179e+005,-9.61724986452124e+000,-2.66768305336684e-001

1.11579493308032e+005,-9.61733062765719e+000,-2.70417118927790e-001

1.13137084989847e+005,-9.61741357170818e+000,-2.74113761924937e-001

1.14716419841265e+005,-9.61749875303162e+000,-2.77858776012544e-001

1.16317801385624e+005,-9.61758622930043e+000,-2.81652705492910e-001

1.17941537383287e+005,-9.61767605952462e+000,-2.85496097147662e-001

1.19587939890794e+005,-9.61776830407524e+000,-2.89389500075812e-001

1.21257325320831e+005,-9.61786302470546e+000,-2.93333465541044e-001

1.22950014503040e+005,-9.61796028457339e+000,-2.97328546800157e-001

1.24666332745679e+005,-9.61806014826514e+000,-3.01375298917811e-001

1.26406609898139e+005,-9.61816268181506e+000,-3.05474278589829e-001

1.28171180414339e+005,-9.61826795272840e+000,-3.09626043940870e-001

1.29960383416997e+005,-9.61837603000263e+000,-3.13831154318233e-001

1.31774562762811e+005,-9.61848698414766e+000,-3.18090170079623e-001

1.33614067108538e+005,-9.61860088720656e+000,-3.22403652368037e-001

1.35479249978003e+005,-9.61871781277557e+000,-3.26772162874513e-001

1.37370469830040e+005,-9.61883783602317e+000,-3.31196263595190e-001

1.39288090127379e+005,-9.61896103370893e+000,-3.35676516574258e-001

1.41232479406504e+005,-9.61908748420149e+000,-3.40213483637768e-001

1.43204011348474e+005,-9.61921726749569e+000,-3.44807726116340e-001

1.45203064850745e+005,-9.61935046522904e+000,-3.49459804556244e-001

1.47230024099979e+005,-9.61948716069703e+000,-3.54170278419492e-001

1.49285278645888e+005,-9.61962743886740e+000,-3.58939705773932e-001

1.51369223476094e+005,-9.61977138639387e+000,-3.63768642967397e-001

1.53482259092041e+005,-9.61991909162787e+000,-3.68657644294272e-001

1.55624791585964e+005,-9.62007064462947e+000,-3.73607261648795e-001

1.57797232718936e+005,-9.62022613717688e+000,-3.78618044164284e-001

1.59999999999999e+005,-9.62038566277425e+000,-3.83690537843209e-001

1.62233516766403e+005,-9.62054931665831e+000,-3.88825285171417e-001

1.64498212264969e+005,-9.62071719580259e+000,-3.94022824723561e-001

1.66794521734578e+005,-9.62088939892018e+000,-3.99283690755184e-001

1.69122886489819e+005,-9.62106602646529e+000,-4.04608412775979e-001

1.71483754005805e+005,-9.62124718063092e+000,-4.09997515123480e-001

1.73877578004168e+005,-9.62143296534603e+000,-4.15451516512079e-001

1.76304818540256e+005,-9.62162348626985e+000,-4.20970929573456e-001

1.78765942091554e+005,-9.62181885078334e+000,-4.26556260387119e-001

1.81261421647326e+005,-9.62201916797775e+000,-4.32208007999198e-001

1.83791736799524e+005,-9.62222454864163e+000,-4.37926663924704e-001

1.86357373834951e+005,-9.62243510524410e+000,-4.43712711637926e-001

1.88958825828723e+005,-9.62265095191448e+000,-4.49566626059950e-001

1.91596592739027e+005,-9.62287220441974e+000,-4.55488873024336e-001

1.94271181503206e+005,-9.62309898013811e+000,-4.61479908736898e-001

1.96983106135185e+005,-9.62333139802857e+000,-4.67540179227136e-001

1.99732887824256e+005,-9.62356957859715e+000,-4.73670119786923e-001

2.02521055035243e+005,-9.62381364385993e+000,-4.79870154395299e-001

2.05348143610063e+005,-9.62406371729978e+000,-4.86140695147765e-001

2.08214696870707e+005,-9.62431992382122e+000,-4.92482141663525e-001

2.11121265723661e+005,-9.62458238969954e+000,-4.98894880490991e-001

2.14068408765776e+005,-9.62485124252484e+000,-5.05379284512008e-001

2.17056692391625e+005,-9.62512661114261e+000,-5.11935712329779e-001

2.20086690902357e+005,-9.62540862558803e+000,-5.18564507660912e-001

2.23158986616063e+005,-9.62569741701516e+000,-5.25265998722591e-001

2.26274169979693e+005,-9.62599311762171e+000,-5.32040497611992e-001

2.29432839682530e+005,-9.62629586056663e+000,-5.38888299693309e-001

2.32635602771247e+005,-9.62660577988334e+000,-5.45809682977220e-001

2.35883074766574e+005,-9.62692301038640e+000,-5.52804907505342e-001

2.39175879781588e+005,-9.62724768757157e+000,-5.59874214740858e-001

2.42514650641661e+005,-9.62757994750995e+000,-5.67017826961732e-001

2.45900029006080e+005,-9.62791992673641e+000,-5.74235946655559e-001

2.49332665491357e+005,-9.62826776212957e+000,-5.81528755934967e-001

2.52813219796278e+005,-9.62862359078673e+000,-5.88896415951567e-001

2.56342360828676e+005,-9.62898754989036e+000,-5.96339066333727e-001

2.59920766833993e+005,-9.62935977656904e+000,-6.03856824627762e-001

2.63549125525621e+005,-9.62974040774952e+000,-6.11449785768364e-001

2.67228134217075e+005,-9.63012958000300e+000,-6.19118021559138e-001

2.70958499956006e+005,-9.63052742938250e+000,-6.26861580183758e-001

2.74740939660078e+005,-9.63093409125405e+000,-6.34680485735548e-001

2.78576180254757e+005,-9.63134970011931e+000,-6.42574737779490e-001

2.82464958813007e+005,-9.63177438943118e+000,-6.50544310943583e-001

2.86408022696948e+005,-9.63220829140152e+000,-6.58589154543369e-001

2.90406129701488e+005,-9.63265153680090e+000,-6.66709192246887e-001

2.94460048199957e+005,-9.63310425475151e+000,-6.74904321774876e-001

2.98570557291775e+005,-9.63356657251168e+000,-6.83174414649227e-001

3.02738446952187e+005,-9.63403861525327e+000,-6.91519315986704e-001

3.06964518184081e+005,-9.63452050583169e+000,-6.99938844341662e-001

3.11249583171928e+005,-9.63501236454834e+000,-7.08432791607119e-001

3.15594465437872e+005,-9.63551430890610e+000,-7.17000922970540e-001

3.19999999999997e+005,-9.63602645335825e+000,-7.25642976929110e-001

3.24467033532806e+005,-9.63654890904985e+000,-7.34358665377060e-001

3.28996424529938e+005,-9.63708178355352e+000,-7.43147673755427e-001

3.33589043469155e+005,-9.63762518059870e+000,-7.52009661277521e-001

3.38245772979638e+005,-9.63817919979533e+000,-7.60944261230457e-001

3.42967508011610e+005,-9.63874393635173e+000,-7.69951081358471e-001

3.47755156008335e+005,-9.63931948078830e+000,-7.79029704327293e-001

3.52609637080511e+005,-9.63990591864618e+000,-7.88179688278287e-001

3.57531884183106e+005,-9.64050333019198e+000,-7.97400567474851e-001

3.62522843294651e+005,-9.64111179011955e+000,-8.06691853040588e-001

3.67583473599047e+005,-9.64173136724824e+000,-8.16053033800289e-001

3.72714747669902e+005,-9.64236212422037e+000,-8.25483577216027e-001

3.77917651657445e+005,-9.64300411719549e+000,-8.34982930435442e-001

3.83193185478053e+005,-9.64365739554574e+000,-8.44550521440940e-001

3.88542363006410e+005,-9.64432200155026e+000,-8.54185760312645e-001

3.93966212270369e+005,-9.64499797009110e+000,-8.63888040602343e-001

3.99465775648511e+005,-9.64568532835045e+000,-8.73656740825712e-001

4.05042110070485e+005,-9.64638409551153e+000,-8.83491226064627e-001

4.10696287220124e+005,-9.64709428246263e+000,-8.93390849693855e-001

4.16429393741414e+005,-9.64781589150553e+000,-9.03354955226331e-001

4.22242531447321e+005,-9.64854891607125e+000,-9.13382878273312e-001

4.28136817531551e+005,-9.64929334044071e+000,-9.23473948633663e-001

4.34113384783250e+005,-9.65004913947467e+000,-9.33627492498483e-001

4.40173381804713e+005,-9.65081627835284e+000,-9.43842834774653e-001

4.46317973232124e+005,-9.65159471232192e+000,-9.54119301535595e-001

4.52548339959385e+005,-9.65238438645693e+000,-9.64456222580327e-001

4.58865679365059e+005,-9.65318523543348e+000,-9.74852934115925e-001

4.65271205542494e+005,-9.65399718331456e+000,-9.85308781551999e-001

4.71766149533147e+005,-9.65482014335247e+000,-9.95823122402186e-001

4.78351759563174e+005,-9.65565401780632e+000,-1.00639532929885e+000

4.85029301283321e+005,-9.65649869777713e+000,-1.01702479310610e+000

4.91800058012158e+005,-9.65735406306140e+000,-1.02771092613350e+000

4.98665330982714e+005,-9.65821998202392e+000,-1.03845316544240e+000

5.05626439592555e+005,-9.65909631149166e+000,-1.04925097623939e+000

5.12684721657352e+005,-9.65998289666937e+000,-1.06010385534851e+000

5.19841533667984e+005,-9.66087957107689e+000,-1.07101133476342e+000

5.27098251051240e+005,-9.66178615651163e+000,-1.08197298525766e+000

5.34456268434150e+005,-9.66270246303432e+000,-1.09298842006001e+000

5.41916999912011e+005,-9.66362828898115e+000,-1.10405729857237e+000

