Freq.,VOut,OutRef

1.00000000000000e+004,-1.01259675729499e+000,-1.35140772712286e-001

1.01395947979003e+004,-1.01259670054721e+000,-1.37027268687574e-001

1.02811382665607e+004,-1.01259664220410e+000,-1.38940099211421e-001

1.04246576084112e+004,-1.01259658222082e+000,-1.40879631902892e-001

1.05701804056138e+004,-1.01259652055130e+000,-1.42846239511669e-001

1.07177346253629e+004,-1.01259645714804e+000,-1.44840299992661e-001

1.08673486252606e+004,-1.01259639196248e+000,-1.46862196574574e-001

1.10190511587661e+004,-1.01259632494439e+000,-1.48912317837892e-001

1.11728713807222e+004,-1.01259625604229e+000,-1.50991057787029e-001

1.13288388529580e+004,-1.01259618520306e+000,-1.53098815927190e-001

1.14869835499703e+004,-1.01259611237254e+000,-1.55235997338207e-001

1.16473358646846e+004,-1.01259603749459e+000,-1.57403012757266e-001

1.18099266142953e+004,-1.01259596051158e+000,-1.59600278655164e-001

1.19747870461893e+004,-1.01259588136458e+000,-1.61828217313979e-001

1.21419488439505e+004,-1.01259579999257e+000,-1.64087256914120e-001

1.23114441334492e+004,-1.01259571633303e+000,-1.66377831611325e-001

1.24833054890161e+004,-1.01259563032161e+000,-1.68700381622978e-001

1.26575659397028e+004,-1.01259554189236e+000,-1.71055353310386e-001

1.28342589756290e+004,-1.01259545097718e+000,-1.73443199267719e-001

1.30134185544193e+004,-1.01259535750628e+000,-1.75864378406045e-001

1.31950791077289e+004,-1.01259526140768e+000,-1.78319356044016e-001

1.33792755478611e+004,-1.01259516260768e+000,-1.80808603994110e-001

1.35660432744767e+004,-1.01259506103027e+000,-1.83332600657105e-001

1.37554181813974e+004,-1.01259495659748e+000,-1.85891831110710e-001

1.39474366635040e+004,-1.01259484922882e+000,-1.88486787206472e-001

1.41421356237309e+004,-1.01259473884192e+000,-1.91117967659707e-001

1.43395524801583e+004,-1.01259462535199e+000,-1.93785878148403e-001

1.45397251732031e+004,-1.01259450867180e+000,-1.96491031410386e-001

1.47426921729110e+004,-1.01259438871156e+000,-1.99233947341221e-001

1.49484924863494e+004,-1.01259426537914e+000,-2.02015153093868e-001

1.51571656651040e+004,-1.01259413857977e+000,-2.04835183180029e-001

1.53687518128801e+004,-1.01259400821602e+000,-2.07694579573734e-001

1.55832915932100e+004,-1.01259387418764e+000,-2.10593891814826e-001

1.58008262372675e+004,-1.01259373639162e+000,-2.13533677114564e-001

1.60213975517924e+004,-1.01259359472216e+000,-2.16514500462668e-001

1.62450479271247e+004,-1.01259344907038e+000,-2.19536934736015e-001

1.64718203453514e+004,-1.01259329932424e+000,-2.22601560810483e-001

1.67017583885674e+004,-1.01259314536878e+000,-2.25708967668246e-001

1.69349062472505e+004,-1.01259298708553e+000,-2.28859752516737e-001

1.71713087287550e+004,-1.01259282435310e+000,-2.32054520897352e-001

1.74110112659224e+004,-1.01259265704632e+000,-2.35293886807009e-001

1.76540599258131e+004,-1.01259248503655e+000,-2.38578472814231e-001

1.79005014185594e+004,-1.01259230819167e+000,-2.41908910177535e-001

1.81503831063432e+004,-1.01259212637582e+000,-2.45285838968160e-001

1.84037530124975e+004,-1.01259193944924e+000,-2.48709908193250e-001

1.86606598307361e+004,-1.01259174726834e+000,-2.52181775919963e-001

1.89211529345119e+004,-1.01259154968541e+000,-2.55702109402335e-001

1.91852823865052e+004,-1.01259134654874e+000,-2.59271585208700e-001

1.94530989482457e+004,-1.01259113770205e+000,-2.62890889354212e-001

1.97246540898671e+004,-1.01259092298504e+000,-2.66560717429102e-001

1.99999999999999e+004,-1.01259070223266e+000,-2.70281774735020e-001

2.02791895958005e+004,-1.01259047527538e+000,-2.74054776419763e-001

2.05622765331213e+004,-1.01259024193874e+000,-2.77880447615035e-001

2.08493152168224e+004,-1.01259000204345e+000,-2.81759523575959e-001

2.11403608112276e+004,-1.01258975540523e+000,-2.85692749821138e-001

2.14354692507258e+004,-1.01258950183469e+000,-2.89680882276930e-001

2.17346972505211e+004,-1.01258924113682e+000,-2.93724687424597e-001

2.20381023175322e+004,-1.01258897311159e+000,-2.97824942442727e-001

2.23457427614443e+004,-1.01258869755283e+000,-3.01982435363270e-001

2.26576777059159e+004,-1.01258841424911e+000,-3.06197965215983e-001

2.29739670999406e+004,-1.01258812298256e+000,-3.10472342188704e-001

2.32946717293690e+004,-1.01258782352956e+000,-3.14806387777747e-001

2.36198532285905e+004,-1.01258751566010e+000,-3.19200934948607e-001

2.39495740923785e+004,-1.01258719913765e+000,-3.23656828295749e-001

2.42838976879009e+004,-1.01258687371902e+000,-3.28174924205288e-001

2.46228882668982e+004,-1.01258653915440e+000,-3.32756091017222e-001

2.49666109780322e+004,-1.01258619518663e+000,-3.37401209196707e-001

2.53151318794055e+004,-1.01258584155162e+000,-3.42111171499019e-001

2.56685179512580e+004,-1.01258547797775e+000,-3.46886883143470e-001

2.60268371088386e+004,-1.01258510418571e+000,-3.51729261987894e-001

2.63901582154578e+004,-1.01258471988852e+000,-3.56639238702633e-001

2.67585510957221e+004,-1.01258432479107e+000,-3.61617756951764e-001

2.71320865489533e+004,-1.01258391858973e+000,-3.66665773575354e-001

2.75108363627948e+004,-1.01258350097278e+000,-3.71784258768839e-001

2.78948733270080e+004,-1.01258307161941e+000,-3.76974196275336e-001

2.82842712474618e+004,-1.01258263019992e+000,-3.82236583570695e-001

2.86791049603164e+004,-1.01258217637537e+000,-3.87572432057335e-001

2.90794503464061e+004,-1.01258170979729e+000,-3.92982767257186e-001

2.94853843458219e+004,-1.01258123010733e+000,-3.98468629011055e-001

2.98969849726987e+004,-1.01258073693737e+000,-4.04031071675622e-001

3.03143313302078e+004,-1.01258022990863e+000,-4.09671164329107e-001

3.07375036257601e+004,-1.01257970863182e+000,-4.15389990975397e-001

3.11665831864199e+004,-1.01257917270684e+000,-4.21188650751567e-001

3.16016524745350e+004,-1.01257862172219e+000,-4.27068258141625e-001

3.20427951035848e+004,-1.01257805525490e+000,-4.33029943188847e-001

3.24900958542493e+004,-1.01257747287019e+000,-4.39074851713376e-001

3.29436406907028e+004,-1.01257687412091e+000,-4.45204145534025e-001

3.34035167771346e+004,-1.01257625854756e+000,-4.51419002689506e-001

3.38698124945009e+004,-1.01257562567767e+000,-4.57720617666309e-001

3.43426174575100e+004,-1.01257497502555e+000,-4.64110201628106e-001

3.48220225318448e+004,-1.01257430609170e+000,-4.70588982649751e-001

3.53081198516260e+004,-1.01257361836289e+000,-4.77158205951057e-001

3.58010028371187e+004,-1.01257291131129e+000,-4.83819134138604e-001

3.63007662126863e+004,-1.01257218439437e+000,-4.90573047447063e-001

3.68075060249948e+004,-1.01257143705439e+000,-4.97421243986096e-001

3.73213196614721e+004,-1.01257066871790e+000,-5.04365039990269e-001

3.78423058690237e+004,-1.01256987879544e+000,-5.11405770071412e-001

3.83705647730104e+004,-1.01256906668094e+000,-5.18544787476383e-001

3.89061978964912e+004,-1.01256823175139e+000,-5.25783464346587e-001

3.94493081797342e+004,-1.01256737336635e+000,-5.33123191981533e-001

3.99999999999998e+004,-1.01256649086745e+000,-5.40565381107153e-001

4.05583791916010e+004,-1.01256558357768e+000,-5.48111462148167e-001

4.11245530662425e+004,-1.01256465080125e+000,-5.55762885500519e-001

4.16986304336447e+004,-1.01256369182289e+000,-5.63521121812518e-001

4.22807216224550e+004,-1.01256270590705e+000,-5.71387662268155e-001

4.28709385014515e+004,-1.01256169229783e+000,-5.79364018871886e-001

4.34693945010421e+004,-1.01256065021811e+000,-5.87451724740487e-001

4.40762046350642e+004,-1.01255957886879e+000,-5.95652334399738e-001

4.46914855228886e+004,-1.01255847742867e+000,-6.03967424080322e-001

4.53153554118317e+004,-1.01255734505330e+000,-6.12398592023916e-001

4.59479341998812e+004,-1.01255618087479e+000,-6.20947458788793e-001

4.65893434587380e+004,-1.01255498400090e+000,-6.29615667562463e-001

4.72397064571810e+004,-1.01255375351431e+000,-6.38404884478078e-001

4.78991481847569e+004,-1.01255248847204e+000,-6.47316798934967e-001

4.85677953758016e+004,-1.01255118790483e+000,-6.56353123922882e-001

4.92457765337964e+004,-1.01254985081618e+000,-6.65515596352811e-001

4.99332219560642e+004,-1.01254847618183e+000,-6.74805977389859e-001

5.06302637588109e+004,-1.01254706294861e+000,-6.84226052794681e-001

5.13370359025159e+004,-1.01254561003419e+000,-6.93777633263819e-001

5.20536742176771e+004,-1.01254411632574e+000,-7.03462554780893e-001

5.27803164309155e+004,-1.01254258067941e+000,-7.13282678968933e-001

5.35171021914442e+004,-1.01254100191930e+000,-7.23239893448778e-001

5.42641730979066e+004,-1.01253937883675e+000,-7.33336112201968e-001

5.50216727255895e+004,-1.01253771018922e+000,-7.43573275940035e-001

5.57897466540159e+004,-1.01253599469937e+000,-7.53953352478253e-001

5.65685424949235e+004,-1.01253423105425e+000,-7.64478337113591e-001

5.73582099206328e+004,-1.01253241790427e+000,-7.75150253008921e-001

5.81589006928121e+004,-1.01253055386200e+000,-7.85971151583546e-001

5.89707686916437e+004,-1.01252863750129e+000,-7.96943112907274e-001

5.97939699453972e+004,-1.01252666735628e+000,-8.08068246100850e-001

6.06286626604156e+004,-1.01252464192007e+000,-8.19348689743135e-001

6.14750072515201e+004,-1.01252255964366e+000,-8.30786612281961e-001

6.23331663728396e+004,-1.01252041893481e+000,-8.42384212452515e-001

6.32033049490698e+004,-1.01251821815703e+000,-8.54143719699134e-001

6.40855902071694e+004,-1.01251595562791e+000,-8.66067394607758e-001

6.49801917084985e+004,-1.01251362961821e+000,-8.78157529338432e-001

6.58872813814055e+004,-1.01251123835051e+000,-8.90416448068110e-001

6.68070335542691e+004,-1.01250877999770e+000,-9.02846507439064e-001

6.77396249890018e+004,-1.01250625268196e+000,-9.15450097010526e-001

6.86852349150199e+004,-1.01250365447286e+000,-9.28229639722407e-001

6.96440450636895e+004,-1.01250098338633e+000,-9.41187592359792e-001

7.06162397032520e+004,-1.01249823738299e+000,-9.54326446026522e-001

7.16020056742374e+004,-1.01249541436665e+000,-9.67648726626503e-001

7.26015324253724e+004,-1.01249251218273e+000,-9.81156995349422e-001

7.36150120499896e+004,-1.01248952861671e+000,-9.94853849164553e-001

7.46426393229441e+004,-1.01248646139244e+000,-1.00874192132164e+000

7.56846117380472e+004,-1.01248330817043e+000,-1.02282388185805e+000

7.67411295460207e+004,-1.01248006654605e+000,-1.03710243811431e+000

7.78123957929823e+004,-1.01247673404786e+000,-1.05158033525516e+000

7.88986163594682e+004,-1.01247330813573e+000,-1.06626035679915e+000

7.99999999999995e+004,-1.01246978619895e+000,-1.08114532515561e+000

8.11167583832018e+004,-1.01246616555415e+000,-1.09623810216925e+000

8.22491061324848e+004,-1.01246244344355e+000,-1.11154158967079e+000

8.33972608672892e+004,-1.01245861703284e+000,-1.12705873003781e+000

8.45614432449099e+004,-1.01245468340886e+000,-1.14279250676271e+000

8.57418770029029e+004,-1.01245063957778e+000,-1.15874594502663e+000

8.69387890020841e+004,-1.01244648246266e+000,-1.17492211228461e+000

8.81524092701283e+004,-1.01244220890129e+000,-1.19132411885654e+000

8.93829710457770e+004,-1.01243781564378e+000,-1.20795511852856e+000

9.06307108236633e+004,-1.01243329935020e+000,-1.22481830915990e+000

9.18958683997622e+004,-1.01242865658813e+000,-1.24191693330147e+000

9.31786869174758e+004,-1.01242388383010e+000,-1.25925427882175e+000

9.44794129143618e+004,-1.01241897745102e+000,-1.27683367954098e+000

9.57982963695136e+004,-1.01241393372561e+000,-1.29465851587451e+000

9.71355907516031e+004,-1.01240874882546e+000,-1.31273221548697e+000

9.84915530675926e+004,-1.01240341881644e+000,-1.33105825395247e+000

9.98664439121282e+004,-1.01239793965564e+000,-1.34964015542750e+000

1.01260527517622e+005,-1.01239230718867e+000,-1.36848149333027e+000

1.02674071805032e+005,-1.01238651714628e+000,-1.38758589103209e+000

1.04107348435354e+005,-1.01238056514159e+000,-1.40695702255667e+000

1.05560632861831e+005,-1.01237444666675e+000,-1.42659861329085e+000

1.07034204382888e+005,-1.01236815708955e+000,-1.44651444070396e+000

1.08528346195813e+005,-1.01236169165034e+000,-1.46670833507814e+000

1.10043345451179e+005,-1.01235504545827e+000,-1.48718418024909e+000

1.11579493308032e+005,-1.01234821348808e+000,-1.50794591435652e+000

1.13137084989847e+005,-1.01234119057616e+000,-1.52899753060572e+000

1.14716419841265e+005,-1.01233397141705e+000,-1.55034307804024e+000

1.16317801385624e+005,-1.01232655055956e+000,-1.57198666232478e+000

1.17941537383287e+005,-1.01231892240275e+000,-1.59393244653934e+000

1.19587939890794e+005,-1.01231108119213e+000,-1.61618465198467e+000

1.21257325320831e+005,-1.01230302101529e+000,-1.63874755899982e+000

1.22950014503040e+005,-1.01229473579788e+000,-1.66162550778936e+000

1.24666332745679e+005,-1.01228621929912e+000,-1.68482289926506e+000

1.26406609898139e+005,-1.01227746510753e+000,-1.70834419589619e+000

1.28171180414339e+005,-1.01226846663623e+000,-1.73219392257465e+000

1.29960383416997e+005,-1.01225921711821e+000,-1.75637666749172e+000

1.31774562762811e+005,-1.01224970960175e+000,-1.78089708302577e+000

1.33614067108538e+005,-1.01223993694539e+000,-1.80575988664359e+000

1.35479249978003e+005,-1.01222989181285e+000,-1.83096986181551e+000

1.37370469830040e+005,-1.01221956666790e+000,-1.85653185894138e+000

1.39288090127379e+005,-1.01220895376909e+000,-1.88245079629152e+000

1.41232479406504e+005,-1.01219804516434e+000,-1.90873166095936e+000

1.43204011348474e+005,-1.01218683268521e+000,-1.93537950982954e+000

1.45203064850745e+005,-1.01217530794156e+000,-1.96239947055710e+000

1.47230024099979e+005,-1.01216346231517e+000,-1.98979674256418e+000

1.49285278645888e+005,-1.01215128695435e+000,-2.01757659804650e+000

1.51369223476094e+005,-1.01213877276729e+000,-2.04574438299842e+000

1.53482259092041e+005,-1.01212591041605e+000,-2.07430551824920e+000

1.55624791585964e+005,-1.01211269030997e+000,-2.10326550051584e+000

1.57797232718936e+005,-1.01209910259930e+000,-2.13262990346988e+000

1.59999999999999e+005,-1.01208513716809e+000,-2.16240437882066e+000

1.62233516766403e+005,-1.01207078362752e+000,-2.19259465741194e+000

1.64498212264969e+005,-1.01205603130863e+000,-2.22320655033635e+000

1.66794521734578e+005,-1.01204086925509e+000,-2.25424595006403e+000

1.69122886489819e+005,-1.01202528621589e+000,-2.28571883158726e+000

1.71483754005805e+005,-1.01200927063741e+000,-2.31763125358331e+000

1.73877578004168e+005,-1.01199281065582e+000,-2.34998935959120e+000

1.76304818540256e+005,-1.01197589408900e+000,-2.38279937920688e+000

1.78765942091554e+005,-1.01195850842830e+000,-2.41606762929517e+000

1.81261421647326e+005,-1.01194064083011e+000,-2.44980051521842e+000

1.83791736799524e+005,-1.01192227810729e+000,-2.48400453208290e+000

1.86357373834951e+005,-1.01190340672045e+000,-2.51868626600295e+000

1.88958825828723e+005,-1.01188401276856e+000,-2.55385239538346e+000

1.91596592739027e+005,-1.01186408198015e+000,-2.58950969221951e+000

1.94271181503206e+005,-1.01184359970359e+000,-2.62566502341557e+000

1.96983106135185e+005,-1.01182255089729e+000,-2.66232535212346e+000

1.99732887824256e+005,-1.01180092011996e+000,-2.69949773909834e+000

2.02521055035243e+005,-1.01177869152032e+000,-2.73718934407483e+000

2.05348143610063e+005,-1.01175584882678e+000,-2.77540742716246e+000

2.08214696870707e+005,-1.01173237533666e+000,-2.81415935026105e+000

2.11121265723661e+005,-1.01170825390524e+000,-2.85345257849611e+000

2.14068408765776e+005,-1.01168346693468e+000,-2.89329468167465e+000

2.17056692391625e+005,-1.01165799636249e+000,-2.93369333576190e+000

2.20086690902357e+005,-1.01163182364979e+000,-2.97465632437845e+000

2.23158986616063e+005,-1.01160492976932e+000,-3.01619154031964e+000

2.26274169979693e+005,-1.01157729519316e+000,-3.05830698709533e+000

2.29432839682530e+005,-1.01154889987990e+000,-3.10101078049332e+000

2.32635602771247e+005,-1.01151972326216e+000,-3.14431115016237e+000

2.35883074766574e+005,-1.01148974423289e+000,-3.18821644122053e+000

2.39175879781588e+005,-1.01145894113218e+000,-3.23273511588464e+000

2.42514650641661e+005,-1.01142729173314e+000,-3.27787575512332e+000

2.45900029006080e+005,-1.01139477322790e+000,-3.32364706033348e+000

2.49332665491357e+005,-1.01136136221291e+000,-3.37005785504068e+000

2.52813219796278e+005,-1.01132703467404e+000,-3.41711708662411e+000

2.56342360828676e+005,-1.01129176597130e+000,-3.46483382806514e+000

2.59920766833993e+005,-1.01125553082323e+000,-3.51321727972116e+000

2.63549125525621e+005,-1.01121830329075e+000,-3.56227677112527e+000

2.67228134217075e+005,-1.01118005676089e+000,-3.61202176280996e+000

2.70958499956006e+005,-1.01114076392962e+000,-3.66246184815843e+000

2.74740939660078e+005,-1.01110039678486e+000,-3.71360675528123e+000

2.78576180254757e+005,-1.01105892658862e+000,-3.76546634891937e+000

2.82464958813007e+005,-1.01101632385880e+000,-3.81805063237491e+000

2.86408022696948e+005,-1.01097255835063e+000,-3.87136974946914e+000

2.90406129701488e+005,-1.01092759903748e+000,-3.92543398652807e+000

2.94460048199957e+005,-1.01088141409130e+000,-3.98025377439590e+000

2.98570557291775e+005,-1.01083397086245e+000,-4.03583969047821e+000

3.02738446952187e+005,-1.01078523585901e+000,-4.09220246081304e+000

3.06964518184081e+005,-1.01073517472571e+000,-4.14935296217150e+000

3.11249583171928e+005,-1.01068375222202e+000,-4.20730222418926e+000

3.15594465437872e+005,-1.01063093219986e+000,-4.26606143152667e+000

3.19999999999997e+005,-1.01057667758069e+000,-4.32564192606100e+000

3.24467033532806e+005,-1.01052095033190e+000,-4.38605520910955e+000

3.28996424529938e+005,-1.01046371144248e+000,-4.44731294368354e+000

3.33589043469155e+005,-1.01040492089842e+000,-4.50942695677494e+000

3.38245772979638e+005,-1.01034453765679e+000,-4.57240924167592e+000

3.42967508011610e+005,-1.01028251961968e+000,-4.63627196033068e+000

3.47755156008335e+005,-1.01021882360706e+000,-4.70102744572138e+000

3.52609637080511e+005,-1.01015340532901e+000,-4.76668820428797e+000

3.57531884183106e+005,-1.01008621935714e+000,-4.83326691838215e+000

3.62522843294651e+005,-1.01001721909504e+000,-4.90077644875767e+000

3.67583473599047e+005,-1.00994635674821e+000,-4.96922983709443e+000

3.72714747669902e+005,-1.00987358329270e+000,-5.03864030856064e+000

3.77917651657445e+005,-1.00979884844314e+000,-5.10902127441037e+000

3.83193185478053e+005,-1.00972210061965e+000,-5.18038633461923e+000

3.88542363006410e+005,-1.00964328691392e+000,-5.25274928055763e+000

3.93966212270369e+005,-1.00956235305407e+000,-5.32612409770260e+000

3.99465775648511e+005,-1.00947924336862e+000,-5.40052496838931e+000

4.05042110070485e+005,-1.00939390074931e+000,-5.47596627460182e+000

4.10696287220124e+005,-1.00930626661282e+000,-5.55246260080450e+000

4.16429393741414e+005,-1.00921628086115e+000,-5.63002873681479e+000

4.22242531447321e+005,-1.00912388184124e+000,-5.70867968071766e+000

4.28136817531551e+005,-1.00902900630265e+000,-5.78843064182330e+000

4.34113384783250e+005,-1.00893158935471e+000,-5.86929704366684e+000

4.40173381804713e+005,-1.00883156442155e+000,-5.95129452705393e+000

4.46317973232124e+005,-1.00872886319664e+000,-6.03443895314950e+000

4.52548339959385e+005,-1.00862341559495e+000,-6.11874640661377e+000

4.58865679365059e+005,-1.00851514970443e+000,-6.20423319878372e+000

4.65271205542494e+005,-1.00840399173547e+000,-6.29091587090221e+000

4.71766149533147e+005,-1.00828986596917e+000,-6.37881119739597e+000

4.78351759563174e+005,-1.00817269470364e+000,-6.46793618920193e+000

4.85029301283321e+005,-1.00805239819886e+000,-6.55830809714440e+000

4.91800058012158e+005,-1.00792889461983e+000,-6.64994441536269e+000

4.98665330982714e+005,-1.00780209997790e+000,-6.74286288479137e+000

5.05626439592555e+005,-1.00767192807036e+000,-6.83708149669312e+000

5.12684721657352e+005,-1.00753829041808e+000,-6.93261849624609e+000

5.19841533667984e+005,-1.00740109620128e+000,-7.02949238618628e+000

5.27098251051240e+005,-1.00726025219348e+000,-7.12772193050618e+000

5.34456268434150e+005,-1.00711566269332e+000,-7.22732615821089e+000

5.41916999912011e+005,-1.00696722945430e+000,-7.32832436713291e+000

