Freq.,VOut,OutRef

1.00000000000000e+004,-1.15698832422254e+000,-1.54598792808632e-001

1.01395947979003e+004,-1.15698824309278e+000,-1.56756912895574e-001

1.02811382665607e+004,-1.15698815968217e+000,-1.58945159274416e-001

1.04246576084112e+004,-1.15698807392672e+000,-1.61163952494591e-001

1.05701804056138e+004,-1.15698798576042e+000,-1.63413718976826e-001

1.07177346253629e+004,-1.15698789511554e+000,-1.65694891094382e-001

1.08673486252606e+004,-1.15698780192238e+000,-1.68007907256300e-001

1.10190511587661e+004,-1.15698770610938e+000,-1.70353211991618e-001

1.11728713807222e+004,-1.15698760760274e+000,-1.72731256035701e-001

1.13288388529580e+004,-1.15698750632696e+000,-1.75142496414168e-001

1.14869835499703e+004,-1.15698740220393e+000,-1.77587396535479e-001

1.16473358646846e+004,-1.15698729515378e+000,-1.80066426274683e-001

1.18099266142953e+004,-1.15698718509423e+000,-1.82580062066895e-001

1.19747870461893e+004,-1.15698707194057e+000,-1.85128786998985e-001

1.21419488439505e+004,-1.15698695560594e+000,-1.87713090900191e-001

1.23114441334492e+004,-1.15698683600084e+000,-1.90333470439214e-001

1.24833054890161e+004,-1.15698671303333e+000,-1.92990429217246e-001

1.26575659397028e+004,-1.15698658660906e+000,-1.95684477864902e-001

1.28342589756290e+004,-1.15698645663056e+000,-1.98416134143663e-001

1.30134185544193e+004,-1.15698632299822e+000,-2.01185923039678e-001

1.31950791077289e+004,-1.15698618560917e+000,-2.03994376870249e-001

1.33792755478611e+004,-1.15698604435776e+000,-2.06842035383302e-001

1.35660432744767e+004,-1.15698589913551e+000,-2.09729445860728e-001

1.37554181813974e+004,-1.15698574983082e+000,-2.12657163224587e-001

1.39474366635040e+004,-1.15698559632886e+000,-2.15625750144595e-001

1.41421356237309e+004,-1.15698543851173e+000,-2.18635777143973e-001

1.43395524801583e+004,-1.15698527625808e+000,-2.21687822711461e-001

1.45397251732031e+004,-1.15698510944310e+000,-2.24782473411480e-001

1.47426921729110e+004,-1.15698493793883e+000,-2.27920323995312e-001

1.49484924863494e+004,-1.15698476161312e+000,-2.31101977519640e-001

1.51571656651040e+004,-1.15698458033073e+000,-2.34328045457025e-001

1.53687518128801e+004,-1.15698439395218e+000,-2.37599147817932e-001

1.55832915932100e+004,-1.15698420233425e+000,-2.40915913267890e-001

1.58008262372675e+004,-1.15698400532967e+000,-2.44278979247870e-001

1.60213975517924e+004,-1.15698380278709e+000,-2.47688992098309e-001

1.62450479271247e+004,-1.15698359455075e+000,-2.51146607182934e-001

1.64718203453514e+004,-1.15698338046078e+000,-2.54652489012360e-001

1.67017583885674e+004,-1.15698316035233e+000,-2.58207311377455e-001

1.69349062472505e+004,-1.15698293405647e+000,-2.61811757471939e-001

1.71713087287550e+004,-1.15698270139926e+000,-2.65466520028060e-001

1.74110112659224e+004,-1.15698246220182e+000,-2.69172301449354e-001

1.76540599258131e+004,-1.15698221628044e+000,-2.72929813944109e-001

1.79005014185594e+004,-1.15698196344591e+000,-2.76739779664710e-001

1.81503831063432e+004,-1.15698170350416e+000,-2.80602930842512e-001

1.84037530124975e+004,-1.15698143625532e+000,-2.84520009932756e-001

1.86606598307361e+004,-1.15698116149397e+000,-2.88491769755547e-001

1.89211529345119e+004,-1.15698087900909e+000,-2.92518973639542e-001

1.91852823865052e+004,-1.15698058858342e+000,-2.96602395571188e-001

1.94530989482457e+004,-1.15698028999388e+000,-3.00742820340318e-001

1.97246540898671e+004,-1.15697998301096e+000,-3.04941043693995e-001

1.99999999999999e+004,-1.15697966739886e+000,-3.09197872487080e-001

2.02791895958005e+004,-1.15697934291492e+000,-3.13514124840108e-001

2.05622765331213e+004,-1.15697900930985e+000,-3.17890630292774e-001

2.08493152168224e+004,-1.15697866632732e+000,-3.22328229967660e-001

2.11403608112276e+004,-1.15697831370372e+000,-3.26827776728057e-001

2.14354692507258e+004,-1.15697795116817e+000,-3.31390135344573e-001

2.17346972505211e+004,-1.15697757844205e+000,-3.36016182660267e-001

2.20381023175322e+004,-1.15697719523897e+000,-3.40706807759398e-001

2.23457427614443e+004,-1.15697680126440e+000,-3.45462912138991e-001

2.26576777059159e+004,-1.15697639621580e+000,-3.50285409879983e-001

2.29739670999406e+004,-1.15697597978174e+000,-3.55175227826246e-001

2.32946717293690e+004,-1.15697555164239e+000,-3.60133305759749e-001

2.36198532285905e+004,-1.15697511146878e+000,-3.65160596582871e-001

2.39495740923785e+004,-1.15697465892266e+000,-3.70258066501620e-001

2.42838976879009e+004,-1.15697419365644e+000,-3.75426695210044e-001

2.46228882668982e+004,-1.15697371531251e+000,-3.80667476081294e-001

2.49666109780322e+004,-1.15697322352350e+000,-3.85981416354349e-001

2.53151318794055e+004,-1.15697271791150e+000,-3.91369537332576e-001

2.56685179512580e+004,-1.15697219808812e+000,-3.96832874575869e-001

2.60268371088386e+004,-1.15697166365399e+000,-4.02372478102610e-001

2.63901582154578e+004,-1.15697111419860e+000,-4.07989412589977e-001

2.67585510957221e+004,-1.15697054929967e+000,-4.13684757580378e-001

2.71320865489533e+004,-1.15696996852344e+000,-4.19459607685933e-001

2.75108363627948e+004,-1.15696937142372e+000,-4.25315072801676e-001

2.78948733270080e+004,-1.15696875754181e+000,-4.31252278318563e-001

2.82842712474618e+004,-1.15696812640618e+000,-4.37272365338775e-001

2.86791049603164e+004,-1.15696747753200e+000,-4.43376490896318e-001

2.90794503464061e+004,-1.15696681042094e+000,-4.49565828178310e-001

2.94853843458219e+004,-1.15696612456052e+000,-4.55841566751581e-001

2.98969849726987e+004,-1.15696541942406e+000,-4.62204912790678e-001

3.03143313302078e+004,-1.15696469446981e+000,-4.68657089311196e-001

3.07375036257601e+004,-1.15696394914111e+000,-4.75199336402609e-001

3.11665831864199e+004,-1.15696318286552e+000,-4.81832911468970e-001

3.16016524745350e+004,-1.15696239505449e+000,-4.88559089469461e-001

3.20427951035848e+004,-1.15696158510306e+000,-4.95379163163806e-001

3.24900958542493e+004,-1.15696075238922e+000,-5.02294443361287e-001

3.29436406907028e+004,-1.15695989627352e+000,-5.09306259172092e-001

3.34035167771346e+004,-1.15695901609862e+000,-5.16415958263569e-001

3.38698124945009e+004,-1.15695811118845e+000,-5.23624907120273e-001

3.43426174575100e+004,-1.15695718084837e+000,-5.30934491303739e-001

3.48220225318448e+004,-1.15695622436401e+000,-5.38346115722128e-001

3.53081198516260e+004,-1.15695524100091e+000,-5.45861204899307e-001

3.58010028371187e+004,-1.15695423000410e+000,-5.53481203248501e-001

3.63007662126863e+004,-1.15695319059743e+000,-5.61207575350255e-001

3.68075060249948e+004,-1.15695212198296e+000,-5.69041806234129e-001

3.73213196614721e+004,-1.15695102334022e+000,-5.76985401665571e-001

3.78423058690237e+004,-1.15694989382595e+000,-5.85039888432767e-001

3.83705647730104e+004,-1.15694873257308e+000,-5.93206814643281e-001

3.89061978964912e+004,-1.15694753869023e+000,-6.01487750020059e-001

3.94493081797342e+004,-1.15694631126102e+000,-6.09884286204471e-001

3.99999999999998e+004,-1.15694504934346e+000,-6.18398037060978e-001

4.05583791916010e+004,-1.15694375196886e+000,-6.27030638989895e-001

4.11245530662425e+004,-1.15694241814171e+000,-6.35783751239575e-001

4.16986304336447e+004,-1.15694104683836e+000,-6.44659056227851e-001

4.22807216224550e+004,-1.15693963700654e+000,-6.53658259864371e-001

4.28709385014515e+004,-1.15693818756440e+000,-6.62783091879507e-001

4.34693945010421e+004,-1.15693669739979e+000,-6.72035306156980e-001

4.40762046350642e+004,-1.15693516536937e+000,-6.81416681071135e-001

4.46914855228886e+004,-1.15693359029772e+000,-6.90929019829363e-001

4.53153554118317e+004,-1.15693197097655e+000,-7.00574150818658e-001

4.59479341998812e+004,-1.15693030616366e+000,-7.10353927958061e-001

4.65893434587380e+004,-1.15692859458188e+000,-7.20270231055705e-001

4.72397064571810e+004,-1.15692683491848e+000,-7.30324966168954e-001

4.78991481847569e+004,-1.15692502582383e+000,-7.40520065972761e-001

4.85677953758016e+004,-1.15692316591039e+000,-7.50857490131837e-001

4.92457765337964e+004,-1.15692125375189e+000,-7.61339225676245e-001

4.99332219560642e+004,-1.15691928788201e+000,-7.71967287384938e-001

5.06302637588109e+004,-1.15691726679338e+000,-7.82743718173740e-001

5.13370359025159e+004,-1.15691518893634e+000,-7.93670589488232e-001

5.20536742176771e+004,-1.15691305271791e+000,-8.04750001702087e-001

5.27803164309155e+004,-1.15691085650047e+000,-8.15984084522088e-001

5.35171021914442e+004,-1.15690859860047e+000,-8.27374997398258e-001

5.42641730979066e+004,-1.15690627728727e+000,-8.38924929938628e-001

5.50216727255895e+004,-1.15690389078178e+000,-8.50636102332029e-001

5.57897466540159e+004,-1.15690143725511e+000,-8.62510765774147e-001

5.65685424949235e+004,-1.15689891482714e+000,-8.74551202902654e-001

5.73582099206328e+004,-1.15689632156512e+000,-8.86759728235556e-001

5.81589006928121e+004,-1.15689365548222e+000,-8.99138688617424e-001

5.89707686916437e+004,-1.15689091453601e+000,-9.11690463671115e-001

5.97939699453972e+004,-1.15688809662688e+000,-9.24417466256651e-001

6.06286626604156e+004,-1.15688519959658e+000,-9.37322142934493e-001

6.14750072515201e+004,-1.15688222122642e+000,-9.50406974438731e-001

6.23331663728396e+004,-1.15687915923566e+000,-9.63674476153674e-001

6.32033049490698e+004,-1.15687601127972e+000,-9.77127198598971e-001

6.40855902071694e+004,-1.15687277494856e+000,-9.90767727920685e-001

6.49801917084985e+004,-1.15686944776475e+000,-1.00459868638933e+000

6.58872813814055e+004,-1.15686602718150e+000,-1.01862273290627e+000

6.68070335542691e+004,-1.15686251058106e+000,-1.03284256351409e+000

6.77396249890018e+004,-1.15685889527225e+000,-1.04726091191862e+000

6.86852349150199e+004,-1.15685517848902e+000,-1.06188055001306e+000

6.96440450636895e+004,-1.15685135738771e+000,-1.07670428841525e+000

7.06162397032520e+004,-1.15684742904556e+000,-1.09173497700623e+000

7.16020056742374e+004,-1.15684339045791e+000,-1.10697550548261e+000

7.26015324253724e+004,-1.15683923853644e+000,-1.12242880391111e+000

7.36150120499896e+004,-1.15683497010646e+000,-1.13809784329530e+000

7.46426393229441e+004,-1.15683058190481e+000,-1.15398563614716e+000

7.56846117380472e+004,-1.15682607057717e+000,-1.17009523706886e+000

7.67411295460207e+004,-1.15682143267572e+000,-1.18642974334169e+000

7.78123957929823e+004,-1.15681666465640e+000,-1.20299229552305e+000

7.88986163594682e+004,-1.15681176287639e+000,-1.21978607805218e+000

7.99999999999995e+004,-1.15680672359126e+000,-1.23681431986510e+000

8.11167583832018e+004,-1.15680154295226e+000,-1.25408029501661e+000

8.22491061324848e+004,-1.15679621700334e+000,-1.27158732331307e+000

8.33972608672892e+004,-1.15679074167821e+000,-1.28933877095197e+000

8.45614432449099e+004,-1.15678511279740e+000,-1.30733805117185e+000

8.57418770029029e+004,-1.15677932606495e+000,-1.32558862491184e+000

8.69387890020841e+004,-1.15677337706545e+000,-1.34409400147785e+000

8.81524092701283e+004,-1.15676726126046e+000,-1.36285773922217e+000

8.93829710457770e+004,-1.15676097398533e+000,-1.38188344622871e+000

9.06307108236633e+004,-1.15675451044554e+000,-1.40117478101135e+000

9.18958683997622e+004,-1.15674786571333e+000,-1.42073545321871e+000

9.31786869174758e+004,-1.15674103472400e+000,-1.44056922435138e+000

9.44794129143618e+004,-1.15673401227197e+000,-1.46067990848874e+000

9.57982963695136e+004,-1.15672679300703e+000,-1.48107137302576e+000

9.71355907516031e+004,-1.15671937143036e+000,-1.50174753941950e+000

9.84915530675926e+004,-1.15671174189052e+000,-1.52271238394758e+000

9.98664439121282e+004,-1.15670389857912e+000,-1.54396993847629e+000

1.01260527517622e+005,-1.15669583552657e+000,-1.56552429124016e+000

1.02674071805032e+005,-1.15668754659772e+000,-1.58737958763181e+000

1.04107348435354e+005,-1.15667902548729e+000,-1.60954003100407e+000

1.05560632861831e+005,-1.15667026571514e+000,-1.63200988348209e+000

1.07034204382888e+005,-1.15666126062163e+000,-1.65479346678851e+000

1.08528346195813e+005,-1.15665200336264e+000,-1.67789516307831e+000

1.10043345451179e+005,-1.15664248690441e+000,-1.70131941578761e+000

1.11579493308032e+005,-1.15663270401865e+000,-1.72507073049270e+000

1.13137084989847e+005,-1.15662264727696e+000,-1.74915367578266e+000

1.14716419841265e+005,-1.15661230904552e+000,-1.77357288414269e+000

1.16317801385624e+005,-1.15660168147939e+000,-1.79833305285246e+000

1.17941537383287e+005,-1.15659075651700e+000,-1.82343894489351e+000

1.19587939890794e+005,-1.15657952587395e+000,-1.84889538987362e+000

1.21257325320831e+005,-1.15656798103707e+000,-1.87470728496144e+000

1.22950014503040e+005,-1.15655611325839e+000,-1.90087959583465e+000

1.24666332745679e+005,-1.15654391354854e+000,-1.92741735764330e+000

1.26406609898139e+005,-1.15653137267016e+000,-1.95432567598514e+000

1.28171180414339e+005,-1.15651848113155e+000,-1.98160972789479e+000

1.29960383416997e+005,-1.15650522917937e+000,-2.00927476284847e+000

1.31774562762811e+005,-1.15649160679186e+000,-2.03732610378087e+000

1.33614067108538e+005,-1.15647760367132e+000,-2.06576914811888e+000

1.35479249978003e+005,-1.15646320923697e+000,-2.09460936882760e+000

1.37370469830040e+005,-1.15644841261712e+000,-2.12385231547275e+000

1.39288090127379e+005,-1.15643320264135e+000,-2.15350361529791e+000

1.41232479406504e+005,-1.15641756783249e+000,-2.18356897431696e+000

1.43204011348474e+005,-1.15640149639848e+000,-2.21405417842152e+000

1.45203064850745e+005,-1.15638497622364e+000,-2.24496509450549e+000

1.47230024099979e+005,-1.15636799486035e+000,-2.27630767160377e+000

1.49285278645888e+005,-1.15635053951987e+000,-2.30808794204961e+000

1.51369223476094e+005,-1.15633259706327e+000,-2.34031202264539e+000

1.53482259092041e+005,-1.15631415399216e+000,-2.37298611585314e+000

1.55624791585964e+005,-1.15629519643893e+000,-2.40611651099990e+000

1.57797232718936e+005,-1.15627571015708e+000,-2.43970958550103e+000

1.59999999999999e+005,-1.15625568051090e+000,-2.47377180610142e+000

1.62233516766403e+005,-1.15623509246531e+000,-2.50830973013313e+000

1.64498212264969e+005,-1.15621393057503e+000,-2.54333000679288e+000

1.66794521734578e+005,-1.15619217897385e+000,-2.57883937843538e+000

1.69122886489819e+005,-1.15616982136338e+000,-2.61484468188765e+000

1.71483754005805e+005,-1.15614684100146e+000,-2.65135284978030e+000

1.73877578004168e+005,-1.15612322069072e+000,-2.68837091189800e+000

1.76304818540256e+005,-1.15609894276608e+000,-2.72590599655123e+000

1.78765942091554e+005,-1.15607398908286e+000,-2.76396533196422e+000

1.81261421647326e+005,-1.15604834100375e+000,-2.80255624768584e+000

1.83791736799524e+005,-1.15602197938597e+000,-2.84168617601933e+000

1.86357373834951e+005,-1.15599488456790e+000,-2.88136265347241e+000

1.88958825828723e+005,-1.15596703635541e+000,-2.92159332222870e+000

1.91596592739027e+005,-1.15593841400797e+000,-2.96238593163920e+000

1.94271181503206e+005,-1.15590899622405e+000,-3.00374833973694e+000

1.96983106135185e+005,-1.15587876112670e+000,-3.04568851477121e+000

1.99732887824256e+005,-1.15584768624815e+000,-3.08821453676599e+000

2.02521055035243e+005,-1.15581574851459e+000,-3.13133459909815e+000

2.05348143610063e+005,-1.15578292423012e+000,-3.17505701010084e+000

2.08214696870707e+005,-1.15574918906066e+000,-3.21939019468819e+000

2.11121265723661e+005,-1.15571451801707e+000,-3.26434269600426e+000

2.14068408765776e+005,-1.15567888543823e+000,-3.30992317709492e+000

2.17056692391625e+005,-1.15564226497352e+000,-3.35614042260420e+000

2.20086690902357e+005,-1.15560462956468e+000,-3.40300334049535e+000

2.23158986616063e+005,-1.15556595142761e+000,-3.45052096379559e+000

2.26274169979693e+005,-1.15552620203335e+000,-3.49870245236685e+000

2.29432839682530e+005,-1.15548535208874e+000,-3.54755709470187e+000

2.32635602771247e+005,-1.15544337151672e+000,-3.59709430974536e+000

2.35883074766574e+005,-1.15540022943571e+000,-3.64732364874300e+000

2.39175879781588e+005,-1.15535589413909e+000,-3.69825479711434e+000

2.42514650641661e+005,-1.15531033307352e+000,-3.74989757635600e+000

2.45900029006080e+005,-1.15526351281718e+000,-3.80226194596958e+000

2.49332665491357e+005,-1.15521539905724e+000,-3.85535800541864e+000

2.52813219796278e+005,-1.15516595656679e+000,-3.90919599611341e+000

2.56342360828676e+005,-1.15511514918125e+000,-3.96378630342455e+000

2.59920766833993e+005,-1.15506293977407e+000,-4.01913945872553e+000

2.63549125525621e+005,-1.15500929023192e+000,-4.07526614146432e+000

2.67228134217075e+005,-1.15495416142914e+000,-4.13217718126595e+000

2.70958499956006e+005,-1.15489751320158e+000,-4.18988356006403e+000

2.74740939660078e+005,-1.15483930431983e+000,-4.24839641426417e+000

2.78576180254757e+005,-1.15477949246165e+000,-4.30772703693833e+000

2.82464958813007e+005,-1.15471803418378e+000,-4.36788688005026e+000

2.86408022696948e+005,-1.15465488489289e+000,-4.42888755671430e+000

2.90406129701488e+005,-1.15458999881592e+000,-4.49074084348605e+000

2.94460048199957e+005,-1.15452332896965e+000,-4.55345868268614e+000

2.98570557291775e+005,-1.15445482712918e+000,-4.61705318475838e+000

3.02738446952187e+005,-1.15438444379602e+000,-4.68153663066143e+000

3.06964518184081e+005,-1.15431212816502e+000,-4.74692147429545e+000

3.11249583171928e+005,-1.15423782809056e+000,-4.81322034496377e+000

3.15594465437872e+005,-1.15416149005170e+000,-4.88044604987105e+000

3.19999999999997e+005,-1.15408305911667e+000,-4.94861157665647e+000

3.24467033532806e+005,-1.15400247890599e+000,-5.01773009596546e+000

3.28996424529938e+005,-1.15391969155509e+000,-5.08781496405748e+000

3.33589043469155e+005,-1.15383463767551e+000,-5.15887972545239e+000

3.38245772979638e+005,-1.15374725631522e+000,-5.23093811561606e+000

3.42967508011610e+005,-1.15365748491788e+000,-5.30400406368410e+000

3.47755156008335e+005,-1.15356525928077e+000,-5.37809169522700e+000

3.52609637080511e+005,-1.15347051351208e+000,-5.45321533505369e+000

3.57531884183106e+005,-1.15337317998630e+000,-5.52938951005891e+000

3.62522843294651e+005,-1.15327318929889e+000,-5.60662895211068e+000

3.67583473599047e+005,-1.15317047021951e+000,-5.68494860098060e+000

3.72714747669902e+005,-1.15306494964403e+000,-5.76436360731801e+000

3.77917651657445e+005,-1.15295655254509e+000,-5.84488933566786e+000

3.83193185478053e+005,-1.15284520192121e+000,-5.92654136753341e+000

3.88542363006410e+005,-1.15273081874464e+000,-6.00933550448433e+000

3.93966212270369e+005,-1.15261332190768e+000,-6.09328777131133e+000

3.99465775648511e+005,-1.15249262816740e+000,-6.17841441922789e+000

4.05042110070485e+005,-1.15236865208877e+000,-6.26473192911980e+000

4.10696287220124e+005,-1.15224130598626e+000,-6.35225701484405e+000

4.16429393741414e+005,-1.15211049986371e+000,-6.44100662657660e+000

4.22242531447321e+005,-1.15197614135255e+000,-6.53099795421147e+000

4.28136817531551e+005,-1.15183813564810e+000,-6.62224843081107e+000

4.34113384783250e+005,-1.15169638544415e+000,-6.71477573610908e+000

4.40173381804713e+005,-1.15155079086562e+000,-6.80859780006683e+000

4.46317973232124e+005,-1.15140124939927e+000,-6.90373280648433e+000

4.52548339959385e+005,-1.15124765582248e+000,-7.00019919666659e+000

4.58865679365059e+005,-1.15108990212987e+000,-7.09801567314637e+000

4.65271205542494e+005,-1.15092787745791e+000,-7.19720120346559e+000

4.71766149533147e+005,-1.15076146800731e+000,-7.29777502401429e+000

4.78351759563174e+005,-1.15059055696314e+000,-7.39975664393083e+000

4.85029301283321e+005,-1.15041502441281e+000,-7.50316584906251e+000

4.91800058012158e+005,-1.15023474726153e+000,-7.60802270598899e+000

4.98665330982714e+005,-1.15004959914555e+000,-7.71434756610957e+000

5.05626439592555e+005,-1.14985945034268e+000,-7.82216106979533e+000

5.12684721657352e+005,-1.14966416768062e+000,-7.93148415060779e+000

5.19841533667984e+005,-1.14946361444239e+000,-8.04233803958535e+000

5.27098251051240e+005,-1.14925765026930e+000,-8.15474426959921e+000

5.34456268434150e+005,-1.14904613106123e+000,-8.26872467977952e+000

5.41916999912011e+005,-1.14882890887398e+000,-8.38430142001448e+000

