Freq.,VOut,OutRef

1.00000000000000e+004,-2.23747925781024e+001,-1.49260854170124e-001

1.01395947979003e+004,-2.23747931789448e+001,-1.51344426721690e-001

1.02811382665607e+004,-2.23747937966756e+001,-1.53457083533733e-001

1.04246576084112e+004,-2.23747944317698e+001,-1.55599230548860e-001

1.05701804056138e+004,-2.23747950847152e+001,-1.57771279376399e-001

1.07177346253629e+004,-2.23747957560136e+001,-1.59973647368831e-001

1.08673486252606e+004,-2.23747964461805e+001,-1.62206757702819e-001

1.10190511587661e+004,-2.23747971557464e+001,-1.64471039458155e-001

1.11728713807222e+004,-2.23747978852562e+001,-1.66766927701870e-001

1.13288388529580e+004,-2.23747986352705e+001,-1.69094863572082e-001

1.14869835499703e+004,-2.23747994063654e+001,-1.71455294361655e-001

1.16473358646846e+004,-2.23748001991333e+001,-1.73848673603240e-001

1.18099266142953e+004,-2.23748010141832e+001,-1.76275461158459e-001

1.19747870461893e+004,-2.23748018521412e+001,-1.78736123304117e-001

1.21419488439505e+004,-2.23748027136510e+001,-1.81231132823502e-001

1.23114441334492e+004,-2.23748035993744e+001,-1.83760969094570e-001

1.24833054890161e+004,-2.23748045099915e+001,-1.86326118184447e-001

1.26575659397028e+004,-2.23748054462021e+001,-1.88927072939422e-001

1.28342589756290e+004,-2.23748064087251e+001,-1.91564333083286e-001

1.30134185544193e+004,-2.23748073982999e+001,-1.94238405310256e-001

1.31950791077289e+004,-2.23748084156864e+001,-1.96949803384746e-001

1.33792755478611e+004,-2.23748094616660e+001,-1.99699048235896e-001

1.35660432744767e+004,-2.23748105370422e+001,-2.02486668060081e-001

1.37554181813974e+004,-2.23748116426408e+001,-2.05313198422765e-001

1.39474366635040e+004,-2.23748127793108e+001,-2.08179182360335e-001

1.41421356237309e+004,-2.23748139479250e+001,-2.11085170483552e-001

1.43395524801583e+004,-2.23748151493810e+001,-2.14031721081864e-001

1.45397251732031e+004,-2.23748163846013e+001,-2.17019400234330e-001

1.47426921729110e+004,-2.23748176545345e+001,-2.20048781913801e-001

1.49484924863494e+004,-2.23748189601555e+001,-2.23120448100667e-001

1.51571656651040e+004,-2.23748203024671e+001,-2.26234988889994e-001

1.53687518128801e+004,-2.23748216824995e+001,-2.29393002609409e-001

1.55832915932100e+004,-2.23748231013126e+001,-2.32595095929204e-001

1.58008262372675e+004,-2.23748245599956e+001,-2.35841883981164e-001

1.60213975517924e+004,-2.23748260596682e+001,-2.39133990476482e-001

1.62450479271247e+004,-2.23748276014818e+001,-2.42472047823548e-001

1.64718203453514e+004,-2.23748291866200e+001,-2.45856697249816e-001

1.67017583885674e+004,-2.23748308162994e+001,-2.49288588924507e-001

1.69349062472505e+004,-2.23748324917711e+001,-2.52768382083226e-001

1.71713087287550e+004,-2.23748342143210e+001,-2.56296745153664e-001

1.74110112659224e+004,-2.23748359852713e+001,-2.59874355884149e-001

1.76540599258131e+004,-2.23748378059810e+001,-2.63501901472471e-001

1.79005014185594e+004,-2.23748396778477e+001,-2.67180078697530e-001

1.81503831063432e+004,-2.23748416023074e+001,-2.70909594054545e-001

1.84037530124975e+004,-2.23748435808374e+001,-2.74691163885249e-001

1.86606598307361e+004,-2.23748456149555e+001,-2.78525514521280e-001

1.89211529345119e+004,-2.23748477062227e+001,-2.82413382417123e-001

1.91852823865052e+004,-2.23748498562434e+001,-2.86355514295900e-001

1.94530989482457e+004,-2.23748520666671e+001,-2.90352667287802e-001

1.97246540898671e+004,-2.23748543391896e+001,-2.94405609077271e-001

1.99999999999999e+004,-2.23748566755542e+001,-2.98515118049726e-001

2.02791895958005e+004,-2.23748590775530e+001,-3.02681983438663e-001

2.05622765331213e+004,-2.23748615470284e+001,-3.06907005477562e-001

2.08493152168224e+004,-2.23748640858744e+001,-3.11190995552714e-001

2.11403608112276e+004,-2.23748666960383e+001,-3.15534776357051e-001

2.14354692507258e+004,-2.23748693795214e+001,-3.19939182050105e-001

2.17346972505211e+004,-2.23748721383818e+001,-3.24405058411478e-001

2.20381023175322e+004,-2.23748749747345e+001,-3.28933263010064e-001

2.23457427614443e+004,-2.23748778907545e+001,-3.33524665360000e-001

2.26576777059159e+004,-2.23748808886773e+001,-3.38180147091281e-001

2.29739670999406e+004,-2.23748839708009e+001,-3.42900602117242e-001

2.32946717293690e+004,-2.23748871394879e+001,-3.47686936803024e-001

2.36198532285905e+004,-2.23748903971670e+001,-3.52540070139986e-001

2.39495740923785e+004,-2.23748937463349e+001,-3.57460933920751e-001

2.42838976879009e+004,-2.23748971895583e+001,-3.62450472915815e-001

2.46228882668982e+004,-2.23749007294753e+001,-3.67509645055254e-001

2.49666109780322e+004,-2.23749043687985e+001,-3.72639421607948e-001

2.53151318794055e+004,-2.23749081103158e+001,-3.77840787370978e-001

2.56685179512580e+004,-2.23749119568934e+001,-3.83114740852935e-001

2.60268371088386e+004,-2.23749159114779e+001,-3.88462294465507e-001

2.63901582154578e+004,-2.23749199770979e+001,-3.93884474716968e-001

2.67585510957221e+004,-2.23749241568668e+001,-3.99382322406772e-001

2.71320865489533e+004,-2.23749284539854e+001,-4.04956892821377e-001

2.75108363627948e+004,-2.23749328717436e+001,-4.10609255939180e-001

2.78948733270080e+004,-2.23749374135234e+001,-4.16340496629663e-001

2.82842712474618e+004,-2.23749420828016e+001,-4.22151714860392e-001

2.86791049603164e+004,-2.23749468831517e+001,-4.28044025908296e-001

2.90794503464061e+004,-2.23749518182473e+001,-4.34018560568750e-001

2.94853843458219e+004,-2.23749568918647e+001,-4.40076465370642e-001

2.98969849726987e+004,-2.23749621078856e+001,-4.46218902794485e-001

3.03143313302078e+004,-2.23749674703002e+001,-4.52447051492534e-001

3.07375036257601e+004,-2.23749729832100e+001,-4.58762106511551e-001

3.11665831864199e+004,-2.23749786508308e+001,-4.65165279521430e-001

3.16016524745350e+004,-2.23749844774967e+001,-4.71657799040426e-001

3.20427951035848e+004,-2.23749904676622e+001,-4.78240910672838e-001

3.24900958542493e+004,-2.23749966259061e+001,-4.84915877341360e-001

3.29436406907028e+004,-2.23750029569353e+001,-4.91683979526248e-001

3.34035167771346e+004,-2.23750094655876e+001,-4.98546515508248e-001

3.38698124945009e+004,-2.23750161568360e+001,-5.05504801613874e-001

3.43426174575100e+004,-2.23750230357917e+001,-5.12560172464919e-001

3.48220225318448e+004,-2.23750301077089e+001,-5.19713981226657e-001

3.53081198516260e+004,-2.23750373779877e+001,-5.26967599868393e-001

3.58010028371187e+004,-2.23750448521790e+001,-5.34322419418880e-001

3.63007662126863e+004,-2.23750525359879e+001,-5.41779850228921e-001

3.68075060249948e+004,-2.23750604352787e+001,-5.49341322238493e-001

3.73213196614721e+004,-2.23750685560786e+001,-5.57008285244441e-001

3.78423058690237e+004,-2.23750769045828e+001,-5.64782209173983e-001

3.83705647730104e+004,-2.23750854871588e+001,-5.72664584361120e-001

3.89061978964912e+004,-2.23750943103510e+001,-5.80656921827001e-001

3.94493081797342e+004,-2.23751033808856e+001,-5.88760753565025e-001

3.99999999999998e+004,-2.23751127056761e+001,-5.96977632824602e-001

4.05583791916010e+004,-2.23751222918281e+001,-6.05309134406430e-001

4.11245530662425e+004,-2.23751321466442e+001,-6.13756854955749e-001

4.16986304336447e+004,-2.23751422776298e+001,-6.22322413264201e-001

4.22807216224550e+004,-2.23751526924990e+001,-6.31007450567423e-001

4.28709385014515e+004,-2.23751633991794e+001,-6.39813630859140e-001

4.34693945010421e+004,-2.23751744058187e+001,-6.48742641196852e-001

4.40762046350642e+004,-2.23751857207906e+001,-6.57796192018976e-001

4.46914855228886e+004,-2.23751973527007e+001,-6.66976017464496e-001

4.53153554118317e+004,-2.23752093103930e+001,-6.76283875696560e-001

4.59479341998812e+004,-2.23752216029564e+001,-6.85721549228179e-001

4.65893434587380e+004,-2.23752342397313e+001,-6.95290845257794e-001

4.72397064571810e+004,-2.23752472303167e+001,-7.04993596001320e-001

4.78991481847569e+004,-2.23752605845767e+001,-7.14831659036375e-001

4.85677953758016e+004,-2.23752743126484e+001,-7.24806917645299e-001

4.92457765337964e+004,-2.23752884249487e+001,-7.34921281164695e-001

4.99332219560642e+004,-2.23753029321823e+001,-7.45176685340045e-001

5.06302637588109e+004,-2.23753178453492e+001,-7.55575092684239e-001

5.13370359025159e+004,-2.23753331757529e+001,-7.66118492839782e-001

5.20536742176771e+004,-2.23753489350086e+001,-7.76808902947553e-001

5.27803164309155e+004,-2.23753651350516e+001,-7.87648368018497e-001

5.35171021914442e+004,-2.23753817881456e+001,-7.98638961310990e-001

5.42641730979066e+004,-2.23753989068921e+001,-8.09782784712765e-001

5.50216727255895e+004,-2.23754165042391e+001,-8.21081969127518e-001

5.57897466540159e+004,-2.23754345934906e+001,-8.32538674867862e-001

5.65685424949235e+004,-2.23754531883163e+001,-8.44155092048542e-001

5.73582099206328e+004,-2.23754723027606e+001,-8.55933440992068e-001

5.81589006928121e+004,-2.23754919512539e+001,-8.67875972632110e-001

5.89707686916437e+004,-2.23755121486219e+001,-8.79984968927039e-001

5.97939699453972e+004,-2.23755329100965e+001,-8.92262743275179e-001

6.06286626604156e+004,-2.23755542513266e+001,-9.04711640938070e-001

6.14750072515201e+004,-2.23755761883894e+001,-9.17334039466325e-001

6.23331663728396e+004,-2.23755987378015e+001,-9.30132349133232e-001

6.32033049490698e+004,-2.23756219165305e+001,-9.43109013371218e-001

6.40855902071694e+004,-2.23756457420075e+001,-9.56266509214521e-001

6.49801917084985e+004,-2.23756702321385e+001,-9.69607347750082e-001

6.58872813814055e+004,-2.23756954053177e+001,-9.83134074568281e-001

6.68070335542691e+004,-2.23757212804398e+001,-9.96849270224513e-001

6.77396249890018e+004,-2.23757478769136e+001,-1.01075555070163e+000

6.86852349150199e+004,-2.23757752146752e+001,-1.02485556788373e+000

6.96440450636895e+004,-2.23758033142019e+001,-1.03915201002853e+000

7.06162397032520e+004,-2.23758321965264e+001,-1.05364760225162e+000

7.16020056742374e+004,-2.23758618832513e+001,-1.06834510701249e+000

7.26015324253724e+004,-2.23758923965636e+001,-1.08324732460838e+000

7.36150120499896e+004,-2.23759237592503e+001,-1.09835709367280e+000

7.46426393229441e+004,-2.23759559947138e+001,-1.11367729168032e+000

7.56846117380472e+004,-2.23759891269879e+001,-1.12921083545653e+000

7.67411295460207e+004,-2.23760231807535e+001,-1.14496068169628e+000

7.78123957929823e+004,-2.23760581813562e+001,-1.16092982748354e+000

7.88986163594682e+004,-2.23760941548226e+001,-1.17712131082207e+000

7.99999999999995e+004,-2.23761311278779e+001,-1.19353821116908e+000

8.11167583832018e+004,-2.23761691279641e+001,-1.21018364997444e+000

8.22491061324848e+004,-2.23762081832575e+001,-1.22706079123006e+000

8.33972608672892e+004,-2.23762483226879e+001,-1.24417284201940e+000

8.45614432449099e+004,-2.23762895759577e+001,-1.26152305307819e+000

8.57418770029029e+004,-2.23763319735608e+001,-1.27911471935974e+000

8.69387890020841e+004,-2.23763755468031e+001,-1.29695118060413e+000

8.81524092701283e+004,-2.23764203278225e+001,-1.31503582191821e+000

8.93829710457770e+004,-2.23764663496096e+001,-1.33337207435760e+000

9.06307108236633e+004,-2.23765136460293e+001,-1.35196341551757e+000

9.18958683997622e+004,-2.23765622518419e+001,-1.37081337012958e+000

9.31786869174758e+004,-2.23766122027258e+001,-1.38992551066299e+000

9.44794129143618e+004,-2.23766635352997e+001,-1.40930345793545e+000

9.57982963695136e+004,-2.23767162871456e+001,-1.42895088172773e+000

9.71355907516031e+004,-2.23767704968324e+001,-1.44887150140665e+000

9.84915530675926e+004,-2.23768262039401e+001,-1.46906908655200e+000

9.98664439121282e+004,-2.23768834490837e+001,-1.48954745759307e+000

1.01260527517622e+005,-2.23769422739387e+001,-1.51031048644936e+000

1.02674071805032e+005,-2.23770027212661e+001,-1.53136209717844e+000

1.04107348435354e+005,-2.23770648349385e+001,-1.55270626663071e+000

1.05560632861831e+005,-2.23771286599665e+001,-1.57434702511056e+000

1.07034204382888e+005,-2.23771942425252e+001,-1.59628845704377e+000

1.08528346195813e+005,-2.23772616299821e+001,-1.61853470165218e+000

1.10043345451179e+005,-2.23773308709244e+001,-1.64108995363392e+000

1.11579493308032e+005,-2.23774020151878e+001,-1.66395846385112e+000

1.13137084989847e+005,-2.23774751138851e+001,-1.68714454002444e+000

1.14716419841265e+005,-2.23775502194353e+001,-1.71065254743373e+000

1.16317801385624e+005,-2.23776273855938e+001,-1.73448690962453e+000

1.17941537383287e+005,-2.23777066674824e+001,-1.75865210912373e+000

1.19587939890794e+005,-2.23777881216203e+001,-1.78315268815878e+000

1.21257325320831e+005,-2.23778718059550e+001,-1.80799324938664e+000

1.22950014503040e+005,-2.23779577798942e+001,-1.83317845662710e+000

1.24666332745679e+005,-2.23780461043381e+001,-1.85871303560422e+000

1.26406609898139e+005,-2.23781368417118e+001,-1.88460177469426e+000

1.28171180414339e+005,-2.23782300559986e+001,-1.91084952567961e+000

1.29960383416997e+005,-2.23783258127733e+001,-1.93746120451076e+000

1.31774562762811e+005,-2.23784241792364e+001,-1.96444179207418e+000

1.33614067108538e+005,-2.23785252242485e+001,-1.99179633496731e+000

1.35479249978003e+005,-2.23786290183646e+001,-2.01952994628113e+000

1.37370469830040e+005,-2.23787356338704e+001,-2.04764780638801e+000

1.39288090127379e+005,-2.23788451448166e+001,-2.07615516373827e+000

1.41232479406504e+005,-2.23789576270558e+001,-2.10505733566295e+000

1.43204011348474e+005,-2.23790731582783e+001,-2.13435970918346e+000

1.45203064850745e+005,-2.23791918180492e+001,-2.16406774182791e+000

1.47230024099979e+005,-2.23793136878450e+001,-2.19418696245582e+000

1.49285278645888e+005,-2.23794388510912e+001,-2.22472297208965e+000

1.51369223476094e+005,-2.23795673931993e+001,-2.25568144475273e+000

1.53482259092041e+005,-2.23796994016053e+001,-2.28706812831484e+000

1.55624791585964e+005,-2.23798349658073e+001,-2.31888884534660e+000

1.57797232718936e+005,-2.23799741774039e+001,-2.35114949397874e+000

1.59999999999999e+005,-2.23801171301322e+001,-2.38385604877201e+000

1.62233516766403e+005,-2.23802639199072e+001,-2.41701456159222e+000

1.64498212264969e+005,-2.23804146448595e+001,-2.45063116249472e+000

1.66794521734578e+005,-2.23805694053746e+001,-2.48471206061658e+000

1.69122886489819e+005,-2.23807283041315e+001,-2.51926354507618e+000

1.71483754005805e+005,-2.23808914461418e+001,-2.55429198588223e+000

1.73877578004168e+005,-2.23810589387876e+001,-2.58980383485091e+000

1.76304818540256e+005,-2.23812308918613e+001,-2.62580562653129e+000

1.78765942091554e+005,-2.23814074176034e+001,-2.66230397913909e+000

1.81261421647326e+005,-2.23815886307412e+001,-2.69930559550310e+000

1.83791736799524e+005,-2.23817746485269e+001,-2.73681726401549e+000

1.86357373834951e+005,-2.23819655907759e+001,-2.77484585959660e+000

1.88958825828723e+005,-2.23821615799042e+001,-2.81339834466778e+000

1.91596592739027e+005,-2.23823627409659e+001,-2.85248177013455e+000

1.94271181503206e+005,-2.23825692016899e+001,-2.89210327638092e+000

1.96983106135185e+005,-2.23827810925172e+001,-2.93227009427379e+000

1.99732887824256e+005,-2.23829985466361e+001,-2.97298954618217e+000

2.02521055035243e+005,-2.23832217000184e+001,-3.01426904700299e+000

2.05348143610063e+005,-2.23834506914540e+001,-3.05611610520459e+000

2.08214696870707e+005,-2.23836856625854e+001,-3.09853832388045e+000

2.11121265723661e+005,-2.23839267579412e+001,-3.14154340181711e+000

2.14068408765776e+005,-2.23841741249694e+001,-3.18513913457613e+000

2.17056692391625e+005,-2.23844279140690e+001,-3.22933341559110e+000

2.20086690902357e+005,-2.23846882786215e+001,-3.27413423728064e+000

2.23158986616063e+005,-2.23849553750213e+001,-3.31954969217610e+000

2.26274169979693e+005,-2.23852293627054e+001,-3.36558797406796e+000

2.29432839682530e+005,-2.23855104041814e+001,-3.41225737916900e+000

2.32635602771247e+005,-2.23857986650553e+001,-3.45956630729647e+000

2.35883074766574e+005,-2.23860943140578e+001,-3.50752326307378e+000

2.39175879781588e+005,-2.23863975230695e+001,-3.55613685715292e+000

2.42514650641661e+005,-2.23867084671453e+001,-3.60541580745906e+000

2.45900029006080e+005,-2.23870273245370e+001,-3.65536894045529e+000

2.49332665491357e+005,-2.23873542767154e+001,-3.70600519243504e+000

2.52813219796278e+005,-2.23876895083907e+001,-3.75733361083605e+000

2.56342360828676e+005,-2.23880332075320e+001,-3.80936335558235e+000

2.59920766833993e+005,-2.23883855653852e+001,-3.86210370045409e+000

2.63549125525621e+005,-2.23887467764899e+001,-3.91556403448390e+000

2.67228134217075e+005,-2.23891170386954e+001,-3.96975386338676e+000

2.70958499956006e+005,-2.23894965531745e+001,-4.02468281101869e+000

2.74740939660078e+005,-2.23898855244374e+001,-4.08036062087110e+000

2.78576180254757e+005,-2.23902841603434e+001,-4.13679715759802e+000

2.82464958813007e+005,-2.23906926721118e+001,-4.19400240858154e+000

2.86408022696948e+005,-2.23911112743323e+001,-4.25198648553414e+000

2.90406129701488e+005,-2.23915401849737e+001,-4.31075962614097e+000

2.94460048199957e+005,-2.23919796253918e+001,-4.37033219574537e+000

2.98570557291775e+005,-2.23924298203373e+001,-4.43071468907598e+000

3.02738446952187e+005,-2.23928909979618e+001,-4.49191773202009e+000

3.06964518184081e+005,-2.23933633898245e+001,-4.55395208344482e+000

3.11249583171928e+005,-2.23938472308975e+001,-4.61682863706603e+000

3.15594465437872e+005,-2.23943427595718e+001,-4.68055842337057e+000

3.19999999999997e+005,-2.23948502176625e+001,-4.74515261158901e+000

3.24467033532806e+005,-2.23953698504146e+001,-4.81062251172655e+000

3.28996424529938e+005,-2.23959019065091e+001,-4.87697957664853e+000

3.33589043469155e+005,-2.23964466380701e+001,-4.94423540422661e+000

3.38245772979638e+005,-2.23970043006723e+001,-5.01240173954594e+000

3.42967508011610e+005,-2.23975751533501e+001,-5.08149047717489e+000

3.47755156008335e+005,-2.23981594586083e+001,-5.15151366350085e+000

3.52609637080511e+005,-2.23987574824345e+001,-5.22248349913219e+000

3.57531884183106e+005,-2.23993694943142e+001,-5.29441234137019e+000

3.62522843294651e+005,-2.23999957672480e+001,-5.36731270675032e+000

3.67583473599047e+005,-2.24006365777724e+001,-5.44119727365805e+000

3.72714747669902e+005,-2.24012922059843e+001,-5.51607888501631e+000

3.77917651657445e+005,-2.24019629355688e+001,-5.59197055105169e+000

3.83193185478053e+005,-2.24026490538323e+001,-5.66888545213522e+000

3.88542363006410e+005,-2.24033508517408e+001,-5.74683694170302e+000

3.93966212270369e+005,-2.24040686239627e+001,-5.82583854925684e+000

3.99465775648511e+005,-2.24048026689194e+001,-5.90590398344501e+000

4.05042110070485e+005,-2.24055532888414e+001,-5.98704713522541e+000

4.10696287220124e+005,-2.24063207898327e+001,-6.06928208111091e+000

4.16429393741414e+005,-2.24071054819429e+001,-6.15262308649706e+000

4.22242531447321e+005,-2.24079076792483e+001,-6.23708460907457e+000

4.28136817531551e+005,-2.24087276999425e+001,-6.32268130232412e+000

4.34113384783250e+005,-2.24095658664367e+001,-6.40942801909385e+000

4.40173381804713e+005,-2.24104225054718e+001,-6.49733981526161e+000

4.46317973232124e+005,-2.24112979482415e+001,-6.58643195347752e+000

4.52548339959385e+005,-2.24121925305278e+001,-6.67671990698843e+000

4.58865679365059e+005,-2.24131065928504e+001,-6.76821936354278e+000

4.65271205542494e+005,-2.24140404806289e+001,-6.86094622937353e+000

4.71766149533147e+005,-2.24149945443611e+001,-6.95491663325771e+000

4.78351759563174e+005,-2.24159691398156e+001,-7.05014693065058e+000

4.85029301283321e+005,-2.24169646282414e+001,-7.14665370789162e+000

4.91800058012158e+005,-2.24179813765940e+001,-7.24445378648071e+000

4.98665330982714e+005,-2.24190197577807e+001,-7.34356422741826e+000

5.05626439592555e+005,-2.24200801509219e+001,-7.44400233561094e+000

5.12684721657352e+005,-2.24211629416346e+001,-7.54578566433301e+000

5.19841533667984e+005,-2.24222685223338e+001,-7.64893201974521e+000

5.27098251051240e+005,-2.24233972925556e+001,-7.75345946546195e+000

5.34456268434150e+005,-2.24245496593014e+001,-7.85938632716497e+000

5.41916999912011e+005,-2.24257260374041e+001,-7.96673119725625e+000

