Freq.,VOut,OutRef

1.00000000000000e+004,-8.18955508612179e+000,-1.41860001366633e-001

1.01395947979003e+004,-8.18955499899703e+000,-1.43840287470349e-001

1.02811382665607e+004,-8.18955490942215e+000,-1.45848217094572e-001

1.04246576084112e+004,-8.18955481732810e+000,-1.47884176119312e-001

1.05701804056138e+004,-8.18955472264408e+000,-1.49948555808974e-001

1.07177346253629e+004,-8.18955462529737e+000,-1.52041752889129e-001

1.08673486252606e+004,-8.18955452521281e+000,-1.54164169625635e-001

1.10190511587661e+004,-8.18955442231342e+000,-1.56316213897220e-001

1.11728713807222e+004,-8.18955431652007e+000,-1.58498299275834e-001

1.13288388529580e+004,-8.18955420775150e+000,-1.60710845105046e-001

1.14869835499703e+004,-8.18955409592367e+000,-1.62954276585674e-001

1.16473358646846e+004,-8.18955398095068e+000,-1.65229024849733e-001

1.18099266142953e+004,-8.18955386274405e+000,-1.67535527048073e-001

1.19747870461893e+004,-8.18955374121279e+000,-1.69874226433426e-001

1.21419488439505e+004,-8.18955361626329e+000,-1.72245572446285e-001

1.23114441334492e+004,-8.18955348779935e+000,-1.74650020799272e-001

1.24833054890161e+004,-8.18955335572220e+000,-1.77088033565672e-001

1.26575659397028e+004,-8.18955321993012e+000,-1.79560079268821e-001

1.28342589756290e+004,-8.18955308031849e+000,-1.82066632972256e-001

1.30134185544193e+004,-8.18955293677984e+000,-1.84608176369440e-001

1.31950791077289e+004,-8.18955278920382e+000,-1.87185197876670e-001

1.33792755478611e+004,-8.18955263747653e+000,-1.89798192729549e-001

1.35660432744767e+004,-8.18955248148126e+000,-1.92447663073713e-001

1.37554181813974e+004,-8.18955232109806e+000,-1.95134118063508e-001

1.39474366635040e+004,-8.18955215620324e+000,-1.97858073962096e-001

1.41421356237309e+004,-8.18955198666982e+000,-2.00620054236386e-001

1.43395524801583e+004,-8.18955181236724e+000,-2.03420589660501e-001

1.45397251732031e+004,-8.18955163316127e+000,-2.06260218416118e-001

1.47426921729110e+004,-8.18955144891377e+000,-2.09139486197188e-001

1.49484924863494e+004,-8.18955125948314e+000,-2.12058946311828e-001

1.51571656651040e+004,-8.18955106472329e+000,-2.15019159793261e-001

1.53687518128801e+004,-8.18955086448403e+000,-2.18020695505519e-001

1.55832915932100e+004,-8.18955065861117e+000,-2.21064130250850e-001

1.58008262372675e+004,-8.18955044694627e+000,-2.24150048880436e-001

1.60213975517924e+004,-8.18955022932621e+000,-2.27279044410574e-001

1.62450479271247e+004,-8.18955000558312e+000,-2.30451718134544e-001

1.64718203453514e+004,-8.18954977554463e+000,-2.33668679736072e-001

1.67017583885674e+004,-8.18954953903360e+000,-2.36930547408256e-001

1.69349062472505e+004,-8.18954929586774e+000,-2.40237947971911e-001

1.71713087287550e+004,-8.18954904585953e+000,-2.43591516997520e-001

1.74110112659224e+004,-8.18954878881633e+000,-2.46991898924529e-001

1.76540599258131e+004,-8.18954852454002e+000,-2.50439747186508e-001

1.79005014185594e+004,-8.18954825282687e+000,-2.53935724336808e-001

1.81503831063432e+004,-8.18954797346727e+000,-2.57480502176226e-001

1.84037530124975e+004,-8.18954768624600e+000,-2.61074761879135e-001

1.86606598307361e+004,-8.18954739094163e+000,-2.64719194127656e-001

1.89211529345119e+004,-8.18954708732614e+000,-2.68414499244527e-001

1.91852823865052e+004,-8.18954677516559e+000,-2.72161387323675e-001

1.94530989482457e+004,-8.18954645421930e+000,-2.75960578368361e-001

1.97246540898671e+004,-8.18954612423945e+000,-2.79812802433269e-001

1.99999999999999e+004,-8.18954578497159e+000,-2.83718799758486e-001

2.02791895958005e+004,-8.18954543615409e+000,-2.87679320914280e-001

2.05622765331213e+004,-8.18954507751774e+000,-2.91695126946699e-001

2.08493152168224e+004,-8.18954470878577e+000,-2.95766989521604e-001

2.11403608112276e+004,-8.18954432967366e+000,-2.99895691073625e-001

2.14354692507258e+004,-8.18954393988867e+000,-3.04082024956795e-001

2.17346972505211e+004,-8.18954353913009e+000,-3.08326795594204e-001

2.20381023175322e+004,-8.18954312708850e+000,-3.12630818635733e-001

2.23457427614443e+004,-8.18954270344567e+000,-3.16994921114028e-001

2.26576777059159e+004,-8.18954226787452e+000,-3.21419941600712e-001

2.29739670999406e+004,-8.18954182003880e+000,-3.25906730369034e-001

2.32946717293690e+004,-8.18954135959239e+000,-3.30456149559045e-001

2.36198532285905e+004,-8.18954088617981e+000,-3.35069073338021e-001

2.39495740923785e+004,-8.18954039943513e+000,-3.39746388074118e-001

2.42838976879009e+004,-8.18953989898237e+000,-3.44488992501101e-001

2.46228882668982e+004,-8.18953938443486e+000,-3.49297797893531e-001

2.49666109780322e+004,-8.18953885539472e+000,-3.54173728242788e-001

2.53151318794055e+004,-8.18953831145314e+000,-3.59117720430728e-001

2.56685179512580e+004,-8.18953775218946e+000,-3.64130724412949e-001

2.60268371088386e+004,-8.18953717717126e+000,-3.69213703398611e-001

2.63901582154578e+004,-8.18953658595385e+000,-3.74367634035700e-001

2.67585510957221e+004,-8.18953597807998e+000,-3.79593506599463e-001

2.71320865489533e+004,-8.18953535307933e+000,-3.84892325180828e-001

2.75108363627948e+004,-8.18953471046814e+000,-3.90265107881463e-001

2.78948733270080e+004,-8.18953404974939e+000,-3.95712887003880e-001

2.82842712474618e+004,-8.18953337041133e+000,-4.01236709256541e-001

2.86791049603164e+004,-8.18953267192812e+000,-4.06837635948492e-001

2.90794503464061e+004,-8.18953195375889e+000,-4.12516743195577e-001

2.94853843458219e+004,-8.18953121534753e+000,-4.18275122125525e-001

2.98969849726987e+004,-8.18953045612173e+000,-4.24113879090434e-001

3.03143313302078e+004,-8.18952967549352e+000,-4.30034135872287e-001

3.07375036257601e+004,-8.18952887285760e+000,-4.36037029906715e-001

3.11665831864199e+004,-8.18952804759201e+000,-4.42123714491919e-001

3.16016524745350e+004,-8.18952719905670e+000,-4.48295359017240e-001

3.20427951035848e+004,-8.18952632659380e+000,-4.54553149181409e-001

3.24900958542493e+004,-8.18952542952630e+000,-4.60898287225022e-001

3.29436406907028e+004,-8.18952450715815e+000,-4.67331992157426e-001

3.34035167771346e+004,-8.18952355877362e+000,-4.73855499989303e-001

3.38698124945009e+004,-8.18952258363630e+000,-4.80470063974098e-001

3.43426174575100e+004,-8.18952158098911e+000,-4.87176954842720e-001

3.48220225318448e+004,-8.18952055005302e+000,-4.93977461052094e-001

3.53081198516260e+004,-8.18951949002715e+000,-5.00872889027315e-001

3.58010028371187e+004,-8.18951840008748e+000,-5.07864563415166e-001

3.63007662126863e+004,-8.18951727938694e+000,-5.14953827334095e-001

3.68075060249948e+004,-8.18951612705365e+000,-5.22142042637434e-001

3.73213196614721e+004,-8.18951494219140e+000,-5.29430590166843e-001

3.78423058690237e+004,-8.18951372387799e+000,-5.36820870023127e-001

3.83705647730104e+004,-8.18951247116511e+000,-5.44314301829000e-001

3.89061978964912e+004,-8.18951118307726e+000,-5.51912325004195e-001

3.94493081797342e+004,-8.18950985861095e+000,-5.59616399040248e-001

3.99999999999998e+004,-8.18950849673405e+000,-5.67428003778586e-001

4.05583791916010e+004,-8.18950709638489e+000,-5.75348639694828e-001

4.11245530662425e+004,-8.18950565647150e+000,-5.83379828184289e-001

4.16986304336447e+004,-8.18950417587034e+000,-5.91523111855782e-001

4.22807216224550e+004,-8.18950265342592e+000,-5.99780054823637e-001

4.28709385014515e+004,-8.18950108794934e+000,-6.08152243009250e-001

4.34693945010421e+004,-8.18949947821789e+000,-6.16641284441777e-001

4.40762046350642e+004,-8.18949782297358e+000,-6.25248809567164e-001

4.46914855228886e+004,-8.18949612092216e+000,-6.33976471561205e-001

4.53153554118317e+004,-8.18949437073240e+000,-6.42825946641370e-001

4.59479341998812e+004,-8.18949257103453e+000,-6.51798934391733e-001

4.65893434587380e+004,-8.18949072041954e+000,-6.60897158083921e-001

4.72397064571810e+004,-8.18948881743774e+000,-6.70122365009059e-001

4.78991481847569e+004,-8.18948686059774e+000,-6.79476326809127e-001

4.85677953758016e+004,-8.18948484836505e+000,-6.88960839817653e-001

4.92457765337964e+004,-8.18948277916077e+000,-6.98577725401592e-001

4.99332219560642e+004,-8.18948065136076e+000,-7.08328830307616e-001

5.06302637588109e+004,-8.18947846329361e+000,-7.18216027017187e-001

5.13370359025159e+004,-8.18947621323970e+000,-7.28241214102195e-001

5.20536742176771e+004,-8.18947389942963e+000,-7.38406316587770e-001

5.27803164309155e+004,-8.18947152004266e+000,-7.48713286319825e-001

5.35171021914442e+004,-8.18946907320541e+000,-7.59164102336098e-001

5.42641730979066e+004,-8.18946655699007e+000,-7.69760771244671e-001

5.50216727255895e+004,-8.18946396941281e+000,-7.80505327606333e-001

5.57897466540159e+004,-8.18946130843224e+000,-7.91399834322167e-001

5.65685424949235e+004,-8.18945857194751e+000,-8.02446383026750e-001

5.73582099206328e+004,-8.18945575779678e+000,-8.13647094485763e-001

5.81589006928121e+004,-8.18945286375495e+000,-8.25004119002626e-001

5.89707686916437e+004,-8.18944988753227e+000,-8.36519636824622e-001

5.97939699453972e+004,-8.18944682677203e+000,-8.48195858560270e-001

6.06286626604156e+004,-8.18944367904862e+000,-8.60035025599536e-001

6.14750072515201e+004,-8.18944044186572e+000,-8.72039410539486e-001

6.23331663728396e+004,-8.18943711265359e+000,-8.84211317618832e-001

6.32033049490698e+004,-8.18943368876741e+000,-8.96553083153563e-001

6.40855902071694e+004,-8.18943016748478e+000,-9.09067075982610e-001

6.49801917084985e+004,-8.18942654600317e+000,-9.21755697918727e-001

6.58872813814055e+004,-8.18942282143782e+000,-9.34621384203836e-001

6.68070335542691e+004,-8.18941899081892e+000,-9.47666603972333e-001

6.77396249890018e+004,-8.18941505108926e+000,-9.60893860719921e-001

6.86852349150199e+004,-8.18941099910143e+000,-9.74305692778363e-001

6.96440450636895e+004,-8.18940683161503e+000,-9.87904673798651e-001

7.06162397032520e+004,-8.18940254529377e+000,-1.00169341323890e+000

7.16020056742374e+004,-8.18939813670261e+000,-1.01567455685900e+000

7.26015324253724e+004,-8.18939360230478e+000,-1.02985078722236e+000

7.36150120499896e+004,-8.18938893845832e+000,-1.04422482420537e+000

7.46426393229441e+004,-8.18938414141321e+000,-1.05879942551197e+000

7.56846117380472e+004,-8.18937920730768e+000,-1.07357738719667e+000

7.67411295460207e+004,-8.18937413216487e+000,-1.08856154419476e+000

7.78123957929823e+004,-8.18936891188920e+000,-1.10375477085745e+000

7.88986163594682e+004,-8.18936354226273e+000,-1.11915998149751e+000

7.99999999999995e+004,-8.18935801894136e+000,-1.13478013093911e+000

8.11167583832018e+004,-8.18935233745057e+000,-1.15061821507810e+000

8.22491061324848e+004,-8.18934649318145e+000,-1.16667727144905e+000

8.33972608672892e+004,-8.18934048138676e+000,-1.18296037979651e+000

8.45614432449099e+004,-8.18933429717617e+000,-1.19947066265920e+000

8.57418770029029e+004,-8.18932793551168e+000,-1.21621128595973e+000

8.69387890020841e+004,-8.18932139120325e+000,-1.23318545960076e+000

8.81524092701283e+004,-8.18931465890370e+000,-1.25039643807201e+000

8.93829710457770e+004,-8.18930773310379e+000,-1.26784752106375e+000

9.06307108236633e+004,-8.18930060812695e+000,-1.28554205408820e+000

9.18958683997622e+004,-8.18929327812388e+000,-1.30348342911163e+000

9.31786869174758e+004,-8.18928573706707e+000,-1.32167508519239e+000

9.44794129143618e+004,-8.18927797874503e+000,-1.34012050912808e+000

9.57982963695136e+004,-8.18926999675630e+000,-1.35882323611244e+000

9.71355907516031e+004,-8.18926178450317e+000,-1.37778685040073e+000

9.84915530675926e+004,-8.18925333518546e+000,-1.39701498598383e+000

9.98664439121282e+004,-8.18924464179386e+000,-1.41651132726972e+000

1.01260527517622e+005,-8.18923569710300e+000,-1.43627960977821e+000

1.02674071805032e+005,-8.18922649366444e+000,-1.45632362084071e+000

1.04107348435354e+005,-8.18921702379922e+000,-1.47664720031225e+000

1.05560632861831e+005,-8.18920727959049e+000,-1.49725424129055e+000

1.07034204382888e+005,-8.18919725287520e+000,-1.51814869084823e+000

1.08528346195813e+005,-8.18918693523639e+000,-1.53933455077076e+000

1.10043345451179e+005,-8.18917631799444e+000,-1.56081587830771e+000

1.11579493308032e+005,-8.18916539219853e+000,-1.58259678693086e+000

1.13137084989847e+005,-8.18915414861721e+000,-1.60468144710677e+000

1.14716419841265e+005,-8.18914257772937e+000,-1.62707408707493e+000

1.16317801385624e+005,-8.18913066971420e+000,-1.64977899363960e+000

1.17941537383287e+005,-8.18911841444123e+000,-1.67280051297081e+000

1.19587939890794e+005,-8.18910580145989e+000,-1.69614305141612e+000

1.21257325320831e+005,-8.18909281998844e+000,-1.71981107632467e+000

1.22950014503040e+005,-8.18907945890284e+000,-1.74380911688019e+000

1.24666332745679e+005,-8.18906570672520e+000,-1.76814176494564e+000

1.26406609898139e+005,-8.18905155161134e+000,-1.79281367592143e+000

1.28171180414339e+005,-8.18903698133852e+000,-1.81782956961161e+000

1.29960383416997e+005,-8.18902198329224e+000,-1.84319423110452e+000

1.31774562762811e+005,-8.18900654445298e+000,-1.86891251166276e+000

1.33614067108538e+005,-8.18899065138178e+000,-1.89498932962877e+000

1.35479249978003e+005,-8.18897429020609e+000,-1.92142967133768e+000

1.37370469830040e+005,-8.18895744660459e+000,-1.94823859204646e+000

1.39288090127379e+005,-8.18894010579137e+000,-1.97542121687465e+000

1.41232479406504e+005,-8.18892225249990e+000,-2.00298274175560e+000

1.43204011348474e+005,-8.18890387096627e+000,-2.03092843440311e+000

1.45203064850745e+005,-8.18888494491143e+000,-2.05926363529078e+000

1.47230024099979e+005,-8.18886545752345e+000,-2.08799375864242e+000

1.49285278645888e+005,-8.18884539143840e+000,-2.11712429343874e+000

1.51369223476094e+005,-8.18882472872102e+000,-2.14666080443603e+000

1.53482259092041e+005,-8.18880345084443e+000,-2.17660893319883e+000

1.55624791585964e+005,-8.18878153866928e+000,-2.20697439914660e+000

1.57797232718936e+005,-8.18875897242163e+000,-2.23776300061630e+000

1.59999999999999e+005,-8.18873573167069e+000,-2.26898061593635e+000

1.62233516766403e+005,-8.18871179530522e+000,-2.30063320451813e+000

1.64498212264969e+005,-8.18868714150917e+000,-2.33272680796150e+000

1.66794521734578e+005,-8.18866174773637e+000,-2.36526755117527e+000

1.69122886489819e+005,-8.18863559068460e+000,-2.39826164351316e+000

1.71483754005805e+005,-8.18860864626799e+000,-2.43171537992635e+000

1.73877578004168e+005,-8.18858088958918e+000,-2.46563514213125e+000

1.76304818540256e+005,-8.18855229490974e+000,-2.50002739979420e+000

1.78765942091554e+005,-8.18852283562016e+000,-2.53489871173136e+000

1.81261421647326e+005,-8.18849248420797e+000,-2.57025572712798e+000

1.83791736799524e+005,-8.18846121222527e+000,-2.60610518677317e+000

1.86357373834951e+005,-8.18842899025490e+000,-2.64245392431159e+000

1.88958825828723e+005,-8.18839578787498e+000,-2.67930886751610e+000

1.91596592739027e+005,-8.18836157362285e+000,-2.71667703957433e+000

1.94271181503206e+005,-8.18832631495690e+000,-2.75456556039759e+000

1.96983106135185e+005,-8.18828997821751e+000,-2.79298164794735e+000

1.99732887824256e+005,-8.18825252858646e+000,-2.83193261958008e+000

2.02521055035243e+005,-8.18821393004458e+000,-2.87142589341373e+000

2.05348143610063e+005,-8.18817414532824e+000,-2.91146898971281e+000

2.08214696870707e+005,-8.18813313588393e+000,-2.95206953229537e+000

2.11121265723661e+005,-8.18809086182140e+000,-2.99323524996018e+000

2.14068408765776e+005,-8.18804728186500e+000,-3.03497397793531e+000

2.17056692391625e+005,-8.18800235330322e+000,-3.07729365934971e+000

2.20086690902357e+005,-8.18795603193666e+000,-3.12020234672585e+000

2.23158986616063e+005,-8.18790827202371e+000,-3.16370820349761e+000

2.26274169979693e+005,-8.18785902622490e+000,-3.20781950554815e+000

2.29432839682530e+005,-8.18780824554455e+000,-3.25254464277612e+000

2.32635602771247e+005,-8.18775587927111e+000,-3.29789212068317e+000

2.35883074766574e+005,-8.18770187491494e+000,-3.34387056198823e+000

2.39175879781588e+005,-8.18764617814402e+000,-3.39048870826769e+000

2.42514650641661e+005,-8.18758873271753e+000,-3.43775542162217e+000

2.45900029006080e+005,-8.18752948041713e+000,-3.48567968636942e+000

2.49332665491357e+005,-8.18746836097591e+000,-3.53427061076650e+000

2.52813219796278e+005,-8.18740531200495e+000,-3.58353742875946e+000

2.56342360828676e+005,-8.18734026891727e+000,-3.63348950176330e+000

2.59920766833993e+005,-8.18727316484958e+000,-3.68413632047164e+000

2.63549125525621e+005,-8.18720393058113e+000,-3.73548750669646e+000

2.67228134217075e+005,-8.18713249445027e+000,-3.78755281524023e+000

2.70958499956006e+005,-8.18705878226778e+000,-3.84034213580171e+000

2.74740939660078e+005,-8.18698271722818e+000,-3.89386549491246e+000

2.78576180254757e+005,-8.18690421981755e+000,-3.94813305790981e+000

2.82464958813007e+005,-8.18682320771878e+000,-4.00315513094465e+000

2.86408022696948e+005,-8.18673959571414e+000,-4.05894216302367e+000

2.90406129701488e+005,-8.18665329558419e+000,-4.11550474809182e+000

2.94460048199957e+005,-8.18656421600446e+000,-4.17285362714934e+000

2.98570557291775e+005,-8.18647226243840e+000,-4.23099969041062e+000

3.02738446952187e+005,-8.18637733702759e+000,-4.28995397950177e+000

3.06964518184081e+005,-8.18627933847862e+000,-4.34972768969986e+000

3.11249583171928e+005,-8.18617816194671e+000,-4.41033217221432e+000

3.15594465437872e+005,-8.18607369891614e+000,-4.47177893651246e+000

3.19999999999997e+005,-8.18596583707738e+000,-4.53407965268796e+000

3.24467033532806e+005,-8.18585446020069e+000,-4.59724615387768e+000

3.28996424529938e+005,-8.18573944800664e+000,-4.66129043872239e+000

3.33589043469155e+005,-8.18562067603300e+000,-4.72622467387829e+000

3.38245772979638e+005,-8.18549801549812e+000,-4.79206119657646e+000

3.42967508011610e+005,-8.18537133316118e+000,-4.85881251723344e+000

3.47755156008335e+005,-8.18524049117851e+000,-4.92649132211363e+000

3.52609637080511e+005,-8.18510534695674e+000,-4.99511047604524e+000

3.57531884183106e+005,-8.18496575300223e+000,-5.06468302519019e+000

3.62522843294651e+005,-8.18482155676704e+000,-5.13522219987021e+000

3.67583473599047e+005,-8.18467260049150e+000,-5.20674141744988e+000

3.72714747669902e+005,-8.18451872104285e+000,-5.27925428527878e+000

3.77917651657445e+005,-8.18435974975069e+000,-5.35277460369240e+000

3.83193185478053e+005,-8.18419551223882e+000,-5.42731636907518e+000

3.88542363006410e+005,-8.18402582825330e+000,-5.50289377698550e+000

3.93966212270369e+005,-8.18385051148734e+000,-5.57952122534488e+000

3.99465775648511e+005,-8.18366936940247e+000,-5.65721331769194e+000

4.05042110070485e+005,-8.18348220304614e+000,-5.73598486650351e+000

4.10696287220124e+005,-8.18328880686617e+000,-5.81585089658295e+000

4.16429393741414e+005,-8.18308896852126e+000,-5.89682664851840e+000

4.22242531447321e+005,-8.18288246868865e+000,-5.97892758221031e+000

4.28136817531551e+005,-8.18266908086781e+000,-6.06216938047278e+000

4.34113384783250e+005,-8.18244857118111e+000,-6.14656795270599e+000

4.40173381804713e+005,-8.18222069817125e+000,-6.23213943864335e+000

4.46317973232124e+005,-8.18198521259480e+000,-6.31890021217611e+000

4.52548339959385e+005,-8.18174185721316e+000,-6.40686688525213e+000

4.58865679365059e+005,-8.18149036657988e+000,-6.49605631185449e+000

4.65271205542494e+005,-8.18123046682465e+000,-6.58648559205870e+000

4.71766149533147e+005,-8.18096187543448e+000,-6.67817207617010e+000

4.78351759563174e+005,-8.18068430103135e+000,-6.77113336894377e+000

4.85029301283321e+005,-8.18039744314681e+000,-6.86538733388573e+000

4.91800058012158e+005,-8.18010099199355e+000,-6.96095209763913e+000

4.98665330982714e+005,-8.17979462823360e+000,-7.05784605445438e+000

5.05626439592555e+005,-8.17947802274374e+000,-7.15608787074556e+000

5.12684721657352e+005,-8.17915083637734e+000,-7.25569648973441e+000

5.19841533667984e+005,-8.17881271972346e+000,-7.35669113618111e+000

5.27098251051240e+005,-8.17846331286270e+000,-7.45909132120440e+000

5.34456268434150e+005,-8.17810224511944e+000,-7.56291684719337e+000

5.41916999912011e+005,-8.17772913481172e+000,-7.66818781280735e+000

