Freq.,VOut,OutRef

1.00000000000000e+004,-3.10039765133689e+001,-9.94076229205258e-002

1.01395947979003e+004,-3.10039768092521e+001,-1.00795287452669e-001

1.02811382665607e+004,-3.10039771134522e+001,-1.02202322457719e-001

1.04246576084112e+004,-3.10039774262029e+001,-1.03628998313239e-001

1.05701804056138e+004,-3.10039777477447e+001,-1.05075589165981e-001

1.07177346253629e+004,-3.10039780783243e+001,-1.06542372994456e-001

1.08673486252606e+004,-3.10039784181962e+001,-1.08029631650064e-001

1.10190511587661e+004,-3.10039787676208e+001,-1.09537650923715e-001

1.11728713807222e+004,-3.10039791268674e+001,-1.11066720588217e-001

1.13288388529580e+004,-3.10039794962113e+001,-1.12617134466239e-001

1.14869835499703e+004,-3.10039798759366e+001,-1.14189190475678e-001

1.16473358646846e+004,-3.10039802663349e+001,-1.15783190694952e-001

1.18099266142953e+004,-3.10039806677064e+001,-1.17399441415123e-001

1.19747870461893e+004,-3.10039810803589e+001,-1.19038253205696e-001

1.21419488439505e+004,-3.10039815046100e+001,-1.20699940964021e-001

1.23114441334492e+004,-3.10039819407852e+001,-1.22384823986630e-001

1.24833054890161e+004,-3.10039823892197e+001,-1.24093226023184e-001

1.26575659397028e+004,-3.10039828502579e+001,-1.25825475341116e-001

1.28342589756290e+004,-3.10039833242540e+001,-1.27581904788496e-001

1.30134185544193e+004,-3.10039838115721e+001,-1.29362851857656e-001

1.31950791077289e+004,-3.10039843125866e+001,-1.31168658748990e-001

1.33792755478611e+004,-3.10039848276823e+001,-1.32999672439707e-001

1.35660432744767e+004,-3.10039853572546e+001,-1.34856244747432e-001

1.37554181813974e+004,-3.10039859017104e+001,-1.36738732398498e-001

1.39474366635040e+004,-3.10039864614678e+001,-1.38647497097081e-001

1.41421356237309e+004,-3.10039870369569e+001,-1.40582905591293e-001

1.43395524801583e+004,-3.10039876286194e+001,-1.42545329750646e-001

1.45397251732031e+004,-3.10039882369099e+001,-1.44535146629088e-001

1.47426921729110e+004,-3.10039888622953e+001,-1.46552738543037e-001

1.49484924863494e+004,-3.10039895052560e+001,-1.48598493142396e-001

1.51571656651040e+004,-3.10039901662857e+001,-1.50672803485058e-001

1.53687518128801e+004,-3.10039908458919e+001,-1.52776068112615e-001

1.55832915932100e+004,-3.10039915445967e+001,-1.54908691125733e-001

1.58008262372675e+004,-3.10039922629362e+001,-1.57071082265128e-001

1.60213975517924e+004,-3.10039930014622e+001,-1.59263656984305e-001

1.62450479271247e+004,-3.10039937607417e+001,-1.61486836533604e-001

1.64718203453514e+004,-3.10039945413575e+001,-1.63741048041121e-001

1.67017583885674e+004,-3.10039953439088e+001,-1.66026724591971e-001

1.69349062472505e+004,-3.10039961690120e+001,-1.68344305311419e-001

1.71713087287550e+004,-3.10039970173003e+001,-1.70694235451424e-001

1.74110112659224e+004,-3.10039978894249e+001,-1.73076966474428e-001

1.76540599258131e+004,-3.10039987860551e+001,-1.75492956140030e-001

1.79005014185594e+004,-3.10039997078793e+001,-1.77942668592111e-001

1.81503831063432e+004,-3.10040006556050e+001,-1.80426574448156e-001

1.84037530124975e+004,-3.10040016299594e+001,-1.82945150891314e-001

1.86606598307361e+004,-3.10040026316903e+001,-1.85498881758457e-001

1.89211529345119e+004,-3.10040036615666e+001,-1.88088257633142e-001

1.91852823865052e+004,-3.10040047203783e+001,-1.90713775944616e-001

1.94530989482457e+004,-3.10040058089382e+001,-1.93375941054828e-001

1.97246540898671e+004,-3.10040069280812e+001,-1.96075264362969e-001

1.99999999999999e+004,-3.10040080786661e+001,-1.98812264397217e-001

2.02791895958005e+004,-3.10040092615757e+001,-2.01587466917780e-001

2.05622765331213e+004,-3.10040104777174e+001,-2.04401405015887e-001

2.08493152168224e+004,-3.10040117280242e+001,-2.07254619215873e-001

2.11403608112276e+004,-3.10040130134550e+001,-2.10147657580495e-001

2.14354692507258e+004,-3.10040143349958e+001,-2.13081075811936e-001

2.17346972505211e+004,-3.10040156936603e+001,-2.16055437361442e-001

2.20381023175322e+004,-3.10040170904903e+001,-2.19071313536509e-001

2.23457427614443e+004,-3.10040185265571e+001,-2.22129283608024e-001

2.26576777059159e+004,-3.10040200029618e+001,-2.25229934924428e-001

2.29739670999406e+004,-3.10040215208367e+001,-2.28373863019680e-001

2.32946717293690e+004,-3.10040230813452e+001,-2.31561671732732e-001

2.36198532285905e+004,-3.10040246856838e+001,-2.34793973317940e-001

2.39495740923785e+004,-3.10040263350824e+001,-2.38071388563328e-001

2.42838976879009e+004,-3.10040280308051e+001,-2.41394546911781e-001

2.46228882668982e+004,-3.10040297741520e+001,-2.44764086575951e-001

2.49666109780322e+004,-3.10040315664587e+001,-2.48180654667751e-001

2.53151318794055e+004,-3.10040334090989e+001,-2.51644907313948e-001

2.56685179512580e+004,-3.10040353034846e+001,-2.55157509786801e-001

2.60268371088386e+004,-3.10040372510672e+001,-2.58719136629354e-001

2.63901582154578e+004,-3.10040392533387e+001,-2.62330471784199e-001

2.67585510957221e+004,-3.10040413118330e+001,-2.65992208722519e-001

2.71320865489533e+004,-3.10040434281267e+001,-2.69705050580064e-001

2.75108363627948e+004,-3.10040456038408e+001,-2.73469710287278e-001

2.78948733270080e+004,-3.10040478406414e+001,-2.77286910707894e-001

2.82842712474618e+004,-3.10040501402412e+001,-2.81157384775890e-001

2.86791049603164e+004,-3.10040525044009e+001,-2.85081875634690e-001

2.90794503464061e+004,-3.10040549349303e+001,-2.89061136779499e-001

2.94853843458219e+004,-3.10040574336898e+001,-2.93095932201131e-001

2.98969849726987e+004,-3.10040600025921e+001,-2.97187036529754e-001

3.03143313302078e+004,-3.10040626436028e+001,-3.01335235184774e-001

3.07375036257601e+004,-3.10040653587430e+001,-3.05541324522577e-001

3.11665831864199e+004,-3.10040681500896e+001,-3.09806111990218e-001

3.16016524745350e+004,-3.10040710197782e+001,-3.14130416275752e-001

3.20427951035848e+004,-3.10040739700035e+001,-3.18515067466836e-001

3.24900958542493e+004,-3.10040770030217e+001,-3.22960907208469e-001

3.29436406907028e+004,-3.10040801211520e+001,-3.27468788859449e-001

3.34035167771346e+004,-3.10040833267782e+001,-3.32039577660965e-001

3.38698124945009e+004,-3.10040866223507e+001,-3.36674150894600e-001

3.43426174575100e+004,-3.10040900103882e+001,-3.41373398052343e-001

3.48220225318448e+004,-3.10040934934797e+001,-3.46138221005507e-001

3.53081198516260e+004,-3.10040970742862e+001,-3.50969534174860e-001

3.58010028371187e+004,-3.10041007555433e+001,-3.55868264703663e-001

3.63007662126863e+004,-3.10041045400623e+001,-3.60835352635871e-001

3.68075060249948e+004,-3.10041084307332e+001,-3.65871751092152e-001

3.73213196614721e+004,-3.10041124305265e+001,-3.70978426451267e-001

3.78423058690237e+004,-3.10041165424950e+001,-3.76156358534192e-001

3.83705647730104e+004,-3.10041207697771e+001,-3.81406540787230e-001

3.89061978964912e+004,-3.10041251155980e+001,-3.86729980472946e-001

3.94493081797342e+004,-3.10041295832731e+001,-3.92127698858918e-001

3.99999999999998e+004,-3.10041341762097e+001,-3.97600731411405e-001

4.05583791916010e+004,-3.10041388979101e+001,-4.03150127990917e-001

4.11245530662425e+004,-3.10041437519735e+001,-4.08776953052658e-001

4.16986304336447e+004,-3.10041487420998e+001,-4.14482285843569e-001

4.22807216224550e+004,-3.10041538720911e+001,-4.20267220610358e-001

4.28709385014515e+004,-3.10041591458555e+001,-4.26132866802839e-001

4.34693945010421e+004,-3.10041645674093e+001,-4.32080349285325e-001

4.40762046350642e+004,-3.10041701408804e+001,-4.38110808548820e-001

4.46914855228886e+004,-3.10041758705113e+001,-4.44225400922444e-001

4.53153554118317e+004,-3.10041817606621e+001,-4.50425298795904e-001

4.59479341998812e+004,-3.10041878158135e+001,-4.56711690838918e-001

4.65893434587380e+004,-3.10041940405709e+001,-4.63085782221192e-001

4.72397064571810e+004,-3.10042004396667e+001,-4.69548794844931e-001

4.78991481847569e+004,-3.10042070179648e+001,-4.76101967569413e-001

4.85677953758016e+004,-3.10042137804635e+001,-4.82746556446884e-001

4.92457765337964e+004,-3.10042207322994e+001,-4.89483834955508e-001

4.99332219560642e+004,-3.10042278787510e+001,-4.96315094242923e-001

5.06302637588109e+004,-3.10042352252430e+001,-5.03241643362033e-001

5.13370359025159e+004,-3.10042427773496e+001,-5.10264809521558e-001

5.20536742176771e+004,-3.10042505407994e+001,-5.17385938330177e-001

5.27803164309155e+004,-3.10042585214784e+001,-5.24606394052889e-001

5.35171021914442e+004,-3.10042667254356e+001,-5.31927559861122e-001

5.42641730979066e+004,-3.10042751588866e+001,-5.39350838095050e-001

5.50216727255895e+004,-3.10042838282180e+001,-5.46877650522789e-001

5.57897466540159e+004,-3.10042927399925e+001,-5.54509438607526e-001

5.65685424949235e+004,-3.10043019009535e+001,-5.62247663773901e-001

5.73582099206328e+004,-3.10043113180296e+001,-5.70093807681613e-001

5.81589006928121e+004,-3.10043209983401e+001,-5.78049372501591e-001

5.89707686916437e+004,-3.10043309491998e+001,-5.86115881192939e-001

5.97939699453972e+004,-3.10043411781244e+001,-5.94294877787617e-001

6.06286626604156e+004,-3.10043516928356e+001,-6.02587927677059e-001

6.14750072515201e+004,-3.10043625012671e+001,-6.10996617900762e-001

6.23331663728396e+004,-3.10043736115696e+001,-6.19522557441769e-001

6.32033049490698e+004,-3.10043850321172e+001,-6.28167377523267e-001

6.40855902071694e+004,-3.10043967715131e+001,-6.36932731910175e-001

6.49801917084985e+004,-3.10044088385954e+001,-6.45820297216329e-001

6.58872813814055e+004,-3.10044212424440e+001,-6.54831773209391e-001

6.68070335542691e+004,-3.10044339923865e+001,-6.63968883128285e-001

6.77396249890018e+004,-3.10044470980046e+001,-6.73233373999578e-001

6.86852349150199e+004,-3.10044605691414e+001,-6.82627016955712e-001

6.96440450636895e+004,-3.10044744159077e+001,-6.92151607563367e-001

7.06162397032520e+004,-3.10044886486895e+001,-7.01808966151254e-001

7.16020056742374e+004,-3.10045032781550e+001,-7.11600938143462e-001

7.26015324253724e+004,-3.10045183152617e+001,-7.21529394398583e-001

7.36150120499896e+004,-3.10045337712648e+001,-7.31596231548564e-001

7.46426393229441e+004,-3.10045496577240e+001,-7.41803372347856e-001

7.56846117380472e+004,-3.10045659865120e+001,-7.52152766021752e-001

7.67411295460207e+004,-3.10045827698226e+001,-7.62646388621516e-001

7.78123957929823e+004,-3.10046000201786e+001,-7.73286243384354e-001

7.88986163594682e+004,-3.10046177504410e+001,-7.84074361095468e-001

7.99999999999995e+004,-3.10046359738172e+001,-7.95012800456855e-001

8.11167583832018e+004,-3.10046547038698e+001,-8.06103648459753e-001

8.22491061324848e+004,-3.10046739545264e+001,-8.17349020760676e-001

8.33972608672892e+004,-3.10046937400880e+001,-8.28751062065375e-001

8.45614432449099e+004,-3.10047140752396e+001,-8.40311946511349e-001

8.57418770029029e+004,-3.10047349750589e+001,-8.52033878061822e-001

8.69387890020841e+004,-3.10047564550269e+001,-8.63919090900480e-001

8.81524092701283e+004,-3.10047785310382e+001,-8.75969849830928e-001

8.93829710457770e+004,-3.10048012194108e+001,-8.88188450682152e-001

9.06307108236633e+004,-3.10048245368976e+001,-9.00577220718733e-001

9.18958683997622e+004,-3.10048485006965e+001,-9.13138519055390e-001

9.31786869174758e+004,-3.10048731284620e+001,-9.25874737077191e-001

9.44794129143618e+004,-3.10048984383163e+001,-9.38788298862821e-001

9.57982963695136e+004,-3.10049244488611e+001,-9.51881661615671e-001

9.71355907516031e+004,-3.10049511791893e+001,-9.65157316097835e-001

9.84915530675926e+004,-3.10049786488974e+001,-9.78617787069104e-001

9.98664439121282e+004,-3.10050068780974e+001,-9.92265633732938e-001

1.01260527517622e+005,-3.10050358874295e+001,-1.00610345018568e+000

1.02674071805032e+005,-3.10050656980751e+001,-1.02013386587221e+000

1.04107348435354e+005,-3.10050963317702e+001,-1.03435954604510e+000

1.05560632861831e+005,-3.10051278108179e+001,-1.04878319223230e+000

1.07034204382888e+005,-3.10051601581028e+001,-1.06340754270555e+000

1.08528346195813e+005,-3.10051933971047e+001,-1.07823537295821e+000

1.10043345451179e+005,-3.10052275519123e+001,-1.09326949618753e+000

1.11579493308032e+005,-3.10052626472385e+001,-1.10851276377890e+000

1.13137084989847e+005,-3.10052987084342e+001,-1.12396806580170e+000

1.14716419841265e+005,-3.10053357615036e+001,-1.13963833150533e+000

1.16317801385624e+005,-3.10053738331197e+001,-1.15552652982311e+000

1.17941537383287e+005,-3.10054129506393e+001,-1.17163566988142e+000

1.19587939890794e+005,-3.10054531421190e+001,-1.18796880151558e+000

1.21257325320831e+005,-3.10054944363311e+001,-1.20452901578851e+000

1.22950014503040e+005,-3.10055368627799e+001,-1.22131944551844e+000

1.24666332745679e+005,-3.10055804517185e+001,-1.23834326581028e+000

1.26406609898139e+005,-3.10056252341651e+001,-1.25560369459369e+000

1.28171180414339e+005,-3.10056712419205e+001,-1.27310399316573e+000

1.29960383416997e+005,-3.10057185075854e+001,-1.29084746674205e+000

1.31774562762811e+005,-3.10057670645775e+001,-1.30883746501191e+000

1.33614067108538e+005,-3.10058169471501e+001,-1.32707738269822e+000

1.35479249978003e+005,-3.10058681904095e+001,-1.34557066012790e+000

1.37370469830040e+005,-3.10059208303336e+001,-1.36432078380283e+000

1.39288090127379e+005,-3.10059749037907e+001,-1.38333128698188e+000

1.41232479406504e+005,-3.10060304485579e+001,-1.40260575026634e+000

1.43204011348474e+005,-3.10060875033403e+001,-1.42214780219233e+000

1.45203064850745e+005,-3.10061461077904e+001,-1.44196111982949e+000

1.47230024099979e+005,-3.10062063025274e+001,-1.46204942938708e+000

1.49285278645888e+005,-3.10062681291568e+001,-1.48241650682511e+000

1.51369223476094e+005,-3.10063316302906e+001,-1.50306617847267e+000

1.53482259092041e+005,-3.10063968495673e+001,-1.52400232165460e+000

1.55624791585964e+005,-3.10064638316718e+001,-1.54522886532077e+000

1.57797232718936e+005,-3.10065326223563e+001,-1.56674979068707e+000

1.59999999999999e+005,-3.10066032684606e+001,-1.58856913188082e+000

1.62233516766403e+005,-3.10066758179332e+001,-1.61069097659215e+000

1.64498212264969e+005,-3.10067503198518e+001,-1.63311946673523e+000

1.66794521734578e+005,-3.10068268244444e+001,-1.65585879911573e+000

1.69122886489819e+005,-3.10069053831109e+001,-1.67891322610444e+000

1.71483754005805e+005,-3.10069860484436e+001,-1.70228705631978e+000

1.73877578004168e+005,-3.10070688742492e+001,-1.72598465531853e+000

1.76304818540256e+005,-3.10071539155698e+001,-1.75001044629164e+000

1.78765942091554e+005,-3.10072412287046e+001,-1.77436891077245e+000

1.81261421647326e+005,-3.10073308712311e+001,-1.79906458934841e+000

1.83791736799524e+005,-3.10074229020270e+001,-1.82410208238376e+000

1.86357373834951e+005,-3.10075173812916e+001,-1.84948605075097e+000

1.88958825828723e+005,-3.10076143705673e+001,-1.87522121656899e+000

1.91596592739027e+005,-3.10077139327606e+001,-1.90131236395328e+000

1.94271181503206e+005,-3.10078161321649e+001,-1.92776433977024e+000

1.96983106135185e+005,-3.10079210344803e+001,-1.95458205440797e+000

1.99732887824256e+005,-3.10080287068360e+001,-1.98177048254971e+000

2.02521055035243e+005,-3.10081392178108e+001,-2.00933466396197e+000

2.05348143610063e+005,-3.10082526374550e+001,-2.03727970429025e+000

2.08214696870707e+005,-3.10083690373102e+001,-2.06561077586748e+000

2.11121265723661e+005,-3.10084884904311e+001,-2.09433311853079e+000

2.14068408765776e+005,-3.10086110714055e+001,-2.12345204045128e+000

2.17056692391625e+005,-3.10087368563751e+001,-2.15297291897536e+000

2.20086690902357e+005,-3.10088659230549e+001,-2.18290120147680e+000

2.23158986616063e+005,-3.10089983507540e+001,-2.21324240622216e+000

2.26274169979693e+005,-3.10091342203951e+001,-2.24400212324788e+000

2.29432839682530e+005,-3.10092736145333e+001,-2.27518601525321e+000

2.32635602771247e+005,-3.10094166173758e+001,-2.30679981850302e+000

2.35883074766574e+005,-3.10095633148007e+001,-2.33884934374806e+000

2.39175879781588e+005,-3.10097137943753e+001,-2.37134047715744e+000

2.42514650641661e+005,-3.10098681453743e+001,-2.40427918126897e+000

2.45900029006080e+005,-3.10100264587979e+001,-2.43767149595255e+000

2.49332665491357e+005,-3.10101888273890e+001,-2.47152353939256e+000

2.52813219796278e+005,-3.10103553456508e+001,-2.50584150908510e+000

2.56342360828676e+005,-3.10105261098633e+001,-2.54063168285417e+000

2.59920766833993e+005,-3.10107012181001e+001,-2.57590041988637e+000

2.63549125525621e+005,-3.10108807702443e+001,-2.61165416178438e+000

2.67228134217075e+005,-3.10110648680048e+001,-2.64789943363923e+000

2.70958499956006e+005,-3.10112536149316e+001,-2.68464284512503e+000

2.74740939660078e+005,-3.10114471164310e+001,-2.72189109161445e+000

2.78576180254757e+005,-3.10116454797812e+001,-2.75965095531471e+000

2.82464958813007e+005,-3.10118488141463e+001,-2.79792930642988e+000

2.86408022696948e+005,-3.10120572305916e+001,-2.83673310434403e+000

2.90406129701488e+005,-3.10122708420980e+001,-2.87606939883076e+000

2.94460048199957e+005,-3.10124897635760e+001,-2.91594533128833e+000

2.98570557291775e+005,-3.10127141118802e+001,-2.95636813600121e+000

3.02738446952187e+005,-3.10129440058240e+001,-2.99734514142907e+000

3.06964518184081e+005,-3.10131795661935e+001,-3.03888377152517e+000

3.11249583171928e+005,-3.10134209157624e+001,-3.08099154708310e+000

3.15594465437872e+005,-3.10136681793069e+001,-3.12367608711536e+000

3.19999999999997e+005,-3.10139214836205e+001,-3.16694511026345e+000

3.24467033532806e+005,-3.10141809575304e+001,-3.21080643623970e+000

3.28996424529938e+005,-3.10144467319128e+001,-3.25526798730353e+000

3.33589043469155e+005,-3.10147189397106e+001,-3.30033778977264e+000

3.38245772979638e+005,-3.10149977159510e+001,-3.34602397556958e+000

3.42967508011610e+005,-3.10152831977639e+001,-3.39233478380545e+000

3.47755156008335e+005,-3.10155755244023e+001,-3.43927856240111e+000

3.52609637080511e+005,-3.10158748372631e+001,-3.48686376974828e+000

3.57531884183106e+005,-3.10161812799104e+001,-3.53509897640856e+000

3.62522843294651e+005,-3.10164949980992e+001,-3.58399286685555e+000

3.67583473599047e+005,-3.10168161398026e+001,-3.63355424125758e+000

3.72714747669902e+005,-3.10171448552396e+001,-3.68379201730349e+000

3.77917651657445e+005,-3.10174812969063e+001,-3.73471523207082e+000

3.83193185478053e+005,-3.10178256196096e+001,-3.78633304394124e+000

3.88542363006410e+005,-3.10181779805028e+001,-3.83865473455778e+000

3.93966212270369e+005,-3.10185385391262e+001,-3.89168971083060e+000

3.99465775648511e+005,-3.10189074574490e+001,-3.94544750698768e+000

4.05042110070485e+005,-3.10192848999166e+001,-3.99993778667403e+000

4.10696287220124e+005,-3.10196710335011e+001,-4.05517034509658e+000

4.16429393741414e+005,-3.10200660277566e+001,-4.11115511121953e+000

4.22242531447321e+005,-3.10204700548786e+001,-4.16790215000579e+000

4.28136817531551e+005,-3.10208832897688e+001,-4.22542166470874e+000

4.34113384783250e+005,-3.10213059101058e+001,-4.28372399921157e+000

4.40173381804713e+005,-3.10217380964202e+001,-4.34281964041565e+000

4.46317973232124e+005,-3.10221800321771e+001,-4.40271922067831e+000

4.52548339959385e+005,-3.10226319038645e+001,-4.46343352029739e+000

4.58865679365059e+005,-3.10230939010884e+001,-4.52497347004473e+000

4.65271205542494e+005,-3.10235662166754e+001,-4.58735015374817e+000

4.71766149533147e+005,-3.10240490467830e+001,-4.65057481091779e+000

4.78351759563174e+005,-3.10245425910173e+001,-4.71465883942152e+000

4.85029301283321e+005,-3.10250470525601e+001,-4.77961379820267e+000

4.91800058012158e+005,-3.10255626383037e+001,-4.84545141004452e+000

4.98665330982714e+005,-3.10260895589954e+001,-4.91218356437577e+000

5.05626439592555e+005,-3.10266280293917e+001,-4.97982232011900e+000

5.12684721657352e+005,-3.10271782684219e+001,-5.04837990857769e+000

5.19841533667984e+005,-3.10277404993624e+001,-5.11786873636327e+000

5.27098251051240e+005,-3.10283149500211e+001,-5.18830138835806e+000

5.34456268434150e+005,-3.10289018529338e+001,-5.25969063071212e+000

5.41916999912011e+005,-3.10295014455703e+001,-5.33204941387433e+000

