Freq.,VOut,OutRef

1.00000000000000e+004,-1.41413675217939e+001,-1.56593564994750e-001

1.01395947979003e+004,-1.41413677850170e+001,-1.58779511979479e-001

1.02811382665607e+004,-1.41413680556383e+001,-1.60995972895328e-001

1.04246576084112e+004,-1.41413683338656e+001,-1.63243373668658e-001

1.05701804056138e+004,-1.41413686199129e+001,-1.65522146169978e-001

1.07177346253629e+004,-1.41413689139998e+001,-1.67832728297158e-001

1.08673486252606e+004,-1.41413692163523e+001,-1.70175564059997e-001

1.10190511587661e+004,-1.41413695272023e+001,-1.72551103666002e-001

1.11728713807222e+004,-1.41413698467889e+001,-1.74959803603767e-001

1.13288388529580e+004,-1.41413701753574e+001,-1.77402126732834e-001

1.14869835499703e+004,-1.41413705131603e+001,-1.79878542372512e-001

1.16473358646846e+004,-1.41413708604569e+001,-1.82389526393235e-001

1.18099266142953e+004,-1.41413712175140e+001,-1.84935561304049e-001

1.19747870461893e+004,-1.41413715846058e+001,-1.87517136349062e-001

1.21419488439505e+004,-1.41413719620141e+001,-1.90134747599903e-001

1.23114441334492e+004,-1.41413723500288e+001,-1.92788898051145e-001

1.24833054890161e+004,-1.41413727489479e+001,-1.95480097715481e-001

1.26575659397028e+004,-1.41413731590778e+001,-1.98208863722532e-001

1.28342589756290e+004,-1.41413735807332e+001,-2.00975720421378e-001

1.30134185544193e+004,-1.41413740142380e+001,-2.03781199475109e-001

1.31950791077289e+004,-1.41413744599251e+001,-2.06625839966413e-001

1.33792755478611e+004,-1.41413749181366e+001,-2.09510188502667e-001

1.35660432744767e+004,-1.41413753892242e+001,-2.12434799316009e-001

1.37554181813974e+004,-1.41413758735497e+001,-2.15400234373876e-001

1.39474366635040e+004,-1.41413763714850e+001,-2.18407063484817e-001

1.41421356237309e+004,-1.41413768834122e+001,-2.21455864408512e-001

1.43395524801583e+004,-1.41413774097243e+001,-2.24547222967031e-001

1.45397251732031e+004,-1.41413779508253e+001,-2.27681733156383e-001

1.47426921729110e+004,-1.41413785071306e+001,-2.30859997259532e-001

1.49484924863494e+004,-1.41413790790672e+001,-2.34082625965349e-001

1.51571656651040e+004,-1.41413796670738e+001,-2.37350238482938e-001

1.53687518128801e+004,-1.41413802716020e+001,-2.40663462659137e-001

1.55832915932100e+004,-1.41413808931154e+001,-2.44022935103899e-001

1.58008262372675e+004,-1.41413815320913e+001,-2.47429301306979e-001

1.60213975517924e+004,-1.41413821890198e+001,-2.50883215765254e-001

1.62450479271247e+004,-1.41413828644050e+001,-2.54385342107578e-001

1.64718203453514e+004,-1.41413835587652e+001,-2.57936353219943e-001

1.67017583885674e+004,-1.41413842726329e+001,-2.61536931377789e-001

1.69349062472505e+004,-1.41413850065560e+001,-2.65187768374635e-001

1.71713087287550e+004,-1.41413857610975e+001,-2.68889565654017e-001

1.74110112659224e+004,-1.41413865368361e+001,-2.72643034448361e-001

1.76540599258131e+004,-1.41413873343669e+001,-2.76448895908704e-001

1.79005014185594e+004,-1.41413881543016e+001,-2.80307881248941e-001

1.81503831063432e+004,-1.41413889972690e+001,-2.84220731882195e-001

1.84037530124975e+004,-1.41413898639155e+001,-2.88188199564768e-001

1.86606598307361e+004,-1.41413907549058e+001,-2.92211046538919e-001

1.89211529345119e+004,-1.41413916709231e+001,-2.96290045680538e-001

1.91852823865052e+004,-1.41413926126697e+001,-3.00425980646579e-001

1.94530989482457e+004,-1.41413935808676e+001,-3.04619646023280e-001

1.97246540898671e+004,-1.41413945762592e+001,-3.08871847481334e-001

1.99999999999999e+004,-1.41413955996073e+001,-3.13183401930430e-001

2.02791895958005e+004,-1.41413966516963e+001,-3.17555137672332e-001

2.05622765331213e+004,-1.41413977333327e+001,-3.21987894561456e-001

2.08493152168224e+004,-1.41413988453454e+001,-3.26482524166728e-001

2.11403608112276e+004,-1.41413999885865e+001,-3.31039889933783e-001

2.14354692507258e+004,-1.41414011639318e+001,-3.35660867350090e-001

2.17346972505211e+004,-1.41414023722822e+001,-3.40346344112051e-001

2.20381023175322e+004,-1.41414036145630e+001,-3.45097220296719e-001

2.23457427614443e+004,-1.41414048917260e+001,-3.49914408532200e-001

2.26576777059159e+004,-1.41414062047494e+001,-3.54798834173351e-001

2.29739670999406e+004,-1.41414075546387e+001,-3.59751435478925e-001

2.32946717293690e+004,-1.41414089424277e+001,-3.64773163790402e-001

2.36198532285905e+004,-1.41414103691789e+001,-3.69864983715608e-001

2.39495740923785e+004,-1.41414118359847e+001,-3.75027873310210e-001

2.42838976879009e+004,-1.41414133439680e+001,-3.80262824267616e-001

2.46228882668982e+004,-1.41414148942829e+001,-3.85570842108875e-001

2.49666109780322e+004,-1.41414164881159e+001,-3.90952946372424e-001

2.53151318794055e+004,-1.41414181266867e+001,-3.96410170810814e-001

2.56685179512580e+004,-1.41414198112490e+001,-4.01943563587663e-001

2.60268371088386e+004,-1.41414215430915e+001,-4.07554187479383e-001

2.63901582154578e+004,-1.41414233235390e+001,-4.13243120075244e-001

2.67585510957221e+004,-1.41414251539531e+001,-4.19011453988153e-001

2.71320865489533e+004,-1.41414270357336e+001,-4.24860297058566e-001

2.75108363627948e+004,-1.41414289703191e+001,-4.30790772568500e-001

2.78948733270080e+004,-1.41414309591887e+001,-4.36804019455720e-001

2.82842712474618e+004,-1.41414330038626e+001,-4.42901192531610e-001

2.86791049603164e+004,-1.41414351059032e+001,-4.49083462701512e-001

2.90794503464061e+004,-1.41414372669169e+001,-4.55352017186114e-001

2.94853843458219e+004,-1.41414394885543e+001,-4.61708059753560e-001

2.98969849726987e+004,-1.41414417725127e+001,-4.68152810941825e-001

3.03143313302078e+004,-1.41414441205362e+001,-4.74687508298159e-001

3.07375036257601e+004,-1.41414465344176e+001,-4.81313406610338e-001

3.11665831864199e+004,-1.41414490159996e+001,-4.88031778149827e-001

3.16016524745350e+004,-1.41414515671763e+001,-4.94843912911459e-001

3.20427951035848e+004,-1.41414541898945e+001,-5.01751118860572e-001

3.24900958542493e+004,-1.41414568861553e+001,-5.08754722182026e-001

3.29436406907028e+004,-1.41414596580151e+001,-5.15856067533638e-001

3.34035167771346e+004,-1.41414625075878e+001,-5.23056518301309e-001

3.38698124945009e+004,-1.41414654370461e+001,-5.30357456858647e-001

3.43426174575100e+004,-1.41414684486230e+001,-5.37760284831975e-001

3.48220225318448e+004,-1.41414715446134e+001,-5.45266423364712e-001

3.53081198516260e+004,-1.41414747273760e+001,-5.52877313390130e-001

3.58010028371187e+004,-1.41414779993354e+001,-5.60594415902435e-001

3.63007662126863e+004,-1.41414813629829e+001,-5.68419212238341e-001

3.68075060249948e+004,-1.41414848208794e+001,-5.76353204356238e-001

3.73213196614721e+004,-1.41414883756564e+001,-5.84397915122818e-001

3.78423058690237e+004,-1.41414920300187e+001,-5.92554888602031e-001

3.83705647730104e+004,-1.41414957867461e+001,-6.00825690347950e-001

3.89061978964912e+004,-1.41414996486953e+001,-6.09211907702691e-001

3.94493081797342e+004,-1.41415036188017e+001,-6.17715150099489e-001

3.99999999999998e+004,-1.41415077000827e+001,-6.26337049364711e-001

4.05583791916010e+004,-1.41415118956387e+001,-6.35079260028680e-001

4.11245530662425e+004,-1.41415162086561e+001,-6.43943459641962e-001

4.16986304336447e+004,-1.41415206424090e+001,-6.52931349090430e-001

4.22807216224550e+004,-1.41415252002625e+001,-6.62044652918589e-001

4.28709385014515e+004,-1.41415298856742e+001,-6.71285119656752e-001

4.34693945010421e+004,-1.41415347021973e+001,-6.80654522151191e-001

4.40762046350642e+004,-1.41415396534832e+001,-6.90154657900405e-001

4.46914855228886e+004,-1.41415447432835e+001,-6.99787349396981e-001

4.53153554118317e+004,-1.41415499754538e+001,-7.09554444468287e-001

4.59479341998812e+004,-1.41415553539554e+001,-7.19457816628784e-001

4.65893434587380e+004,-1.41415608828590e+001,-7.29499365433673e-001

4.72397064571810e+004,-1.41415665663470e+001,-7.39681016837825e-001

4.78991481847569e+004,-1.41415724087169e+001,-7.50004723558285e-001

4.85677953758016e+004,-1.41415784143844e+001,-7.60472465444289e-001

4.92457765337964e+004,-1.41415845878863e+001,-7.71086249848841e-001

4.99332219560642e+004,-1.41415909338838e+001,-7.81848112009537e-001

5.06302637588109e+004,-1.41415974571663e+001,-7.92760115430119e-001

5.13370359025159e+004,-1.41416041626540e+001,-8.03824352269825e-001

5.20536742176771e+004,-1.41416110554020e+001,-8.15042943737265e-001

5.27803164309155e+004,-1.41416181406039e+001,-8.26418040489622e-001

5.35171021914442e+004,-1.41416254235949e+001,-8.37951823036434e-001

5.42641730979066e+004,-1.41416329098563e+001,-8.49646502149524e-001

5.50216727255895e+004,-1.41416406050188e+001,-8.61504319278778e-001

5.57897466540159e+004,-1.41416485148669e+001,-8.73527546971967e-001

5.65685424949235e+004,-1.41416566453424e+001,-8.85718489301395e-001

5.73582099206328e+004,-1.41416650025491e+001,-8.98079482296092e-001

5.81589006928121e+004,-1.41416735927568e+001,-9.10612894378337e-001

5.89707686916437e+004,-1.41416824224057e+001,-9.23321126808297e-001

5.97939699453972e+004,-1.41416914981106e+001,-9.36206614132496e-001

6.06286626604156e+004,-1.41417008266661e+001,-9.49271824638161e-001

6.14750072515201e+004,-1.41417104150505e+001,-9.62519260816337e-001

6.23331663728396e+004,-1.41417202704312e+001,-9.75951459826367e-001

6.32033049490698e+004,-1.41417304001695e+001,-9.89570993971405e-001

6.40855902071694e+004,-1.41417408118251e+001,-1.00338047117605e+000

6.49801917084985e+004,-1.41417515131619e+001,-1.01738253547303e+000

6.58872813814055e+004,-1.41417625121530e+001,-1.03157986749464e+000

6.68070335542691e+004,-1.41417738169858e+001,-1.04597518497081e+000

6.77396249890018e+004,-1.41417854360680e+001,-1.06057124323473e+000

6.86852349150199e+004,-1.41417973780329e+001,-1.07537083573306e+000

6.96440450636895e+004,-1.41418096517452e+001,-1.09037679454505e+000

7.06162397032520e+004,-1.41418222663068e+001,-1.10559199090584e+000

7.16020056742374e+004,-1.41418352310631e+001,-1.12101933573877e+000

7.26015324253724e+004,-1.41418485556088e+001,-1.13666178019257e+000

7.36150120499896e+004,-1.41418622497944e+001,-1.15252231618756e+000

7.46426393229441e+004,-1.41418763237325e+001,-1.16860397696692e+000

7.56846117380472e+004,-1.41418907878044e+001,-1.18490983765579e+000

7.67411295460207e+004,-1.41419056526667e+001,-1.20144301582758e+000

7.78123957929823e+004,-1.41419209292585e+001,-1.21820667207713e+000

7.88986163594682e+004,-1.41419366288076e+001,-1.23520401060206e+000

7.99999999999995e+004,-1.41419527628386e+001,-1.25243827978938e+000

8.11167583832018e+004,-1.41419693431793e+001,-1.26991277281193e+000

8.22491061324848e+004,-1.41419863819687e+001,-1.28763082823152e+000

8.33972608672892e+004,-1.41420038916641e+001,-1.30559583060869e+000

8.45614432449099e+004,-1.41420218850495e+001,-1.32381121112004e+000

8.57418770029029e+004,-1.41420403752423e+001,-1.34228044818696e+000

8.69387890020841e+004,-1.41420593757026e+001,-1.36100706810558e+000

8.81524092701283e+004,-1.41420789002404e+001,-1.37999464569153e+000

8.93829710457770e+004,-1.41420989630246e+001,-1.39924680492657e+000

9.06307108236633e+004,-1.41421195785907e+001,-1.41876721961885e+000

9.18958683997622e+004,-1.41421407618502e+001,-1.43855961406646e+000

9.31786869174758e+004,-1.41421625280987e+001,-1.45862776373279e+000

9.44794129143618e+004,-1.41421848930254e+001,-1.47897549592720e+000

9.57982963695136e+004,-1.41422078727215e+001,-1.49960669049676e+000

9.71355907516031e+004,-1.41422314836902e+001,-1.52052528052417e+000

9.84915530675926e+004,-1.41422557428553e+001,-1.54173525303647e+000

9.98664439121282e+004,-1.41422806675712e+001,-1.56324064971999e+000

1.01260527517622e+005,-1.41423062756323e+001,-1.58504556764512e+000

1.02674071805032e+005,-1.41423325852829e+001,-1.60715416000067e+000

1.04107348435354e+005,-1.41423596152271e+001,-1.62957063683526e+000

1.05560632861831e+005,-1.41423873846392e+001,-1.65229926580894e+000

1.07034204382888e+005,-1.41424159131730e+001,-1.67534437295423e+000

1.08528346195813e+005,-1.41424452209732e+001,-1.69871034344435e+000

1.10043345451179e+005,-1.41424753286852e+001,-1.72240162237228e+000

1.11579493308032e+005,-1.41425062574660e+001,-1.74642271553928e+000

1.13137084989847e+005,-1.41425380289947e+001,-1.77077819025049e+000

1.14716419841265e+005,-1.41425706654833e+001,-1.79547267612448e+000

1.16317801385624e+005,-1.41426041896880e+001,-1.82051086590583e+000

1.17941537383287e+005,-1.41426386249197e+001,-1.84589751629454e+000

1.19587939890794e+005,-1.41426739950556e+001,-1.87163744877882e+000

1.21257325320831e+005,-1.41427103245497e+001,-1.89773555048304e+000

1.22950014503040e+005,-1.41427476384453e+001,-1.92419677502050e+000

1.24666332745679e+005,-1.41427859623849e+001,-1.95102614336151e+000

1.26406609898139e+005,-1.41428253226227e+001,-1.97822874470721e+000

1.28171180414339e+005,-1.41428657460356e+001,-2.00580973737496e+000

1.29960383416997e+005,-1.41429072601347e+001,-2.03377434969704e+000

1.31774562762811e+005,-1.41429498930769e+001,-2.06212788092383e+000

1.33614067108538e+005,-1.41429936736765e+001,-2.09087570214364e+000

1.35479249978003e+005,-1.41430386314166e+001,-2.12002325720852e+000

1.37370469830040e+005,-1.41430847964607e+001,-2.14957606367479e+000

1.39288090127379e+005,-1.41431321996640e+001,-2.17953971375079e+000

1.41232479406504e+005,-1.41431808725855e+001,-2.20991987525807e+000

1.43204011348474e+005,-1.41432308474983e+001,-2.24072229260399e+000

1.45203064850745e+005,-1.41432821574020e+001,-2.27195278776306e+000

1.47230024099979e+005,-1.41433348360332e+001,-2.30361726127297e+000

1.49285278645888e+005,-1.41433889178768e+001,-2.33572169323982e+000

1.51369223476094e+005,-1.41434444381769e+001,-2.36827214435622e+000

1.53482259092041e+005,-1.41435014329480e+001,-2.40127475693082e+000

1.55624791585964e+005,-1.41435599389847e+001,-2.43473575593058e+000

1.57797232718936e+005,-1.41436199938732e+001,-2.46866145003451e+000

1.59999999999999e+005,-1.41436816360005e+001,-2.50305823270050e+000

1.62233516766403e+005,-1.41437449045647e+001,-2.53793258324390e+000

1.64498212264969e+005,-1.41438098395847e+001,-2.57329106793049e+000

1.66794521734578e+005,-1.41438764819095e+001,-2.60914034108015e+000

1.69122886489819e+005,-1.41439448732266e+001,-2.64548714618680e+000

1.71483754005805e+005,-1.41440150560713e+001,-2.68233831704893e+000

1.73877578004168e+005,-1.41440870738344e+001,-2.71970077891534e+000

1.76304818540256e+005,-1.41441609707698e+001,-2.75758154964529e+000

1.78765942091554e+005,-1.41442367920022e+001,-2.79598774088177e+000

1.81261421647326e+005,-1.41443145835331e+001,-2.83492655924017e+000

1.83791736799524e+005,-1.41443943922478e+001,-2.87440530751091e+000

1.86357373834951e+005,-1.41444762659198e+001,-2.91443138587908e+000

1.88958825828723e+005,-1.41445602532169e+001,-2.95501229315661e+000

1.91596592739027e+005,-1.41446464037047e+001,-2.99615562803426e+000

1.94271181503206e+005,-1.41447347678502e+001,-3.03786909034549e+000

1.96983106135185e+005,-1.41448253970247e+001,-3.08016048235047e+000

1.99732887824256e+005,-1.41449183435057e+001,-3.12303771003530e+000

2.02521055035243e+005,-1.41450136604782e+001,-3.16650878442940e+000

2.05348143610063e+005,-1.41451114020342e+001,-3.21058182294050e+000

2.08214696870707e+005,-1.41452116231731e+001,-3.25526505070841e+000

2.11121265723661e+005,-1.41453143797989e+001,-3.30056680197722e+000

2.14068408765776e+005,-1.41454197287183e+001,-3.34649552148732e+000

2.17056692391625e+005,-1.41455277276364e+001,-3.39305976588754e+000

2.20086690902357e+005,-1.41456384351520e+001,-3.44026820516761e+000

2.23158986616063e+005,-1.41457519107513e+001,-3.48812962411244e+000

2.26274169979693e+005,-1.41458682148009e+001,-3.53665292377717e+000

2.29432839682530e+005,-1.41459874085390e+001,-3.58584712298608e+000

2.32635602771247e+005,-1.41461095540657e+001,-3.63572135985398e+000

2.35883074766574e+005,-1.41462347143317e+001,-3.68628489333196e+000

2.39175879781588e+005,-1.41463629531258e+001,-3.73754710477815e+000

2.42514650641661e+005,-1.41464943350607e+001,-3.78951749955365e+000

2.45900029006080e+005,-1.41466289255578e+001,-3.84220570864528e+000

2.49332665491357e+005,-1.41467667908303e+001,-3.89562149031545e+000

2.52813219796278e+005,-1.41469079978640e+001,-3.94977473178170e+000

2.56342360828676e+005,-1.41470526143982e+001,-4.00467545092333e+000

2.59920766833993e+005,-1.41472007089036e+001,-4.06033379802014e+000

2.63549125525621e+005,-1.41473523505588e+001,-4.11676005752225e+000

2.67228134217075e+005,-1.41475076092259e+001,-4.17396464985106e+000

2.70958499956006e+005,-1.41476665554237e+001,-4.23195813323609e+000

2.74740939660078e+005,-1.41478292602995e+001,-4.29075120558502e+000

2.78576180254757e+005,-1.41479957955996e+001,-4.35035470638971e+000

2.82464958813007e+005,-1.41481662336372e+001,-4.41077961867029e+000

2.86408022696948e+005,-1.41483406472598e+001,-4.47203707095688e+000

2.90406129701488e+005,-1.41485191098143e+001,-4.53413833931250e+000

2.94460048199957e+005,-1.41487016951105e+001,-4.59709484939508e+000

2.98570557291775e+005,-1.41488884773833e+001,-4.66091817856391e+000

3.02738446952187e+005,-1.41490795312533e+001,-4.72562005802963e+000

3.06964518184081e+005,-1.41492749316854e+001,-4.79121237504855e+000

3.11249583171928e+005,-1.41494747539470e+001,-4.85770717516637e+000

3.15594465437872e+005,-1.41496790735642e+001,-4.92511666450689e+000

3.19999999999997e+005,-1.41498879662760e+001,-4.99345321211421e+000

3.24467033532806e+005,-1.41501015079894e+001,-5.06272935234393e+000

3.28996424529938e+005,-1.41503197747309e+001,-5.13295778730867e+000

3.33589043469155e+005,-1.41505428425992e+001,-5.20415138937740e+000

3.38245772979638e+005,-1.41507707877153e+001,-5.27632320373238e+000

3.42967508011610e+005,-1.41510036861736e+001,-5.34948645098156e+000

3.47755156008335e+005,-1.41512416139909e+001,-5.42365452983273e+000

3.52609637080511e+005,-1.41514846470560e+001,-5.49884101982728e+000

3.57531884183106e+005,-1.41517328610789e+001,-5.57505968413652e+000

3.62522843294651e+005,-1.41519863315396e+001,-5.65232447242204e+000

3.67583473599047e+005,-1.41522451336381e+001,-5.73064952376167e+000

3.72714747669902e+005,-1.41525093422435e+001,-5.81004916964261e+000

3.77917651657445e+005,-1.41527790318450e+001,-5.89053793702213e+000

3.83193185478053e+005,-1.41530542765030e+001,-5.97213055145862e+000

3.88542363006410e+005,-1.41533351498022e+001,-6.05484194031322e+000

3.93966212270369e+005,-1.41536217248053e+001,-6.13868723602439e+000

3.99465775648511e+005,-1.41539140740093e+001,-6.22368177945493e+000

4.05042110070485e+005,-1.41542122693033e+001,-6.30984112331402e+000

4.10696287220124e+005,-1.41545163819294e+001,-6.39718103565509e+000

4.16429393741414e+005,-1.41548264824456e+001,-6.48571750344906e+000

4.22242531447321e+005,-1.41551426406927e+001,-6.57546673623569e+000

4.28136817531551e+005,-1.41554649257637e+001,-6.66644516985270e+000

4.34113384783250e+005,-1.41557934059780e+001,-6.75866947024233e+000

4.40173381804713e+005,-1.41561281488593e+001,-6.85215653733822e+000

4.46317973232124e+005,-1.41564692211184e+001,-6.94692350902957e+000

4.52548339959385e+005,-1.41568166886408e+001,-7.04298776520656e+000

4.58865679365059e+005,-1.41571706164799e+001,-7.14036693188337e+000

4.65271205542494e+005,-1.41575310688560e+001,-7.23907888540087e+000

4.71766149533147e+005,-1.41578981091615e+001,-7.33914175670841e+000

4.78351759563174e+005,-1.41582717999729e+001,-7.44057393572288e+000

4.85029301283321e+005,-1.41586522030697e+001,-7.54339407576648e+000

4.91800058012158e+005,-1.41590393794607e+001,-7.64762109808070e+000

4.98665330982714e+005,-1.41594333894183e+001,-7.75327419641598e+000

5.05626439592555e+005,-1.41598342925215e+001,-7.86037284169555e+000

5.12684721657352e+005,-1.41602421477060e+001,-7.96893678675427e+000

5.19841533667984e+005,-1.41606570133255e+001,-8.07898607114639e+000

5.27098251051240e+005,-1.41610789472201e+001,-8.19054102602604e+000

5.34456268434150e+005,-1.41615080067962e+001,-8.30362227909425e+000

5.41916999912011e+005,-1.41619442491153e+001,-8.41825075961297e+000

