Freq.,VOut,OutRef

1.00000000000000e+004,-1.91851185281419e+001,-1.68192088645226e-001

1.01395947979003e+004,-1.91851190969768e+001,-1.70539934590202e-001

1.02811382665607e+004,-1.91851196818011e+001,-1.72920554048083e-001

1.04246576084112e+004,-1.91851202830639e+001,-1.75334404471542e-001

1.05701804056138e+004,-1.91851209012273e+001,-1.77781949693114e-001

1.07177346253629e+004,-1.91851215367660e+001,-1.80263660021027e-001

1.08673486252606e+004,-1.91851221901686e+001,-1.82780012324302e-001

1.10190511587661e+004,-1.91851228619369e+001,-1.85331490127066e-001

1.11728713807222e+004,-1.91851235525872e+001,-1.87918583699889e-001

1.13288388529580e+004,-1.91851242626500e+001,-1.90541790156348e-001

1.14869835499703e+004,-1.91851249926708e+001,-1.93201613545524e-001

1.16473358646846e+004,-1.91851257432104e+001,-1.95898564950561e-001

1.18099266142953e+004,-1.91851265148455e+001,-1.98633162584657e-001

1.19747870461893e+004,-1.91851273081687e+001,-2.01405931893447e-001

1.21419488439505e+004,-1.91851281237897e+001,-2.04217405653263e-001

1.23114441334492e+004,-1.91851289623349e+001,-2.07068124074393e-001

1.24833054890161e+004,-1.91851298244483e+001,-2.09958634905887e-001

1.26575659397028e+004,-1.91851307107926e+001,-2.12889493536646e-001

1.28342589756290e+004,-1.91851316220480e+001,-2.15861263108534e-001

1.30134185544193e+004,-1.91851325589149e+001,-2.18874514617292e-001

1.31950791077289e+004,-1.91851335221128e+001,-2.21929827026396e-001

1.33792755478611e+004,-1.91851345123814e+001,-2.25027787377864e-001

1.35660432744767e+004,-1.91851355304814e+001,-2.28168990902178e-001

1.37554181813974e+004,-1.91851365771947e+001,-2.31354041135626e-001

1.39474366635040e+004,-1.91851376533252e+001,-2.34583550034618e-001

1.41421356237309e+004,-1.91851387596994e+001,-2.37858138091403e-001

1.43395524801583e+004,-1.91851398971669e+001,-2.41178434457164e-001

1.45397251732031e+004,-1.91851410666014e+001,-2.44545077057369e-001

1.47426921729110e+004,-1.91851422689007e+001,-2.47958712719270e-001

1.49484924863494e+004,-1.91851435049881e+001,-2.51419997291583e-001

1.51571656651040e+004,-1.91851447758129e+001,-2.54929595773403e-001

1.53687518128801e+004,-1.91851460823508e+001,-2.58488182438634e-001

1.55832915932100e+004,-1.91851474256049e+001,-2.62096440968743e-001

1.58008262372675e+004,-1.91851488066069e+001,-2.65755064579713e-001

1.60213975517924e+004,-1.91851502264168e+001,-2.69464756158826e-001

1.62450479271247e+004,-1.91851516861247e+001,-2.73226228397079e-001

1.64718203453514e+004,-1.91851531868514e+001,-2.77040203924737e-001

1.67017583885674e+004,-1.91851547297489e+001,-2.80907415453090e-001

1.69349062472505e+004,-1.91851563160015e+001,-2.84828605912559e-001

1.71713087287550e+004,-1.91851579468271e+001,-2.88804528593467e-001

1.74110112659224e+004,-1.91851596234773e+001,-2.92835947294549e-001

1.76540599258131e+004,-1.91851613472391e+001,-2.96923636465360e-001

1.79005014185594e+004,-1.91851631194356e+001,-3.01068381356162e-001

1.81503831063432e+004,-1.91851649414270e+001,-3.05270978167178e-001

1.84037530124975e+004,-1.91851668146114e+001,-3.09532234204294e-001

1.86606598307361e+004,-1.91851687404265e+001,-3.13852968029002e-001

1.89211529345119e+004,-1.91851707203500e+001,-3.18234009618021e-001

1.91852823865052e+004,-1.91851727559013e+001,-3.22676200521075e-001

1.94530989482457e+004,-1.91851748486423e+001,-3.27180394021976e-001

1.97246540898671e+004,-1.91851770001786e+001,-3.31747455302085e-001

1.99999999999999e+004,-1.91851792121609e+001,-3.36378261605957e-001

2.02791895958005e+004,-1.91851814862863e+001,-3.41073702409270e-001

2.05622765331213e+004,-1.91851838242993e+001,-3.45834679587360e-001

2.08493152168224e+004,-1.91851862279933e+001,-3.50662107590081e-001

2.11403608112276e+004,-1.91851886992120e+001,-3.55556913615197e-001

2.14354692507258e+004,-1.91851912398511e+001,-3.60520037783756e-001

2.17346972505211e+004,-1.91851938518586e+001,-3.65552433325948e-001

2.20381023175322e+004,-1.91851965372381e+001,-3.70655066755092e-001

2.23457427614443e+004,-1.91851992980486e+001,-3.75828918058571e-001

2.26576777059159e+004,-1.91852021364072e+001,-3.81074980881654e-001

2.29739670999406e+004,-1.91852050544899e+001,-3.86394262719729e-001

2.32946717293690e+004,-1.91852080545342e+001,-3.91787785107839e-001

2.36198532285905e+004,-1.91852111388398e+001,-3.97256583818363e-001

2.39495740923785e+004,-1.91852143097709e+001,-4.02801709057818e-001

2.42838976879009e+004,-1.91852175697582e+001,-4.08424225666143e-001

2.46228882668982e+004,-1.91852209213000e+001,-4.14125213321810e-001

2.49666109780322e+004,-1.91852243669650e+001,-4.19905766745846e-001

2.53151318794055e+004,-1.91852279093933e+001,-4.25766995913318e-001

2.56685179512580e+004,-1.91852315512995e+001,-4.31710026260988e-001

2.60268371088386e+004,-1.91852352954735e+001,-4.37735998907174e-001

2.63901582154578e+004,-1.91852391447839e+001,-4.43846070863849e-001

2.67585510957221e+004,-1.91852431021791e+001,-4.50041415260860e-001

2.71320865489533e+004,-1.91852471706902e+001,-4.56323221568390e-001

2.75108363627948e+004,-1.91852513534332e+001,-4.62692695822331e-001

2.78948733270080e+004,-1.91852556536107e+001,-4.69151060856937e-001

2.82842712474618e+004,-1.91852600745156e+001,-4.75699556533484e-001

2.86791049603164e+004,-1.91852646195323e+001,-4.82339439980094e-001

2.90794503464061e+004,-1.91852692921400e+001,-4.89071985829466e-001

2.94853843458219e+004,-1.91852740959153e+001,-4.95898486459723e-001

2.98969849726987e+004,-1.91852790345344e+001,-5.02820252243155e-001

3.03143313302078e+004,-1.91852841117765e+001,-5.09838611793782e-001

3.07375036257601e+004,-1.91852893315262e+001,-5.16954912219535e-001

3.11665831864199e+004,-1.91852946977768e+001,-5.24170519379170e-001

3.16016524745350e+004,-1.91853002146330e+001,-5.31486818140616e-001

3.20427951035848e+004,-1.91853058863139e+001,-5.38905212646297e-001

3.24900958542493e+004,-1.91853117171568e+001,-5.46427126576200e-001

3.29436406907028e+004,-1.91853177116196e+001,-5.54054003421070e-001

3.34035167771346e+004,-1.91853238742850e+001,-5.61787306753991e-001

3.38698124945009e+004,-1.91853302098633e+001,-5.69628520509550e-001

3.43426174575100e+004,-1.91853367231961e+001,-5.77579149265083e-001

3.48220225318448e+004,-1.91853434192602e+001,-5.85640718524352e-001

3.53081198516260e+004,-1.91853503031711e+001,-5.93814775008009e-001

3.58010028371187e+004,-1.91853573801870e+001,-6.02102886944907e-001

3.63007662126863e+004,-1.91853646557122e+001,-6.10506644370969e-001

3.68075060249948e+004,-1.91853721353019e+001,-6.19027659428195e-001

3.73213196614721e+004,-1.91853798246662e+001,-6.27667566669905e-001

3.78423058690237e+004,-1.91853877296738e+001,-6.36428023369797e-001

3.83705647730104e+004,-1.91853958563567e+001,-6.45310709837169e-001

3.89061978964912e+004,-1.91854042109152e+001,-6.54317329729521e-001

3.94493081797342e+004,-1.91854127997219e+001,-6.63449610378059e-001

3.99999999999998e+004,-1.91854216293264e+001,-6.72709303112572e-001

4.05583791916010e+004,-1.91854307064607e+001,-6.82098183591063e-001

4.11245530662425e+004,-1.91854400380438e+001,-6.91618052134985e-001

4.16986304336447e+004,-1.91854496311870e+001,-7.01270734067103e-001

4.22807216224550e+004,-1.91854594931990e+001,-7.11058080057537e-001

4.28709385014515e+004,-1.91854696315917e+001,-7.20981966469143e-001

4.34693945010421e+004,-1.91854800540853e+001,-7.31044295712917e-001

4.40762046350642e+004,-1.91854907686142e+001,-7.41246996603008e-001

4.46914855228886e+004,-1.91855017833332e+001,-7.51592024720863e-001

4.53153554118317e+004,-1.91855131066226e+001,-7.62081362782278e-001

4.59479341998812e+004,-1.91855247470957e+001,-7.72717021007040e-001

4.65893434587380e+004,-1.91855367136039e+001,-7.83501037498915e-001

4.72397064571810e+004,-1.91855490152440e+001,-7.94435478624252e-001

4.78991481847569e+004,-1.91855616613645e+001,-8.05522439400787e-001

4.85677953758016e+004,-1.91855746615726e+001,-8.16764043890502e-001

4.92457765337964e+004,-1.91855880257413e+001,-8.28162445592932e-001

4.99332219560642e+004,-1.91856017640164e+001,-8.39719827850692e-001

5.06302637588109e+004,-1.91856158868242e+001,-8.51438404255455e-001

5.13370359025159e+004,-1.91856304048787e+001,-8.63320419061776e-001

5.20536742176771e+004,-1.91856453291901e+001,-8.75368147603602e-001

5.27803164309155e+004,-1.91856606710720e+001,-8.87583896719099e-001

5.35171021914442e+004,-1.91856764421502e+001,-8.99970005179354e-001

5.42641730979066e+004,-1.91856926543707e+001,-9.12528844123675e-001

5.50216727255895e+004,-1.91857093200088e+001,-9.25262817498486e-001

5.57897466540159e+004,-1.91857264516776e+001,-9.38174362504073e-001

5.65685424949235e+004,-1.91857440623374e+001,-9.51265950045986e-001

5.73582099206328e+004,-1.91857621653046e+001,-9.64540085193626e-001

5.81589006928121e+004,-1.91857807742618e+001,-9.77999307641089e-001

5.89707686916437e+004,-1.91857999032673e+001,-9.91646192178860e-001

5.97939699453972e+004,-1.91858195667650e+001,-1.00548334916799e+000

6.06286626604156e+004,-1.91858397795953e+001,-1.01951342502101e+000

6.14750072515201e+004,-1.91858605570051e+001,-1.03373910268974e+000

6.23331663728396e+004,-1.91858819146589e+001,-1.04816310215923e+000

6.32033049490698e+004,-1.91859038686500e+001,-1.06278818094660e+000

6.40855902071694e+004,-1.91859264355115e+001,-1.07761713460784e+000

6.49801917084985e+004,-1.91859496322288e+001,-1.09265279724899e+000

6.58872813814055e+004,-1.91859734762505e+001,-1.10789804204689e+000

6.68070335542691e+004,-1.91859979855015e+001,-1.12335578177347e+000

6.77396249890018e+004,-1.91860231783953e+001,-1.13902896932665e+000

6.86852349150199e+004,-1.91860490738469e+001,-1.15492059827018e+000

6.96440450636895e+004,-1.91860756912858e+001,-1.17103370337759e+000

7.06162397032520e+004,-1.91861030506699e+001,-1.18737136118575e+000

7.16020056742374e+004,-1.91861311724991e+001,-1.20393669055091e+000

7.26015324253724e+004,-1.91861600778293e+001,-1.22073285321659e+000

7.36150120499896e+004,-1.91861897882874e+001,-1.23776305438347e+000

7.46426393229441e+004,-1.91862203260859e+001,-1.25503054329133e+000

7.56846117380472e+004,-1.91862517140382e+001,-1.27253861380260e+000

7.67411295460207e+004,-1.91862839755738e+001,-1.29029060499875e+000

7.78123957929823e+004,-1.91863171347549e+001,-1.30828990177775e+000

7.88986163594682e+004,-1.91863512162924e+001,-1.32653993546379e+000

7.99999999999995e+004,-1.91863862455624e+001,-1.34504418442169e+000

8.11167583832018e+004,-1.91864222486237e+001,-1.36380617467932e+000

8.22491061324848e+004,-1.91864592522349e+001,-1.38282948055742e+000

8.33972608672892e+004,-1.91864972838727e+001,-1.40211772530564e+000

8.45614432449099e+004,-1.91865363717498e+001,-1.42167458174891e+000

8.57418770029029e+004,-1.91865765448338e+001,-1.44150377293784e+000

8.69387890020841e+004,-1.91866178328664e+001,-1.46160907280953e+000

8.81524092701283e+004,-1.91866602663828e+001,-1.48199430685487e+000

8.93829710457770e+004,-1.91867038767315e+001,-1.50266335279343e+000

9.06307108236633e+004,-1.91867486960951e+001,-1.52362014125605e+000

9.18958683997622e+004,-1.91867947575112e+001,-1.54486865647580e+000

9.31786869174758e+004,-1.91868420948931e+001,-1.56641293698714e+000

9.44794129143618e+004,-1.91868907430522e+001,-1.58825707633119e+000

9.57982963695136e+004,-1.91869407377199e+001,-1.61040522377089e+000

9.71355907516031e+004,-1.91869921155705e+001,-1.63286158501340e+000

9.84915530675926e+004,-1.91870449142441e+001,-1.65563042294102e+000

9.98664439121282e+004,-1.91870991723702e+001,-1.67871605834908e+000

1.01260527517622e+005,-1.91871549295923e+001,-1.70212287069339e+000

1.02674071805032e+005,-1.91872122265918e+001,-1.72585529884475e+000

1.04107348435354e+005,-1.91872711051138e+001,-1.74991784185340e+000

1.05560632861831e+005,-1.91873316079919e+001,-1.77431505971956e+000

1.07034204382888e+005,-1.91873937791751e+001,-1.79905157417355e+000

1.08528346195813e+005,-1.91874576637534e+001,-1.82413206946574e+000

1.10043345451179e+005,-1.91875233079859e+001,-1.84956129316155e+000

1.11579493308032e+005,-1.91875907593275e+001,-1.87534405694770e+000

1.13137084989847e+005,-1.91876600664574e+001,-1.90148523744685e+000

1.14716419841265e+005,-1.91877312793076e+001,-1.92798977703929e+000

1.16317801385624e+005,-1.91878044490919e+001,-1.95486268469512e+000

1.17941537383287e+005,-1.91878796283356e+001,-1.98210903681297e+000

1.19587939890794e+005,-1.91879568709053e+001,-2.00973397807071e+000

1.21257325320831e+005,-1.91880362320399e+001,-2.03774272228126e+000

1.22950014503040e+005,-1.91881177683812e+001,-2.06614055325960e+000

1.24666332745679e+005,-1.91882015380060e+001,-2.09493282569841e+000

1.26406609898139e+005,-1.91882876004577e+001,-2.12412496605243e+000

1.28171180414339e+005,-1.91883760167791e+001,-2.15372247343169e+000

1.29960383416997e+005,-1.91884668495452e+001,-2.18373092050355e+000

1.31774562762811e+005,-1.91885601628974e+001,-2.21415595440450e+000

1.33614067108538e+005,-1.91886560225765e+001,-2.24500329766124e+000

1.35479249978003e+005,-1.91887544959579e+001,-2.27627874912080e+000

1.37370469830040e+005,-1.91888556520864e+001,-2.30798818488890e+000

1.39288090127379e+005,-1.91889595617111e+001,-2.34013755928029e+000

1.41232479406504e+005,-1.91890662973217e+001,-2.37273290577576e+000

1.43204011348474e+005,-1.91891759331849e+001,-2.40578033799001e+000

1.45203064850745e+005,-1.91892885453800e+001,-2.43928605064983e+000

1.47230024099979e+005,-1.91894042118372e+001,-2.47325632058116e+000

1.49285278645888e+005,-1.91895230123742e+001,-2.50769750770546e+000

1.51369223476094e+005,-1.91896450287340e+001,-2.54261605604750e+000

1.53482259092041e+005,-1.91897703446236e+001,-2.57801849475132e+000

1.55624791585964e+005,-1.91898990457518e+001,-2.61391143910865e+000

1.57797232718936e+005,-1.91900312198683e+001,-2.65030159159595e+000

1.59999999999999e+005,-1.91901669568028e+001,-2.68719574292117e+000

1.62233516766403e+005,-1.91903063485041e+001,-2.72460077308394e+000

1.64498212264969e+005,-1.91904494890796e+001,-2.76252365244343e+000

1.66794521734578e+005,-1.91905964748355e+001,-2.80097144279954e+000

1.69122886489819e+005,-1.91907474043165e+001,-2.83995129848259e+000

1.71483754005805e+005,-1.91909023783457e+001,-2.87947046745739e+000

1.73877578004168e+005,-1.91910615000652e+001,-2.91953629243550e+000

1.76304818540256e+005,-1.91912248749763e+001,-2.96015621200262e+000

1.78765942091554e+005,-1.91913926109803e+001,-3.00133776175390e+000

1.81261421647326e+005,-1.91915648184181e+001,-3.04308857544640e+000

1.83791736799524e+005,-1.91917416101117e+001,-3.08541638615909e+000

1.86357373834951e+005,-1.91919231014041e+001,-3.12832902746839e+000

1.88958825828723e+005,-1.91921094101996e+001,-3.17183443463783e+000

1.91596592739027e+005,-1.91923006570044e+001,-3.21594064581753e+000

1.94271181503206e+005,-1.91924969649666e+001,-3.26065580326065e+000

1.96983106135185e+005,-1.91926984599161e+001,-3.30598815455328e+000

1.99732887824256e+005,-1.91929052704044e+001,-3.35194605385888e+000

2.02521055035243e+005,-1.91931175277440e+001,-3.39853796317631e+000

2.05348143610063e+005,-1.91933353660480e+001,-3.44577245361625e+000

2.08214696870707e+005,-1.91935589222681e+001,-3.49365820669169e+000

2.11121265723661e+005,-1.91937883362342e+001,-3.54220401562543e+000

2.14068408765776e+005,-1.91940237506913e+001,-3.59141878667547e+000

2.17056692391625e+005,-1.91942653113380e+001,-3.64131154047717e+000

2.20086690902357e+005,-1.91945131668632e+001,-3.69189141340436e+000

2.23158986616063e+005,-1.91947674689827e+001,-3.74316765895079e+000

2.26274169979693e+005,-1.91950283724753e+001,-3.79514964912862e+000

2.29432839682530e+005,-1.91952960352181e+001,-3.84784687589065e+000

2.32635602771247e+005,-1.91955706182216e+001,-3.90126895257230e+000

2.35883074766574e+005,-1.91958522856632e+001,-3.95542561535643e+000

2.39175879781588e+005,-1.91961412049213e+001,-4.01032672476086e+000

2.42514650641661e+005,-1.91964375466078e+001,-4.06598226715140e+000

2.45900029006080e+005,-1.91967414845998e+001,-4.12240235627834e+000

2.49332665491357e+005,-1.91970531960713e+001,-4.17959723484080e+000

2.52813219796278e+005,-1.91973728615234e+001,-4.23757727607680e+000

2.56342360828676e+005,-1.91977006648141e+001,-4.29635298538419e+000

2.59920766833993e+005,-1.91980367931876e+001,-4.35593500196800e+000

2.63549125525621e+005,-1.91983814373020e+001,-4.41633410052202e+000

2.67228134217075e+005,-1.91987347912571e+001,-4.47756119294011e+000

2.70958499956006e+005,-1.91990970526214e+001,-4.53962733006260e+000

2.74740939660078e+005,-1.91994684224579e+001,-4.60254370345677e+000

2.78576180254757e+005,-1.91998491053495e+001,-4.66632164723439e+000

2.82464958813007e+005,-1.92002393094246e+001,-4.73097263990629e+000

2.86408022696948e+005,-1.92006392463804e+001,-4.79650830627748e+000

2.90406129701488e+005,-1.92010491315080e+001,-4.86294041938259e+000

2.94460048199957e+005,-1.92014691837151e+001,-4.93028090246348e+000

2.98570557291775e+005,-1.92018996255498e+001,-4.99854183099215e+000

3.02738446952187e+005,-1.92023406832236e+001,-5.06773543473911e+000

3.06964518184081e+005,-1.92027925866346e+001,-5.13787409988925e+000

3.11249583171928e+005,-1.92032555693909e+001,-5.20897037120704e+000

3.15594465437872e+005,-1.92037298688341e+001,-5.28103695425402e+000

3.19999999999997e+005,-1.92042157260634e+001,-5.35408671765789e+000

3.24467033532806e+005,-1.92047133859603e+001,-5.42813269543719e+000

3.28996424529938e+005,-1.92052230972144e+001,-5.50318808938249e+000

3.33589043469155e+005,-1.92057451123498e+001,-5.57926627149519e+000

3.38245772979638e+005,-1.92062796877536e+001,-5.65638078648876e+000

3.42967508011610e+005,-1.92068270837057e+001,-5.73454535434875e+000

3.47755156008335e+005,-1.92073875644101e+001,-5.81377387295941e+000

3.52609637080511e+005,-1.92079613980295e+001,-5.89408042079425e+000

3.57531884183106e+005,-1.92085488567216e+001,-5.97547925967382e+000

3.62522843294651e+005,-1.92091502166788e+001,-6.05798483759334e+000

3.67583473599047e+005,-1.92097657581714e+001,-6.14161179161925e+000

3.72714747669902e+005,-1.92103957655941e+001,-6.22637495085838e+000

3.77917651657445e+005,-1.92110405275174e+001,-6.31228933950054e+000

3.83193185478053e+005,-1.92117003367432e+001,-6.39937017993503e+000

3.88542363006410e+005,-1.92123754903658e+001,-6.48763289594302e+000

3.93966212270369e+005,-1.92130662898382e+001,-6.57709311596752e+000

3.99465775648511e+005,-1.92137730410455e+001,-6.66776667645978e+000

4.05042110070485e+005,-1.92144960543841e+001,-6.75966962530522e+000

4.10696287220124e+005,-1.92152356448486e+001,-6.85281822532775e+000

4.16429393741414e+005,-1.92159921321271e+001,-6.94722895787431e+000

4.22242531447321e+005,-1.92167658407040e+001,-7.04291852647912e+000

4.28136817531551e+005,-1.92175570999734e+001,-7.13990386060676e+000

4.34113384783250e+005,-1.92183662443607e+001,-7.23820211947686e+000

4.40173381804713e+005,-1.92191936134560e+001,-7.33783069596587e+000

4.46317973232124e+005,-1.92200395521582e+001,-7.43880722059006e+000

4.52548339959385e+005,-1.92209044108308e+001,-7.54114956556343e+000

4.58865679365059e+005,-1.92217885454702e+001,-7.64487584893469e+000

4.65271205542494e+005,-1.92226923178875e+001,-7.75000443879841e+000

4.71766149533147e+005,-1.92236160959045e+001,-7.85655395757988e+000

4.78351759563174e+005,-1.92245602535635e+001,-7.96454328639098e+000

4.85029301283321e+005,-1.92255251713531e+001,-8.07399156945664e+000

4.91800058012158e+005,-1.92265112364498e+001,-8.18491821860692e+000

4.98665330982714e+005,-1.92275188429769e+001,-8.29734291783343e+000

5.05626439592555e+005,-1.92285483922796e+001,-8.41128562790626e+000

5.12684721657352e+005,-1.92296002932195e+001,-8.52676659104800e+000

5.19841533667984e+005,-1.92306749624871e+001,-8.64380633566184e+000

5.27098251051240e+005,-1.92317728249338e+001,-8.76242568110835e+000

5.34456268434150e+005,-1.92328943139240e+001,-8.88264574252687e+000

5.41916999912011e+005,-1.92340398717073e+001,-9.00448793569902e+000

