Freq.,VOut,OutRef

1.00000000000000e+004,-1.88829067848999e+000,-6.62256857843491e-002

1.01395947979003e+004,-1.88829066443641e+000,-6.71501613726974e-002

1.02811382665607e+004,-1.88829064998760e+000,-6.80875421370805e-002

1.04246576084112e+004,-1.88829063513265e+000,-6.90380082247575e-002

1.05701804056138e+004,-1.88829061986004e+000,-7.00017422996632e-002

1.07177346253629e+004,-1.88829060415774e+000,-7.09789295766555e-002

1.08673486252606e+004,-1.88829058801428e+000,-7.19697578507958e-002

1.10190511587661e+004,-1.88829057141658e+000,-7.29744175459184e-002

1.11728713807222e+004,-1.88829055435207e+000,-7.39931017392605e-002

1.13288388529580e+004,-1.88829053680798e+000,-7.50260062019727e-002

1.14869835499703e+004,-1.88829051877038e+000,-7.60733294432837e-002

1.16473358646846e+004,-1.88829050022578e+000,-7.71352727377100e-002

1.18099266142953e+004,-1.88829048115960e+000,-7.82120401745154e-002

1.19747870461893e+004,-1.88829046155720e+000,-7.93038386890509e-002

1.21419488439505e+004,-1.88829044140353e+000,-8.04108781060090e-002

1.23114441334492e+004,-1.88829042068305e+000,-8.15333711786293e-002

1.24833054890161e+004,-1.88829039938025e+000,-8.26715336280448e-002

1.26575659397028e+004,-1.88829037747811e+000,-8.38255841924256e-002

1.28342589756290e+004,-1.88829035496002e+000,-8.49957446586281e-002

1.30134185544193e+004,-1.88829033180885e+000,-8.61822399090885e-002

1.31950791077289e+004,-1.88829030800665e+000,-8.73852979679279e-002

1.33792755478611e+004,-1.88829028353489e+000,-8.86051500427957e-002

1.35660432744767e+004,-1.88829025837514e+000,-8.98420305646443e-002

1.37554181813974e+004,-1.88829023250764e+000,-9.10961772421453e-002

1.39474366635040e+004,-1.88829020591277e+000,-9.23678310975471e-002

1.41421356237309e+004,-1.88829017857000e+000,-9.36572365202682e-002

1.43395524801583e+004,-1.88829015045829e+000,-9.49646413102427e-002

1.45397251732031e+004,-1.88829012155599e+000,-9.62902967267872e-002

1.47426921729110e+004,-1.88829009184079e+000,-9.76344575367075e-002

1.49484924863494e+004,-1.88829006128982e+000,-9.89973820632474e-002

1.51571656651040e+004,-1.88829002987978e+000,-1.00379332233492e-001

1.53687518128801e+004,-1.88828999758628e+000,-1.01780573634144e-001

1.55832915932100e+004,-1.88828996438453e+000,-1.03201375556675e-001

1.58008262372675e+004,-1.88828993024902e+000,-1.04642011052689e-001

1.60213975517924e+004,-1.88828989515341e+000,-1.06102756984801e-001

1.62450479271247e+004,-1.88828985907069e+000,-1.07583894081220e-001

1.64718203453514e+004,-1.88828982197304e+000,-1.09085706988142e-001

1.67017583885674e+004,-1.88828978383197e+000,-1.10608484325017e-001

1.69349062472505e+004,-1.88828974461814e+000,-1.12152518739781e-001

1.71713087287550e+004,-1.88828970430131e+000,-1.13718106966468e-001

1.74110112659224e+004,-1.88828966285060e+000,-1.15305549879303e-001

1.76540599258131e+004,-1.88828962023387e+000,-1.16915152555429e-001

1.79005014185594e+004,-1.88828957641835e+000,-1.18547224328456e-001

1.81503831063432e+004,-1.88828953137048e+000,-1.20202078849026e-001

1.84037530124975e+004,-1.88828948505533e+000,-1.21880034148571e-001

1.86606598307361e+004,-1.88828943743742e+000,-1.23581412695499e-001

1.89211529345119e+004,-1.88828938848013e+000,-1.25306541460008e-001

1.91852823865052e+004,-1.88828933814551e+000,-1.27055751978502e-001

1.94530989482457e+004,-1.88828928639491e+000,-1.28829380412520e-001

1.97246540898671e+004,-1.88828923318856e+000,-1.30627767616426e-001

1.99999999999999e+004,-1.88828917848528e+000,-1.32451259204444e-001

2.02791895958005e+004,-1.88828912224325e+000,-1.34300205611451e-001

2.05622765331213e+004,-1.88828906441882e+000,-1.36174962168369e-001

2.08493152168224e+004,-1.88828900496760e+000,-1.38075889162612e-001

2.11403608112276e+004,-1.88828894384394e+000,-1.40003351911310e-001

2.14354692507258e+004,-1.88828888100050e+000,-1.41957720832572e-001

2.17346972505211e+004,-1.88828881638875e+000,-1.43939371514749e-001

2.20381023175322e+004,-1.88828874995931e+000,-1.45948684785436e-001

2.23457427614443e+004,-1.88828868166074e+000,-1.47986046792012e-001

2.26576777059159e+004,-1.88828861144046e+000,-1.50051849070251e-001

2.29739670999406e+004,-1.88828853924444e+000,-1.52146488620563e-001

2.32946717293690e+004,-1.88828846501671e+000,-1.54270367987671e-001

2.36198532285905e+004,-1.88828838870044e+000,-1.56423895330705e-001

2.39495740923785e+004,-1.88828831023665e+000,-1.58607484509278e-001

2.42838976879009e+004,-1.88828822956485e+000,-1.60821555158926e-001

2.46228882668982e+004,-1.88828814662279e+000,-1.63066532772910e-001

2.49666109780322e+004,-1.88828806134661e+000,-1.65342848782347e-001

2.53151318794055e+004,-1.88828797367058e+000,-1.67650940641459e-001

2.56685179512580e+004,-1.88828788352689e+000,-1.69991251911143e-001

2.60268371088386e+004,-1.88828779084622e+000,-1.72364232341792e-001

2.63901582154578e+004,-1.88828769555706e+000,-1.74770337962472e-001

2.67585510957221e+004,-1.88828759758585e+000,-1.77210031167555e-001

2.71320865489533e+004,-1.88828749685697e+000,-1.79683780805874e-001

2.75108363627948e+004,-1.88828739329290e+000,-1.82192062268799e-001

2.78948733270080e+004,-1.88828728681357e+000,-1.84735357585016e-001

2.82842712474618e+004,-1.88828717733682e+000,-1.87314155510880e-001

2.86791049603164e+004,-1.88828706477816e+000,-1.89928951624258e-001

2.90794503464061e+004,-1.88828694905091e+000,-1.92580248419461e-001

2.94853843458219e+004,-1.88828683006549e+000,-1.95268555406500e-001

2.98969849726987e+004,-1.88828670772999e+000,-1.97994389206576e-001

3.03143313302078e+004,-1.88828658195032e+000,-2.00758273648665e-001

3.07375036257601e+004,-1.88828645262904e+000,-2.03560739877395e-001

3.11665831864199e+004,-1.88828631966642e+000,-2.06402326447859e-001

3.16016524745350e+004,-1.88828618295964e+000,-2.09283579434283e-001

3.20427951035848e+004,-1.88828604240331e+000,-2.12205052529789e-001

3.24900958542493e+004,-1.88828589788864e+000,-2.15167307158690e-001

3.29436406907028e+004,-1.88828574930401e+000,-2.18170912579929e-001

3.34035167771346e+004,-1.88828559653469e+000,-2.21216445996516e-001

3.38698124945009e+004,-1.88828543946246e+000,-2.24304492670066e-001

3.43426174575100e+004,-1.88828527796614e+000,-2.27435646027833e-001

3.48220225318448e+004,-1.88828511192065e+000,-2.30610507782828e-001

3.53081198516260e+004,-1.88828494119761e+000,-2.33829688044368e-001

3.58010028371187e+004,-1.88828476566510e+000,-2.37093805436244e-001

3.63007662126863e+004,-1.88828458518732e+000,-2.40403487217898e-001

3.68075060249948e+004,-1.88828439962457e+000,-2.43759369402689e-001

3.73213196614721e+004,-1.88828420883327e+000,-2.47162096880596e-001

3.78423058690237e+004,-1.88828401266588e+000,-2.50612323541685e-001

3.83705647730104e+004,-1.88828381097048e+000,-2.54110712402843e-001

3.89061978964912e+004,-1.88828360359091e+000,-2.57657935733898e-001

3.94493081797342e+004,-1.88828339036655e+000,-2.61254675187502e-001

3.99999999999998e+004,-1.88828317113243e+000,-2.64901621928438e-001

4.05583791916010e+004,-1.88828294571861e+000,-2.68599476768910e-001

4.11245530662425e+004,-1.88828271395035e+000,-2.72348950301874e-001

4.16986304336447e+004,-1.88828247564817e+000,-2.76150763036054e-001

4.22807216224550e+004,-1.88828223062725e+000,-2.80005645536849e-001

4.28709385014515e+004,-1.88828197869767e+000,-2.83914338564385e-001

4.34693945010421e+004,-1.88828171966406e+000,-2.87877593217050e-001

4.40762046350642e+004,-1.88828145332539e+000,-2.91896171075827e-001

4.46914855228886e+004,-1.88828117947513e+000,-2.95970844348567e-001

4.53153554118317e+004,-1.88828089790076e+000,-3.00102396020809e-001

4.59479341998812e+004,-1.88828060838358e+000,-3.04291620004864e-001

4.65893434587380e+004,-1.88828031069884e+000,-3.08539321291749e-001

4.72397064571810e+004,-1.88828000461534e+000,-3.12846316106162e-001

4.78991481847569e+004,-1.88827968989527e+000,-3.17213432063878e-001

4.85677953758016e+004,-1.88827936629398e+000,-3.21641508329542e-001

4.92457765337964e+004,-1.88827903355993e+000,-3.26131395778174e-001

4.99332219560642e+004,-1.88827869143443e+000,-3.30683957157947e-001

5.06302637588109e+004,-1.88827833965127e+000,-3.35300067257309e-001

5.13370359025159e+004,-1.88827797793680e+000,-3.39980613070268e-001

5.20536742176771e+004,-1.88827760600949e+000,-3.44726493969355e-001

5.27803164309155e+004,-1.88827722357959e+000,-3.49538621877082e-001

5.35171021914442e+004,-1.88827683034939e+000,-3.54417921439969e-001

5.42641730979066e+004,-1.88827642601226e+000,-3.59365330207967e-001

5.50216727255895e+004,-1.88827601025321e+000,-3.64381798811867e-001

5.57897466540159e+004,-1.88827558274814e+000,-3.69468291147146e-001

5.65685424949235e+004,-1.88827514316327e+000,-3.74625784561024e-001

5.73582099206328e+004,-1.88827469115576e+000,-3.79855270034788e-001

5.81589006928121e+004,-1.88827422637260e+000,-3.85157752379292e-001

5.89707686916437e+004,-1.88827374845093e+000,-3.90534250422991e-001

5.97939699453972e+004,-1.88827325701716e+000,-3.95985797212133e-001

6.06286626604156e+004,-1.88827275168723e+000,-4.01513440204399e-001

6.14750072515201e+004,-1.88827223206587e+000,-4.07118241473226e-001

6.23331663728396e+004,-1.88827169774658e+000,-4.12801277909280e-001

6.32033049490698e+004,-1.88827114831109e+000,-4.18563641427987e-001

6.40855902071694e+004,-1.88827058332896e+000,-4.24406439179885e-001

6.49801917084985e+004,-1.88827000235761e+000,-4.30330793760471e-001

6.58872813814055e+004,-1.88826940494158e+000,-4.36337843427206e-001

6.68070335542691e+004,-1.88826879061227e+000,-4.42428742317241e-001

6.77396249890018e+004,-1.88826815888740e+000,-4.48604660670608e-001

6.86852349150199e+004,-1.88826750927100e+000,-4.54866785050490e-001

6.96440450636895e+004,-1.88826684125276e+000,-4.61216318573819e-001

7.06162397032520e+004,-1.88826615430732e+000,-4.67654481142332e-001

7.16020056742374e+004,-1.88826544789445e+000,-4.74182509673726e-001

7.26015324253724e+004,-1.88826472145815e+000,-4.80801658340600e-001

7.36150120499896e+004,-1.88826397442614e+000,-4.87513198811150e-001

7.46426393229441e+004,-1.88826320620977e+000,-4.94318420491768e-001

7.56846117380472e+004,-1.88826241620315e+000,-5.01218630774445e-001

7.67411295460207e+004,-1.88826160378290e+000,-5.08215155287413e-001

7.78123957929823e+004,-1.88826076830742e+000,-5.15309338149643e-001

7.88986163594682e+004,-1.88825990911648e+000,-5.22502542227152e-001

7.99999999999995e+004,-1.88825902553052e+000,-5.29796149396116e-001

8.11167583832018e+004,-1.88825811685029e+000,-5.37191560804887e-001

8.22491061324848e+004,-1.88825718235606e+000,-5.44690197145074e-001

8.33972608672892e+004,-1.88825622130714e+000,-5.52293498921214e-001

8.45614432449099e+004,-1.88825523294107e+000,-5.60002926728856e-001

8.57418770029029e+004,-1.88825421647314e+000,-5.67819961533208e-001

8.69387890020841e+004,-1.88825317109577e+000,-5.75746104951846e-001

8.81524092701283e+004,-1.88825209597734e+000,-5.83782879545260e-001

8.93829710457770e+004,-1.88825099026234e+000,-5.91931829103322e-001

9.06307108236633e+004,-1.88824985306955e+000,-6.00194518947284e-001

9.18958683997622e+004,-1.88824868349234e+000,-6.08572536222816e-001

9.31786869174758e+004,-1.88824748059698e+000,-6.17067490209531e-001

9.44794129143618e+004,-1.88824624342250e+000,-6.25681012624415e-001

9.57982963695136e+004,-1.88824497097937e+000,-6.34414757937656e-001

9.71355907516031e+004,-1.88824366224888e+000,-6.43270403686968e-001

9.84915530675926e+004,-1.88824231618229e+000,-6.52249650799314e-001

9.98664439121282e+004,-1.88824093169965e+000,-6.61354223916580e-001

1.01260527517622e+005,-1.88823950768902e+000,-6.70585871725375e-001

1.02674071805032e+005,-1.88823804300550e+000,-6.79946367291222e-001

1.04107348435354e+005,-1.88823653647009e+000,-6.89437508398271e-001

1.05560632861831e+005,-1.88823498686874e+000,-6.99061117892211e-001

1.07034204382888e+005,-1.88823339295131e+000,-7.08819044029758e-001

1.08528346195813e+005,-1.88823175343016e+000,-7.18713160831887e-001

1.10043345451179e+005,-1.88823006697925e+000,-7.28745368442089e-001

1.11579493308032e+005,-1.88822833223286e+000,-7.38917593489570e-001

1.13137084989847e+005,-1.88822654778445e+000,-7.49231789456844e-001

1.14716419841265e+005,-1.88822471218507e+000,-7.59689937055298e-001

1.16317801385624e+005,-1.88822282394250e+000,-7.70294044600367e-001

1.17941537383287e+005,-1.88822088151933e+000,-7.81046148399136e-001

1.19587939890794e+005,-1.88821888333205e+000,-7.91948313136164e-001

1.21257325320831e+005,-1.88821682774918e+000,-8.03002632270582e-001

1.22950014503040e+005,-1.88821471309010e+000,-8.14211228433689e-001

1.24666332745679e+005,-1.88821253762328e+000,-8.25576253836149e-001

1.26406609898139e+005,-1.88821029956457e+000,-8.37099890678762e-001

1.28171180414339e+005,-1.88820799707574e+000,-8.48784351568990e-001

1.29960383416997e+005,-1.88820562826277e+000,-8.60631879942624e-001

1.31774562762811e+005,-1.88820319117370e+000,-8.72644750494471e-001

1.33614067108538e+005,-1.88820068379719e+000,-8.84825269610764e-001

1.35479249978003e+005,-1.88819810406054e+000,-8.97175775809243e-001

1.37370469830040e+005,-1.88819544982732e+000,-9.09698640187761e-001

1.39288090127379e+005,-1.88819271889582e+000,-9.22396266874922e-001

1.41232479406504e+005,-1.88818990899671e+000,-9.35271093489359e-001

1.43204011348474e+005,-1.88818701779078e+000,-9.48325591605328e-001

1.45203064850745e+005,-1.88818404286687e+000,-9.61562267224385e-001

1.47230024099979e+005,-1.88818098173925e+000,-9.74983661253441e-001

1.49285278645888e+005,-1.88817783184548e+000,-9.88592349989419e-001

1.51369223476094e+005,-1.88817459054366e+000,-1.00239094561181e+000

1.53482259092041e+005,-1.88817125511004e+000,-1.01638209667903e+000

1.55624791585964e+005,-1.88816782273621e+000,-1.03056848863552e+000

1.57797232718936e+005,-1.88816429052620e+000,-1.04495284432427e+000

1.59999999999999e+005,-1.88816065549395e+000,-1.05953792450403e+000

1.62233516766403e+005,-1.88815691455999e+000,-1.07432652837809e+000

1.64498212264969e+005,-1.88815306454854e+000,-1.08932149412745e+000

1.66794521734578e+005,-1.88814910218420e+000,-1.10452569945205e+000

1.69122886489819e+005,-1.88814502408885e+000,-1.11994206211951e+000

1.71483754005805e+005,-1.88814082677810e+000,-1.13557354052179e+000

1.73877578004168e+005,-1.88813650665762e+000,-1.15142313424035e+000

1.76304818540256e+005,-1.88813206001976e+000,-1.16749388461666e+000

1.78765942091554e+005,-1.88812748303963e+000,-1.18378887533342e+000

1.81261421647326e+005,-1.88812277177118e+000,-1.20031123300201e+000

1.83791736799524e+005,-1.88811792214312e+000,-1.21706412775977e+000

1.86357373834951e+005,-1.88811292995486e+000,-1.23405077387367e+000

1.88958825828723e+005,-1.88810779087208e+000,-1.25127443035423e+000

1.91596592739027e+005,-1.88810250042219e+000,-1.26873840157687e+000

1.94271181503206e+005,-1.88809705398981e+000,-1.28644603791258e+000

1.96983106135185e+005,-1.88809144681199e+000,-1.30440073636680e+000

1.99732887824256e+005,-1.88808567397300e+000,-1.32260594122833e+000

2.02521055035243e+005,-1.88807973039941e+000,-1.34106514472633e+000

2.05348143610063e+005,-1.88807361085491e+000,-1.35978188769584e+000

2.08214696870707e+005,-1.88806730993443e+000,-1.37875976025606e+000

2.11121265723661e+005,-1.88806082205877e+000,-1.39800240249328e+000

2.14068408765776e+005,-1.88805414146856e+000,-1.41751350515857e+000

2.17056692391625e+005,-1.88804726221821e+000,-1.43729681037045e+000

2.20086690902357e+005,-1.88804017816988e+000,-1.45735611233070e+000

2.23158986616063e+005,-1.88803288298644e+000,-1.47769525805049e+000

2.26274169979693e+005,-1.88802537012529e+000,-1.49831814808411e+000

2.29432839682530e+005,-1.88801763283123e+000,-1.51922873727516e+000

2.32635602771247e+005,-1.88800966412916e+000,-1.54043103551394e+000

2.35883074766574e+005,-1.88800145681684e+000,-1.56192910850376e+000

2.39175879781588e+005,-1.88799300345727e+000,-1.58372707853851e+000

2.42514650641661e+005,-1.88798429637051e+000,-1.60582912529393e+000

2.45900029006080e+005,-1.88797532762598e+000,-1.62823948662539e+000

2.49332665491357e+005,-1.88796608903345e+000,-1.65096245938267e+000

2.52813219796278e+005,-1.88795657213490e+000,-1.67400240023190e+000

2.56342360828676e+005,-1.88794676819513e+000,-1.69736372649146e+000

2.59920766833993e+005,-1.88793666819278e+000,-1.72105091698010e+000

2.63549125525621e+005,-1.88792626281052e+000,-1.74506851287649e+000

2.67228134217075e+005,-1.88791554242530e+000,-1.76942111859130e+000

2.70958499956006e+005,-1.88790449709827e+000,-1.79411340265245e+000

2.74740939660078e+005,-1.88789311656401e+000,-1.81915009860375e+000

2.78576180254757e+005,-1.88788139022010e+000,-1.84453600591351e+000

2.82464958813007e+005,-1.88786930711556e+000,-1.87027599090167e+000

2.86408022696948e+005,-1.88785685593962e+000,-1.89637498767552e+000

2.90406129701488e+005,-1.88784402500994e+000,-1.92283799908149e+000

2.94460048199957e+005,-1.88783080226012e+000,-1.94967009767135e+000

2.98570557291775e+005,-1.88781717522744e+000,-1.97687642668138e+000

3.02738446952187e+005,-1.88780313103986e+000,-2.00446220102619e+000

3.06964518184081e+005,-1.88778865640267e+000,-2.03243270830766e+000

3.11249583171928e+005,-1.88777373758492e+000,-2.06079330983924e+000

3.15594465437872e+005,-1.88775836040518e+000,-2.08954944168400e+000

3.19999999999997e+005,-1.88774251021737e+000,-2.11870661570906e+000

3.24467033532806e+005,-1.88772617189562e+000,-2.14827042065655e+000

3.28996424529938e+005,-1.88770932981916e+000,-2.17824652322815e+000

3.33589043469155e+005,-1.88769196785658e+000,-2.20864066918857e+000

3.38245772979638e+005,-1.88767406934989e+000,-2.23945868448285e+000

3.42967508011610e+005,-1.88765561709772e+000,-2.27070647637328e+000

3.47755156008335e+005,-1.88763659333852e+000,-2.30239003459083e+000

3.52609637080511e+005,-1.88761697973326e+000,-2.33451543250525e+000

3.57531884183106e+005,-1.88759675734736e+000,-2.36708882831274e+000

3.62522843294651e+005,-1.88757590663271e+000,-2.40011646624033e+000

3.67583473599047e+005,-1.88755440740857e+000,-2.43360467777074e+000

3.72714747669902e+005,-1.88753223884270e+000,-2.46755988288317e+000

3.77917651657445e+005,-1.88750937943151e+000,-2.50198859131413e+000

3.83193185478053e+005,-1.88748580698003e+000,-2.53689740383784e+000

3.88542363006410e+005,-1.88746149858122e+000,-2.57229301356481e+000

3.93966212270369e+005,-1.88743643059507e+000,-2.60818220726078e+000

3.99465775648511e+005,-1.88741057862687e+000,-2.64457186668527e+000

4.05042110070485e+005,-1.88738391750531e+000,-2.68146896995087e+000

4.10696287220124e+005,-1.88735642125989e+000,-2.71888059290281e+000

4.16429393741414e+005,-1.88732806309788e+000,-2.75681391051968e+000

4.22242531447321e+005,-1.88729881538099e+000,-2.79527619833433e+000

4.28136817531551e+005,-1.88726864960112e+000,-2.83427483387846e+000

4.34113384783250e+005,-1.88723753635619e+000,-2.87381729814569e+000

4.40173381804713e+005,-1.88720544532468e+000,-2.91391117708144e+000

4.46317973232124e+005,-1.88717234524052e+000,-2.95456416308989e+000

4.52548339959385e+005,-1.88713820386686e+000,-2.99578405656812e+000

4.58865679365059e+005,-1.88710298796957e+000,-3.03757876746089e+000

4.65271205542494e+005,-1.88706666329009e+000,-3.07995631683996e+000

4.71766149533147e+005,-1.88702919451789e+000,-3.12292483850647e+000

4.78351759563174e+005,-1.88699054526242e+000,-3.16649258061710e+000

4.85029301283321e+005,-1.88695067802403e+000,-3.21066790733661e+000

4.91800058012158e+005,-1.88690955416528e+000,-3.25545930051162e+000

4.98665330982714e+005,-1.88686713388074e+000,-3.30087536137240e+000

5.05626439592555e+005,-1.88682337616668e+000,-3.34692481225897e+000

5.12684721657352e+005,-1.88677823879025e+000,-3.39361649837196e+000

5.19841533667984e+005,-1.88673167825784e+000,-3.44095938955075e+000

5.27098251051240e+005,-1.88668364978302e+000,-3.48896258207679e+000

5.34456268434150e+005,-1.88663410725364e+000,-3.53763530050476e+000

5.41916999912011e+005,-1.88658300319863e+000,-3.58698689951896e+000

