Freq.,VOut,OutRef

1.00000000000000e+004,-1.50192097232752e+001,-1.21954533986065e-001

1.01395947979003e+004,-1.50192102363359e+001,-1.23656916657759e-001

1.02811382665607e+004,-1.50192107638164e+001,-1.25383062043013e-001

1.04246576084112e+004,-1.50192113061219e+001,-1.27133301785503e-001

1.05701804056138e+004,-1.50192118636690e+001,-1.28907972155835e-001

1.07177346253629e+004,-1.50192124368855e+001,-1.30707414118720e-001

1.08673486252606e+004,-1.50192130262122e+001,-1.32531973389117e-001

1.10190511587661e+004,-1.50192136321013e+001,-1.34382000510840e-001

1.11728713807222e+004,-1.50192142550182e+001,-1.36257850914012e-001

1.13288388529580e+004,-1.50192148954414e+001,-1.38159884987670e-001

1.14869835499703e+004,-1.50192155538627e+001,-1.40088468147769e-001

1.16473358646846e+004,-1.50192162307875e+001,-1.42043970907666e-001

1.18099266142953e+004,-1.50192169267358e+001,-1.44026768947310e-001

1.19747870461893e+004,-1.50192176422421e+001,-1.46037243187857e-001

1.21419488439505e+004,-1.50192183778554e+001,-1.48075779863994e-001

1.23114441334492e+004,-1.50192191341409e+001,-1.50142770596149e-001

1.24833054890161e+004,-1.50192199116791e+001,-1.52238612465980e-001

1.26575659397028e+004,-1.50192207110669e+001,-1.54363708096049e-001

1.28342589756290e+004,-1.50192215329183e+001,-1.56518465718974e-001

1.30134185544193e+004,-1.50192223778639e+001,-1.58703299266090e-001

1.31950791077289e+004,-1.50192232465524e+001,-1.60918628437739e-001

1.33792755478611e+004,-1.50192241396507e+001,-1.63164878787538e-001

1.35660432744767e+004,-1.50192250578445e+001,-1.65442481803267e-001

1.37554181813974e+004,-1.50192260018383e+001,-1.67751874990123e-001

1.39474366635040e+004,-1.50192269723569e+001,-1.70093501953199e-001

1.41421356237309e+004,-1.50192279701450e+001,-1.72467812483574e-001

1.43395524801583e+004,-1.50192289959685e+001,-1.74875262642592e-001

1.45397251732031e+004,-1.50192300506146e+001,-1.77316314851166e-001

1.47426921729110e+004,-1.50192311348927e+001,-1.79791437975853e-001

1.49484924863494e+004,-1.50192322496348e+001,-1.82301107421947e-001

1.51571656651040e+004,-1.50192333956961e+001,-1.84845805221857e-001

1.53687518128801e+004,-1.50192345739560e+001,-1.87426020126481e-001

1.55832915932100e+004,-1.50192357853187e+001,-1.90042247699845e-001

1.58008262372675e+004,-1.50192370307134e+001,-1.92694990415914e-001

1.60213975517924e+004,-1.50192383110955e+001,-1.95384757749482e-001

1.62450479271247e+004,-1.50192396274472e+001,-1.98112066279691e-001

1.64718203453514e+004,-1.50192409807783e+001,-2.00877439781681e-001

1.67017583885674e+004,-1.50192423721267e+001,-2.03681409335139e-001

1.69349062472505e+004,-1.50192438025595e+001,-2.06524513417337e-001

1.71713087287550e+004,-1.50192452731739e+001,-2.09407298010703e-001

1.74110112659224e+004,-1.50192467850973e+001,-2.12330316707326e-001

1.76540599258131e+004,-1.50192483394893e+001,-2.15294130810430e-001

1.79005014185594e+004,-1.50192499375417e+001,-2.18299309446631e-001

1.81503831063432e+004,-1.50192515804797e+001,-2.21346429670612e-001

1.84037530124975e+004,-1.50192532695628e+001,-2.24436076578388e-001

1.86606598307361e+004,-1.50192550060857e+001,-2.27568843415523e-001

1.89211529345119e+004,-1.50192567913796e+001,-2.30745331692394e-001

1.91852823865052e+004,-1.50192586268128e+001,-2.33966151298150e-001

1.94530989482457e+004,-1.50192605137919e+001,-2.37231920618189e-001

1.97246540898671e+004,-1.50192624537629e+001,-2.40543266648384e-001

1.99999999999999e+004,-1.50192644482123e+001,-2.43900825120457e-001

2.02791895958005e+004,-1.50192664986682e+001,-2.47305240616293e-001

2.05622765331213e+004,-1.50192686067014e+001,-2.50757166695360e-001

2.08493152168224e+004,-1.50192707739269e+001,-2.54257266016428e-001

2.11403608112276e+004,-1.50192730020043e+001,-2.57806210467319e-001

2.14354692507258e+004,-1.50192752926403e+001,-2.61404681287796e-001

2.17346972505211e+004,-1.50192776475889e+001,-2.65053369202457e-001

2.20381023175322e+004,-1.50192800686534e+001,-2.68752974549868e-001

2.23457427614443e+004,-1.50192825576874e+001,-2.72504207418182e-001

2.26576777059159e+004,-1.50192851165963e+001,-2.76307787778257e-001

2.29739670999406e+004,-1.50192877473386e+001,-2.80164445621409e-001

2.32946717293690e+004,-1.50192904519278e+001,-2.84074921095657e-001

2.36198532285905e+004,-1.50192932324337e+001,-2.88039964649144e-001

2.39495740923785e+004,-1.50192960909836e+001,-2.92060337171123e-001

2.42838976879009e+004,-1.50192990297646e+001,-2.96136810136212e-001

2.46228882668982e+004,-1.50193020510246e+001,-3.00270165750182e-001

2.49666109780322e+004,-1.50193051570743e+001,-3.04461197100337e-001

2.53151318794055e+004,-1.50193083502888e+001,-3.08710708303560e-001

2.56685179512580e+004,-1.50193116331101e+001,-3.13019514657080e-001

2.60268371088386e+004,-1.50193150080476e+001,-3.17388442798172e-001

2.63901582154578e+004,-1.50193184776809e+001,-3.21818330855335e-001

2.67585510957221e+004,-1.50193220446618e+001,-3.26310028609779e-001

2.71320865489533e+004,-1.50193257117159e+001,-3.30864397652798e-001

2.75108363627948e+004,-1.50193294816447e+001,-3.35482311553597e-001

2.78948733270080e+004,-1.50193333573281e+001,-3.40164656019307e-001

2.82842712474618e+004,-1.50193373417256e+001,-3.44912329065240e-001

2.86791049603164e+004,-1.50193414378800e+001,-3.49726241182867e-001

2.90794503464061e+004,-1.50193456489181e+001,-3.54607315511931e-001

2.94853843458219e+004,-1.50193499780542e+001,-3.59556488014914e-001

2.98969849726987e+004,-1.50193544285921e+001,-3.64574707650862e-001

3.03143313302078e+004,-1.50193590039272e+001,-3.69662936558420e-001

3.07375036257601e+004,-1.50193637075496e+001,-3.74822150232969e-001

3.11665831864199e+004,-1.50193685430466e+001,-3.80053337710965e-001

3.16016524745350e+004,-1.50193735141051e+001,-3.85357501757021e-001

3.20427951035848e+004,-1.50193786245142e+001,-3.90735659052135e-001

3.24900958542493e+004,-1.50193838781688e+001,-3.96188840381641e-001

3.29436406907028e+004,-1.50193892790717e+001,-4.01718090832714e-001

3.34035167771346e+004,-1.50193948313369e+001,-4.07324469986238e-001

3.38698124945009e+004,-1.50194005391925e+001,-4.13009052118757e-001

3.43426174575100e+004,-1.50194064069843e+001,-4.18772926400694e-001

3.48220225318448e+004,-1.50194124391781e+001,-4.24617197101861e-001

3.53081198516260e+004,-1.50194186403639e+001,-4.30542983797318e-001

3.58010028371187e+004,-1.50194250152589e+001,-4.36551421575358e-001

3.63007662126863e+004,-1.50194315687107e+001,-4.42643661251302e-001

3.68075060249948e+004,-1.50194383057017e+001,-4.48820869579451e-001

3.73213196614721e+004,-1.50194452313517e+001,-4.55084229473211e-001

3.78423058690237e+004,-1.50194523509224e+001,-4.61434940223580e-001

3.83705647730104e+004,-1.50194596698212e+001,-4.67874217720728e-001

3.89061978964912e+004,-1.50194671936044e+001,-4.74403294684178e-001

3.94493081797342e+004,-1.50194749279825e+001,-4.81023420886851e-001

3.99999999999998e+004,-1.50194828788234e+001,-4.87735863388952e-001

4.05583791916010e+004,-1.50194910521570e+001,-4.94541906773846e-001

4.11245530662425e+004,-1.50194994541796e+001,-5.01442853382558e-001

4.16986304336447e+004,-1.50195080912584e+001,-5.08440023557342e-001

4.22807216224550e+004,-1.50195169699360e+001,-5.15534755884115e-001

4.28709385014515e+004,-1.50195260969352e+001,-5.22728407439333e-001

4.34693945010421e+004,-1.50195354791640e+001,-5.30022354041173e-001

4.40762046350642e+004,-1.50195451237205e+001,-5.37417990499325e-001

4.46914855228886e+004,-1.50195550378976e+001,-5.44916730876522e-001

4.53153554118317e+004,-1.50195652291890e+001,-5.52520008743870e-001

4.59479341998812e+004,-1.50195757052942e+001,-5.60229277444026e-001

4.65893434587380e+004,-1.50195864741235e+001,-5.68046010359999e-001

4.72397064571810e+004,-1.50195975438047e+001,-5.75971701181330e-001

4.78991481847569e+004,-1.50196089226879e+001,-5.84007864178980e-001

4.85677953758016e+004,-1.50196206193522e+001,-5.92156034479834e-001

4.92457765337964e+004,-1.50196326426111e+001,-6.00417768348486e-001

4.99332219560642e+004,-1.50196450015194e+001,-6.08794643465979e-001

5.06302637588109e+004,-1.50196577053791e+001,-6.17288259220637e-001

5.13370359025159e+004,-1.50196707637461e+001,-6.25900236995483e-001

5.20536742176771e+004,-1.50196841864372e+001,-6.34632220461284e-001

5.27803164309155e+004,-1.50196979835363e+001,-6.43485875874577e-001

5.35171021914442e+004,-1.50197121654021e+001,-6.52462892378380e-001

5.42641730979066e+004,-1.50197267426752e+001,-6.61564982303833e-001

5.50216727255895e+004,-1.50197417262851e+001,-6.70793881481153e-001

5.57897466540159e+004,-1.50197571274582e+001,-6.80151349547390e-001

5.65685424949235e+004,-1.50197729577254e+001,-6.89639170264811e-001

5.73582099206328e+004,-1.50197892289298e+001,-6.99259151837342e-001

5.81589006928121e+004,-1.50198059532354e+001,-7.09013127232589e-001

5.89707686916437e+004,-1.50198231431348e+001,-7.18902954510344e-001

5.97939699453972e+004,-1.50198408114582e+001,-7.28930517149807e-001

6.06286626604156e+004,-1.50198589713817e+001,-7.39097724384946e-001

6.14750072515201e+004,-1.50198776364363e+001,-7.49406511541265e-001

6.23331663728396e+004,-1.50198968205176e+001,-7.59858840376943e-001

6.32033049490698e+004,-1.50199165378941e+001,-7.70456699429120e-001

6.40855902071694e+004,-1.50199368032177e+001,-7.81202104360854e-001

6.49801917084985e+004,-1.50199576315327e+001,-7.92097098316135e-001

6.58872813814055e+004,-1.50199790382865e+001,-8.03143752276167e-001

6.68070335542691e+004,-1.50200010393391e+001,-8.14344165418515e-001

6.77396249890018e+004,-1.50200236509739e+001,-8.25700465484013e-001

6.86852349150199e+004,-1.50200468899083e+001,-8.37214809144430e-001

6.96440450636895e+004,-1.50200707733046e+001,-8.48889382374421e-001

7.06162397032520e+004,-1.50200953187812e+001,-8.60726400828659e-001

7.16020056742374e+004,-1.50201205444233e+001,-8.72728110223697e-001

7.26015324253724e+004,-1.50201464687955e+001,-8.84896786720358e-001

7.36150120499896e+004,-1.50201731109530e+001,-8.97234737313293e-001

7.46426393229441e+004,-1.50202004904536e+001,-9.09744300223259e-001

7.56846117380472e+004,-1.50202286273704e+001,-9.22427845294462e-001

7.67411295460207e+004,-1.50202575423041e+001,-9.35287774394822e-001

7.78123957929823e+004,-1.50202872563956e+001,-9.48326521820704e-001

7.88986163594682e+004,-1.50203177913399e+001,-9.61546554703868e-001

7.99999999999995e+004,-1.50203491693983e+001,-9.74950373427147e-001

8.11167583832018e+004,-1.50203814134127e+001,-9.88540512039857e-001

8.22491061324848e+004,-1.50204145468192e+001,-1.00231953867666e+000

8.33972608672892e+004,-1.50204485936623e+001,-1.01629005598596e+000

8.45614432449099e+004,-1.50204835786088e+001,-1.03045470155561e+000

8.57418770029029e+004,-1.50205195269630e+001,-1.04481614834738e+000

8.69387890020841e+004,-1.50205564646808e+001,-1.05937710513290e+000

8.81524092701283e+004,-1.50205944183858e+001,-1.07414031693396e+000

8.93829710457770e+004,-1.50206334153833e+001,-1.08910856546953e+000

9.06307108236633e+004,-1.50206734836771e+001,-1.10428466960051e+000

9.18958683997622e+004,-1.50207146519845e+001,-1.11967148578647e+000

9.31786869174758e+004,-1.50207569497529e+001,-1.13527190853864e+000

9.44794129143618e+004,-1.50208004071756e+001,-1.15108887088288e+000

9.57982963695136e+004,-1.50208450552089e+001,-1.16712534482219e+000

9.71355907516031e+004,-1.50208909255884e+001,-1.18338434180516e+000

9.84915530675926e+004,-1.50209380508462e+001,-1.19986891319831e+000

9.98664439121282e+004,-1.50209864643280e+001,-1.21658215076150e+000

1.01260527517622e+005,-1.50210362002108e+001,-1.23352718712709e+000

1.02674071805032e+005,-1.50210872935201e+001,-1.25070719628330e+000

1.04107348435354e+005,-1.50211397801482e+001,-1.26812539406072e+000

1.05560632861831e+005,-1.50211936968717e+001,-1.28578503862280e+000

1.07034204382888e+005,-1.50212490813701e+001,-1.30368943096119e+000

1.08528346195813e+005,-1.50213059722439e+001,-1.32184191539126e+000

1.10043345451179e+005,-1.50213644090333e+001,-1.34024588005438e+000

1.11579493308032e+005,-1.50214244322367e+001,-1.35890475742277e+000

1.13137084989847e+005,-1.50214860833294e+001,-1.37782202480750e+000

1.14716419841265e+005,-1.50215494047827e+001,-1.39700120487034e+000

1.16317801385624e+005,-1.50216144400826e+001,-1.41644586613781e+000

1.17941537383287e+005,-1.50216812337492e+001,-1.43615962351957e+000

1.19587939890794e+005,-1.50217498313552e+001,-1.45614613883139e+000

1.21257325320831e+005,-1.50218202795458e+001,-1.47640912131883e+000

1.22950014503040e+005,-1.50218926260571e+001,-1.49695232818475e+000

1.24666332745679e+005,-1.50219669197358e+001,-1.51777956512150e+000

1.26406609898139e+005,-1.50220432105577e+001,-1.53889468684541e+000

1.28171180414339e+005,-1.50221215496474e+001,-1.56030159763329e+000

1.29960383416997e+005,-1.50222019892967e+001,-1.58200425186302e+000

1.31774562762811e+005,-1.50222845829833e+001,-1.60400665455809e+000

1.33614067108538e+005,-1.50223693853900e+001,-1.62631286193296e+000

1.35479249978003e+005,-1.50224564524227e+001,-1.64892698194237e+000

1.37370469830040e+005,-1.50225458412285e+001,-1.67185317483564e+000

1.39288090127379e+005,-1.50226376102141e+001,-1.69509565370934e+000

1.41232479406504e+005,-1.50227318190629e+001,-1.71865868506715e+000

1.43204011348474e+005,-1.50228285287523e+001,-1.74254658938147e+000

1.45203064850745e+005,-1.50229278015712e+001,-1.76676374165584e+000

1.47230024099979e+005,-1.50230297011354e+001,-1.79131457199290e+000

1.49285278645888e+005,-1.50231342924042e+001,-1.81620356616479e+000

1.51369223476094e+005,-1.50232416416955e+001,-1.84143526618443e+000

1.53482259092041e+005,-1.50233518167005e+001,-1.86701427088319e+000

1.55624791585964e+005,-1.50234648864978e+001,-1.89294523648870e+000

1.57797232718936e+005,-1.50235809215666e+001,-1.91923287720714e+000

1.59999999999999e+005,-1.50236999937993e+001,-1.94588196580874e+000

1.62233516766403e+005,-1.50238221765132e+001,-1.97289733421556e+000

1.64498212264969e+005,-1.50239475444613e+001,-2.00028387409358e+000

1.66794521734578e+005,-1.50240761738413e+001,-2.02804653744943e+000

1.69122886489819e+005,-1.50242081423053e+001,-2.05619033722717e+000

1.71483754005805e+005,-1.50243435289666e+001,-2.08472034791216e+000

1.73877578004168e+005,-1.50244824144059e+001,-2.11364170613831e+000

1.76304818540256e+005,-1.50246248806766e+001,-2.14295961129783e+000

1.78765942091554e+005,-1.50247710113076e+001,-2.17267932615870e+000

1.81261421647326e+005,-1.50249208913061e+001,-2.20280617748189e+000

1.83791736799524e+005,-1.50250746071572e+001,-2.23334555664976e+000

1.86357373834951e+005,-1.50252322468233e+001,-2.26430292029373e+000

1.88958825828723e+005,-1.50253938997403e+001,-2.29568379093187e+000

1.91596592739027e+005,-1.50255596568130e+001,-2.32749375761095e+000

1.94271181503206e+005,-1.50257296104080e+001,-2.35973847655454e+000

1.96983106135185e+005,-1.50259038543448e+001,-2.39242367181946e+000

1.99732887824256e+005,-1.50260824838842e+001,-2.42555513595774e+000

2.02521055035243e+005,-1.50262655957148e+001,-2.45913873068872e+000

2.05348143610063e+005,-1.50264532879369e+001,-2.49318038757841e+000

2.08214696870707e+005,-1.50266456600440e+001,-2.52768610872851e+000

2.11121265723661e+005,-1.50268428129017e+001,-2.56266196747526e+000

2.14068408765776e+005,-1.50270448487232e+001,-2.59811410909932e+000

2.17056692391625e+005,-1.50272518710431e+001,-2.63404875154659e+000

2.20086690902357e+005,-1.50274639846869e+001,-2.67047218616233e+000

2.23158986616063e+005,-1.50276812957381e+001,-2.70739077843781e+000

2.26274169979693e+005,-1.50279039115024e+001,-2.74481096877152e+000

2.29432839682530e+005,-1.50281319404675e+001,-2.78273927324594e+000

2.32635602771247e+005,-1.50283654922603e+001,-2.82118228442049e+000

2.35883074766574e+005,-1.50286046776006e+001,-2.86014667214231e+000

2.39175879781588e+005,-1.50288496082504e+001,-2.89963918437567e+000

2.42514650641661e+005,-1.50291003969596e+001,-2.93966664805327e+000

2.45900029006080e+005,-1.50293571574088e+001,-2.98023596994556e+000

2.49332665491357e+005,-1.50296200041467e+001,-3.02135413755847e+000

2.52813219796278e+005,-1.50298890525245e+001,-3.06302822005006e+000

2.56342360828676e+005,-1.50301644186252e+001,-3.10526536917919e+000

2.59920766833993e+005,-1.50304462191899e+001,-3.14807282027756e+000

2.63549125525621e+005,-1.50307345715385e+001,-3.19145789325479e+000

2.67228134217075e+005,-1.50310295934870e+001,-3.23542799363371e+000

2.70958499956006e+005,-1.50313314032598e+001,-3.27999061362020e+000

2.74740939660078e+005,-1.50316401193978e+001,-3.32515333320890e+000

2.78576180254757e+005,-1.50319558606620e+001,-3.37092382132487e+000

2.82464958813007e+005,-1.50322787459326e+001,-3.41730983700925e+000

2.86408022696948e+005,-1.50326088941034e+001,-3.46431923064296e+000

2.90406129701488e+005,-1.50329464239722e+001,-3.51195994521900e+000

2.94460048199957e+005,-1.50332914541259e+001,-3.56024001765848e+000

2.98570557291775e+005,-1.50336441028223e+001,-3.60916758017920e+000

3.02738446952187e+005,-1.50340044878661e+001,-3.65875086171514e+000

3.06964518184081e+005,-1.50343727264824e+001,-3.70899818938997e+000

3.11249583171928e+005,-1.50347489351845e+001,-3.75991799004991e+000

3.15594465437872e+005,-1.50351332296382e+001,-3.81151879185505e+000

3.19999999999997e+005,-1.50355257245228e+001,-3.86380922593472e+000

3.24467033532806e+005,-1.50359265333872e+001,-3.91679802810811e+000

3.28996424529938e+005,-1.50363357685038e+001,-3.97049404067310e+000

3.33589043469155e+005,-1.50367535407179e+001,-4.02490621426747e+000

3.38245772979638e+005,-1.50371799592947e+001,-4.08004360980299e+000

3.42967508011610e+005,-1.50376151317640e+001,-4.13591540047679e+000

3.47755156008335e+005,-1.50380591637613e+001,-4.19253087386360e+000

3.52609637080511e+005,-1.50385121588677e+001,-4.24989943408867e+000

3.57531884183106e+005,-1.50389742184478e+001,-4.30803060408731e+000

3.62522843294651e+005,-1.50394454414860e+001,-4.36693402795150e+000

3.67583473599047e+005,-1.50399259244227e+001,-4.42661947336819e+000

3.72714747669902e+005,-1.50404157609890e+001,-4.48709683414827e+000

3.77917651657445e+005,-1.50409150420424e+001,-4.54837613285338e+000

3.83193185478053e+005,-1.50414238554022e+001,-4.61046752351911e+000

3.88542363006410e+005,-1.50419422856871e+001,-4.67338129447761e+000

3.93966212270369e+005,-1.50424704141537e+001,-4.73712787128283e+000

3.99465775648511e+005,-1.50430083185376e+001,-4.80171781973911e+000

4.05042110070485e+005,-1.50435560728974e+001,-4.86716184903430e+000

4.10696287220124e+005,-1.50441137474631e+001,-4.93347081497970e+000

4.16429393741414e+005,-1.50446814084876e+001,-5.00065572335912e+000

4.22242531447321e+005,-1.50452591181045e+001,-5.06872773338328e+000

4.28136817531551e+005,-1.50458469341909e+001,-5.13769816125781e+000

4.34113384783250e+005,-1.50464449102378e+001,-5.20757848385711e+000

4.40173381804713e+005,-1.50470530952264e+001,-5.27838034251054e+000

4.46317973232124e+005,-1.50476715335146e+001,-5.35011554689704e+000

4.52548339959385e+005,-1.50483002647306e+001,-5.42279607904889e+000

4.58865679365059e+005,-1.50489393236777e+001,-5.49643409746431e+000

4.65271205542494e+005,-1.50495887402494e+001,-5.57104194132566e+000

4.71766149533147e+005,-1.50502485393557e+001,-5.64663213482388e+000

4.78351759563174e+005,-1.50509187408622e+001,-5.72321739158616e+000

4.85029301283321e+005,-1.50515993595423e+001,-5.80081061920435e+000

4.91800058012158e+005,-1.50522904050430e+001,-5.87942492386136e+000

4.98665330982714e+005,-1.50529918818664e+001,-5.95907361505287e+000

5.05626439592555e+005,-1.50537037893655e+001,-6.03977021040040e+000

5.12684721657352e+005,-1.50544261217578e+001,-6.12152844055244e+000

5.19841533667984e+005,-1.50551588681544e+001,-6.20436225416831e+000

5.27098251051240e+005,-1.50559020126085e+001,-6.28828582298064e+000

5.34456268434150e+005,-1.50566555341809e+001,-6.37331354693220e+000

5.41916999912011e+005,-1.50574194070255e+001,-6.45946005938045e+000

