Freq.,VOut,OutRef

1.00000000000000e+004,-1.93884172339228e+001,-1.28353597926607e-001

1.01395947979003e+004,-1.93884179164506e+001,-1.30145300765225e-001

1.02811382665607e+004,-1.93884186181616e+001,-1.31962012864820e-001

1.04246576084112e+004,-1.93884193395953e+001,-1.33804083255761e-001

1.05701804056138e+004,-1.93884200813053e+001,-1.35671865841352e-001

1.07177346253629e+004,-1.93884208438618e+001,-1.37565719457648e-001

1.08673486252606e+004,-1.93884216278503e+001,-1.39486007947517e-001

1.10190511587661e+004,-1.93884224338729e+001,-1.41433100230212e-001

1.11728713807222e+004,-1.93884232625489e+001,-1.43407370368047e-001

1.13288388529580e+004,-1.93884241145147e+001,-1.45409197641463e-001

1.14869835499703e+004,-1.93884249904245e+001,-1.47438966622883e-001

1.16473358646846e+004,-1.93884258909512e+001,-1.49497067245692e-001

1.18099266142953e+004,-1.93884268167862e+001,-1.51583894883669e-001

1.19747870461893e+004,-1.93884277686408e+001,-1.53699850422109e-001

1.21419488439505e+004,-1.93884287472456e+001,-1.55845340340837e-001

1.23114441334492e+004,-1.93884297533524e+001,-1.58020776784366e-001

1.24833054890161e+004,-1.93884307877338e+001,-1.60226577646470e-001

1.26575659397028e+004,-1.93884318511837e+001,-1.62463166650002e-001

1.28342589756290e+004,-1.93884329445191e+001,-1.64730973422011e-001

1.30134185544193e+004,-1.93884340685792e+001,-1.67030433585484e-001

1.31950791077289e+004,-1.93884352242272e+001,-1.69361988833861e-001

1.33792755478611e+004,-1.93884364123502e+001,-1.71726087020704e-001

1.35660432744767e+004,-1.93884376338606e+001,-1.74123182242403e-001

1.37554181813974e+004,-1.93884388896961e+001,-1.76553734928481e-001

1.39474366635040e+004,-1.93884401808206e+001,-1.79018211927076e-001

1.41421356237309e+004,-1.93884415082255e+001,-1.81517086593538e-001

1.43395524801583e+004,-1.93884428729297e+001,-1.84050838882001e-001

1.45397251732031e+004,-1.93884442759805e+001,-1.86619955440019e-001

1.47426921729110e+004,-1.93884457184550e+001,-1.89224929696326e-001

1.49484924863494e+004,-1.93884472014602e+001,-1.91866261958351e-001

1.51571656651040e+004,-1.93884487261346e+001,-1.94544459505844e-001

1.53687518128801e+004,-1.93884502936478e+001,-1.97260036692308e-001

1.55832915932100e+004,-1.93884519052031e+001,-2.00013515035890e-001

1.58008262372675e+004,-1.93884535620373e+001,-2.02805423324364e-001

1.60213975517924e+004,-1.93884552654212e+001,-2.05636297717280e-001

1.62450479271247e+004,-1.93884570166623e+001,-2.08506681841697e-001

1.64718203453514e+004,-1.93884588171040e+001,-2.11417126902690e-001

1.67017583885674e+004,-1.93884606681276e+001,-2.14368191785282e-001

1.69349062472505e+004,-1.93884625711533e+001,-2.17360443161200e-001

1.71713087287550e+004,-1.93884645276408e+001,-2.20394455597141e-001

1.74110112659224e+004,-1.93884665390908e+001,-2.23470811666384e-001

1.76540599258131e+004,-1.93884686070463e+001,-2.26590102054901e-001

1.79005014185594e+004,-1.93884707330935e+001,-2.29752925679182e-001

1.81503831063432e+004,-1.93884729188624e+001,-2.32959889799398e-001

1.84037530124975e+004,-1.93884751660298e+001,-2.36211610130473e-001

1.86606598307361e+004,-1.93884774763185e+001,-2.39508710965965e-001

1.89211529345119e+004,-1.93884798515001e+001,-2.42851825292791e-001

1.91852823865052e+004,-1.93884822933955e+001,-2.46241594913297e-001

1.94530989482457e+004,-1.93884848038770e+001,-2.49678670565141e-001

1.97246540898671e+004,-1.93884873848690e+001,-2.53163712048676e-001

1.99999999999999e+004,-1.93884900383500e+001,-2.56697388349753e-001

2.02791895958005e+004,-1.93884927663537e+001,-2.60280377768546e-001

2.05622765331213e+004,-1.93884955709707e+001,-2.63913368048437e-001

2.08493152168224e+004,-1.93884984543506e+001,-2.67597056503198e-001

2.11403608112276e+004,-1.93885014187026e+001,-2.71332150155701e-001

2.14354692507258e+004,-1.93885044662981e+001,-2.75119365866423e-001

2.17346972505211e+004,-1.93885075994720e+001,-2.78959430473614e-001

2.20381023175322e+004,-1.93885108206242e+001,-2.82853080929490e-001

2.23457427614443e+004,-1.93885141322223e+001,-2.86801064438722e-001

2.26576777059159e+004,-1.93885175368024e+001,-2.90804138603827e-001

2.29739670999406e+004,-1.93885210369718e+001,-2.94863071565200e-001

2.32946717293690e+004,-1.93885246354108e+001,-2.98978642148548e-001

2.36198532285905e+004,-1.93885283348746e+001,-3.03151640011655e-001

2.39495740923785e+004,-1.93885321381952e+001,-3.07382865794509e-001

2.42838976879009e+004,-1.93885360482840e+001,-3.11673131270741e-001

2.46228882668982e+004,-1.93885400681335e+001,-3.16023259502340e-001

2.49666109780322e+004,-1.93885442008202e+001,-3.20434084991980e-001

2.53151318794055e+004,-1.93885484495062e+001,-3.24906453844464e-001

2.56685179512580e+004,-1.93885528174422e+001,-3.29441223924642e-001

2.60268371088386e+004,-1.93885573079696e+001,-3.34039265019248e-001

2.63901582154578e+004,-1.93885619245231e+001,-3.38701459002048e-001

2.67585510957221e+004,-1.93885666706329e+001,-3.43428700001939e-001

2.71320865489533e+004,-1.93885715499285e+001,-3.48221894566668e-001

2.75108363627948e+004,-1.93885765661402e+001,-3.53081961837369e-001

2.78948733270080e+004,-1.93885817231023e+001,-3.58009833722744e-001

2.82842712474618e+004,-1.93885870247564e+001,-3.63006455070092e-001

2.86791049603164e+004,-1.93885924751537e+001,-3.68072783848548e-001

2.90794503464061e+004,-1.93885980784586e+001,-3.73209791324319e-001

2.94853843458219e+004,-1.93886038389513e+001,-3.78418462246926e-001

2.98969849726987e+004,-1.93886097610316e+001,-3.83699795030986e-001

3.03143313302078e+004,-1.93886158492219e+001,-3.89054801946002e-001

3.07375036257601e+004,-1.93886221081702e+001,-3.94484509306856e-001

3.11665831864199e+004,-1.93886285426543e+001,-3.99989957662923e-001

3.16016524745350e+004,-1.93886351575848e+001,-4.05572201996158e-001

3.20427951035848e+004,-1.93886419580091e+001,-4.11232311917443e-001

3.24900958542493e+004,-1.93886489491149e+001,-4.16971371866391e-001

3.29436406907028e+004,-1.93886561362344e+001,-4.22790481314215e-001

3.34035167771346e+004,-1.93886635248481e+001,-4.28690754968196e-001

3.38698124945009e+004,-1.93886711205885e+001,-4.34673322983182e-001

3.43426174575100e+004,-1.93886789292449e+001,-4.40739331168002e-001

3.48220225318448e+004,-1.93886869567676e+001,-4.46889941200877e-001

3.53081198516260e+004,-1.93886952092718e+001,-4.53126330846192e-001

3.58010028371187e+004,-1.93887036930425e+001,-4.59449694173788e-001

3.63007662126863e+004,-1.93887124145397e+001,-4.65861241776895e-001

3.68075060249948e+004,-1.93887213804018e+001,-4.72362201004064e-001

3.73213196614721e+004,-1.93887305974518e+001,-4.78953816180110e-001

3.78423058690237e+004,-1.93887400727017e+001,-4.85637348840726e-001

3.83705647730104e+004,-1.93887498133579e+001,-4.92414077962652e-001

3.89061978964912e+004,-1.93887598268264e+001,-4.99285300204265e-001

3.94493081797342e+004,-1.93887701207181e+001,-5.06252330141275e-001

3.99999999999998e+004,-1.93887807028545e+001,-5.13316500512445e-001

4.05583791916010e+004,-1.93887915812739e+001,-5.20479162462047e-001

4.11245530662425e+004,-1.93888027642365e+001,-5.27741685790941e-001

4.16986304336447e+004,-1.93888142602307e+001,-5.35105459208016e-001

4.22807216224550e+004,-1.93888260779798e+001,-5.42571890583822e-001

4.28709385014515e+004,-1.93888382264475e+001,-5.50142407210622e-001

4.34693945010421e+004,-1.93888507148452e+001,-5.57818456062113e-001

4.40762046350642e+004,-1.93888635526384e+001,-5.65601504059174e-001

4.46914855228886e+004,-1.93888767495531e+001,-5.73493038338846e-001

4.53153554118317e+004,-1.93888903155837e+001,-5.81494566521863e-001

4.59479341998812e+004,-1.93889042609998e+001,-5.89607616991256e-001

4.65893434587380e+004,-1.93889185963533e+001,-5.97833739168292e-001

4.72397064571810e+004,-1.93889333324865e+001,-6.06174503794701e-001

4.78991481847569e+004,-1.93889484805398e+001,-6.14631503215722e-001

4.85677953758016e+004,-1.93889640519594e+001,-6.23206351671011e-001

4.92457765337964e+004,-1.93889800585061e+001,-6.31900685583541e-001

4.99332219560642e+004,-1.93889965122627e+001,-6.40716163857381e-001

5.06302637588109e+004,-1.93890134256438e+001,-6.49654468173647e-001

5.13370359025159e+004,-1.93890308114036e+001,-6.58717303296300e-001

5.20536742176771e+004,-1.93890486826459e+001,-6.67906397374004e-001

5.27803164309155e+004,-1.93890670528325e+001,-6.77223502253308e-001

5.35171021914442e+004,-1.93890859357933e+001,-6.86670393788330e-001

5.42641730979066e+004,-1.93891053457359e+001,-6.96248872160746e-001

5.50216727255895e+004,-1.93891252972555e+001,-7.05960762197644e-001

5.57897466540159e+004,-1.93891458053451e+001,-7.15807913697784e-001

5.65685424949235e+004,-1.93891668854064e+001,-7.25792201756637e-001

5.73582099206328e+004,-1.93891885532599e+001,-7.35915527101374e-001

5.81589006928121e+004,-1.93892108251565e+001,-7.46179816423342e-001

5.89707686916437e+004,-1.93892337177883e+001,-7.56587022719504e-001

5.97939699453972e+004,-1.93892572483006e+001,-7.67139125632911e-001

6.06286626604156e+004,-1.93892814343033e+001,-7.77838131802125e-001

6.14750072515201e+004,-1.93893062938834e+001,-7.88686075208696e-001

6.23331663728396e+004,-1.93893318456168e+001,-7.99685017535518e-001

6.32033049490698e+004,-1.93893581085819e+001,-8.10837048520199e-001

6.40855902071694e+004,-1.93893851023715e+001,-8.22144286322943e-001

6.49801917084985e+004,-1.93894128471070e+001,-8.33608877887151e-001

6.58872813814055e+004,-1.93894413634515e+001,-8.45232999312451e-001

6.68070335542691e+004,-1.93894706726238e+001,-8.57018856228105e-001

6.77396249890018e+004,-1.93895007964127e+001,-8.68968684169835e-001

6.86852349150199e+004,-1.93895317571914e+001,-8.81084748963615e-001

6.96440450636895e+004,-1.93895635779325e+001,-8.93369347107276e-001

7.06162397032520e+004,-1.93895962822232e+001,-9.05824806164492e-001

7.16020056742374e+004,-1.93896298942807e+001,-9.18453485155488e-001

7.26015324253724e+004,-1.93896644389683e+001,-9.31257774954383e-001

7.36150120499896e+004,-1.93896999418114e+001,-9.44240098692532e-001

7.46426393229441e+004,-1.93897364290142e+001,-9.57402912161225e-001

7.56846117380472e+004,-1.93897739274767e+001,-9.70748704222748e-001

7.67411295460207e+004,-1.93898124648119e+001,-9.84279997221049e-001

7.78123957929823e+004,-1.93898520693634e+001,-9.97999347401810e-001

7.88986163594682e+004,-1.93898927702235e+001,-1.01190934533084e+000

7.99999999999995e+004,-1.93899345972517e+001,-1.02601261631934e+000

8.11167583832018e+004,-1.93899775810932e+001,-1.04031182085285e+000

8.22491061324848e+004,-1.93900217531984e+001,-1.05480965502269e+000

8.33972608672892e+004,-1.93900671458420e+001,-1.06950885096350e+000

8.45614432449099e+004,-1.93901137921432e+001,-1.08441217729174e+000

8.57418770029029e+004,-1.93901617260860e+001,-1.09952243955062e+000

8.69387890020841e+004,-1.93902109825397e+001,-1.11484248065678e+000

8.81524092701283e+004,-1.93902615972799e+001,-1.13037518135196e+000

8.93829710457770e+004,-1.93903136070103e+001,-1.14612346065733e+000

9.06307108236633e+004,-1.93903670493843e+001,-1.16209027633275e+000

9.18958683997622e+004,-1.93904219630270e+001,-1.17827862533812e+000

9.31786869174758e+004,-1.93904783875582e+001,-1.19469154430004e+000

9.44794129143618e+004,-1.93905363636154e+001,-1.21133210997947e+000

9.57982963695136e+004,-1.93905959328764e+001,-1.22820343974664e+000

9.71355907516031e+004,-1.93906571380844e+001,-1.24530869205489e+000

9.84915530675926e+004,-1.93907200230707e+001,-1.26265106692228e+000

9.98664439121282e+004,-1.93907846327802e+001,-1.28023380641375e+000

1.01260527517622e+005,-1.93908510132959e+001,-1.29806019512594e+000

1.02674071805032e+005,-1.93909192118642e+001,-1.31613356067833e+000

1.04107348435354e+005,-1.93909892769203e+001,-1.33445727420604e+000

1.05560632861831e+005,-1.93910612581142e+001,-1.35303475085424e+000

1.07034204382888e+005,-1.93911352063375e+001,-1.37186945027710e+000

1.08528346195813e+005,-1.93912111737490e+001,-1.39096487714062e+000

1.10043345451179e+005,-1.93912892138027e+001,-1.41032458162632e+000

1.11579493308032e+005,-1.93913693812741e+001,-1.42995215993896e+000

1.13137084989847e+005,-1.93914517322882e+001,-1.44985125481746e+000

1.14716419841265e+005,-1.93915363243475e+001,-1.47002555604739e+000

1.16317801385624e+005,-1.93916232163596e+001,-1.49047880097601e+000

1.17941537383287e+005,-1.93917124686655e+001,-1.51121477503256e+000

1.19587939890794e+005,-1.93918041430689e+001,-1.53223731224672e+000

1.21257325320831e+005,-1.93918983028640e+001,-1.55355029577368e+000

1.22950014503040e+005,-1.93919950128648e+001,-1.57515765841873e+000

1.24666332745679e+005,-1.93920943394346e+001,-1.59706338316486e+000

1.26406609898139e+005,-1.93921963505146e+001,-1.61927150370435e+000

1.28171180414339e+005,-1.93923011156535e+001,-1.64178610496914e+000

1.29960383416997e+005,-1.93924087060372e+001,-1.66461132366692e+000

1.31774562762811e+005,-1.93925191945177e+001,-1.68775134881588e+000

1.33614067108538e+005,-1.93926326556432e+001,-1.71121042228436e+000

1.35479249978003e+005,-1.93927491656870e+001,-1.73499283933037e+000

1.37370469830040e+005,-1.93928688026774e+001,-1.75910294914382e+000

1.39288090127379e+005,-1.93929916464267e+001,-1.78354515539036e+000

1.41232479406504e+005,-1.93931177785606e+001,-1.80832391675671e+000

1.43204011348474e+005,-1.93932472825467e+001,-1.83344374749955e+000

1.45203064850745e+005,-1.93933802437241e+001,-1.85890921799194e+000

1.47230024099979e+005,-1.93935167493309e+001,-1.88472495527683e+000

1.49285278645888e+005,-1.93936568885331e+001,-1.91089564361657e+000

1.51369223476094e+005,-1.93938007524519e+001,-1.93742602504997e+000

1.53482259092041e+005,-1.93939484341911e+001,-1.96432089994586e+000

1.55624791585964e+005,-1.93941000288639e+001,-1.99158512756085e+000

1.57797232718936e+005,-1.93942556336192e+001,-2.01922362659952e+000

1.59999999999999e+005,-1.93944153476668e+001,-2.04724137577402e+000

1.62233516766403e+005,-1.93945792723026e+001,-2.07564341436759e+000

1.64498212264969e+005,-1.93947475109323e+001,-2.10443484279917e+000

1.66794521734578e+005,-1.93949201690950e+001,-2.13362082318990e+000

1.69122886489819e+005,-1.93950973544849e+001,-2.16320657993301e+000

1.71483754005805e+005,-1.93952791769730e+001,-2.19319740026344e+000

1.73877578004168e+005,-1.93954657486266e+001,-2.22359863483299e+000

1.76304818540256e+005,-1.93956571837288e+001,-2.25441569828678e+000

1.78765942091554e+005,-1.93958535987957e+001,-2.28565406984188e+000

1.81261421647326e+005,-1.93960551125923e+001,-2.31731929387057e+000

1.83791736799524e+005,-1.93962618461480e+001,-2.34941698048673e+000

1.86357373834951e+005,-1.93964739227686e+001,-2.38195280613572e+000

1.88958825828723e+005,-1.93966914680488e+001,-2.41493251418796e+000

1.91596592739027e+005,-1.93969146098807e+001,-2.44836191553933e+000

1.94271181503206e+005,-1.93971434784623e+001,-2.48224688921349e+000

1.96983106135185e+005,-1.93973782063027e+001,-2.51659338297306e+000

1.99732887824256e+005,-1.93976189282256e+001,-2.55140741393452e+000

2.02521055035243e+005,-1.93978657813704e+001,-2.58669506919040e+000

2.05348143610063e+005,-1.93981189051917e+001,-2.62246250643986e+000

2.08214696870707e+005,-1.93983784414546e+001,-2.65871595462642e+000

2.11121265723661e+005,-1.93986445342292e+001,-2.69546171458519e+000

2.14068408765776e+005,-1.93989173298813e+001,-2.73270615969806e+000

2.17056692391625e+005,-1.93991969770608e+001,-2.77045573656243e+000

2.20086690902357e+005,-1.93994836266861e+001,-2.80871696566949e+000

2.23158986616063e+005,-1.93997774319271e+001,-2.84749644209452e+000

2.26274169979693e+005,-1.94000785481833e+001,-2.88680083620260e+000

2.29432839682530e+005,-1.94003871330595e+001,-2.92663689436850e+000

2.32635602771247e+005,-1.94007033463380e+001,-2.96701143971227e+000

2.35883074766574e+005,-1.94010273499465e+001,-3.00793137285196e+000

2.39175879781588e+005,-1.94013593079235e+001,-3.04940367267693e+000

2.42514650641661e+005,-1.94016993863788e+001,-3.09143539713920e+000

2.45900029006080e+005,-1.94020477534509e+001,-3.13403368406780e+000

2.49332665491357e+005,-1.94024045792596e+001,-3.17720575200769e+000

2.52813219796278e+005,-1.94027700358556e+001,-3.22095890108234e+000

2.56342360828676e+005,-1.94031442971650e+001,-3.26530051388379e+000

2.59920766833993e+005,-1.94035275389303e+001,-3.31023805639320e+000

2.63549125525621e+005,-1.94039199386460e+001,-3.35577907893108e+000

2.67228134217075e+005,-1.94043216754918e+001,-3.40193121714106e+000

2.70958499956006e+005,-1.94047329302591e+001,-3.44870219301025e+000

2.74740939660078e+005,-1.94051538852750e+001,-3.49609981592536e+000

2.78576180254757e+005,-1.94055847243208e+001,-3.54413198377231e+000

2.82464958813007e+005,-1.94060256325466e+001,-3.59280668407368e+000

2.86408022696948e+005,-1.94064767963814e+001,-3.64213199517678e+000

2.90406129701488e+005,-1.94069384034385e+001,-3.69211608748566e+000

2.94460048199957e+005,-1.94074106424174e+001,-3.74276722474555e+000

2.98570557291775e+005,-1.94078937030006e+001,-3.79409376538050e+000

3.02738446952187e+005,-1.94083877757469e+001,-3.84610416388696e+000

3.06964518184081e+005,-1.94088930519808e+001,-3.89880697228692e+000

3.11249583171928e+005,-1.94094097236771e+001,-3.95221084164384e+000

3.15594465437872e+005,-1.94099379833436e+001,-4.00632452364227e+000

3.19999999999997e+005,-1.94104780238985e+001,-4.06115687223809e+000

3.24467033532806e+005,-1.94110300385460e+001,-4.11671684537801e+000

3.28996424529938e+005,-1.94115942206478e+001,-4.17301350679609e+000

3.33589043469155e+005,-1.94121707635935e+001,-4.23005602788555e+000

3.38245772979638e+005,-1.94127598606668e+001,-4.28785368965385e+000

3.42967508011610e+005,-1.94133617049115e+001,-4.34641588476039e+000

3.47755156008335e+005,-1.94139764889948e+001,-4.40575211964191e+000

3.52609637080511e+005,-1.94146044050701e+001,-4.46587201672823e+000

3.57531884183106e+005,-1.94152456446386e+001,-4.52678531675185e+000

3.62522843294651e+005,-1.94159003984116e+001,-4.58850188115248e+000

3.67583473599047e+005,-1.94165688561728e+001,-4.65103169458116e+000

3.72714747669902e+005,-1.94172512066410e+001,-4.71438486750778e+000

3.77917651657445e+005,-1.94179476373357e+001,-4.77857163892980e+000

3.83193185478053e+005,-1.94186583344441e+001,-4.84360237919153e+000

3.88542363006410e+005,-1.94193834826910e+001,-4.90948759290931e+000

3.93966212270369e+005,-1.94201232652134e+001,-4.97623792201007e+000

3.99465775648511e+005,-1.94208778634384e+001,-5.04386414888172e+000

4.05042110070485e+005,-1.94216474569673e+001,-5.11237719963918e+000

4.10696287220124e+005,-1.94224322234653e+001,-5.18178814750616e+000

4.16429393741414e+005,-1.94232323385590e+001,-5.25210821631368e+000

4.22242531447321e+005,-1.94240479757404e+001,-5.32334878411794e+000

4.28136817531551e+005,-1.94248793062816e+001,-5.39552138693478e+000

4.34113384783250e+005,-1.94257264991577e+001,-5.46863772259518e+000

4.40173381804713e+005,-1.94265897209816e+001,-5.54270965471655e+000

4.46317973232124e+005,-1.94274691359499e+001,-5.61774921679467e+000

4.52548339959385e+005,-1.94283649058019e+001,-5.69376861640998e+000

4.58865679365059e+005,-1.94292771897926e+001,-5.77078023955135e+000

4.65271205542494e+005,-1.94302061446804e+001,-5.84879665505194e+000

4.71766149533147e+005,-1.94311519247302e+001,-5.92783061913749e+000

4.78351759563174e+005,-1.94321146817344e+001,-6.00789508008317e+000

4.85029301283321e+005,-1.94330945650514e+001,-6.08900318297485e+000

4.91800058012158e+005,-1.94340917216628e+001,-6.17116827457371e+000

4.98665330982714e+005,-1.94351062962507e+001,-6.25440390827695e+000

5.05626439592555e+005,-1.94361384312968e+001,-6.33872384917349e+000

5.12684721657352e+005,-1.94371882672020e+001,-6.42414207918599e+000

5.19841533667984e+005,-1.94382559424300e+001,-6.51067280229537e+000

5.27098251051240e+005,-1.94393415936742e+001,-6.59833044984393e+000

5.34456268434150e+005,-1.94404453560487e+001,-6.68712968590571e+000

5.41916999912011e+005,-1.94415673633058e+001,-6.77708541272244e+000

