Freq.,VOut,OutRef

1.00000000000000e+004,-6.58737749826373e+000,-1.92339254858415e-002

1.01395947979003e+004,-6.58737794481345e+000,-1.95023833301933e-002

1.02811382665607e+004,-6.58737840391209e+000,-1.97745871111745e-002

1.04246576084112e+004,-6.58737887591434e+000,-2.00505890383243e-002

1.05701804056138e+004,-6.58737936118117e+000,-2.03304420709296e-002

1.07177346253629e+004,-6.58737986008629e+000,-2.06141998872516e-002

1.08673486252606e+004,-6.58738037301222e+000,-2.09019169235153e-002

1.10190511587661e+004,-6.58738090035254e+000,-2.11936483698549e-002

1.11728713807222e+004,-6.58738144251270e+000,-2.14894501779647e-002

1.13288388529580e+004,-6.58738199990901e+000,-2.17893790810032e-002

1.14869835499703e+004,-6.58738257296976e+000,-2.20934925979980e-002

1.16473358646846e+004,-6.58738316213384e+000,-2.24018490566133e-002

1.18099266142953e+004,-6.58738376785500e+000,-2.27145075778191e-002

1.19747870461893e+004,-6.58738439059740e+000,-2.30315281191867e-002

1.21419488439505e+004,-6.58738503083925e+000,-2.33529714638043e-002

1.23114441334492e+004,-6.58738568907210e+000,-2.36788992396918e-002

1.24833054890161e+004,-6.58738636580130e+000,-2.40093739300573e-002

1.26575659397028e+004,-6.58738706154654e+000,-2.43444588841641e-002

1.28342589756290e+004,-6.58738777684187e+000,-2.46842183325357e-002

1.30134185544193e+004,-6.58738851223611e+000,-2.50287173978337e-002

1.31950791077289e+004,-6.58738926829362e+000,-2.53780221050409e-002

1.33792755478611e+004,-6.58739004559461e+000,-2.57321993953983e-002

1.35660432744767e+004,-6.58739084473641e+000,-2.60913171325025e-002

1.37554181813974e+004,-6.58739166633133e+000,-2.64554441332110e-002

1.39474366635040e+004,-6.58739251101089e+000,-2.68246501541004e-002

1.41421356237309e+004,-6.58739337942196e+000,-2.71990059350069e-002

1.43395524801583e+004,-6.58739427223239e+000,-2.75785831769369e-002

1.45397251732031e+004,-6.58739519012595e+000,-2.79634545925974e-002

1.47426921729110e+004,-6.58739613380742e+000,-2.83536938902359e-002

1.49484924863494e+004,-6.58739710400070e+000,-2.87493758030673e-002

1.51571656651040e+004,-6.58739810145042e+000,-2.91505760958040e-002

1.53687518128801e+004,-6.58739912692173e+000,-2.95573715845443e-002

1.55832915932100e+004,-6.58740018120032e+000,-2.99698401544020e-002

1.58008262372675e+004,-6.58740126509545e+000,-3.03880607578372e-002

1.60213975517924e+004,-6.58740237943888e+000,-3.08121134406851e-002

1.62450479271247e+004,-6.58740352508451e+000,-3.12420793632510e-002

1.64718203453514e+004,-6.58740470291128e+000,-3.16780408006937e-002

1.67017583885674e+004,-6.58740591382255e+000,-3.21200811669473e-002

1.69349062472505e+004,-6.58740715874581e+000,-3.25682850356271e-002

1.71713087287550e+004,-6.58740843863667e+000,-3.30227381351172e-002

1.74110112659224e+004,-6.58740975447599e+000,-3.34835273873985e-002

1.76540599258131e+004,-6.58741110727241e+000,-3.39507409124356e-002

1.79005014185594e+004,-6.58741249806230e+000,-3.44244680493457e-002

1.81503831063432e+004,-6.58741392791237e+000,-3.49047993618474e-002

1.84037530124975e+004,-6.58741539791852e+000,-3.53918266664471e-002

1.86606598307361e+004,-6.58741690920701e+000,-3.58856430483093e-002

1.89211529345119e+004,-6.58741846293541e+000,-3.63863428760843e-002

1.91852823865052e+004,-6.58742006029456e+000,-3.68940218133863e-002

1.94530989482457e+004,-6.58742170250864e+000,-3.74087768411348e-002

1.97246540898671e+004,-6.58742339083493e+000,-3.79307062830732e-002

1.99999999999999e+004,-6.58742512656711e+000,-3.84599098073331e-002

2.02791895958005e+004,-6.58742691103411e+000,-3.89964884600730e-002

2.05622765331213e+004,-6.58742874560251e+000,-3.95405446730086e-002

2.08493152168224e+004,-6.58743063167789e+000,-4.00921822809082e-002

2.11403608112276e+004,-6.58743257070303e+000,-4.06515065586810e-002

2.14354692507258e+004,-6.58743456416315e+000,-4.12186242128918e-002

2.17346972505211e+004,-6.58743661358383e+000,-4.17936434225699e-002

2.20381023175322e+004,-6.58743872053379e+000,-4.23766738474001e-002

2.23457427614443e+004,-6.58744088662506e+000,-4.29678266543010e-002

2.26576777059159e+004,-6.58744311351563e+000,-4.35672145272726e-002

2.29739670999406e+004,-6.58744540290857e+000,-4.41749517022302e-002

2.32946717293690e+004,-6.58744775655534e+000,-4.47911539735259e-002

2.36198532285905e+004,-6.58745017625662e+000,-4.54159387181565e-002

2.39495740923785e+004,-6.58745266386198e+000,-4.60494249266789e-002

2.42838976879009e+004,-6.58745522127439e+000,-4.66917332049862e-002

2.46228882668982e+004,-6.58745785044818e+000,-4.73429858171642e-002

2.49666109780322e+004,-6.58746055339376e+000,-4.80033066866132e-002

2.53151318794055e+004,-6.58746333217651e+000,-4.86728214338822e-002

2.56685179512580e+004,-6.58746618891976e+000,-4.93516573904120e-002

2.60268371088386e+004,-6.58746912580617e+000,-5.00399436209218e-002

2.63901582154578e+004,-6.58747214507924e+000,-5.07378109476657e-002

2.67585510957221e+004,-6.58747524904490e+000,-5.14453919733800e-002

2.71320865489533e+004,-6.58747844007319e+000,-5.21628211036067e-002

2.75108363627948e+004,-6.58748172060055e+000,-5.28902345679524e-002

2.78948733270080e+004,-6.58748509313032e+000,-5.36277704507851e-002

2.82842712474618e+004,-6.58748856023717e+000,-5.43755686990231e-002

2.86791049603164e+004,-6.58749212456597e+000,-5.51337711650924e-002

2.90794503464061e+004,-6.58749578883567e+000,-5.59025216191528e-002

2.94853843458219e+004,-6.58749955584085e+000,-5.66819657762069e-002

2.98969849726987e+004,-6.58750342845390e+000,-5.74722513202438e-002

3.03143313302078e+004,-6.58750740962668e+000,-5.82735279316750e-002

3.07375036257601e+004,-6.58751150239385e+000,-5.90859473053370e-002

3.11665831864199e+004,-6.58751570987384e+000,-5.99096631838497e-002

3.16016524745350e+004,-6.58752003527116e+000,-6.07448313833980e-002

3.20427951035848e+004,-6.58752448188058e+000,-6.15916098071587e-002

3.24900958542493e+004,-6.58752905308662e+000,-6.24501584908684e-002

3.29436406907028e+004,-6.58753375236981e+000,-6.33206396040774e-002

3.34035167771346e+004,-6.58753858330472e+000,-6.42032175068031e-002

3.38698124945009e+004,-6.58754354956712e+000,-6.50980587454109e-002

3.43426174575100e+004,-6.58754865493385e+000,-6.60053320992399e-002

3.48220225318448e+004,-6.58755390328588e+000,-6.69252086048152e-002

3.53081198516260e+004,-6.58755929861198e+000,-6.78578615778852e-002

3.58010028371187e+004,-6.58756484501164e+000,-6.88034666415746e-002

3.63007662126863e+004,-6.58757054669740e+000,-6.97622017572354e-002

3.68075060249948e+004,-6.58757640799830e+000,-7.07342472506987e-002

3.73213196614721e+004,-6.58758243336298e+000,-7.17197858402362e-002

3.78423058690237e+004,-6.58758862736311e+000,-7.27190026639495e-002

3.83705647730104e+004,-6.58759499469647e+000,-7.37320853092107e-002

3.89061978964912e+004,-6.58760154019018e+000,-7.47592238428384e-002

3.94493081797342e+004,-6.58760826880498e+000,-7.58006108345672e-002

3.99999999999998e+004,-6.58761518563798e+000,-7.68564413911735e-002

4.05583791916010e+004,-6.58762229592730e+000,-7.79269131797536e-002

4.11245530662425e+004,-6.58762960505371e+000,-7.90122264702743e-002

4.16986304336447e+004,-6.58763711854813e+000,-8.01125841415618e-002

4.22807216224550e+004,-6.58764484209224e+000,-8.12281917325659e-002

4.28709385014515e+004,-6.58765278152415e+000,-8.23592574615972e-002

4.34693945010421e+004,-6.58766094284203e+000,-8.35059922595649e-002

4.40762046350642e+004,-6.58766933220931e+000,-8.46686097929872e-002

4.46914855228886e+004,-6.58767795595764e+000,-8.58473265044905e-002

4.53153554118317e+004,-6.58768682059302e+000,-8.70423616307810e-002

4.59479341998812e+004,-6.58769593279932e+000,-8.82539372408262e-002

4.65893434587380e+004,-6.58770529944274e+000,-8.94822782666133e-002

4.72397064571810e+004,-6.58771492757797e+000,-9.07276125252419e-002

4.78991481847569e+004,-6.58772482445226e+000,-9.19901707546158e-002

4.85677953758016e+004,-6.58773499751023e+000,-9.32701866452950e-002

4.92457765337964e+004,-6.58774545440045e+000,-9.45678968614374e-002

4.99332219560642e+004,-6.58775620297935e+000,-9.58835410805914e-002

5.06302637588109e+004,-6.58776725131686e+000,-9.72173620218515e-002

5.13370359025159e+004,-6.58777860770322e+000,-9.85696054685922e-002

5.20536742176771e+004,-6.58779028065406e+000,-9.99405203016080e-002

5.27803164309155e+004,-6.58780227891555e+000,-1.01330358534604e-001

5.35171021914442e+004,-6.58781461147141e+000,-1.02739375336087e-001

5.42641730979066e+004,-6.58782728754872e+000,-1.04167829062070e-001

5.50216727255895e+004,-6.58784031662448e+000,-1.05615981282367e-001

5.57897466540159e+004,-6.58785370843192e+000,-1.07084096811795e-001

5.65685424949235e+004,-6.58786747296664e+000,-1.08572443740725e-001

5.73582099206328e+004,-6.58788162049457e+000,-1.10081293456404e-001

5.81589006928121e+004,-6.58789616155804e+000,-1.11610920676351e-001

5.89707686916437e+004,-6.58791110698290e+000,-1.13161603476089e-001

5.97939699453972e+004,-6.58792646788569e+000,-1.14733623316095e-001

6.06286626604156e+004,-6.58794225568219e+000,-1.16327265062987e-001

6.14750072515201e+004,-6.58795848209348e+000,-1.17942817024060e-001

6.23331663728396e+004,-6.58797515915461e+000,-1.19580570968675e-001

6.32033049490698e+004,-6.58799229922239e+000,-1.21240822153963e-001

6.40855902071694e+004,-6.58800991498330e+000,-1.22923869351345e-001

6.49801917084985e+004,-6.58802801946203e+000,-1.24630014868886e-001

6.58872813814055e+004,-6.58804662602999e+000,-1.26359564574760e-001

6.68070335542691e+004,-6.58806574841342e+000,-1.28112827923319e-001

6.77396249890018e+004,-6.58808540070294e+000,-1.29890117973429e-001

6.86852349150199e+004,-6.58810559736224e+000,-1.31691751411090e-001

6.96440450636895e+004,-6.58812635323744e+000,-1.33518048569506e-001

7.06162397032520e+004,-6.58814768356567e+000,-1.35369333453847e-001

7.16020056742374e+004,-6.58816960398628e+000,-1.37245933749408e-001

7.26015324253724e+004,-6.58819213054915e+000,-1.39148180849148e-001

7.36150120499896e+004,-6.58821527972519e+000,-1.41076409866145e-001

7.46426393229441e+004,-6.58823906841635e+000,-1.43030959650704e-001

7.56846117380472e+004,-6.58826351396666e+000,-1.45012172800385e-001

7.67411295460207e+004,-6.58828863417211e+000,-1.47020395676764e-001

7.78123957929823e+004,-6.58831444729080e+000,-1.49055978421638e-001

7.88986163594682e+004,-6.58834097205546e+000,-1.51119274956928e-001

7.99999999999995e+004,-6.58836822768354e+000,-1.53210643000166e-001

8.11167583832018e+004,-6.58839623388842e+000,-1.55330444072962e-001

8.22491061324848e+004,-6.58842501089217e+000,-1.57479043498797e-001

8.33972608672892e+004,-6.58845457943488e+000,-1.59656810421969e-001

8.45614432449099e+004,-6.58848496078995e+000,-1.61864117788597e-001

8.57418770029029e+004,-6.58851617677247e+000,-1.64101342370205e-001

8.69387890020841e+004,-6.58854824975445e+000,-1.66368864743959e-001

8.81524092701283e+004,-6.58858120267623e+000,-1.68667069295376e-001

8.93829710457770e+004,-6.58861505905884e+000,-1.70996344214404e-001

9.06307108236633e+004,-6.58864984301706e+000,-1.73357081485996e-001

9.18958683997622e+004,-6.58868557927264e+000,-1.75749676878256e-001

9.31786869174758e+004,-6.58872229316753e+000,-1.78174529928881e-001

9.44794129143618e+004,-6.58876001067633e+000,-1.80632043936159e-001

9.57982963695136e+004,-6.58879875842147e+000,-1.83122625929054e-001

9.71355907516031e+004,-6.58883856368538e+000,-1.85646686656790e-001

9.84915530675926e+004,-6.58887945442486e+000,-1.88204640559885e-001

9.98664439121282e+004,-6.58892145928496e+000,-1.90796905745619e-001

1.01260527517622e+005,-6.58896460761347e+000,-1.93423903953302e-001

1.02674071805032e+005,-6.58900892947423e+000,-1.96086060527882e-001

1.04107348435354e+005,-6.58905445566185e+000,-1.98783804379694e-001

1.05560632861831e+005,-6.58910121771705e+000,-2.01517567938679e-001

1.07034204382888e+005,-6.58914924793914e+000,-2.04287787122865e-001

1.08528346195813e+005,-6.58919857940292e+000,-2.07094901275725e-001

1.10043345451179e+005,-6.58924924597076e+000,-2.09939353130414e-001

1.11579493308032e+005,-6.58930128230991e+000,-2.12821588737459e-001

1.13137084989847e+005,-6.58935472390459e+000,-2.15742057420994e-001

1.14716419841265e+005,-6.58940960707281e+000,-2.18701211700745e-001

1.16317801385624e+005,-6.58946596898011e+000,-2.21699507229214e-001

1.17941537383287e+005,-6.58952384765372e+000,-2.24737402720977e-001

1.19587939890794e+005,-6.58958328199812e+000,-2.27815359868253e-001

1.21257325320831e+005,-6.58964431180897e+000,-2.30933843261571e-001

1.22950014503040e+005,-6.58970697778761e+000,-2.34093320300543e-001

1.24666332745679e+005,-6.58977132155557e+000,-2.37294261098130e-001

1.26406609898139e+005,-6.58983738566844e+000,-2.40537138383818e-001

1.28171180414339e+005,-6.58990521362970e+000,-2.43822427399687e-001

1.29960383416997e+005,-6.58997484990475e+000,-2.47150605787433e-001

1.31774562762811e+005,-6.59004633993426e+000,-2.50522153473014e-001

1.33614067108538e+005,-6.59011973014707e+000,-2.53937552546159e-001

1.35479249978003e+005,-6.59019506797339e+000,-2.57397287129729e-001

1.37370469830040e+005,-6.59027240185736e+000,-2.60901843243992e-001

1.39288090127379e+005,-6.59035178126847e+000,-2.64451708669932e-001

1.41232479406504e+005,-6.59043325671400e+000,-2.68047372796370e-001

1.43204011348474e+005,-6.59051687974946e+000,-2.71689326468845e-001

1.45203064850745e+005,-6.59060270298960e+000,-2.75378061825919e-001

1.47230024099979e+005,-6.59069078011814e+000,-2.79114072133023e-001

1.49285278645888e+005,-6.59078116589712e+000,-2.82897851605250e-001

1.51369223476094e+005,-6.59087391617589e+000,-2.86729895223366e-001

1.53482259092041e+005,-6.59096908789782e+000,-2.90610698550043e-001

1.55624791585964e+005,-6.59106673910923e+000,-2.94540757521557e-001

1.57797232718936e+005,-6.59116692896339e+000,-2.98520568254326e-001

1.59999999999999e+005,-6.59126971772701e+000,-3.02550626825609e-001

1.62233516766403e+005,-6.59137516678419e+000,-3.06631429053743e-001

1.64498212264969e+005,-6.59148333863870e+000,-3.10763470274622e-001

1.66794521734578e+005,-6.59159429691688e+000,-3.14947245100217e-001

1.69122886489819e+005,-6.59170810636744e+000,-3.19183247180146e-001

1.71483754005805e+005,-6.59182483286090e+000,-3.23471968948442e-001

1.73877578004168e+005,-6.59194454338759e+000,-3.27813901365299e-001

1.76304818540256e+005,-6.59206730605340e+000,-3.32209533652951e-001

1.78765942091554e+005,-6.59219319007517e+000,-3.36659353018122e-001

1.81261421647326e+005,-6.59232226577328e+000,-3.41163844373105e-001

1.83791736799524e+005,-6.59245460456258e+000,-3.45723490048943e-001

1.86357373834951e+005,-6.59259027894223e+000,-3.50338769495842e-001

1.88958825828723e+005,-6.59272936248275e+000,-3.55010158982320e-001

1.91596592739027e+005,-6.59287192981110e+000,-3.59738131286342e-001

1.94271181503206e+005,-6.59301805659401e+000,-3.64523155376521e-001

1.96983106135185e+005,-6.59316781951783e+000,-3.69365696095224e-001

1.99732887824256e+005,-6.59332129626798e+000,-3.74266213822299e-001

2.02521055035243e+005,-6.59347856550371e+000,-3.79225164147147e-001

2.05348143610063e+005,-6.59363970683143e+000,-3.84242997527151e-001

2.08214696870707e+005,-6.59380480077476e+000,-3.89320158945340e-001

2.11121265723661e+005,-6.59397392874267e+000,-3.94457087557000e-001

2.14068408765776e+005,-6.59414717299245e+000,-3.99654216346126e-001

2.17056692391625e+005,-6.59432461659220e+000,-4.04911971762327e-001

2.20086690902357e+005,-6.59450634337807e+000,-4.10230773367765e-001

2.23158986616063e+005,-6.59469243790896e+000,-4.15611033476027e-001

2.26274169979693e+005,-6.59488298541777e+000,-4.21053156791410e-001

2.29432839682530e+005,-6.59507807175834e+000,-4.26557540050697e-001

2.32635602771247e+005,-6.59527778334976e+000,-4.32124571659434e-001

2.35883074766574e+005,-6.59548220711578e+000,-4.37754631335916e-001

2.39175879781588e+005,-6.59569143042064e+000,-4.43448089756287e-001

2.42514650641661e+005,-6.59590554100097e+000,-4.49205308200825e-001

2.45900029006080e+005,-6.59612462689329e+000,-4.55026638207424e-001

2.49332665491357e+005,-6.59634877635739e+000,-4.60912421230058e-001

2.52813219796278e+005,-6.59657807779466e+000,-4.66862988308143e-001

2.56342360828676e+005,-6.59681261966320e+000,-4.72878659737010e-001

2.59920766833993e+005,-6.59705249038681e+000,-4.78959744758090e-001

2.63549125525621e+005,-6.59729777826056e+000,-4.85106541253318e-001

2.67228134217075e+005,-6.59754857135096e+000,-4.91319335456235e-001

2.70958499956006e+005,-6.59780495739117e+000,-4.97598401679503e-001

2.74740939660078e+005,-6.59806702367234e+000,-5.03944002053915e-001

2.78576180254757e+005,-6.59833485692861e+000,-5.10356386292723e-001

2.82464958813007e+005,-6.59860854321848e+000,-5.16835791471073e-001

2.86408022696948e+005,-6.59888816780026e+000,-5.23382441831079e-001

2.90406129701488e+005,-6.59917381500323e+000,-5.29996548609550e-001

2.94460048199957e+005,-6.59946556809339e+000,-5.36678309893827e-001

2.98570557291775e+005,-6.59976350913445e+000,-5.43427910506022e-001

3.02738446952187e+005,-6.60006771884436e+000,-5.50245521914886e-001

3.06964518184081e+005,-6.60037827644613e+000,-5.57131302187361e-001

3.11249583171928e+005,-6.60069525951465e+000,-5.64085395970565e-001

3.15594465437872e+005,-6.60101874381870e+000,-5.71107934512964e-001

3.19999999999997e+005,-6.60134880315827e+000,-5.78199035727274e-001

3.24467033532806e+005,-6.60168550919793e+000,-5.85358804293083e-001

3.28996424529938e+005,-6.60202893129541e+000,-5.92587331809022e-001

3.33589043469155e+005,-6.60237913632677e+000,-5.99884696988571e-001

3.38245772979638e+005,-6.60273618850767e+000,-6.07250965907334e-001

3.42967508011610e+005,-6.60310014921077e+000,-6.14686192303751e-001

3.47755156008335e+005,-6.60347107678034e+000,-6.22190417934639e-001

3.52609637080511e+005,-6.60384902634378e+000,-6.29763672985792e-001

3.57531884183106e+005,-6.60423404962051e+000,-6.37405976545633e-001

3.62522843294651e+005,-6.60462619472876e+000,-6.45117337137640e-001

3.67583473599047e+005,-6.60502550599026e+000,-6.52897753320351e-001

3.72714747669902e+005,-6.60543202373371e+000,-6.60747214350778e-001

3.77917651657445e+005,-6.60584578409748e+000,-6.68665700916983e-001

3.83193185478053e+005,-6.60626681883125e+000,-6.76653185943210e-001

3.88542363006410e+005,-6.60669515509836e+000,-6.84709635462430e-001

3.93966212270369e+005,-6.60713081527844e+000,-6.92835009566312e-001

3.99465775648511e+005,-6.60757381677057e+000,-7.01029263431231e-001

4.05042110070485e+005,-6.60802417179978e+000,-7.09292348413466e-001

4.10696287220124e+005,-6.60848188722400e+000,-7.17624213231876e-001

4.16429393741414e+005,-6.60894696434520e+000,-7.26024805221210e-001

4.22242531447321e+005,-6.60941939872409e+000,-7.34494071667160e-001

4.28136817531551e+005,-6.60989917999896e+000,-7.43031961218995e-001

4.34113384783250e+005,-6.61038629170931e+000,-7.51638425384528e-001

4.40173381804713e+005,-6.61088071112608e+000,-7.60313420099985e-001

4.46317973232124e+005,-6.61138240908752e+000,-7.69056907381907e-001

4.52548339959385e+005,-6.61189134984307e+000,-7.77868857053206e-001

4.58865679365059e+005,-6.61240749090502e+000,-7.86749248547977e-001

4.65271205542494e+005,-6.61293078290873e+000,-7.95698072790969e-001

4.71766149533147e+005,-6.61346116948271e+000,-8.04715334148996e-001

4.78351759563174e+005,-6.61399858712919e+000,-8.13801052452845e-001

4.85029301283321e+005,-6.61454296511538e+000,-8.22955265088880e-001

4.91800058012158e+005,-6.61509422537660e+000,-8.32178029155593e-001

4.98665330982714e+005,-6.61565228243260e+000,-8.41469423677946e-001

5.05626439592555e+005,-6.61621704331618e+000,-8.50829551886425e-001

5.12684721657352e+005,-6.61678840751645e+000,-8.60258543544566e-001

5.19841533667984e+005,-6.61736626693651e+000,-8.69756557327581e-001

5.27098251051240e+005,-6.61795050586613e+000,-8.79323783246816e-001

5.34456268434150e+005,-6.61854100097086e+000,-8.88960445109987e-001

5.41916999912011e+005,-6.61913762129623e+000,-8.98666803022070e-001

