Freq.,VOut,OutRef

1.00000000000000e+004,-1.79505039670183e+001,-2.06705095465715e-001

1.01395947979003e+004,-1.79505045093021e+001,-2.09590571528208e-001

1.02811382665607e+004,-1.79505050668296e+001,-2.12516326507032e-001

1.04246576084112e+004,-1.79505056400294e+001,-2.15482922638044e-001

1.05701804056138e+004,-1.79505062293420e+001,-2.18490930005886e-001

1.07177346253629e+004,-1.79505068352201e+001,-2.21540926652826e-001

1.08673486252606e+004,-1.79505074581294e+001,-2.24633498686180e-001

1.10190511587661e+004,-1.79505080985486e+001,-2.27769240395242e-001

1.11728713807222e+004,-1.79505087569700e+001,-2.30948754361759e-001

1.13288388529580e+004,-1.79505094338992e+001,-2.34172651580601e-001

1.14869835499703e+004,-1.79505101298566e+001,-2.37441551569669e-001

1.16473358646846e+004,-1.79505108453770e+001,-2.40756082496334e-001

1.18099266142953e+004,-1.79505115810101e+001,-2.44116881293165e-001

1.19747870461893e+004,-1.79505123373211e+001,-2.47524593783059e-001

1.21419488439505e+004,-1.79505131148914e+001,-2.50979874799321e-001

1.23114441334492e+004,-1.79505139143182e+001,-2.54483388317367e-001

1.24833054890161e+004,-1.79505147362159e+001,-2.58035807576698e-001

1.26575659397028e+004,-1.79505155812161e+001,-2.61637815213255e-001

1.28342589756290e+004,-1.79505164499678e+001,-2.65290103389025e-001

1.30134185544193e+004,-1.79505173431387e+001,-2.68993373926114e-001

1.31950791077289e+004,-1.79505182614150e+001,-2.72748338439781e-001

1.33792755478611e+004,-1.79505192055021e+001,-2.76555718477092e-001

1.35660432744767e+004,-1.79505201761255e+001,-2.80416245653692e-001

1.37554181813974e+004,-1.79505211740308e+001,-2.84330661795506e-001

1.39474366635040e+004,-1.79505221999847e+001,-2.88299719079687e-001

1.41421356237309e+004,-1.79505232547753e+001,-2.92324180181005e-001

1.43395524801583e+004,-1.79505243392130e+001,-2.96404818415812e-001

1.45397251732031e+004,-1.79505254541309e+001,-3.00542417892015e-001

1.47426921729110e+004,-1.79505266003856e+001,-3.04737773659543e-001

1.49484924863494e+004,-1.79505277788574e+001,-3.08991691862538e-001

1.51571656651040e+004,-1.79505289904518e+001,-3.13304989893544e-001

1.53687518128801e+004,-1.79505302360994e+001,-3.17678496551673e-001

1.55832915932100e+004,-1.79505315167570e+001,-3.22113052200821e-001

1.58008262372675e+004,-1.79505328334083e+001,-3.26609508930484e-001

1.60213975517924e+004,-1.79505341870647e+001,-3.31168730719359e-001

1.62450479271247e+004,-1.79505355787659e+001,-3.35791593601762e-001

1.64718203453514e+004,-1.79505370095808e+001,-3.40478985836586e-001

1.67017583885674e+004,-1.79505384806082e+001,-3.45231808074917e-001

1.69349062472505e+004,-1.79505399929782e+001,-3.50050973533816e-001

1.71713087287550e+004,-1.79505415478520e+001,-3.54937408174257e-001

1.74110112659224e+004,-1.79505431464240e+001,-3.59892050874366e-001

1.76540599258131e+004,-1.79505447899215e+001,-3.64915853612871e-001

1.79005014185594e+004,-1.79505464796069e+001,-3.70009781649362e-001

1.81503831063432e+004,-1.79505482167775e+001,-3.75174813711559e-001

1.84037530124975e+004,-1.79505500027675e+001,-3.80411942180268e-001

1.86606598307361e+004,-1.79505518389482e+001,-3.85722173283021e-001

1.89211529345119e+004,-1.79505537267294e+001,-3.91106527284400e-001

1.91852823865052e+004,-1.79505556675607e+001,-3.96566038681785e-001

1.94530989482457e+004,-1.79505576629322e+001,-4.02101756405215e-001

1.97246540898671e+004,-1.79505597143758e+001,-4.07714744017621e-001

1.99999999999999e+004,-1.79505618234666e+001,-4.13406079917680e-001

2.02791895958005e+004,-1.79505639918236e+001,-4.19176857548193e-001

2.05622765331213e+004,-1.79505662211114e+001,-4.25028185605523e-001

2.08493152168224e+004,-1.79505685130414e+001,-4.30961188249051e-001

2.11403608112276e+004,-1.79505708693729e+001,-4.36977005321695e-001

2.14354692507258e+004,-1.79505732919145e+001,-4.43076792564151e-001

2.17346972505211e+004,-1.79505757825255e+001,-4.49261721838424e-001

2.20381023175322e+004,-1.79505783431178e+001,-4.55532981349952e-001

2.23457427614443e+004,-1.79505809756563e+001,-4.61891775878972e-001

2.26576777059159e+004,-1.79505836821612e+001,-4.68339327008636e-001

2.29739670999406e+004,-1.79505864647098e+001,-4.74876873357833e-001

2.32946717293690e+004,-1.79505893254373e+001,-4.81505670821808e-001

2.36198532285905e+004,-1.79505922665384e+001,-4.88226992811194e-001

2.39495740923785e+004,-1.79505952902701e+001,-4.95042130493524e-001

2.42838976879009e+004,-1.79505983989523e+001,-5.01952393043694e-001

2.46228882668982e+004,-1.79506015949699e+001,-5.08959107892703e-001

2.49666109780322e+004,-1.79506048807747e+001,-5.16063620983121e-001

2.53151318794055e+004,-1.79506082588873e+001,-5.23267297025236e-001

2.56685179512580e+004,-1.79506117318988e+001,-5.30571519757759e-001

2.60268371088386e+004,-1.79506153024733e+001,-5.37977692214815e-001

2.63901582154578e+004,-1.79506189733490e+001,-5.45487236992392e-001

2.67585510957221e+004,-1.79506227473413e+001,-5.53101596521405e-001

2.71320865489533e+004,-1.79506266273442e+001,-5.60822233343621e-001

2.75108363627948e+004,-1.79506306163331e+001,-5.68650630389816e-001

2.78948733270080e+004,-1.79506347173664e+001,-5.76588291264980e-001

2.82842712474618e+004,-1.79506389335883e+001,-5.84636740536250e-001

2.86791049603164e+004,-1.79506432682313e+001,-5.92797524021812e-001

2.90794503464061e+004,-1.79506477246179e+001,-6.01072209088999e-001

2.94853843458219e+004,-1.79506523061643e+001,-6.09462384951554e-001

2.98969849726987e+004,-1.79506570163819e+001,-6.17969662975050e-001

3.03143313302078e+004,-1.79506618588804e+001,-6.26595676984333e-001

3.07375036257601e+004,-1.79506668373709e+001,-6.35342083573853e-001

3.11665831864199e+004,-1.79506719556682e+001,-6.44210562426091e-001

3.16016524745350e+004,-1.79506772176935e+001,-6.53202816632408e-001

3.20427951035848e+004,-1.79506826274785e+001,-6.62320573015215e-001

3.24900958542493e+004,-1.79506881891669e+001,-6.71565582461601e-001

3.29436406907028e+004,-1.79506939070189e+001,-6.80939620253764e-001

3.34035167771346e+004,-1.79506997854136e+001,-6.90444486410706e-001

3.38698124945009e+004,-1.79507058288526e+001,-7.00082006029118e-001

3.43426174575100e+004,-1.79507120419635e+001,-7.09854029633109e-001

3.48220225318448e+004,-1.79507184295032e+001,-7.19762433525507e-001

3.53081198516260e+004,-1.79507249963616e+001,-7.29809120147628e-001

3.58010028371187e+004,-1.79507317475653e+001,-7.39996018439624e-001

3.63007662126863e+004,-1.79507386882812e+001,-7.50325084209948e-001

3.68075060249948e+004,-1.79507458238210e+001,-7.60798300505437e-001

3.73213196614721e+004,-1.79507531596444e+001,-7.71417677991705e-001

3.78423058690237e+004,-1.79507607013638e+001,-7.82185255334191e-001

3.83705647730104e+004,-1.79507684547481e+001,-7.93103099587324e-001

3.89061978964912e+004,-1.79507764257278e+001,-8.04173306585701e-001

3.94493081797342e+004,-1.79507846203982e+001,-8.15398001346422e-001

3.99999999999998e+004,-1.79507930450256e+001,-8.26779338468947e-001

4.05583791916010e+004,-1.79508017060504e+001,-8.38319502548799e-001

4.11245530662425e+004,-1.79508106100932e+001,-8.50020708589285e-001

4.16986304336447e+004,-1.79508197639591e+001,-8.61885202425396e-001

4.22807216224550e+004,-1.79508291746429e+001,-8.73915261148507e-001

4.28709385014515e+004,-1.79508388493344e+001,-8.86113193538997e-001

4.34693945010421e+004,-1.79508487954242e+001,-8.98481340505120e-001

4.40762046350642e+004,-1.79508590205085e+001,-9.11022075526647e-001

4.46914855228886e+004,-1.79508695323952e+001,-9.23737805105611e-001

4.53153554118317e+004,-1.79508803391098e+001,-9.36630969222891e-001

4.59479341998812e+004,-1.79508914489012e+001,-9.49704041799978e-001

4.65893434587380e+004,-1.79509028702479e+001,-9.62959531167819e-001

4.72397064571810e+004,-1.79509146118647e+001,-9.76399980542640e-001

4.78991481847569e+004,-1.79509266827085e+001,-9.90027968507204e-001

4.85677953758016e+004,-1.79509390919856e+001,-1.00384610949813e+000

4.92457765337964e+004,-1.79509518491581e+001,-1.01785705430200e+000

4.99332219560642e+004,-1.79509649639516e+001,-1.03206349055475e+000

5.06302637588109e+004,-1.79509784463614e+001,-1.04646814325230e+000

5.13370359025159e+004,-1.79509923066608e+001,-1.06107377526239e+000

5.20536742176771e+004,-1.79510065554086e+001,-1.07588318784893e+000

5.27803164309155e+004,-1.79510212034566e+001,-1.09089922119866e+000

5.35171021914442e+004,-1.79510362619575e+001,-1.10612475495952e+000

5.42641730979066e+004,-1.79510517423739e+001,-1.12156270878091e+000

5.50216727255895e+004,-1.79510676564861e+001,-1.13721604286664e+000

5.57897466540159e+004,-1.79510840164010e+001,-1.15308775852981e+000

5.65685424949235e+004,-1.79511008345610e+001,-1.16918089876048e+000

5.73582099206328e+004,-1.79511181237533e+001,-1.18549854879771e+000

5.81589006928121e+004,-1.79511358971190e+001,-1.20204383670831e+000

5.89707686916437e+004,-1.79511541681633e+001,-1.21881993397586e+000

5.97939699453972e+004,-1.79511729507644e+001,-1.23583005609814e+000

6.06286626604156e+004,-1.79511922591851e+001,-1.25307746318722e+000

6.14750072515201e+004,-1.79512121080819e+001,-1.27056546058418e+000

6.23331663728396e+004,-1.79512325125164e+001,-1.28829739947774e+000

6.32033049490698e+004,-1.79512534879663e+001,-1.30627667753255e+000

6.40855902071694e+004,-1.79512750503363e+001,-1.32450673952426e+000

6.49801917084985e+004,-1.79512972159700e+001,-1.34299107798611e+000

6.58872813814055e+004,-1.79513200016615e+001,-1.36173323386090e+000

6.68070335542691e+004,-1.79513434246683e+001,-1.38073679716169e+000

6.77396249890018e+004,-1.79513675027224e+001,-1.40000540764446e+000

6.86852349150199e+004,-1.79513922540446e+001,-1.41954275548558e+000

6.96440450636895e+004,-1.79514176973567e+001,-1.43935258196996e+000

7.06162397032520e+004,-1.79514438518954e+001,-1.45943868018863e+000

7.16020056742374e+004,-1.79514707374258e+001,-1.47980489574442e+000

7.26015324253724e+004,-1.79514983742562e+001,-1.50045512746648e+000

7.36150120499896e+004,-1.79515267832517e+001,-1.52139332813671e+000

7.46426393229441e+004,-1.79515559858502e+001,-1.54262350522179e+000

7.56846117380472e+004,-1.79515860040768e+001,-1.56414972161672e+000

7.67411295460207e+004,-1.79516168605599e+001,-1.58597609639969e+000

7.78123957929823e+004,-1.79516485785473e+001,-1.60810680559183e+000

7.88986163594682e+004,-1.79516811819224e+001,-1.63054608293221e+000

7.99999999999995e+004,-1.79517146952214e+001,-1.65329822065942e+000

8.11167583832018e+004,-1.79517491436506e+001,-1.67636757030305e+000

8.22491061324848e+004,-1.79517845531038e+001,-1.69975854348766e+000

8.33972608672892e+004,-1.79518209501809e+001,-1.72347561274466e+000

8.45614432449099e+004,-1.79518583622062e+001,-1.74752331233562e+000

8.57418770029029e+004,-1.79518968172477e+001,-1.77190623908610e+000

8.69387890020841e+004,-1.79519363441367e+001,-1.79662905323005e+000

8.81524092701283e+004,-1.79519769724876e+001,-1.82169647926285e+000

8.93829710457770e+004,-1.79520187327187e+001,-1.84711330680941e+000

9.06307108236633e+004,-1.79520616560729e+001,-1.87288439149963e+000

9.18958683997622e+004,-1.79521057746396e+001,-1.89901465585443e+000

9.31786869174758e+004,-1.79521511213765e+001,-1.92550909018652e+000

9.44794129143618e+004,-1.79521977301321e+001,-1.95237275350978e+000

9.57982963695136e+004,-1.79522456356692e+001,-1.97961077445912e+000

9.71355907516031e+004,-1.79522948736880e+001,-2.00722835222402e+000

9.84915530675926e+004,-1.79523454808509e+001,-2.03523075749361e+000

9.98664439121282e+004,-1.79523974948067e+001,-2.06362333341074e+000

1.01260527517622e+005,-1.79524509542165e+001,-2.09241149654103e+000

1.02674071805032e+005,-1.79525058987793e+001,-2.12160073785163e+000

1.04107348435354e+005,-1.79525623692586e+001,-2.15119662370353e+000

1.05560632861831e+005,-1.79526204075096e+001,-2.18120479685490e+000

1.07034204382888e+005,-1.79526800565070e+001,-2.21163097747709e+000

1.08528346195813e+005,-1.79527413603733e+001,-2.24248096418366e+000

1.10043345451179e+005,-1.79528043644080e+001,-2.27376063507028e+000

1.11579493308032e+005,-1.79528691151170e+001,-2.30547594876890e+000

1.13137084989847e+005,-1.79529356602434e+001,-2.33763294551450e+000

1.14716419841265e+005,-1.79530040487980e+001,-2.37023774822276e+000

1.16317801385624e+005,-1.79530743310915e+001,-2.40329656358392e+000

1.17941537383287e+005,-1.79531465587663e+001,-2.43681568316669e+000

1.19587939890794e+005,-1.79532207848302e+001,-2.47080148453781e+000

1.21257325320831e+005,-1.79532970636900e+001,-2.50526043239244e+000

1.22950014503040e+005,-1.79533754511855e+001,-2.54019907970077e+000

1.24666332745679e+005,-1.79534560046257e+001,-2.57562406886678e+000

1.26406609898139e+005,-1.79535387828237e+001,-2.61154213290012e+000

1.28171180414339e+005,-1.79536238461345e+001,-2.64796009660349e+000

1.29960383416997e+005,-1.79537112564916e+001,-2.68488487777244e+000

1.31774562762811e+005,-1.79538010774457e+001,-2.72232348841065e+000

1.33614067108538e+005,-1.79538933742037e+001,-2.76028303595900e+000

1.35479249978003e+005,-1.79539882136682e+001,-2.79877072453830e+000

1.37370469830040e+005,-1.79540856644786e+001,-2.83779385620746e+000

1.39288090127379e+005,-1.79541857970517e+001,-2.87735983223701e+000

1.41232479406504e+005,-1.79542886836248e+001,-2.91747615439533e+000

1.43204011348474e+005,-1.79543943982980e+001,-2.95815042625198e+000

1.45203064850745e+005,-1.79545030170783e+001,-2.99939035449484e+000

1.47230024099979e+005,-1.79546146179241e+001,-3.04120375026447e+000

1.49285278645888e+005,-1.79547292807909e+001,-3.08359853050068e+000

1.51369223476094e+005,-1.79548470876773e+001,-3.12658271930823e+000

1.53482259092041e+005,-1.79549681226722e+001,-3.17016444933627e+000

1.55624791585964e+005,-1.79550924720030e+001,-3.21435196317413e+000

1.57797232718936e+005,-1.79552202240843e+001,-3.25915361476391e+000

1.59999999999999e+005,-1.79553514695672e+001,-3.30457787082941e+000

1.62233516766403e+005,-1.79554863013908e+001,-3.35063331232010e+000

1.64498212264969e+005,-1.79556248148324e+001,-3.39732863587451e+000

1.66794521734578e+005,-1.79557671075607e+001,-3.44467265529821e+000

1.69122886489819e+005,-1.79559132796887e+001,-3.49267430306013e+000

1.71483754005805e+005,-1.79560634338273e+001,-3.54134263180691e+000

1.73877578004168e+005,-1.79562176751408e+001,-3.59068681589311e+000

1.76304818540256e+005,-1.79563761114022e+001,-3.64071615293151e+000

1.78765942091554e+005,-1.79565388530499e+001,-3.69144006535928e+000

1.81261421647326e+005,-1.79567060132456e+001,-3.74286810202548e+000

1.83791736799524e+005,-1.79568777079322e+001,-3.79500993979402e+000

1.86357373834951e+005,-1.79570540558932e+001,-3.84787538516847e+000

1.88958825828723e+005,-1.79572351788132e+001,-3.90147437593454e+000

1.91596592739027e+005,-1.79574212013382e+001,-3.95581698282304e+000

1.94271181503206e+005,-1.79576122511386e+001,-4.01091341119167e+000

1.96983106135185e+005,-1.79578084589710e+001,-4.06677400272937e+000

1.99732887824256e+005,-1.79580099587423e+001,-4.12340923717864e+000

2.02521055035243e+005,-1.79582168875745e+001,-4.18082973408122e+000

2.05348143610063e+005,-1.79584293858699e+001,-4.23904625454406e+000

2.08214696870707e+005,-1.79586475973776e+001,-4.29806970302707e+000

2.11121265723661e+005,-1.79588716692608e+001,-4.35791112915437e+000

2.14068408765776e+005,-1.79591017521649e+001,-4.41858172954730e+000

2.17056692391625e+005,-1.79593380002868e+001,-4.48009284968089e+000

2.20086690902357e+005,-1.79595805714448e+001,-4.54245598576453e+000

2.23158986616063e+005,-1.79598296271494e+001,-4.60568278664647e+000

2.26274169979693e+005,-1.79600853326757e+001,-4.66978505574352e+000

2.29432839682530e+005,-1.79603478571356e+001,-4.73477475299626e+000

2.32635602771247e+005,-1.79606173735522e+001,-4.80066399685023e+000

2.35883074766574e+005,-1.79608940589344e+001,-4.86746506626277e+000

2.39175879781588e+005,-1.79611780943526e+001,-4.93519040273922e+000

2.42514650641661e+005,-1.79614696650156e+001,-5.00385261239525e+000

2.45900029006080e+005,-1.79617689603485e+001,-5.07346446804929e+000

2.49332665491357e+005,-1.79620761740720e+001,-5.14403891134217e+000

2.52813219796278e+005,-1.79623915042819e+001,-5.21558905489043e+000

2.56342360828676e+005,-1.79627151535308e+001,-5.28812818446688e+000

2.59920766833993e+005,-1.79630473289104e+001,-5.36166976121537e+000

2.63549125525621e+005,-1.79633882421353e+001,-5.43622742389771e+000

2.67228134217075e+005,-1.79637381096278e+001,-5.51181499117286e+000

2.70958499956006e+005,-1.79640971526045e+001,-5.58844646391228e+000

2.74740939660078e+005,-1.79644655971638e+001,-5.66613602754906e+000

2.78576180254757e+005,-1.79648436743755e+001,-5.74489805446405e+000

2.82464958813007e+005,-1.79652316203714e+001,-5.82474710640885e+000

2.86408022696948e+005,-1.79656296764380e+001,-5.90569793696772e+000

2.90406129701488e+005,-1.79660380891108e+001,-5.98776549405719e+000

2.94460048199957e+005,-1.79664571102702e+001,-6.07096492246718e+000

2.98570557291775e+005,-1.79668869972399e+001,-6.15531156644333e+000

3.02738446952187e+005,-1.79673280128873e+001,-6.24082097231054e+000

3.06964518184081e+005,-1.79677804257257e+001,-6.32750889114112e+000

3.11249583171928e+005,-1.79682445100193e+001,-6.41539128146718e+000

3.15594465437872e+005,-1.79687205458906e+001,-6.50448431203777e+000

3.19999999999997e+005,-1.79692088194310e+001,-6.59480436462361e+000

3.24467033532806e+005,-1.79697096228131e+001,-6.68636803686928e+000

3.28996424529938e+005,-1.79702232544077e+001,-6.77919214519419e+000

3.33589043469155e+005,-1.79707500189030e+001,-6.87329372774318e+000

3.38245772979638e+005,-1.79712902274273e+001,-6.96869004738859e+000

3.42967508011610e+005,-1.79718441976764e+001,-7.06539859478407e+000

3.47755156008335e+005,-1.79724122540442e+001,-7.16343709147164e+000

3.52609637080511e+005,-1.79729947277578e+001,-7.26282349304158e+000

3.57531884183106e+005,-1.79735919570173e+001,-7.36357599234932e+000

3.62522843294651e+005,-1.79742042871406e+001,-7.46571302278596e+000

3.67583473599047e+005,-1.79748320707128e+001,-7.56925326160658e+000

3.72714747669902e+005,-1.79754756677423e+001,-7.67421563331617e+000

3.77917651657445e+005,-1.79761354458211e+001,-7.78061931311246e+000

3.83193185478053e+005,-1.79768117802931e+001,-7.88848373038850e+000

3.88542363006410e+005,-1.79775050544280e+001,-7.99782857229376e+000

3.93966212270369e+005,-1.79782156596020e+001,-8.10867378735559e+000

3.99465775648511e+005,-1.79789439954870e+001,-8.22103958916003e+000

4.05042110070485e+005,-1.79796904702465e+001,-8.33494646009295e+000

4.10696287220124e+005,-1.79804555007410e+001,-8.45041515514131e+000

4.16429393741414e+005,-1.79812395127404e+001,-8.56746670575579e+000

4.22242531447321e+005,-1.79820429411479e+001,-8.68612242377124e+000

4.28136817531551e+005,-1.79828662302313e+001,-8.80640390538906e+000

4.34113384783250e+005,-1.79837098338664e+001,-8.92833303521743e+000

4.40173381804713e+005,-1.79845742157895e+001,-9.05193199037073e+000

4.46317973232124e+005,-1.79854598498626e+001,-9.17722324462593e+000

4.52548339959385e+005,-1.79863672203489e+001,-9.30422957263704e+000

4.58865679365059e+005,-1.79872968222015e+001,-9.43297405420289e+000

4.65271205542494e+005,-1.79882491613644e+001,-9.56348007859115e+000

4.71766149533147e+005,-1.79892247550870e+001,-9.69577134891277e+000

4.78351759563174e+005,-1.79902241322523e+001,-9.82987188654884e+000

4.85029301283321e+005,-1.79912478337196e+001,-9.96580603562409e+000

4.91800058012158e+005,-1.79922964126815e+001,-1.01035984675280e+001

4.98665330982714e+005,-1.79933704350372e+001,-1.02432741854786e+001

5.05626439592555e+005,-1.79944704797811e+001,-1.03848585291278e+001

5.12684721657352e+005,-1.79955971394080e+001,-1.05283771792043e+001

5.19841533667984e+005,-1.79967510203350e+001,-1.06738561621920e+001

5.27098251051240e+005,-1.79979327433410e+001,-1.08213218550380e+001

5.34456268434150e+005,-1.79991429440241e+001,-1.09708009898905e+001

5.41916999912011e+005,-1.80003822732770e+001,-1.11223206588587e+001

