Freq.,VOut,OutRef

1.00000000000000e+004,-2.16296405990774e+001,-2.59470526689029e-001

1.01395947979003e+004,-2.16296417803889e+001,-2.63092554796412e-001

1.02811382665607e+004,-2.16296429949073e+001,-2.66765142601701e-001

1.04246576084112e+004,-2.16296442435660e+001,-2.70488995809351e-001

1.05701804056138e+004,-2.16296455273246e+001,-2.74264829972748e-001

1.07177346253629e+004,-2.16296468471693e+001,-2.78093370630967e-001

1.08673486252606e+004,-2.16296482041147e+001,-2.81975353444241e-001

1.10190511587661e+004,-2.16296495992033e+001,-2.85911524342961e-001

1.11728713807222e+004,-2.16296510335073e+001,-2.89902639661419e-001

1.13288388529580e+004,-2.16296525081287e+001,-2.93949466291527e-001

1.14869835499703e+004,-2.16296540242008e+001,-2.98052781823672e-001

1.16473358646846e+004,-2.16296555828884e+001,-3.02213374700134e-001

1.18099266142953e+004,-2.16296571853892e+001,-3.06432044363000e-001

1.19747870461893e+004,-2.16296588329347e+001,-3.10709601410035e-001

1.21419488439505e+004,-2.16296605267907e+001,-3.15046867748775e-001

1.23114441334492e+004,-2.16296622682586e+001,-3.19444676755456e-001

1.24833054890161e+004,-2.16296640586766e+001,-3.23903873433248e-001

1.26575659397028e+004,-2.16296658994202e+001,-3.28425314575823e-001

1.28342589756290e+004,-2.16296677919038e+001,-3.33009868930285e-001

1.30134185544193e+004,-2.16296697375814e+001,-3.37658417365401e-001

1.31950791077289e+004,-2.16296717379479e+001,-3.42371853038063e-001

1.33792755478611e+004,-2.16296737945401e+001,-3.47151081567656e-001

1.35660432744767e+004,-2.16296759089381e+001,-3.51997021208135e-001

1.37554181813974e+004,-2.16296780827661e+001,-3.56910603023873e-001

1.39474366635040e+004,-2.16296803176943e+001,-3.61892771067757e-001

1.41421356237309e+004,-2.16296826154396e+001,-3.66944482563636e-001

1.43395524801583e+004,-2.16296849777672e+001,-3.72066708088284e-001

1.45397251732031e+004,-2.16296874064919e+001,-3.77260431759195e-001

1.47426921729110e+004,-2.16296899034791e+001,-3.82526651421948e-001

1.49484924863494e+004,-2.16296924706471e+001,-3.87866378840987e-001

1.51571656651040e+004,-2.16296951099680e+001,-3.93280639894328e-001

1.53687518128801e+004,-2.16296978234689e+001,-3.98770474771090e-001

1.55832915932100e+004,-2.16297006132341e+001,-4.04336938169054e-001

1.58008262372675e+004,-2.16297034814066e+001,-4.09981099496681e-001

1.60213975517924e+004,-2.16297064301892e+001,-4.15704043079576e-001

1.62450479271247e+004,-2.16297094618468e+001,-4.21506868368044e-001

1.64718203453514e+004,-2.16297125787077e+001,-4.27390690146047e-001

1.67017583885674e+004,-2.16297157831657e+001,-4.33356638745411e-001

1.69349062472505e+004,-2.16297190776820e+001,-4.39405860262626e-001

1.71713087287550e+004,-2.16297224647865e+001,-4.45539516779514e-001

1.74110112659224e+004,-2.16297259470804e+001,-4.51758786582665e-001

1.76540599258131e+004,-2.16297295272377e+001,-4.58064864392167e-001

1.79005014185594e+004,-2.16297332080079e+001,-4.64458961587417e-001

1.81503831063432e+004,-2.16297369922170e+001,-4.70942306442733e-001

1.84037530124975e+004,-2.16297408827710e+001,-4.77516144357835e-001

1.86606598307361e+004,-2.16297448826570e+001,-4.84181738099626e-001

1.89211529345119e+004,-2.16297489949462e+001,-4.90940368042757e-001

1.91852823865052e+004,-2.16297532227959e+001,-4.97793332414220e-001

1.94530989482457e+004,-2.16297575694519e+001,-5.04741947541928e-001

1.97246540898671e+004,-2.16297620382512e+001,-5.11787548107246e-001

1.99999999999999e+004,-2.16297666326246e+001,-5.18931487398294e-001

2.02791895958005e+004,-2.16297713560987e+001,-5.26175137570566e-001

2.05622765331213e+004,-2.16297762122997e+001,-5.33519889908323e-001

2.08493152168224e+004,-2.16297812049547e+001,-5.40967155092232e-001

2.11403608112276e+004,-2.16297863378963e+001,-5.48518363465252e-001

2.14354692507258e+004,-2.16297916150639e+001,-5.56174965310210e-001

2.17346972505211e+004,-2.16297970405077e+001,-5.63938431123844e-001

2.20381023175322e+004,-2.16298026183916e+001,-5.71810251899257e-001

2.23457427614443e+004,-2.16298083529958e+001,-5.79791939411519e-001

2.26576777059159e+004,-2.16298142487212e+001,-5.87885026502828e-001

2.29739670999406e+004,-2.16298203100918e+001,-5.96091067379542e-001

2.32946717293690e+004,-2.16298265417583e+001,-6.04411637905552e-001

2.36198532285905e+004,-2.16298329485020e+001,-6.12848335905718e-001

2.39495740923785e+004,-2.16298395352383e+001,-6.21402781468087e-001

2.42838976879009e+004,-2.16298463070204e+001,-6.30076617254939e-001

2.46228882668982e+004,-2.16298532690430e+001,-6.38871508815668e-001

2.49666109780322e+004,-2.16298604266465e+001,-6.47789144904557e-001

2.53151318794055e+004,-2.16298677853209e+001,-6.56831237801841e-001

2.56685179512580e+004,-2.16298753507104e+001,-6.65999523641029e-001

2.60268371088386e+004,-2.16298831286170e+001,-6.75295762739537e-001

2.63901582154578e+004,-2.16298911250053e+001,-6.84721739934995e-001

2.67585510957221e+004,-2.16298993460073e+001,-6.94279264923309e-001

2.71320865489533e+004,-2.16299077979265e+001,-7.03970172604524e-001

2.75108363627948e+004,-2.16299164872433e+001,-7.13796323432175e-001

2.78948733270080e+004,-2.16299254206191e+001,-7.23759603768108e-001

2.82842712474618e+004,-2.16299346049026e+001,-7.33861926239325e-001

2.86791049603164e+004,-2.16299440471336e+001,-7.44105230104267e-001

2.90794503464061e+004,-2.16299537545493e+001,-7.54491481620569e-001

2.94853843458219e+004,-2.16299637345897e+001,-7.65022674417951e-001

2.98969849726987e+004,-2.16299739949030e+001,-7.75700829878847e-001

3.03143313302078e+004,-2.16299845433514e+001,-7.86527997522079e-001

3.07375036257601e+004,-2.16299953880169e+001,-7.97506255392226e-001

3.11665831864199e+004,-2.16300065372083e+001,-8.08637710452794e-001

3.16016524745350e+004,-2.16300179994664e+001,-8.19924498988564e-001

3.20427951035848e+004,-2.16300297835711e+001,-8.31368787009098e-001

3.24900958542493e+004,-2.16300418985480e+001,-8.42972770660902e-001

3.29436406907028e+004,-2.16300543536749e+001,-8.54738676643324e-001

3.34035167771346e+004,-2.16300671584894e+001,-8.66668762630643e-001

3.38698124945009e+004,-2.16300803227955e+001,-8.78765317699840e-001

3.43426174575100e+004,-2.16300938566714e+001,-8.91030662764965e-001

3.48220225318448e+004,-2.16301077704771e+001,-9.03467151016079e-001

3.53081198516260e+004,-2.16301220748621e+001,-9.16077168363337e-001

3.58010028371187e+004,-2.16301367807734e+001,-9.28863133890606e-001

3.63007662126863e+004,-2.16301518994640e+001,-9.41827500312603e-001

3.68075060249948e+004,-2.16301674425011e+001,-9.54972754436373e-001

3.73213196614721e+004,-2.16301834217751e+001,-9.68301417633975e-001

3.78423058690237e+004,-2.16301998495084e+001,-9.81816046316359e-001

3.83705647730104e+004,-2.16302167382646e+001,-9.95519232417315e-001

3.89061978964912e+004,-2.16302341009580e+001,-1.00941360388214e+000

3.94493081797342e+004,-2.16302519508634e+001,-1.02350182516249e+000

3.99999999999998e+004,-2.16302703016259e+001,-1.03778659771979e+000

4.05583791916010e+004,-2.16302891672712e+001,-1.05227066053339e+000

4.11245530662425e+004,-2.16303085622165e+001,-1.06695679061535e+000

4.16986304336447e+004,-2.16303285012806e+001,-1.08184780353434e+000

4.22807216224550e+004,-2.16303489996957e+001,-1.09694655394509e+000

4.28709385014515e+004,-2.16303700731184e+001,-1.11225593612328e+000

4.34693945010421e+004,-2.16303917376417e+001,-1.12777888451127e+000

4.40762046350642e+004,-2.16304140098068e+001,-1.14351837426673e+000

4.46914855228886e+004,-2.16304369066156e+001,-1.15947742182234e+000

4.53153554118317e+004,-2.16304604455435e+001,-1.17565908545085e+000

4.59479341998812e+004,-2.16304846445521e+001,-1.19206646583722e+000

4.65893434587380e+004,-2.16305095221031e+001,-1.20870270665957e+000

4.72397064571810e+004,-2.16305350971717e+001,-1.22557099517757e+000

4.78991481847569e+004,-2.16305613892608e+001,-1.24267456282698e+000

4.85677953758016e+004,-2.16305884184156e+001,-1.26001668582460e+000

4.92457765337964e+004,-2.16306162052385e+001,-1.27760068577908e+000

4.99332219560642e+004,-2.16306447709042e+001,-1.29542993030985e+000

5.06302637588109e+004,-2.16306741371758e+001,-1.31350783367490e+000

5.13370359025159e+004,-2.16307043264204e+001,-1.33183785740703e+000

5.20536742176771e+004,-2.16307353616264e+001,-1.35042351095648e+000

5.27803164309155e+004,-2.16307672664197e+001,-1.36926835234412e+000

5.35171021914442e+004,-2.16308000650818e+001,-1.38837598882097e+000

5.42641730979066e+004,-2.16308337825672e+001,-1.40775007753890e+000

5.50216727255895e+004,-2.16308684445224e+001,-1.42739432622665e+000

5.57897466540159e+004,-2.16309040773041e+001,-1.44731249387712e+000

5.65685424949235e+004,-2.16309407079993e+001,-1.46750839144180e+000

5.73582099206328e+004,-2.16309783644447e+001,-1.48798588253615e+000

5.81589006928121e+004,-2.16310170752472e+001,-1.50874888415122e+000

5.89707686916437e+004,-2.16310568698050e+001,-1.52980136737644e+000

5.97939699453972e+004,-2.16310977783292e+001,-1.55114735813024e+000

6.06286626604156e+004,-2.16311398318656e+001,-1.57279093790123e+000

6.14750072515201e+004,-2.16311830623175e+001,-1.59473624449729e+000

6.23331663728396e+004,-2.16312275024690e+001,-1.61698747280484e+000

6.32033049490698e+004,-2.16312731860087e+001,-1.63954887555863e+000

6.40855902071694e+004,-2.16313201475545e+001,-1.66242476411772e+000

6.49801917084985e+004,-2.16313684226785e+001,-1.68561950925539e+000

6.58872813814055e+004,-2.16314180479325e+001,-1.70913754195697e+000

6.68070335542691e+004,-2.16314690608749e+001,-1.73298335422580e+000

6.77396249890018e+004,-2.16315215000976e+001,-1.75716149990227e+000

6.86852349150199e+004,-2.16315754052538e+001,-1.78167659549086e+000

6.96440450636895e+004,-2.16316308170865e+001,-1.80653332099828e+000

7.06162397032520e+004,-2.16316877774580e+001,-1.83173642078073e+000

7.16020056742374e+004,-2.16317463293793e+001,-1.85729070440328e+000

7.26015324253724e+004,-2.16318065170416e+001,-1.88320104750727e+000

7.36150120499896e+004,-2.16318683858474e+001,-1.90947239269118e+000

7.46426393229441e+004,-2.16319319824429e+001,-1.93610975039801e+000

7.56846117380472e+004,-2.16319973547511e+001,-1.96311819981859e+000

7.67411295460207e+004,-2.16320645520062e+001,-1.99050288979988e+000

7.78123957929823e+004,-2.16321336247876e+001,-2.01826903976942e+000

7.88986163594682e+004,-2.16322046250566e+001,-2.04642194066594e+000

7.99999999999995e+004,-2.16322776061923e+001,-2.07496695588519e+000

8.11167583832018e+004,-2.16323526230294e+001,-2.10390952223346e+000

8.22491061324848e+004,-2.16324297318965e+001,-2.13325515089390e+000

8.33972608672892e+004,-2.16325089906555e+001,-2.16300942840486e+000

8.45614432449099e+004,-2.16325904587420e+001,-2.19317801764667e+000

8.57418770029029e+004,-2.16326741972069e+001,-2.22376665884261e+000

8.69387890020841e+004,-2.16327602687580e+001,-2.25478117057060e+000

8.81524092701283e+004,-2.16328487378039e+001,-2.28622745078501e+000

8.93829710457770e+004,-2.16329396704986e+001,-2.31811147785176e+000

9.06307108236633e+004,-2.16330331347864e+001,-2.35043931159437e+000

9.18958683997622e+004,-2.16331292004487e+001,-2.38321709435160e+000

9.31786869174758e+004,-2.16332279391519e+001,-2.41645105204707e+000

9.44794129143618e+004,-2.16333294244958e+001,-2.45014749527052e+000

9.57982963695136e+004,-2.16334337320638e+001,-2.48431282037133e+000

9.71355907516031e+004,-2.16335409394740e+001,-2.51895351056388e+000

9.84915530675926e+004,-2.16336511264312e+001,-2.55407613704433e+000

9.98664439121282e+004,-2.16337643747808e+001,-2.58968736012076e+000

1.01260527517622e+005,-2.16338807685635e+001,-2.62579393035366e+000

1.02674071805032e+005,-2.16340003940710e+001,-2.66240268971028e+000

1.04107348435354e+005,-2.16341233399034e+001,-2.69952057273056e+000

1.05560632861831e+005,-2.16342496970279e+001,-2.73715460770504e+000

1.07034204382888e+005,-2.16343795588388e+001,-2.77531191786546e+000

1.08528346195813e+005,-2.16345130212181e+001,-2.81399972258716e+000

1.10043345451179e+005,-2.16346501825990e+001,-2.85322533860514e+000

1.11579493308032e+005,-2.16347911440288e+001,-2.89299618124105e+000

1.13137084989847e+005,-2.16349360092352e+001,-2.93331976564459e+000

1.14716419841265e+005,-2.16350848846926e+001,-2.97420370804400e+000

1.16317801385624e+005,-2.16352378796903e+001,-3.01565572701390e+000

1.17941537383287e+005,-2.16353951064022e+001,-3.05768364475132e+000

1.19587939890794e+005,-2.16355566799582e+001,-3.10029538836774e+000

1.21257325320831e+005,-2.16357227185164e+001,-3.14349899119054e+000

1.22950014503040e+005,-2.16358933433376e+001,-3.18730259408052e+000

1.24666332745679e+005,-2.16360686788607e+001,-3.23171444675954e+000

1.26406609898139e+005,-2.16362488527801e+001,-3.27674290915263e+000

1.28171180414339e+005,-2.16364339961248e+001,-3.32239645274104e+000

1.29960383416997e+005,-2.16366242433378e+001,-3.36868366193061e+000

1.31774562762811e+005,-2.16368197323593e+001,-3.41561323543042e+000

1.33614067108538e+005,-2.16370206047092e+001,-3.46319398764654e+000

1.35479249978003e+005,-2.16372270055730e+001,-3.51143485008664e+000

1.37370469830040e+005,-2.16374390838884e+001,-3.56034487277919e+000

1.39288090127379e+005,-2.16376569924336e+001,-3.60993322570507e+000

1.41232479406504e+005,-2.16378808879180e+001,-3.66020920024138e+000

1.43204011348474e+005,-2.16381109310732e+001,-3.71118221062026e+000

1.45203064850745e+005,-2.16383472867473e+001,-3.76286179539857e+000

1.47230024099979e+005,-2.16385901239996e+001,-3.81525761894208e+000

1.49285278645888e+005,-2.16388396161979e+001,-3.86837947292243e+000

1.51369223476094e+005,-2.16390959411166e+001,-3.92223727782801e+000

1.53482259092041e+005,-2.16393592810375e+001,-3.97684108448642e+000

1.55624791585964e+005,-2.16396298228516e+001,-4.03220107560278e+000

1.57797232718936e+005,-2.16399077581629e+001,-4.08832756730888e+000

1.59999999999999e+005,-2.16401932833940e+001,-4.14523101072853e+000

1.62233516766403e+005,-2.16404865998931e+001,-4.20292199355354e+000

1.64498212264969e+005,-2.16407879140433e+001,-4.26141124163701e+000

1.66794521734578e+005,-2.16410974373728e+001,-4.32070962059667e+000

1.69122886489819e+005,-2.16414153866681e+001,-4.38082813743510e+000

1.71483754005805e+005,-2.16417419840871e+001,-4.44177794217274e+000

1.73877578004168e+005,-2.16420774572759e+001,-4.50357032949549e+000

1.76304818540256e+005,-2.16424220394858e+001,-4.56621674041677e+000

1.78765942091554e+005,-2.16427759696932e+001,-4.62972876395347e+000

1.81261421647326e+005,-2.16431394927197e+001,-4.69411813881861e+000

1.83791736799524e+005,-2.16435128593559e+001,-4.75939675512636e+000

1.86357373834951e+005,-2.16438963264849e+001,-4.82557665611485e+000

1.88958825828723e+005,-2.16442901572092e+001,-4.89267003988294e+000

1.91596592739027e+005,-2.16446946209777e+001,-4.96068926114358e+000

1.94271181503206e+005,-2.16451099937159e+001,-5.02964683299321e+000

1.96983106135185e+005,-2.16455365579566e+001,-5.09955542869693e+000

1.99732887824256e+005,-2.16459746029728e+001,-5.17042788349220e+000

2.02521055035243e+005,-2.16464244249124e+001,-5.24227719640775e+000

2.05348143610063e+005,-2.16468863269337e+001,-5.31511653210225e+000

2.08214696870707e+005,-2.16473606193440e+001,-5.38895922271899e+000

2.11121265723661e+005,-2.16478476197381e+001,-5.46381876976157e+000

2.14068408765776e+005,-2.16483476531399e+001,-5.53970884598694e+000

2.17056692391625e+005,-2.16488610521448e+001,-5.61664329731892e+000

2.20086690902357e+005,-2.16493881570641e+001,-5.69463614478243e+000

2.23158986616063e+005,-2.16499293160706e+001,-5.77370158645838e+000

2.26274169979693e+005,-2.16504848853467e+001,-5.85385399946004e+000

2.29432839682530e+005,-2.16510552292330e+001,-5.93510794193305e+000

2.32635602771247e+005,-2.16516407203794e+001,-6.01747815507746e+000

2.35883074766574e+005,-2.16522417398980e+001,-6.10097956519439e+000

2.39175879781588e+005,-2.16528586775165e+001,-6.18562728575828e+000

2.42514650641661e+005,-2.16534919317352e+001,-6.27143661951406e+000

2.45900029006080e+005,-2.16541419099841e+001,-6.35842306060210e+000

2.49332665491357e+005,-2.16548090287824e+001,-6.44660229671077e+000

2.52813219796278e+005,-2.16554937139005e+001,-6.53599021125801e+000

2.56342360828676e+005,-2.16561964005230e+001,-6.62660288560337e+000

2.59920766833993e+005,-2.16569175334140e+001,-6.71845660129150e+000

2.63549125525621e+005,-2.16576575670848e+001,-6.81156784232706e+000

2.67228134217075e+005,-2.16584169659633e+001,-6.90595329748592e+000

2.70958499956006e+005,-2.16591962045660e+001,-7.00162986265874e+000

2.74740939660078e+005,-2.16599957676721e+001,-7.09861464323366e+000

2.78576180254757e+005,-2.16608161505007e+001,-7.19692495651486e+000

2.82464958813007e+005,-2.16616578588896e+001,-7.29657833418239e+000

2.86408022696948e+005,-2.16625214094780e+001,-7.39759252479192e+000

2.90406129701488e+005,-2.16634073298919e+001,-7.49998549631699e+000

2.94460048199957e+005,-2.16643161589320e+001,-7.60377543873571e+000

2.98570557291775e+005,-2.16652484467663e+001,-7.70898076666279e+000

3.02738446952187e+005,-2.16662047551250e+001,-7.81562012202882e+000

3.06964518184081e+005,-2.16671856575005e+001,-7.92371237680845e+000

3.11249583171928e+005,-2.16681917393505e+001,-8.03327663579942e+000

3.15594465437872e+005,-2.16692235983066e+001,-8.14433223945203e+000

3.19999999999997e+005,-2.16702818443872e+001,-8.25689876675471e+000

3.24467033532806e+005,-2.16713671002155e+001,-8.37099603817279e+000

3.28996424529938e+005,-2.16724800012434e+001,-8.48664411864464e+000

3.33589043469155e+005,-2.16736211959812e+001,-8.60386332063684e+000

3.38245772979638e+005,-2.16747913462337e+001,-8.72267420725806e+000

3.42967508011610e+005,-2.16759911273433e+001,-8.84309759543423e+000

3.47755156008335e+005,-2.16772212284404e+001,-8.96515455914720e+000

3.52609637080511e+005,-2.16784823527019e+001,-9.08886643273552e+000

3.57531884183106e+005,-2.16797752176175e+001,-9.21425481426102e+000

3.62522843294651e+005,-2.16811005552664e+001,-9.34134156894071e+000

3.67583473599047e+005,-2.16824591126024e+001,-9.47014883264540e+000

3.72714747669902e+005,-2.16838516517496e+001,-9.60069901546598e+000

3.77917651657445e+005,-2.16852789503101e+001,-9.73301480534622e+000

3.83193185478053e+005,-2.16867418016822e+001,-9.86711917178527e+000

3.88542363006410e+005,-2.16882410153917e+001,-1.00030353696070e+001

3.93966212270369e+005,-2.16897774174366e+001,-1.01407869427984e+001

3.99465775648511e+005,-2.16913518506455e+001,-1.02803977284148e+001

4.05042110070485e+005,-2.16929651750513e+001,-1.04218918605526e+001

4.10696287220124e+005,-2.16946182682803e+001,-1.05652937743878e+001

4.16429393741414e+005,-2.16963120259584e+001,-1.07106282102796e+001

4.22242531447321e+005,-2.16980473621347e+001,-1.08579202179362e+001

4.28136817531551e+005,-2.16998252097230e+001,-1.10071951606433e+001

4.34113384783250e+005,-2.17016465209642e+001,-1.11584787195499e+001

4.40173381804713e+005,-2.17035122679075e+001,-1.13117968980112e+001

4.46317973232124e+005,-2.17054234429139e+001,-1.14671760259838e+001

4.52548339959385e+005,-2.17073810591823e+001,-1.16246427644710e+001

4.58865679365059e+005,-2.17093861512980e+001,-1.17842241100125e+001

4.65271205542494e+005,-2.17114397758062e+001,-1.19459473992157e+001

4.71766149533147e+005,-2.17135430118112e+001,-1.21098403133227e+001

4.78351759563174e+005,-2.17156969616007e+001,-1.22759308828075e+001

4.85029301283321e+005,-2.17179027512988e+001,-1.24442474919976e+001

4.91800058012158e+005,-2.17201615315461e+001,-1.26148188837148e+001

4.98665330982714e+005,-2.17224744782095e+001,-1.27876741639247e+001

5.05626439592555e+005,-2.17248427931221e+001,-1.29628428063923e+001

5.12684721657352e+005,-2.17272677048538e+001,-1.31403546573320e+001

5.19841533667984e+005,-2.17297504695134e+001,-1.33202399400442e+001

5.27098251051240e+005,-2.17322923715841e+001,-1.35025292595303e+001

5.34456268434150e+005,-2.17348947247911e+001,-1.36872536070771e+001

5.41916999912011e+005,-2.17375588730042e+001,-1.38744443647978e+001

