Freq.,VOut,OutRef

1.00000000000000e+004,-2.56173853782910e+001,-3.05552751524204e-001

1.01395947979003e+004,-2.56173869584773e+001,-3.09818061289138e-001

1.02811382665607e+004,-2.56173885830849e+001,-3.14142910534687e-001

1.04246576084112e+004,-2.56173902533623e+001,-3.18528130314442e-001

1.05701804056138e+004,-2.56173919705933e+001,-3.22974563280810e-001

1.07177346253629e+004,-2.56173937360977e+001,-3.27483063844314e-001

1.08673486252606e+004,-2.56173955512324e+001,-3.32054498338387e-001

1.10190511587661e+004,-2.56173974173925e+001,-3.36689745186897e-001

1.11728713807222e+004,-2.56173993360120e+001,-3.41389695071509e-001

1.13288388529580e+004,-2.56174013085657e+001,-3.46155251102008e-001

1.14869835499703e+004,-2.56174033365693e+001,-3.50987328991954e-001

1.16473358646846e+004,-2.56174054215816e+001,-3.55886857231127e-001

1.18099266142953e+004,-2.56174075652048e+001,-3.60854777266959e-001

1.19747870461893e+004,-2.56174097690866e+001,-3.65892043681634e-001

1.21419488439505e+004,-2.56174120349202e+001,-3.70999624380798e-001

1.23114441334492e+004,-2.56174143644472e+001,-3.76178500773032e-001

1.24833054890161e+004,-2.56174167594579e+001,-3.81429667960346e-001

1.26575659397028e+004,-2.56174192217926e+001,-3.86754134932020e-001

1.28342589756290e+004,-2.56174217533436e+001,-3.92152924754694e-001

1.30134185544193e+004,-2.56174243560564e+001,-3.97627074768209e-001

1.31950791077289e+004,-2.56174270319310e+001,-4.03177636788424e-001

1.33792755478611e+004,-2.56174297830235e+001,-4.08805677305362e-001

1.35660432744767e+004,-2.56174326114482e+001,-4.14512277688923e-001

1.37554181813974e+004,-2.56174355193784e+001,-4.20298534396925e-001

1.39474366635040e+004,-2.56174385090487e+001,-4.26165559183771e-001

1.41421356237309e+004,-2.56174415827562e+001,-4.32114479315943e-001

1.43395524801583e+004,-2.56174447428629e+001,-4.38146437785713e-001

1.45397251732031e+004,-2.56174479917970e+001,-4.44262593531772e-001

1.47426921729110e+004,-2.56174513320547e+001,-4.50464121662319e-001

1.49484924863494e+004,-2.56174547662027e+001,-4.56752213677532e-001

1.51571656651040e+004,-2.56174582968797e+001,-4.63128077699229e-001

1.53687518128801e+004,-2.56174619267982e+001,-4.69592938705063e-001

1.55832915932100e+004,-2.56174656587473e+001,-4.76148038759242e-001

1.58008262372675e+004,-2.56174694955945e+001,-4.82794637252248e-001

1.60213975517924e+004,-2.56174734402873e+001,-4.89534011143671e-001

1.62450479271247e+004,-2.56174774958567e+001,-4.96367455204257e-001

1.64718203453514e+004,-2.56174816654184e+001,-5.03296282265768e-001

1.67017583885674e+004,-2.56174859521756e+001,-5.10321823472225e-001

1.69349062472505e+004,-2.56174903594217e+001,-5.17445428534337e-001

1.71713087287550e+004,-2.56174948905425e+001,-5.24668465988988e-001

1.74110112659224e+004,-2.56174995490188e+001,-5.31992323460790e-001

1.76540599258131e+004,-2.56175043384293e+001,-5.39418407927178e-001

1.79005014185594e+004,-2.56175092624531e+001,-5.46948145989111e-001

1.81503831063432e+004,-2.56175143248729e+001,-5.54582984143398e-001

1.84037530124975e+004,-2.56175195295772e+001,-5.62324389060864e-001

1.86606598307361e+004,-2.56175248805640e+001,-5.70173847865265e-001

1.89211529345119e+004,-2.56175303819434e+001,-5.78132868419731e-001

1.91852823865052e+004,-2.56175360379411e+001,-5.86202979613569e-001

1.94530989482457e+004,-2.56175418529013e+001,-5.94385731657002e-001

1.97246540898671e+004,-2.56175478312904e+001,-6.02682696375723e-001

1.99999999999999e+004,-2.56175539776998e+001,-6.11095467513585e-001

2.02791895958005e+004,-2.56175602968501e+001,-6.19625661036556e-001

2.05622765331213e+004,-2.56175667935946e+001,-6.28274915440547e-001

2.08493152168224e+004,-2.56175734729225e+001,-6.37044892067314e-001

2.11403608112276e+004,-2.56175803399632e+001,-6.45937275421178e-001

2.14354692507258e+004,-2.56175873999902e+001,-6.54953773490064e-001

2.17346972505211e+004,-2.56175946584249e+001,-6.64096118073032e-001

2.20381023175322e+004,-2.56176021208410e+001,-6.73366065111508e-001

2.23457427614443e+004,-2.56176097929685e+001,-6.82765395024829e-001

2.26576777059159e+004,-2.56176176806984e+001,-6.92295913049931e-001

2.29739670999406e+004,-2.56176257900868e+001,-7.01959449586291e-001

2.32946717293690e+004,-2.56176341273600e+001,-7.11757860546747e-001

2.36198532285905e+004,-2.56176426989191e+001,-7.21693027709679e-001

2.39495740923785e+004,-2.56176515113445e+001,-7.31766859082168e-001

2.42838976879009e+004,-2.56176605714014e+001,-7.41981289259695e-001

2.46228882668982e+004,-2.56176698860451e+001,-7.52338279798564e-001

2.49666109780322e+004,-2.56176794624256e+001,-7.62839819590754e-001

2.53151318794055e+004,-2.56176893078939e+001,-7.73487925240443e-001

2.56685179512580e+004,-2.56176994300070e+001,-7.84284641451202e-001

2.60268371088386e+004,-2.56177098365339e+001,-7.95232041416398e-001

2.63901582154578e+004,-2.56177205354616e+001,-8.06332227211996e-001

2.67585510957221e+004,-2.56177315350012e+001,-8.17587330200308e-001

2.71320865489533e+004,-2.56177428435940e+001,-8.28999511433790e-001

2.75108363627948e+004,-2.56177544699180e+001,-8.40570962069580e-001

2.78948733270080e+004,-2.56177664228949e+001,-8.52303903784008e-001

2.82842712474618e+004,-2.56177787116961e+001,-8.64200589198858e-001

2.86791049603164e+004,-2.56177913457505e+001,-8.76263302307662e-001

2.90794503464061e+004,-2.56178043347512e+001,-8.88494358912962e-001

2.94853843458219e+004,-2.56178176886633e+001,-9.00896107064713e-001

2.98969849726987e+004,-2.56178314177309e+001,-9.13470927510381e-001

3.03143313302078e+004,-2.56178455324857e+001,-9.26221234144043e-001

3.07375036257601e+004,-2.56178600437542e+001,-9.39149474468436e-001

3.11665831864199e+004,-2.56178749626666e+001,-9.52258130059493e-001

3.16016524745350e+004,-2.56178903006648e+001,-9.65549717037841e-001

3.20427951035848e+004,-2.56179060695116e+001,-9.79026786546168e-001

3.24900958542493e+004,-2.56179222812991e+001,-9.92691925236298e-001

3.29436406907028e+004,-2.56179389484586e+001,-1.00654775575715e+000

3.34035167771346e+004,-2.56179560837690e+001,-1.02059693725659e+000

3.38698124945009e+004,-2.56179737003680e+001,-1.03484216588135e+000

3.43426174575100e+004,-2.56179918117604e+001,-1.04928617529322e+000

3.48220225318448e+004,-2.56180104318301e+001,-1.06393173718377e+000

3.53081198516260e+004,-2.56180295748489e+001,-1.07878166180300e+000

3.58010028371187e+004,-2.56180492554889e+001,-1.09383879848854e+000

3.63007662126863e+004,-2.56180694888326e+001,-1.10910603620870e+000

3.68075060249948e+004,-2.56180902903849e+001,-1.12458630410710e+000

3.73213196614721e+004,-2.56181116760845e+001,-1.14028257205792e+000

3.78423058690237e+004,-2.56181336623164e+001,-1.15619785122858e+000

3.83705647730104e+004,-2.56181562659241e+001,-1.17233519464737e+000

3.89061978964912e+004,-2.56181795042219e+001,-1.18869769778311e+000

3.94493081797342e+004,-2.56182033950091e+001,-1.20528849912756e+000

3.99999999999998e+004,-2.56182279565826e+001,-1.22211078078946e+000

4.05583791916010e+004,-2.56182532077510e+001,-1.23916776909500e+000

4.11245530662425e+004,-2.56182791678489e+001,-1.25646273519676e+000

4.16986304336447e+004,-2.56183058567515e+001,-1.27399899568961e+000

4.22807216224550e+004,-2.56183332948895e+001,-1.29177991323732e+000

4.28709385014515e+004,-2.56183615032650e+001,-1.30980889720419e+000

4.34693945010421e+004,-2.56183905034668e+001,-1.32808940429809e+000

4.40762046350642e+004,-2.56184203176868e+001,-1.34662493922207e+000

4.46914855228886e+004,-2.56184509687371e+001,-1.36541905532987e+000

4.53153554118317e+004,-2.56184824800668e+001,-1.38447535529799e+000

4.59479341998812e+004,-2.56185148757802e+001,-1.40379749179845e+000

4.65893434587380e+004,-2.56185481806542e+001,-1.42338916818758e+000

4.72397064571810e+004,-2.56185824201578e+001,-1.44325413919821e+000

4.78991481847569e+004,-2.56186176204704e+001,-1.46339621164594e+000

4.85677953758016e+004,-2.56186538085025e+001,-1.48381924513985e+000

4.92457765337964e+004,-2.56186910119152e+001,-1.50452715280619e+000

4.99332219560642e+004,-2.56187292591407e+001,-1.52552390202143e+000

5.06302637588109e+004,-2.56187685794049e+001,-1.54681351515115e+000

5.13370359025159e+004,-2.56188090027481e+001,-1.56840007030336e+000

5.20536742176771e+004,-2.56188505600479e+001,-1.59028770209008e+000

5.27803164309155e+004,-2.56188932830427e+001,-1.61248060239556e+000

5.35171021914442e+004,-2.56189372043550e+001,-1.63498302116050e+000

5.42641730979066e+004,-2.56189823575162e+001,-1.65779926717133e+000

5.50216727255895e+004,-2.56190287769912e+001,-1.68093370886211e+000

5.57897466540159e+004,-2.56190764982045e+001,-1.70439077512678e+000

5.65685424949235e+004,-2.56191255575667e+001,-1.72817495614028e+000

5.73582099206328e+004,-2.56191759925015e+001,-1.75229080419279e+000

5.81589006928121e+004,-2.56192278414734e+001,-1.77674293453281e+000

5.89707686916437e+004,-2.56192811440168e+001,-1.80153602622090e+000

5.97939699453972e+004,-2.56193359407650e+001,-1.82667482299607e+000

6.06286626604156e+004,-2.56193922734808e+001,-1.85216413415074e+000

6.14750072515201e+004,-2.56194501850871e+001,-1.87800883542025e+000

6.23331663728396e+004,-2.56195097196991e+001,-1.90421386987940e+000

6.32033049490698e+004,-2.56195709226567e+001,-1.93078424885434e+000

6.40855902071694e+004,-2.56196338405583e+001,-1.95772505284308e+000

6.49801917084985e+004,-2.56196985212952e+001,-1.98504143244960e+000

6.58872813814055e+004,-2.56197650140869e+001,-2.01273860932773e+000

6.68070335542691e+004,-2.56198333695177e+001,-2.04082187713884e+000

6.77396249890018e+004,-2.56199036395735e+001,-2.06929660252045e+000

6.86852349150199e+004,-2.56199758776807e+001,-2.09816822606659e+000

6.96440450636895e+004,-2.56200501387451e+001,-2.12744226332093e+000

7.06162397032520e+004,-2.56201264791922e+001,-2.15712430578213e+000

7.16020056742374e+004,-2.56202049570089e+001,-2.18722002192078e+000

7.26015324253724e+004,-2.56202856317858e+001,-2.21773515821050e+000

7.36150120499896e+004,-2.56203685647608e+001,-2.24867554016997e+000

7.46426393229441e+004,-2.56204538188641e+001,-2.28004707341805e+000

7.56846117380472e+004,-2.56205414587636e+001,-2.31185574474261e+000

7.67411295460207e+004,-2.56206315509127e+001,-2.34410762318122e+000

7.78123957929823e+004,-2.56207241635982e+001,-2.37680886111549e+000

7.88986163594682e+004,-2.56208193669900e+001,-2.40996569537817e+000

7.99999999999995e+004,-2.56209172331925e+001,-2.44358444837310e+000

8.11167583832018e+004,-2.56210178362960e+001,-2.47767152921059e+000

8.22491061324848e+004,-2.56211212524308e+001,-2.51223343485322e+000

8.33972608672892e+004,-2.56212275598222e+001,-2.54727675127702e+000

8.45614432449099e+004,-2.56213368388469e+001,-2.58280815464572e+000

8.57418770029029e+004,-2.56214491720904e+001,-2.61883441249948e+000

8.69387890020841e+004,-2.56215646444070e+001,-2.65536238495605e+000

8.81524092701283e+004,-2.56216833429802e+001,-2.69239902592724e+000

8.93829710457770e+004,-2.56218053573851e+001,-2.72995138434813e+000

9.06307108236633e+004,-2.56219307796528e+001,-2.76802660542147e+000

9.18958683997622e+004,-2.56220597043352e+001,-2.80663193187564e+000

9.31786869174758e+004,-2.56221922285732e+001,-2.84577470523668e+000

9.44794129143618e+004,-2.56223284521652e+001,-2.88546236711477e+000

9.57982963695136e+004,-2.56224684776377e+001,-2.92570246050636e+000

9.71355907516031e+004,-2.56226124103179e+001,-2.96650263110866e+000

9.84915530675926e+004,-2.56227603584083e+001,-3.00787062864957e+000

9.98664439121282e+004,-2.56229124330623e+001,-3.04981430823323e+000

1.01260527517622e+005,-2.56230687484626e+001,-3.09234163169879e+000

1.02674071805032e+005,-2.56232294219010e+001,-3.13546066899468e+000

1.04107348435354e+005,-2.56233945738607e+001,-3.17917959956747e+000

1.05560632861831e+005,-2.56235643280996e+001,-3.22350671376616e+000

1.07034204382888e+005,-2.56237388117371e+001,-3.26845041426013e+000

1.08528346195813e+005,-2.56239181553415e+001,-3.31401921747306e+000

1.10043345451179e+005,-2.56241024930209e+001,-3.36022175503233e+000

1.11579493308032e+005,-2.56242919625151e+001,-3.40706677523193e+000

1.13137084989847e+005,-2.56244867052907e+001,-3.45456314451211e+000

1.14716419841265e+005,-2.56246868666380e+001,-3.50271984895259e+000

1.16317801385624e+005,-2.56248925957701e+001,-3.55154599578259e+000

1.17941537383287e+005,-2.56251040459246e+001,-3.60105081490484e+000

1.19587939890794e+005,-2.56253213744680e+001,-3.65124366043539e+000

1.21257325320831e+005,-2.56255447430019e+001,-3.70213401225848e+000

1.22950014503040e+005,-2.56257743174720e+001,-3.75373147759679e+000

1.24666332745679e+005,-2.56260102682800e+001,-3.80604579259678e+000

1.26406609898139e+005,-2.56262527703976e+001,-3.85908682392984e+000

1.28171180414339e+005,-2.56265020034835e+001,-3.91286457040797e+000

1.29960383416997e+005,-2.56267581520028e+001,-3.96738916461583e+000

1.31774562762811e+005,-2.56270214053494e+001,-4.02267087455659e+000

1.33614067108538e+005,-2.56272919579711e+001,-4.07872010531489e+000

1.35479249978003e+005,-2.56275700094978e+001,-4.13554740073363e+000

1.37370469830040e+005,-2.56278557648716e+001,-4.19316344510754e+000

1.39288090127379e+005,-2.56281494344817e+001,-4.25157906488978e+000

1.41232479406504e+005,-2.56284512343002e+001,-4.31080523041623e+000

1.43204011348474e+005,-2.56287613860225e+001,-4.37085305764395e+000

1.45203064850745e+005,-2.56290801172104e+001,-4.43173380990456e+000

1.47230024099979e+005,-2.56294076614374e+001,-4.49345889967354e+000

1.49285278645888e+005,-2.56297442584390e+001,-4.55603989035430e+000

1.51369223476094e+005,-2.56300901542646e+001,-4.61948849807751e+000

1.53482259092041e+005,-2.56304456014335e+001,-4.68381659351585e+000

1.55624791585964e+005,-2.56308108590941e+001,-4.74903620371341e+000

1.57797232718936e+005,-2.56311861931868e+001,-4.81515951393060e+000

1.59999999999999e+005,-2.56315718766095e+001,-4.88219886950339e+000

1.62233516766403e+005,-2.56319681893879e+001,-4.95016677771915e+000

1.64498212264969e+005,-2.56323754188480e+001,-5.01907590970578e+000

1.66794521734578e+005,-2.56327938597931e+001,-5.08893910233669e+000

1.69122886489819e+005,-2.56332238146846e+001,-5.15976936015037e+000

1.71483754005805e+005,-2.56336655938256e+001,-5.23157985728567e+000

1.73877578004168e+005,-2.56341195155489e+001,-5.30438393943110e+000

1.76304818540256e+005,-2.56345859064093e+001,-5.37819512578945e+000

1.78765942091554e+005,-2.56350651013786e+001,-5.45302711105702e+000

1.81261421647326e+005,-2.56355574440454e+001,-5.52889376741859e+000

1.83791736799524e+005,-2.56360632868190e+001,-5.60580914655569e+000

1.86357373834951e+005,-2.56365829911364e+001,-5.68378748167178e+000

1.88958825828723e+005,-2.56371169276746e+001,-5.76284318953069e+000

1.91596592739027e+005,-2.56376654765661e+001,-5.84299087251057e+000

1.94271181503206e+005,-2.56382290276191e+001,-5.92424532067341e+000

1.96983106135185e+005,-2.56388079805423e+001,-6.00662151384821e+000

1.99732887824256e+005,-2.56394027451729e+001,-6.09013462373046e+000

2.02521055035243e+005,-2.56400137417105e+001,-6.17480001599597e+000

2.05348143610063e+005,-2.56406414009540e+001,-6.26063325243080e+000

2.08214696870707e+005,-2.56412861645445e+001,-6.34765009307491e+000

2.11121265723661e+005,-2.56419484852114e+001,-6.43586649838282e+000

2.14068408765776e+005,-2.56426288270242e+001,-6.52529863139879e+000

2.17056692391625e+005,-2.56433276656487e+001,-6.61596285994789e+000

2.20086690902357e+005,-2.56440454886078e+001,-6.70787575884272e+000

2.23158986616063e+005,-2.56447827955477e+001,-6.80105411210597e+000

2.26274169979693e+005,-2.56455400985086e+001,-6.89551491521013e+000

2.29432839682530e+005,-2.56463179222008e+001,-6.99127537733118e+000

2.32635602771247e+005,-2.56471168042858e+001,-7.08835292362156e+000

2.35883074766574e+005,-2.56479372956628e+001,-7.18676519749763e+000

2.39175879781588e+005,-2.56487799607607e+001,-7.28653006294493e+000

2.42514650641661e+005,-2.56496453778350e+001,-7.38766560684170e+000

2.45900029006080e+005,-2.56505341392710e+001,-7.49019014129752e+000

2.49332665491357e+005,-2.56514468518923e+001,-7.59412220601236e+000

2.52813219796278e+005,-2.56523841372752e+001,-7.69948057065203e+000

2.56342360828676e+005,-2.56533466320696e+001,-7.80628423724255e+000

2.59920766833993e+005,-2.56543349883248e+001,-7.91455244258338e+000

2.63549125525621e+005,-2.56553498738231e+001,-8.02430466068009e+000

2.67228134217075e+005,-2.56563919724188e+001,-8.13556060519614e+000

2.70958499956006e+005,-2.56574619843841e+001,-8.24834023192414e+000

2.74740939660078e+005,-2.56585606267622e+001,-8.36266374127839e+000

2.78576180254757e+005,-2.56596886337269e+001,-8.47855158080749e+000

2.82464958813007e+005,-2.56608467569496e+001,-8.59602444772724e+000

2.86408022696948e+005,-2.56620357659740e+001,-8.71510329147674e+000

2.90406129701488e+005,-2.56632564485982e+001,-8.83580931629393e+000

2.94460048199957e+005,-2.56645096112651e+001,-8.95816398381550e+000

2.98570557291775e+005,-2.56657960794605e+001,-9.08218901569724e+000

3.02738446952187e+005,-2.56671166981204e+001,-9.20790639625835e+000

3.06964518184081e+005,-2.56684723320466e+001,-9.33533837514844e+000

3.11249583171928e+005,-2.56698638663320e+001,-9.46450747003706e+000

3.15594465437872e+005,-2.56712922067947e+001,-9.59543646932792e+000

3.19999999999997e+005,-2.56727582804225e+001,-9.72814843489543e+000

3.24467033532806e+005,-2.56742630358278e+001,-9.86266670484525e+000

3.28996424529938e+005,-2.56758074437127e+001,-9.99901489629844e+000

3.33589043469155e+005,-2.56773924973455e+001,-1.01372169081991e+001

3.38245772979638e+005,-2.56790192130489e+001,-1.02772969241450e+001

3.42967508011610e+005,-2.56806886306996e+001,-1.04192794152413e+001

3.47755156008335e+005,-2.56824018142413e+001,-1.05631891429766e+001

3.52609637080511e+005,-2.56841598522103e+001,-1.07090511621211e+001

3.57531884183106e+005,-2.56859638582744e+001,-1.08568908236460e+001

3.62522843294651e+005,-2.56878149717866e+001,-1.10067337776626e+001

3.67583473599047e+005,-2.56897143583531e+001,-1.11586059763814e+001

3.72714747669902e+005,-2.56916632104171e+001,-1.13125336770886e+001

3.77917651657445e+005,-2.56936627478577e+001,-1.14685434451390e+001

3.83193185478053e+005,-2.56957142186069e+001,-1.16266621569644e+001

3.88542363006410e+005,-2.56978188992822e+001,-1.17869170030937e+001

3.93966212270369e+005,-2.56999780958388e+001,-1.19493354911841e+001

3.99465775648511e+005,-2.57021931442396e+001,-1.21139454490602e+001

4.05042110070485e+005,-2.57044654111447e+001,-1.22807750277585e+001

4.10696287220124e+005,-2.57067962946217e+001,-1.24498527045731e+001

4.16429393741414e+005,-2.57091872248763e+001,-1.26212072861011e+001

4.22242531447321e+005,-2.57116396650050e+001,-1.27948679112819e+001

4.28136817531551e+005,-2.57141551117701e+001,-1.29708640544266e+001

4.34113384783250e+005,-2.57167350963982e+001,-1.31492255282344e+001

4.40173381804713e+005,-2.57193811854024e+001,-1.33299824867887e+001

4.46317973232124e+005,-2.57220949814297e+001,-1.35131654285283e+001

4.52548339959385e+005,-2.57248781241339e+001,-1.36988051991896e+001

4.58865679365059e+005,-2.57277322910746e+001,-1.38869329947101e+001

4.65271205542494e+005,-2.57306591986435e+001,-1.40775803640884e+001

4.71766149533147e+005,-2.57336606030189e+001,-1.42707792121940e+001

4.78351759563174e+005,-2.57367383011479e+001,-1.44665618025167e+001

4.85029301283321e+005,-2.57398941317587e+001,-1.46649607598503e+001

4.91800058012158e+005,-2.57431299764023e+001,-1.48660090728982e+001

4.98665330982714e+005,-2.57464477605245e+001,-1.50697400967955e+001

5.05626439592555e+005,-2.57498494545699e+001,-1.52761875555343e+001

5.12684721657352e+005,-2.57533370751159e+001,-1.54853855442842e+001

5.19841533667984e+005,-2.57569126860404e+001,-1.56973685315953e+001

5.27098251051240e+005,-2.57605783997208e+001,-1.59121713614744e+001

5.34456268434150e+005,-2.57643363782659e+001,-1.61298292553200e+001

5.41916999912011e+005,-2.57681888347814e+001,-1.63503778137058e+001

