Freq.,VOut,OutRef

1.00000000000000e+004,-2.52584502394774e+001,-4.58231733762602e-001

1.01395947979003e+004,-2.52584535352824e+001,-4.64628304370372e-001

1.02811382665607e+004,-2.52584569237376e+001,-4.71114163274398e-001

1.04246576084112e+004,-2.52584604074472e+001,-4.77690556702237e-001

1.05701804056138e+004,-2.52584639890887e+001,-4.84358748269701e-001

1.07177346253629e+004,-2.52584676714151e+001,-4.91120019222323e-001

1.08673486252606e+004,-2.52584714572562e+001,-4.97975668684300e-001

1.10190511587661e+004,-2.52584753495219e+001,-5.04927013904482e-001

1.11728713807222e+004,-2.52584793512037e+001,-5.11975390510128e-001

1.13288388529580e+004,-2.52584834653768e+001,-5.19122152764631e-001

1.14869835499703e+004,-2.52584876952034e+001,-5.26368673823923e-001

1.16473358646846e+004,-2.52584920439342e+001,-5.33716346002883e-001

1.18099266142953e+004,-2.52584965149113e+001,-5.41166581040473e-001

1.19747870461893e+004,-2.52585011115708e+001,-5.48720810371799e-001

1.21419488439505e+004,-2.52585058374453e+001,-5.56380485400845e-001

1.23114441334492e+004,-2.52585106961667e+001,-5.64147077779313e-001

1.24833054890161e+004,-2.52585156914691e+001,-5.72022079690074e-001

1.26575659397028e+004,-2.52585208271911e+001,-5.80007004132207e-001

1.28342589756290e+004,-2.52585261072797e+001,-5.88103385209806e-001

1.30134185544193e+004,-2.52585315357924e+001,-5.96312778428240e-001

1.31950791077289e+004,-2.52585371169008e+001,-6.04636760991140e-001

1.33792755478611e+004,-2.52585428548941e+001,-6.13076932101005e-001

1.35660432744767e+004,-2.52585487541814e+001,-6.21634913269515e-001

1.37554181813974e+004,-2.52585548192961e+001,-6.30312348624666e-001

1.39474366635040e+004,-2.52585610548988e+001,-6.39110905227392e-001

1.41421356237309e+004,-2.52585674657812e+001,-6.48032273389773e-001

1.43395524801583e+004,-2.52585740568696e+001,-6.57078167000426e-001

1.45397251732031e+004,-2.52585808332285e+001,-6.66250323851362e-001

1.47426921729110e+004,-2.52585878000649e+001,-6.75550505971190e-001

1.49484924863494e+004,-2.52585949627321e+001,-6.84980499963705e-001

1.51571656651040e+004,-2.52586023267336e+001,-6.94542117347071e-001

1.53687518128801e+004,-2.52586098977278e+001,-7.04237194904059e-001

1.55832915932100e+004,-2.52586176815318e+001,-7.14067595030418e-001

1.58008262372675e+004,-2.52586256841263e+001,-7.24035206094384e-001

1.60213975517924e+004,-2.52586339116599e+001,-7.34141942795598e-001

1.62450479271247e+004,-2.52586423704541e+001,-7.44389746532733e-001

1.64718203453514e+004,-2.52586510670076e+001,-7.54780585775190e-001

1.67017583885674e+004,-2.52586600080021e+001,-7.65316456438898e-001

1.69349062472505e+004,-2.52586692003067e+001,-7.75999382267784e-001

1.71713087287550e+004,-2.52586786509834e+001,-7.86831415222612e-001

1.74110112659224e+004,-2.52586883672929e+001,-7.97814635871840e-001

1.76540599258131e+004,-2.52586983566996e+001,-8.08951153788908e-001

1.79005014185594e+004,-2.52587086268775e+001,-8.20243107957360e-001

1.81503831063432e+004,-2.52587191857162e+001,-8.31692667179015e-001

1.84037530124975e+004,-2.52587300413269e+001,-8.43302030488052e-001

1.86606598307361e+004,-2.52587412020486e+001,-8.55073427571223e-001

1.89211529345119e+004,-2.52587526764545e+001,-8.67009119194012e-001

1.91852823865052e+004,-2.52587644733585e+001,-8.79111397633318e-001

1.94530989482457e+004,-2.52587766018221e+001,-8.91382587113162e-001

1.97246540898671e+004,-2.52587890711612e+001,-9.03825044251711e-001

1.99999999999999e+004,-2.52588018909533e+001,-9.16441158508211e-001

2.02791895958005e+004,-2.52588150710448e+001,-9.29233352641018e-001

2.05622765331213e+004,-2.52588286215586e+001,-9.42204083168155e-001

2.08493152168224e+004,-2.52588425529018e+001,-9.55355840839541e-001

2.11403608112276e+004,-2.52588568757739e+001,-9.68691151107159e-001

2.14354692507258e+004,-2.52588716011744e+001,-9.82212574611511e-001

2.17346972505211e+004,-2.52588867404118e+001,-9.95922707667269e-001

2.20381023175322e+004,-2.52589023051122e+001,-1.00982418275926e+000

2.23457427614443e+004,-2.52589183072279e+001,-1.02391966904360e+000

2.26576777059159e+004,-2.52589347590467e+001,-1.03821187285646e+000

2.29739670999406e+004,-2.52589516732015e+001,-1.05270353823112e+000

2.32946717293690e+004,-2.52589690626793e+001,-1.06739744741924e+000

2.36198532285905e+004,-2.52589869408324e+001,-1.08229642141980e+000

2.39495740923785e+004,-2.52590053213871e+001,-1.09740332051934e+000

2.42838976879009e+004,-2.52590242184553e+001,-1.11272104483294e+000

2.46228882668982e+004,-2.52590436465448e+001,-1.12825253485845e+000

2.49666109780322e+004,-2.52590636205706e+001,-1.14400077203468e+000

2.53151318794055e+004,-2.52590841558660e+001,-1.15996877930903e+000

2.56685179512580e+004,-2.52591052681949e+001,-1.17615962171211e+000

2.60268371088386e+004,-2.52591269737631e+001,-1.19257640693949e+000

2.63901582154578e+004,-2.52591492892314e+001,-1.20922228594316e+000

2.67585510957221e+004,-2.52591722317277e+001,-1.22610045353018e+000

2.71320865489533e+004,-2.52591958188605e+001,-1.24321414896850e+000

2.75108363627948e+004,-2.52592200687323e+001,-1.26056665660217e+000

2.78948733270080e+004,-2.52592449999532e+001,-1.27816130647487e+000

2.82842712474618e+004,-2.52592706316554e+001,-1.29600147496120e+000

2.86791049603164e+004,-2.52592969835076e+001,-1.31409058540669e+000

2.90794503464061e+004,-2.52593240757299e+001,-1.33243210877757e+000

2.94853843458219e+004,-2.52593519291097e+001,-1.35102956431783e+000

2.98969849726987e+004,-2.52593805650171e+001,-1.36988652021530e+000

3.03143313302078e+004,-2.52594100054213e+001,-1.38900659427788e+000

3.07375036257601e+004,-2.52594402729075e+001,-1.40839345461818e+000

3.11665831864199e+004,-2.52594713906939e+001,-1.42805082034689e+000

3.16016524745350e+004,-2.52595033826496e+001,-1.44798246227604e+000

3.20427951035848e+004,-2.52595362733126e+001,-1.46819220363256e+000

3.24900958542493e+004,-2.52595700879088e+001,-1.48868392077873e+000

3.29436406907028e+004,-2.52596048523708e+001,-1.50946154394585e+000

3.34035167771346e+004,-2.52596405933579e+001,-1.53052905797443e+000

3.38698124945009e+004,-2.52596773382764e+001,-1.55189050306682e+000

3.43426174575100e+004,-2.52597151153003e+001,-1.57354997554845e+000

3.48220225318448e+004,-2.52597539533927e+001,-1.59551162863991e+000

3.53081198516260e+004,-2.52597938823284e+001,-1.61777967323823e+000

3.58010028371187e+004,-2.52598349327154e+001,-1.64035837871083e+000

3.63007662126863e+004,-2.52598771360196e+001,-1.66325207369642e+000

3.68075060249948e+004,-2.52599205245873e+001,-1.68646514692128e+000

3.73213196614721e+004,-2.52599651316709e+001,-1.71000204802128e+000

3.78423058690237e+004,-2.52600109914533e+001,-1.73386728837893e+000

3.83705647730104e+004,-2.52600581390744e+001,-1.75806544196913e+000

3.89061978964912e+004,-2.52601066106576e+001,-1.78260114621695e+000

3.94493081797342e+004,-2.52601564433370e+001,-1.80747910286591e+000

3.99999999999998e+004,-2.52602076752860e+001,-1.83270407885897e+000

4.05583791916010e+004,-2.52602603457456e+001,-1.85828090723017e+000

4.11245530662425e+004,-2.52603144950548e+001,-1.88421448800838e+000

4.16986304336447e+004,-2.52603701646806e+001,-1.91050978913163e+000

4.22807216224550e+004,-2.52604273972497e+001,-1.93717184737610e+000

4.28709385014515e+004,-2.52604862365807e+001,-1.96420576929373e+000

4.34693945010421e+004,-2.52605467277172e+001,-1.99161673216501e+000

4.40762046350642e+004,-2.52606089169618e+001,-2.01940998496230e+000

4.46914855228886e+004,-2.52606728519111e+001,-2.04759084932663e+000

4.53153554118317e+004,-2.52607385814917e+001,-2.07616472055649e+000

4.59479341998812e+004,-2.52608061559973e+001,-2.10513706860908e+000

4.65893434587380e+004,-2.52608756271262e+001,-2.13451343911650e+000

4.72397064571810e+004,-2.52609470480207e+001,-2.16429945441137e+000

4.78991481847569e+004,-2.52610204733068e+001,-2.19450081456948e+000

4.85677953758016e+004,-2.52610959591357e+001,-2.22512329846234e+000

4.92457765337964e+004,-2.52611735632259e+001,-2.25617276482578e+000

4.99332219560642e+004,-2.52612533449066e+001,-2.28765515334083e+000

5.06302637588109e+004,-2.52613353651622e+001,-2.31957648572765e+000

5.13370359025159e+004,-2.52614196866784e+001,-2.35194286685569e+000

5.20536742176771e+004,-2.52615063738892e+001,-2.38476048586430e+000

5.27803164309155e+004,-2.52615954930249e+001,-2.41803561730090e+000

5.35171021914442e+004,-2.52616871121624e+001,-2.45177462227085e+000

5.42641730979066e+004,-2.52617813012757e+001,-2.48598394960348e+000

5.50216727255895e+004,-2.52618781322883e+001,-2.52067013703058e+000

5.57897466540159e+004,-2.52619776791277e+001,-2.55583981238180e+000

5.65685424949235e+004,-2.52620800177797e+001,-2.59149969479318e+000

5.73582099206328e+004,-2.52621852263459e+001,-2.62765659593071e+000

5.81589006928121e+004,-2.52622933851016e+001,-2.66431742122993e+000

5.89707686916437e+004,-2.52624045765562e+001,-2.70148917114950e+000

5.97939699453972e+004,-2.52625188855140e+001,-2.73917894244004e+000

6.06286626604156e+004,-2.52626363991379e+001,-2.77739392942949e+000

6.14750072515201e+004,-2.52627572070142e+001,-2.81614142532264e+000

6.23331663728396e+004,-2.52628814012188e+001,-2.85542882351679e+000

6.32033049490698e+004,-2.52630090763863e+001,-2.89526361893337e+000

6.40855902071694e+004,-2.52631403297793e+001,-2.93565340936518e+000

6.49801917084985e+004,-2.52632752613614e+001,-2.97660589683928e+000

6.58872813814055e+004,-2.52634139738706e+001,-3.01812888899631e+000

6.68070335542691e+004,-2.52635565728958e+001,-3.06023030048557e+000

6.77396249890018e+004,-2.52637031669544e+001,-3.10291815437715e+000

6.86852349150199e+004,-2.52638538675725e+001,-3.14620058358938e+000

6.96440450636895e+004,-2.52640087893675e+001,-3.19008583233375e+000

7.06162397032520e+004,-2.52641680501320e+001,-3.23458225757469e+000

7.16020056742374e+004,-2.52643317709208e+001,-3.27969833050871e+000

7.26015324253724e+004,-2.52645000761397e+001,-3.32544263805750e+000

7.36150120499896e+004,-2.52646730936371e+001,-3.37182388437919e+000

7.46426393229441e+004,-2.52648509547972e+001,-3.41885089239661e+000

7.56846117380472e+004,-2.52650337946365e+001,-3.46653260534219e+000

7.67411295460207e+004,-2.52652217519025e+001,-3.51487808831913e+000

7.78123957929823e+004,-2.52654149691747e+001,-3.56389652988069e+000

7.88986163594682e+004,-2.52656135929691e+001,-3.61359724362682e+000

7.99999999999995e+004,-2.52658177738441e+001,-3.66398966981626e+000

8.11167583832018e+004,-2.52660276665106e+001,-3.71508337699752e+000

8.22491061324848e+004,-2.52662434299439e+001,-3.76688806365675e+000

8.33972608672892e+004,-2.52664652274988e+001,-3.81941355988185e+000

8.45614432449099e+004,-2.52666932270283e+001,-3.87266982904550e+000

8.57418770029029e+004,-2.52669276010041e+001,-3.92666696950408e+000

8.69387890020841e+004,-2.52671685266413e+001,-3.98141521631460e+000

8.81524092701283e+004,-2.52674161860263e+001,-4.03692494296861e+000

8.93829710457770e+004,-2.52676707662467e+001,-4.09320666314444e+000

9.06307108236633e+004,-2.52679324595263e+001,-4.15027103247466e+000

9.18958683997622e+004,-2.52682014633622e+001,-4.20812885033264e+000

9.31786869174758e+004,-2.52684779806662e+001,-4.26679106163568e+000

9.44794129143618e+004,-2.52687622199091e+001,-4.32626875866548e+000

9.57982963695136e+004,-2.52690543952692e+001,-4.38657318290494e+000

9.71355907516031e+004,-2.52693547267842e+001,-4.44771572689323e+000

9.84915530675926e+004,-2.52696634405075e+001,-4.50970793609664e+000

9.98664439121282e+004,-2.52699807686675e+001,-4.57256151079735e+000

1.01260527517622e+005,-2.52703069498314e+001,-4.63628830799825e+000

1.02674071805032e+005,-2.52706422290736e+001,-4.70090034334441e+000

1.04107348435354e+005,-2.52709868581468e+001,-4.76640979306177e+000

1.05560632861831e+005,-2.52713410956593e+001,-4.83282899591126e+000

1.07034204382888e+005,-2.52717052072548e+001,-4.90017045515997e+000

1.08528346195813e+005,-2.52720794657979e+001,-4.96844684056786e+000

1.10043345451179e+005,-2.52724641515636e+001,-5.03767099039021e+000

1.11579493308032e+005,-2.52728595524315e+001,-5.10785591339679e+000

1.13137084989847e+005,-2.52732659640847e+001,-5.17901479090534e+000

1.14716419841265e+005,-2.52736836902136e+001,-5.25116097883067e+000

1.16317801385624e+005,-2.52741130427244e+001,-5.32430800974878e+000

1.17941537383287e+005,-2.52745543419530e+001,-5.39846959497614e+000

1.19587939890794e+005,-2.52750079168837e+001,-5.47365962666246e+000

1.21257325320831e+005,-2.52754741053731e+001,-5.54989217989898e+000

1.22950014503040e+005,-2.52759532543793e+001,-5.62718151483904e+000

1.24666332745679e+005,-2.52764457201969e+001,-5.70554207883318e+000

1.26406609898139e+005,-2.52769518686967e+001,-5.78498850857818e+000

1.28171180414339e+005,-2.52774720755720e+001,-5.86553563227640e+000

1.29960383416997e+005,-2.52780067265897e+001,-5.94719847181026e+000

1.31774562762811e+005,-2.52785562178478e+001,-6.02999224492709e+000

1.33614067108538e+005,-2.52791209560387e+001,-6.11393236743658e+000

1.35479249978003e+005,-2.52797013587184e+001,-6.19903445541811e+000

1.37370469830040e+005,-2.52802978545815e+001,-6.28531432744017e+000

1.39288090127379e+005,-2.52809108837436e+001,-6.37278800678933e+000

1.41232479406504e+005,-2.52815408980286e+001,-6.46147172370832e+000

1.43204011348474e+005,-2.52821883612630e+001,-6.55138191764489e+000

1.45203064850745e+005,-2.52828537495775e+001,-6.64253523950728e+000

1.47230024099979e+005,-2.52835375517139e+001,-6.73494855392931e+000

1.49285278645888e+005,-2.52842402693397e+001,-6.82863894154275e+000

1.51369223476094e+005,-2.52849624173691e+001,-6.92362370125515e+000

1.53482259092041e+005,-2.52857045242916e+001,-7.01992035253577e+000

1.55624791585964e+005,-2.52864671325065e+001,-7.11754663770564e+000

1.57797232718936e+005,-2.52872507986657e+001,-7.21652052423360e+000

1.59999999999999e+005,-2.52880560940235e+001,-7.31686020703522e+000

1.62233516766403e+005,-2.52888836047931e+001,-7.41858411077636e+000

1.64498212264969e+005,-2.52897339325114e+001,-7.52171089217908e+000

1.66794521734578e+005,-2.52906076944110e+001,-7.62625944232920e+000

1.69122886489819e+005,-2.52915055238000e+001,-7.73224888898491e+000

1.71483754005805e+005,-2.52924280704494e+001,-7.83969859888665e+000

1.73877578004168e+005,-2.52933760009884e+001,-7.94862818006540e+000

1.76304818540256e+005,-2.52943499993081e+001,-8.05905748415007e+000

1.78765942091554e+005,-2.52953507669722e+001,-8.17100660867327e+000

1.81261421647326e+005,-2.52963790236376e+001,-8.28449589937257e+000

1.83791736799524e+005,-2.52974355074814e+001,-8.39954595248952e+000

1.86357373834951e+005,-2.52985209756373e+001,-8.51617761706211e+000

1.88958825828723e+005,-2.52996362046405e+001,-8.63441199721257e+000

1.91596592739027e+005,-2.53007819908805e+001,-8.75427045442778e+000

1.94271181503206e+005,-2.53019591510632e+001,-8.87577460983133e+000

1.96983106135185e+005,-2.53031685226812e+001,-8.99894634644828e+000

1.99732887824256e+005,-2.53044109644933e+001,-9.12380781145806e+000

2.02521055035243e+005,-2.53056873570126e+001,-9.25038141843856e+000

2.05348143610063e+005,-2.53069986030036e+001,-9.37868984959616e+000

2.08214696870707e+005,-2.53083456279888e+001,-9.50875605798505e+000

2.11121265723661e+005,-2.53097293807638e+001,-9.64060326971012e+000

2.14068408765776e+005,-2.53111508339221e+001,-9.77425498611664e+000

2.17056692391625e+005,-2.53126109843893e+001,-9.90973498596225e+000

2.20086690902357e+005,-2.53141108539661e+001,-1.00470673275726e+001

2.23158986616063e+005,-2.53156514898816e+001,-1.01862763509774e+001

2.26274169979693e+005,-2.53172339653559e+001,-1.03273866800277e+001

2.29432839682530e+005,-2.53188593801718e+001,-1.04704232244917e+001

2.32635602771247e+005,-2.53205288612575e+001,-1.06154111821285e+001

2.35883074766574e+005,-2.53222435632776e+001,-1.07623760407391e+001

2.39175879781588e+005,-2.53240046692360e+001,-1.09113435801923e+001

2.42514650641661e+005,-2.53258133910867e+001,-1.10623398744250e+001

2.45900029006080e+005,-2.53276709703567e+001,-1.12153912934161e+001

2.49332665491357e+005,-2.53295786787775e+001,-1.13705245051313e+001

2.52813219796278e+005,-2.53315378189287e+001,-1.15277664774391e+001

2.56342360828676e+005,-2.53335497248903e+001,-1.16871444799953e+001

2.59920766833993e+005,-2.53356157629068e+001,-1.18486860860960e+001

2.63549125525621e+005,-2.53377373320617e+001,-1.20124191744967e+001

2.67228134217075e+005,-2.53399158649628e+001,-1.21783719311957e+001

2.70958499956006e+005,-2.53421528284381e+001,-1.23465728511831e+001

2.74740939660078e+005,-2.53444497242439e+001,-1.25170507401491e+001

2.78576180254757e+005,-2.53468080897826e+001,-1.26898347161555e+001

2.82464958813007e+005,-2.53492294988333e+001,-1.28649542112649e+001

2.86408022696948e+005,-2.53517155622933e+001,-1.30424389731267e+001

2.90406129701488e+005,-2.53542679289316e+001,-1.32223190665204e+001

2.94460048199957e+005,-2.53568882861539e+001,-1.34046248748512e+001

2.98570557291775e+005,-2.53595783607805e+001,-1.35893871015984e+001

3.02738446952187e+005,-2.53623399198358e+001,-1.37766367717137e+001

3.06964518184081e+005,-2.53651747713506e+001,-1.39664052329679e+001

3.11249583171928e+005,-2.53680847651775e+001,-1.41587241572422e+001

3.15594465437872e+005,-2.53710717938187e+001,-1.43536255417649e+001

3.19999999999997e+005,-2.53741377932678e+001,-1.45511417102872e+001

3.24467033532806e+005,-2.53772847438641e+001,-1.47513053141998e+001

3.28996424529938e+005,-2.53805146711620e+001,-1.49541493335831e+001

3.33589043469155e+005,-2.53838296468132e+001,-1.51597070781921e+001

3.38245772979638e+005,-2.53872317894642e+001,-1.53680121883699e+001

3.42967508011610e+005,-2.53907232656679e+001,-1.55790986358887e+001

3.47755156008335e+005,-2.53943062908105e+001,-1.57930007247130e+001

3.52609637080511e+005,-2.53979831300536e+001,-1.60097530916823e+001

3.57531884183106e+005,-2.54017560992919e+001,-1.62293907071090e+001

3.62522843294651e+005,-2.54056275661271e+001,-1.64519488752864e+001

3.67583473599047e+005,-2.54095999508574e+001,-1.66774632349046e+001

3.72714747669902e+005,-2.54136757274849e+001,-1.69059697593646e+001

3.77917651657445e+005,-2.54178574247386e+001,-1.71375047569918e+001

3.83193185478053e+005,-2.54221476271159e+001,-1.73721048711367e+001

3.88542363006410e+005,-2.54265489759409e+001,-1.76098070801606e+001

3.93966212270369e+005,-2.54310641704409e+001,-1.78506486973007e+001

3.99465775648511e+005,-2.54356959688418e+001,-1.80946673704024e+001

4.05042110070485e+005,-2.54404471894812e+001,-1.83419010815184e+001

4.10696287220124e+005,-2.54453207119408e+001,-1.85923881463612e+001

4.16429393741414e+005,-2.54503194781977e+001,-1.88461672136036e+001

4.22242531447321e+005,-2.54554464937952e+001,-1.91032772640176e+001

4.28136817531551e+005,-2.54607048290331e+001,-1.93637576094422e+001

4.34113384783250e+005,-2.54660976201771e+001,-1.96276478915707e+001

4.40173381804713e+005,-2.54716280706886e+001,-1.98949880805468e+001

4.46317973232124e+005,-2.54772994524734e+001,-2.01658184733588e+001

4.52548339959385e+005,-2.54831151071507e+001,-2.04401796920195e+001

4.58865679365059e+005,-2.54890784473413e+001,-2.07181126815217e+001

4.65271205542494e+005,-2.54951929579750e+001,-2.09996587075545e+001

4.71766149533147e+005,-2.55014621976171e+001,-2.12848593539690e+001

4.78351759563174e+005,-2.55078897998137e+001,-2.15737565199785e+001

4.85029301283321e+005,-2.55144794744548e+001,-2.18663924170788e+001

4.91800058012158e+005,-2.55212350091550e+001,-2.21628095656768e+001

4.98665330982714e+005,-2.55281602706511e+001,-2.24630507914067e+001

5.05626439592555e+005,-2.55352592062149e+001,-2.27671592211239e+001

5.12684721657352e+005,-2.55425358450817e+001,-2.30751782785565e+001

5.19841533667984e+005,-2.55499942998916e+001,-2.33871516795993e+001

5.27098251051240e+005,-2.55576387681434e+001,-2.37031234272343e+001

5.34456268434150e+005,-2.55654735336590e+001,-2.40231378060590e+001

5.41916999912011e+005,-2.55735029680569e+001,-2.43472393764053e+001

