Freq.,VOut,OutRef

1.00000000000000e+004,-2.00896761373573e+001,-1.31335587868429e-001

1.01395947979003e+004,-2.00896765503017e+001,-1.33168942955829e-001

1.02811382665607e+004,-2.00896769748532e+001,-1.35027889819225e-001

1.04246576084112e+004,-2.00896774113380e+001,-1.36912785666694e-001

1.05701804056138e+004,-2.00896778600917e+001,-1.38823992691759e-001

1.07177346253629e+004,-2.00896783214588e+001,-1.40761878144363e-001

1.08673486252606e+004,-2.00896787957938e+001,-1.42726814397095e-001

1.10190511587661e+004,-2.00896792834614e+001,-1.44719179018577e-001

1.11728713807222e+004,-2.00896797848357e+001,-1.46739354849533e-001

1.13288388529580e+004,-2.00896803003025e+001,-1.48787730067084e-001

1.14869835499703e+004,-2.00896808302574e+001,-1.50864698271166e-001

1.16473358646846e+004,-2.00896813751076e+001,-1.52970658550376e-001

1.18099266142953e+004,-2.00896819352718e+001,-1.55106015562411e-001

1.19747870461893e+004,-2.00896825111801e+001,-1.57271179612915e-001

1.21419488439505e+004,-2.00896831032749e+001,-1.59466566731018e-001

1.23114441334492e+004,-2.00896837120112e+001,-1.61692598751713e-001

1.24833054890161e+004,-2.00896843378564e+001,-1.63949703396311e-001

1.26575659397028e+004,-2.00896849812915e+001,-1.66238314351372e-001

1.28342589756290e+004,-2.00896856428103e+001,-1.68558871359477e-001

1.30134185544193e+004,-2.00896863229211e+001,-1.70911820294398e-001

1.31950791077289e+004,-2.00896870221464e+001,-1.73297613252034e-001

1.33792755478611e+004,-2.00896877410230e+001,-1.75716708637850e-001

1.35660432744767e+004,-2.00896884801033e+001,-1.78169571249640e-001

1.37554181813974e+004,-2.00896892399544e+001,-1.80656672373989e-001

1.39474366635040e+004,-2.00896900211604e+001,-1.83178489868319e-001

1.41421356237309e+004,-2.00896908243210e+001,-1.85735508259428e-001

1.43395524801583e+004,-2.00896916500528e+001,-1.88328218834016e-001

1.45397251732031e+004,-2.00896924989900e+001,-1.90957119732204e-001

1.47426921729110e+004,-2.00896933717846e+001,-1.93622716041627e-001

1.49484924863494e+004,-2.00896942691067e+001,-1.96325519897529e-001

1.51571656651040e+004,-2.00896951916452e+001,-1.99066050581370e-001

1.53687518128801e+004,-2.00896961401085e+001,-2.01844834614750e-001

1.55832915932100e+004,-2.00896971152248e+001,-2.04662405866054e-001

1.58008262372675e+004,-2.00896981177426e+001,-2.07519305652529e-001

1.60213975517924e+004,-2.00896991484317e+001,-2.10416082837670e-001

1.62450479271247e+004,-2.00897002080833e+001,-2.13353293944921e-001

1.64718203453514e+004,-2.00897012975110e+001,-2.16331503257988e-001

1.67017583885674e+004,-2.00897024175507e+001,-2.19351282933436e-001

1.69349062472505e+004,-2.00897035690624e+001,-2.22413213104977e-001

1.71713087287550e+004,-2.00897047529299e+001,-2.25517882001543e-001

1.74110112659224e+004,-2.00897059700618e+001,-2.28665886052556e-001

1.76540599258131e+004,-2.00897072213923e+001,-2.31857830007867e-001

1.79005014185594e+004,-2.00897085078817e+001,-2.35094327050714e-001

1.81503831063432e+004,-2.00897098305171e+001,-2.38375998916093e-001

1.84037530124975e+004,-2.00897111903138e+001,-2.41703476008652e-001

1.86606598307361e+004,-2.00897125883149e+001,-2.45077397525409e-001

1.89211529345119e+004,-2.00897140255932e+001,-2.48498411575885e-001

1.91852823865052e+004,-2.00897155032514e+001,-2.51967175307739e-001

1.94530989482457e+004,-2.00897170224233e+001,-2.55484355031264e-001

1.97246540898671e+004,-2.00897185842743e+001,-2.59050626347873e-001

1.99999999999999e+004,-2.00897201900024e+001,-2.62666674279973e-001

2.02791895958005e+004,-2.00897218408395e+001,-2.66333193398228e-001

2.05622765331213e+004,-2.00897235380517e+001,-2.70050887960624e-001

2.08493152168224e+004,-2.00897252829406e+001,-2.73820472041897e-001

2.11403608112276e+004,-2.00897270768448e+001,-2.77642669670640e-001

2.14354692507258e+004,-2.00897289211397e+001,-2.81518214971557e-001

2.17346972505211e+004,-2.00897308172396e+001,-2.85447852301566e-001

2.20381023175322e+004,-2.00897327665982e+001,-2.89432336394579e-001

2.23457427614443e+004,-2.00897347707104e+001,-2.93472432503044e-001

2.26576777059159e+004,-2.00897368311125e+001,-2.97568916547658e-001

2.29739670999406e+004,-2.00897389493840e+001,-3.01722575264068e-001

2.32946717293690e+004,-2.00897411271486e+001,-3.05934206351040e-001

2.36198532285905e+004,-2.00897433660754e+001,-3.10204618626609e-001

2.39495740923785e+004,-2.00897456678805e+001,-3.14534632179343e-001

2.42838976879009e+004,-2.00897480343278e+001,-3.18925078526355e-001

2.46228882668982e+004,-2.00897504672306e+001,-3.23376800772652e-001

2.49666109780322e+004,-2.00897529684529e+001,-3.27890653769448e-001

2.53151318794055e+004,-2.00897555399111e+001,-3.32467504280521e-001

2.56685179512580e+004,-2.00897581835749e+001,-3.37108231145078e-001

2.60268371088386e+004,-2.00897609014694e+001,-3.41813725446194e-001

2.63901582154578e+004,-2.00897636956763e+001,-3.46584890680542e-001

2.67585510957221e+004,-2.00897665683353e+001,-3.51422642932331e-001

2.71320865489533e+004,-2.00897695216461e+001,-3.56327911044655e-001

2.75108363627948e+004,-2.00897725578701e+001,-3.61301636797971e-001

2.78948733270080e+004,-2.00897756793313e+001,-3.66344775092371e-001

2.82842712474618e+004,-2.00897788884194e+001,-3.71458294123174e-001

2.86791049603164e+004,-2.00897821875905e+001,-3.76643175571073e-001

2.90794503464061e+004,-2.00897855793694e+001,-3.81900414786116e-001

2.94853843458219e+004,-2.00897890663513e+001,-3.87231020978359e-001

2.98969849726987e+004,-2.00897926512043e+001,-3.92636017407999e-001

3.03143313302078e+004,-2.00897963366705e+001,-3.98116441582830e-001

3.07375036257601e+004,-2.00898001255689e+001,-4.03673345452195e-001

3.11665831864199e+004,-2.00898040207971e+001,-4.09307795610654e-001

3.16016524745350e+004,-2.00898080253336e+001,-4.15020873496122e-001

3.20427951035848e+004,-2.00898121422400e+001,-4.20813675600012e-001

3.24900958542493e+004,-2.00898163746634e+001,-4.26687313672715e-001

3.29436406907028e+004,-2.00898207258386e+001,-4.32642914933592e-001

3.34035167771346e+004,-2.00898251990906e+001,-4.38681622289179e-001

3.38698124945009e+004,-2.00898297978372e+001,-4.44804594544191e-001

3.43426174575100e+004,-2.00898345255914e+001,-4.51013006627322e-001

3.48220225318448e+004,-2.00898393859640e+001,-4.57308049809139e-001

3.53081198516260e+004,-2.00898443826669e+001,-4.63690931929909e-001

3.58010028371187e+004,-2.00898495195146e+001,-4.70162877628846e-001

3.63007662126863e+004,-2.00898548004286e+001,-4.76725128573900e-001

3.68075060249948e+004,-2.00898602294392e+001,-4.83378943699108e-001

3.73213196614721e+004,-2.00898658106888e+001,-4.90125599442168e-001

3.78423058690237e+004,-2.00898715484353e+001,-4.96966389984043e-001

3.83705647730104e+004,-2.00898774470548e+001,-5.03902627496478e-001

3.89061978964912e+004,-2.00898835110453e+001,-5.10935642386558e-001

3.94493081797342e+004,-2.00898897450299e+001,-5.18066783551275e-001

3.99999999999998e+004,-2.00898961537598e+001,-5.25297418629945e-001

4.05583791916010e+004,-2.00899027421187e+001,-5.32628934262653e-001

4.11245530662425e+004,-2.00899095151257e+001,-5.40062736351419e-001

4.16986304336447e+004,-2.00899164779391e+001,-5.47600250327197e-001

4.22807216224550e+004,-2.00899236358607e+001,-5.55242921415400e-001

4.28709385014515e+004,-2.00899309943390e+001,-5.62992214910476e-001

4.34693945010421e+004,-2.00899385589741e+001,-5.70849616448539e-001

4.40762046350642e+004,-2.00899463355209e+001,-5.78816632290286e-001

4.46914855228886e+004,-2.00899543298940e+001,-5.86894789601897e-001

4.53153554118317e+004,-2.00899625481718e+001,-5.95085636742747e-001

4.59479341998812e+004,-2.00899709966011e+001,-6.03390743554680e-001

4.65893434587380e+004,-2.00899796816015e+001,-6.11811701657619e-001

4.72397064571810e+004,-2.00899886097701e+001,-6.20350124748911e-001

4.78991481847569e+004,-2.00899977878867e+001,-6.29007648902286e-001

4.85677953758016e+004,-2.00900072229183e+001,-6.37785932877878e-001

4.92457765337964e+004,-2.00900169220244e+001,-6.46686658429737e-001

4.99332219560642e+004,-2.00900268925623e+001,-6.55711530621668e-001

5.06302637588109e+004,-2.00900371420924e+001,-6.64862278144476e-001

5.13370359025159e+004,-2.00900476783833e+001,-6.74140653640915e-001

5.20536742176771e+004,-2.00900585094182e+001,-6.83548434029019e-001

5.27803164309155e+004,-2.00900696434001e+001,-6.93087420836095e-001

5.35171021914442e+004,-2.00900810887580e+001,-7.02759440532983e-001

5.42641730979066e+004,-2.00900928541528e+001,-7.12566344873241e-001

5.50216727255895e+004,-2.00901049484835e+001,-7.22510011239111e-001

5.57897466540159e+004,-2.00901173808942e+001,-7.32592342987629e-001

5.65685424949235e+004,-2.00901301607798e+001,-7.42815269805271e-001

5.73582099206328e+004,-2.00901432977933e+001,-7.53180748066316e-001

5.81589006928121e+004,-2.00901568018525e+001,-7.63690761192649e-001

5.89707686916437e+004,-2.00901706831471e+001,-7.74347320023143e-001

5.97939699453972e+004,-2.00901849521463e+001,-7.85152463182112e-001

6.06286626604156e+004,-2.00901996196055e+001,-7.96108257459832e-001

6.14750072515201e+004,-2.00902146965747e+001,-8.07216798189844e-001

6.23331663728396e+004,-2.00902301944057e+001,-8.18480209636860e-001

6.32033049490698e+004,-2.00902461247606e+001,-8.29900645386193e-001

6.40855902071694e+004,-2.00902624996198e+001,-8.41480288741501e-001

6.49801917084985e+004,-2.00902793312903e+001,-8.53221353123260e-001

6.58872813814055e+004,-2.00902966324145e+001,-8.65126082476061e-001

6.68070335542691e+004,-2.00903144159790e+001,-8.77196751678474e-001

6.77396249890018e+004,-2.00903326953237e+001,-8.89435666959572e-001

6.86852349150199e+004,-2.00903514841508e+001,-9.01845166320165e-001

6.96440450636895e+004,-2.00903707965348e+001,-9.14427619957464e-001

7.06162397032520e+004,-2.00903906469316e+001,-9.27185430700524e-001

7.16020056742374e+004,-2.00904110501890e+001,-9.40121034442566e-001

7.26015324253724e+004,-2.00904320215566e+001,-9.53236900586677e-001

7.36150120499896e+004,-2.00904535766961e+001,-9.66535532492525e-001

7.46426393229441e+004,-2.00904757316926e+001,-9.80019467928781e-001

7.56846117380472e+004,-2.00904985030649e+001,-9.93691279533297e-001

7.67411295460207e+004,-2.00905219077767e+001,-1.00755357527664e+000

7.78123957929823e+004,-2.00905459632486e+001,-1.02160899893147e+000

7.88986163594682e+004,-2.00905706873693e+001,-1.03586023054944e+000

7.99999999999995e+004,-2.00905960985077e+001,-1.05030998694203e+000

8.11167583832018e+004,-2.00906222155253e+001,-1.06496102216714e+000

8.22491061324848e+004,-2.00906490577885e+001,-1.07981612802231e+000

8.33972608672892e+004,-2.00906766451818e+001,-1.09487813454297e+000

8.45614432449099e+004,-2.00907049981203e+001,-1.11014991050849e+000

8.57418770029029e+004,-2.00907341375635e+001,-1.12563436395141e+000

8.69387890020841e+004,-2.00907640850291e+001,-1.14133444267435e+000

8.81524092701283e+004,-2.00907948626064e+001,-1.15725313477222e+000

8.93829710457770e+004,-2.00908264929713e+001,-1.17339346916203e+000

9.06307108236633e+004,-2.00908589994004e+001,-1.18975851611697e+000

9.18958683997622e+004,-2.00908924057858e+001,-1.20635138780683e+000

9.31786869174758e+004,-2.00909267366509e+001,-1.22317523884630e+000

9.44794129143618e+004,-2.00909620171652e+001,-1.24023326684810e+000

9.57982963695136e+004,-2.00909982731606e+001,-1.25752871298196e+000

9.71355907516031e+004,-2.00910355311475e+001,-1.27506486254164e+000

9.84915530675926e+004,-2.00910738183311e+001,-1.29284504551643e+000

9.98664439121282e+004,-2.00911131626282e+001,-1.31087263717208e+000

1.01260527517622e+005,-2.00911535926848e+001,-1.32915105863312e+000

1.02674071805032e+005,-2.00911951378929e+001,-1.34768377747759e+000

1.04107348435354e+005,-2.00912378284087e+001,-1.36647430833429e+000

1.05560632861831e+005,-2.00912816951708e+001,-1.38552621348688e+000

1.07034204382888e+005,-2.00913267699185e+001,-1.40484310348740e+000

1.08528346195813e+005,-2.00913730852103e+001,-1.42442863777359e+000

1.10043345451179e+005,-2.00914206744438e+001,-1.44428652529439e+000

1.11579493308032e+005,-2.00914695718746e+001,-1.46442052514087e+000

1.13137084989847e+005,-2.00915198126363e+001,-1.48483444718628e+000

1.14716419841265e+005,-2.00915714327607e+001,-1.50553215273074e+000

1.16317801385624e+005,-2.00916244691981e+001,-1.52651755515351e+000

1.17941537383287e+005,-2.00916789598385e+001,-1.54779462057251e+000

1.19587939890794e+005,-2.00917349435322e+001,-1.56936736851163e+000

1.21257325320831e+005,-2.00917924601119e+001,-1.59123987257203e+000

1.22950014503040e+005,-2.00918515504141e+001,-1.61341626111460e+000

1.24666332745679e+005,-2.00919122563013e+001,-1.63590071794579e+000

1.26406609898139e+005,-2.00919746206846e+001,-1.65869748301335e+000

1.28171180414339e+005,-2.00920386875464e+001,-1.68181085310863e+000

1.29960383416997e+005,-2.00921045019632e+001,-1.70524518257416e+000

1.31774562762811e+005,-2.00921721101294e+001,-1.72900488402188e+000

1.33614067108538e+005,-2.00922415593809e+001,-1.75309442905521e+000

1.35479249978003e+005,-2.00923128982187e+001,-1.77751834900239e+000

1.37370469830040e+005,-2.00923861763334e+001,-1.80228123565362e+000

1.39288090127379e+005,-2.00924614446297e+001,-1.82738774200798e+000

1.41232479406504e+005,-2.00925387552511e+001,-1.85284258302790e+000

1.43204011348474e+005,-2.00926181616049e+001,-1.87865053639994e+000

1.45203064850745e+005,-2.00926997183874e+001,-1.90481644330464e+000

1.47230024099979e+005,-2.00927834816093e+001,-1.93134520919394e+000

1.49285278645888e+005,-2.00928695086214e+001,-1.95824180457637e+000

1.51369223476094e+005,-2.00929578581407e+001,-1.98551126580981e+000

1.53482259092041e+005,-2.00930485902761e+001,-2.01315869590338e+000

1.55624791585964e+005,-2.00931417665545e+001,-2.04118926532707e+000

1.57797232718936e+005,-2.00932374499474e+001,-2.06960821282929e+000

1.59999999999999e+005,-2.00933357048973e+001,-2.09842084626342e+000

1.62233516766403e+005,-2.00934365973442e+001,-2.12763254342240e+000

1.64498212264969e+005,-2.00935401947520e+001,-2.15724875288343e+000

1.66794521734578e+005,-2.00936465661355e+001,-2.18727499485905e+000

1.69122886489819e+005,-2.00937557820870e+001,-2.21771686205997e+000

1.71483754005805e+005,-2.00938679148029e+001,-2.24858002056459e+000

1.73877578004168e+005,-2.00939830381106e+001,-2.27987021070037e+000

1.76304818540256e+005,-2.00941012274950e+001,-2.31159324793225e+000

1.78765942091554e+005,-2.00942225601250e+001,-2.34375502376249e+000

1.81261421647326e+005,-2.00943471148803e+001,-2.37636150664045e+000

1.83791736799524e+005,-2.00944749723776e+001,-2.40941874288115e+000

1.86357373834951e+005,-2.00946062149965e+001,-2.44293285759596e+000

1.88958825828723e+005,-2.00947409269060e+001,-2.47691005563344e+000

1.91596592739027e+005,-2.00948791940899e+001,-2.51135662253039e+000

1.94271181503206e+005,-2.00950211043727e+001,-2.54627892547573e+000

1.96983106135185e+005,-2.00951667474442e+001,-2.58168341428447e+000

1.99732887824256e+005,-2.00953162148851e+001,-2.61757662238505e+000

2.02521055035243e+005,-2.00954696001910e+001,-2.65396516781806e+000

2.05348143610063e+005,-2.00956269987970e+001,-2.69085575424819e+000

2.08214696870707e+005,-2.00957885081010e+001,-2.72825517198928e+000

2.11121265723661e+005,-2.00959542274871e+001,-2.76617029904311e+000

2.14068408765776e+005,-2.00961242583486e+001,-2.80460810215194e+000

2.17056692391625e+005,-2.00962987041099e+001,-2.84357563786666e+000

2.20086690902357e+005,-2.00964776702480e+001,-2.88308005362834e+000

2.23158986616063e+005,-2.00966612643142e+001,-2.92312858886787e+000

2.26274169979693e+005,-2.00968495959536e+001,-2.96372857611964e+000

2.29432839682530e+005,-2.00970427769258e+001,-3.00488744215325e+000

2.32635602771247e+005,-2.00972409211231e+001,-3.04661270912354e+000

2.35883074766574e+005,-2.00974441445893e+001,-3.08891199573765e+000

2.39175879781588e+005,-2.00976525655372e+001,-3.13179301844152e+000

2.42514650641661e+005,-2.00978663043653e+001,-3.17526359262723e+000

2.45900029006080e+005,-2.00980854836738e+001,-3.21933163385935e+000

2.49332665491357e+005,-2.00983102282798e+001,-3.26400515912485e+000

2.52813219796278e+005,-2.00985406652318e+001,-3.30929228810258e+000

2.56342360828676e+005,-2.00987769238232e+001,-3.35520124446003e+000

2.59920766833993e+005,-2.00990191356045e+001,-3.40174035717036e+000

2.63549125525621e+005,-2.00992674343963e+001,-3.44891806185736e+000

2.67228134217075e+005,-2.00995219562988e+001,-3.49674290216668e+000

2.70958499956006e+005,-2.00997828397035e+001,-3.54522353116317e+000

2.74740939660078e+005,-2.01000502253015e+001,-3.59436871275834e+000

2.78576180254757e+005,-2.01003242560928e+001,-3.64418732316648e+000

2.82464958813007e+005,-2.01006050773939e+001,-3.69468835239299e+000

2.86408022696948e+005,-2.01008928368451e+001,-3.74588090575394e+000

2.90406129701488e+005,-2.01011876844168e+001,-3.79777420543006e+000

2.94460048199957e+005,-2.01014897724158e+001,-3.85037759205524e+000

2.98570557291775e+005,-2.01017992554908e+001,-3.90370052634086e+000

3.02738446952187e+005,-2.01021162906368e+001,-3.95775259073930e+000

3.06964518184081e+005,-2.01024410372006e+001,-4.01254349114431e+000

3.11249583171928e+005,-2.01027736568847e+001,-4.06808305863426e+000

3.15594465437872e+005,-2.01031143137514e+001,-4.12438125125551e+000

3.19999999999997e+005,-2.01034631742280e+001,-4.18144815585028e+000

3.24467033532806e+005,-2.01038204071105e+001,-4.23929398992877e+000

3.28996424529938e+005,-2.01041861835687e+001,-4.29792910358900e+000

3.33589043469155e+005,-2.01045606771515e+001,-4.35736398148282e+000

3.38245772979638e+005,-2.01049440637928e+001,-4.41760924483301e+000

3.42967508011610e+005,-2.01053365218189e+001,-4.47867565349994e+000

3.47755156008335e+005,-2.01057382319556e+001,-4.54057410810239e+000

3.52609637080511e+005,-2.01061493773385e+001,-4.60331565218979e+000

3.57531884183106e+005,-2.01065701435236e+001,-4.66691147447279e+000

3.62522843294651e+005,-2.01070007184999e+001,-4.73137291110764e+000

3.67583473599047e+005,-2.01074412927054e+001,-4.79671144804074e+000

3.72714747669902e+005,-2.01078920590437e+001,-4.86293872341121e+000

3.77917651657445e+005,-2.01083532129053e+001,-4.93006653001508e+000

3.83193185478053e+005,-2.01088249521906e+001,-4.99810681783023e+000

3.88542363006410e+005,-2.01093074773377e+001,-5.06707169660467e+000

3.93966212270369e+005,-2.01098009913532e+001,-5.13697343850856e+000

3.99465775648511e+005,-2.01103056998477e+001,-5.20782448085137e+000

4.05042110070485e+005,-2.01108218110766e+001,-5.27963742886316e+000

4.10696287220124e+005,-2.01113495359849e+001,-5.35242505854318e+000

4.16429393741414e+005,-2.01118890882589e+001,-5.42620031957544e+000

4.22242531447321e+005,-2.01124406843832e+001,-5.50097633830972e+000

4.28136817531551e+005,-2.01130045437051e+001,-5.57676642081159e+000

4.34113384783250e+005,-2.01135808885051e+001,-5.65358405597854e+000

4.40173381804713e+005,-2.01141699440759e+001,-5.73144291872399e+000

4.46317973232124e+005,-2.01147719388092e+001,-5.81035687322860e+000

4.52548339959385e+005,-2.01153871042911e+001,-5.89033997625712e+000

4.58865679365059e+005,-2.01160156754070e+001,-5.97140648054234e+000

4.65271205542494e+005,-2.01166578904557e+001,-6.05357083823324e+000

4.71766149533147e+005,-2.01173139912745e+001,-6.13684770440722e+000

4.78351759563174e+005,-2.01179842233745e+001,-6.22125194064611e+000

4.85029301283321e+005,-2.01186688360878e+001,-6.30679861867171e+000

4.91800058012158e+005,-2.01193680827259e+001,-6.39350302404251e+000

4.98665330982714e+005,-2.01200822207517e+001,-6.48138065990666e+000

5.05626439592555e+005,-2.01208115119631e+001,-6.57044725081161e+000

5.12684721657352e+005,-2.01215562226912e+001,-6.66071874656609e+000

5.19841533667984e+005,-2.01223166240121e+001,-6.75221132615263e+000

5.27098251051240e+005,-2.01230929919729e+001,-6.84494140168785e+000

5.34456268434150e+005,-2.01238856078333e+001,-6.93892562242755e+000

5.41916999912011e+005,-2.01246947583218e+001,-7.03418087881257e+000

