Freq.,VOut,OutRef

1.00000000000000e+004,-1.50454407288696e+001,-1.65097147051028e-001

1.01395947979003e+004,-1.50454411669428e+001,-1.67401788395193e-001

1.02811382665607e+004,-1.50454416173289e+001,-1.69738600103807e-001

1.04246576084112e+004,-1.50454420803737e+001,-1.72108031207776e-001

1.05701804056138e+004,-1.50454425564330e+001,-1.74510537001142e-001

1.07177346253629e+004,-1.50454430458724e+001,-1.76946579134352e-001

1.08673486252606e+004,-1.50454435490679e+001,-1.79416625697183e-001

1.10190511587661e+004,-1.50454440664061e+001,-1.81921151311941e-001

1.11728713807222e+004,-1.50454445982843e+001,-1.84460637223660e-001

1.13288388529580e+004,-1.50454451451109e+001,-1.87035571394914e-001

1.14869835499703e+004,-1.50454457073059e+001,-1.89646448594055e-001

1.16473358646846e+004,-1.50454462853013e+001,-1.92293770493931e-001

1.18099266142953e+004,-1.50454468795410e+001,-1.94978045767117e-001

1.19747870461893e+004,-1.50454474904810e+001,-1.97699790186725e-001

1.21419488439505e+004,-1.50454481185909e+001,-2.00459526718264e-001

1.23114441334492e+004,-1.50454487643529e+001,-2.03257785626581e-001

1.24833054890161e+004,-1.50454494282630e+001,-2.06095104574240e-001

1.26575659397028e+004,-1.50454501108309e+001,-2.08972028726059e-001

1.28342589756290e+004,-1.50454508125807e+001,-2.11889110852493e-001

1.30134185544193e+004,-1.50454515340514e+001,-2.14846911436732e-001

1.31950791077289e+004,-1.50454522757968e+001,-2.17845998781436e-001

1.33792755478611e+004,-1.50454530383865e+001,-2.20886949118217e-001

1.35660432744767e+004,-1.50454538224060e+001,-2.23970346717788e-001

1.37554181813974e+004,-1.50454546284573e+001,-2.27096784001675e-001

1.39474366635040e+004,-1.50454554571592e+001,-2.30266861656839e-001

1.41421356237309e+004,-1.50454563091477e+001,-2.33481188750407e-001

1.43395524801583e+004,-1.50454571850771e+001,-2.36740382845080e-001

1.45397251732031e+004,-1.50454580856195e+001,-2.40045070121173e-001

1.47426921729110e+004,-1.50454590114665e+001,-2.43395885489894e-001

1.49484924863494e+004,-1.50454599633284e+001,-2.46793472724243e-001

1.51571656651040e+004,-1.50454609419361e+001,-2.50238484572362e-001

1.53687518128801e+004,-1.50454619480403e+001,-2.53731582893405e-001

1.55832915932100e+004,-1.50454629824136e+001,-2.57273438772395e-001

1.58008262372675e+004,-1.50454640458496e+001,-2.60864732658918e-001

1.60213975517924e+004,-1.50454651391642e+001,-2.64506154493934e-001

1.62450479271247e+004,-1.50454662631965e+001,-2.68198403839880e-001

1.64718203453514e+004,-1.50454674188091e+001,-2.71942190015509e-001

1.67017583885674e+004,-1.50454686068884e+001,-2.75738232235438e-001

1.69349062472505e+004,-1.50454698283462e+001,-2.79587259742852e-001

1.71713087287550e+004,-1.50454710841193e+001,-2.83490011952442e-001

1.74110112659224e+004,-1.50454723751712e+001,-2.87447238590319e-001

1.76540599258131e+004,-1.50454737024922e+001,-2.91459699838078e-001

1.79005014185594e+004,-1.50454750671004e+001,-2.95528166478807e-001

1.81503831063432e+004,-1.50454764700426e+001,-2.99653420042883e-001

1.84037530124975e+004,-1.50454779123946e+001,-3.03836252961121e-001

1.86606598307361e+004,-1.50454793952627e+001,-3.08077468711492e-001

1.89211529345119e+004,-1.50454809197837e+001,-3.12377881977980e-001

1.91852823865052e+004,-1.50454824871269e+001,-3.16738318800949e-001

1.94530989482457e+004,-1.50454840984939e+001,-3.21159616741334e-001

1.97246540898671e+004,-1.50454857551200e+001,-3.25642625036085e-001

1.99999999999999e+004,-1.50454874582754e+001,-3.30188204760960e-001

2.02791895958005e+004,-1.50454892092654e+001,-3.34797228998605e-001

2.05622765331213e+004,-1.50454910094324e+001,-3.39470583001585e-001

2.08493152168224e+004,-1.50454928601559e+001,-3.44209164363658e-001

2.11403608112276e+004,-1.50454947628542e+001,-3.49013883191568e-001

2.14354692507258e+004,-1.50454967189854e+001,-3.53885662277393e-001

2.17346972505211e+004,-1.50454987300483e+001,-3.58825437276009e-001

2.20381023175322e+004,-1.50455007975837e+001,-3.63834156883679e-001

2.23457427614443e+004,-1.50455029231754e+001,-3.68912783019590e-001

2.26576777059159e+004,-1.50455051084517e+001,-3.74062291008134e-001

2.29739670999406e+004,-1.50455073550863e+001,-3.79283669766870e-001

2.32946717293690e+004,-1.50455096647997e+001,-3.84577921994972e-001

2.36198532285905e+004,-1.50455120393607e+001,-3.89946064362974e-001

2.39495740923785e+004,-1.50455144805875e+001,-3.95389127708329e-001

2.42838976879009e+004,-1.50455169903489e+001,-4.00908157233356e-001

2.46228882668982e+004,-1.50455195705663e+001,-4.06504212700239e-001

2.49666109780322e+004,-1.50455222232144e+001,-4.12178368639280e-001

2.53151318794055e+004,-1.50455249503234e+001,-4.17931714547522e-001

2.56685179512580e+004,-1.50455277539802e+001,-4.23765355100482e-001

2.60268371088386e+004,-1.50455306363298e+001,-4.29680410362332e-001

2.63901582154578e+004,-1.50455335995773e+001,-4.35678015997367e-001

2.67585510957221e+004,-1.50455366459894e+001,-4.41759323488025e-001

2.71320865489533e+004,-1.50455397778957e+001,-4.47925500354310e-001

2.75108363627948e+004,-1.50455429976915e+001,-4.54177730374069e-001

2.78948733270080e+004,-1.50455463078382e+001,-4.60517213811938e-001

2.82842712474618e+004,-1.50455497108666e+001,-4.66945167642389e-001

2.86791049603164e+004,-1.50455532093775e+001,-4.73462825788501e-001

2.90794503464061e+004,-1.50455568060446e+001,-4.80071439348754e-001

2.94853843458219e+004,-1.50455605036160e+001,-4.86772276841243e-001

2.98969849726987e+004,-1.50455643049165e+001,-4.93566624441562e-001

3.03143313302078e+004,-1.50455682128496e+001,-5.00455786227449e-001

3.07375036257601e+004,-1.50455722303998e+001,-5.07441084428202e-001

3.11665831864199e+004,-1.50455763606343e+001,-5.14523859674345e-001

3.16016524745350e+004,-1.50455806067063e+001,-5.21705471252064e-001

3.20427951035848e+004,-1.50455849718565e+001,-5.28987297361301e-001

3.24900958542493e+004,-1.50455894594159e+001,-5.36370735377799e-001

3.29436406907028e+004,-1.50455940728082e+001,-5.43857202118544e-001

3.34035167771346e+004,-1.50455988155521e+001,-5.51448134108563e-001

3.38698124945009e+004,-1.50456036912645e+001,-5.59144987854655e-001

3.43426174575100e+004,-1.50456087036628e+001,-5.66949240120830e-001

3.48220225318448e+004,-1.50456138565674e+001,-5.74862388208679e-001

3.53081198516260e+004,-1.50456191539054e+001,-5.82885950238317e-001

3.58010028371187e+004,-1.50456245997123e+001,-5.91021465439464e-001

3.63007662126863e+004,-1.50456301981363e+001,-5.99270494438826e-001

3.68075060249948e+004,-1.50456359534404e+001,-6.07634619557743e-001

3.73213196614721e+004,-1.50456418700058e+001,-6.16115445110007e-001

3.78423058690237e+004,-1.50456479523355e+001,-6.24714597704923e-001

3.83705647730104e+004,-1.50456542050572e+001,-6.33433726553739e-001

3.89061978964912e+004,-1.50456606329269e+001,-6.42274503782705e-001

3.94493081797342e+004,-1.50456672408322e+001,-6.51238624746718e-001

3.99999999999998e+004,-1.50456740337963e+001,-6.60327808349105e-001

4.05583791916010e+004,-1.50456810169812e+001,-6.69543797366700e-001

4.11245530662425e+004,-1.50456881956918e+001,-6.78888358776447e-001

4.16986304336447e+004,-1.50456955753799e+001,-6.88363284087256e-001

4.22807216224550e+004,-1.50457031616478e+001,-6.97970389679628e-001

4.28709385014515e+004,-1.50457109602525e+001,-7.07711517145896e-001

4.34693945010421e+004,-1.50457189771104e+001,-7.17588533633380e-001

4.40762046350642e+004,-1.50457272183006e+001,-7.27603332200569e-001

4.46914855228886e+004,-1.50457356900705e+001,-7.37757832165868e-001

4.53153554118317e+004,-1.50457443988393e+001,-7.48053979472933e-001

4.59479341998812e+004,-1.50457533512034e+001,-7.58493747051009e-001

4.65893434587380e+004,-1.50457625539407e+001,-7.69079135187608e-001

4.72397064571810e+004,-1.50457720140158e+001,-7.79812171899712e-001

4.78991481847569e+004,-1.50457817385846e+001,-7.90694913316292e-001

4.85677953758016e+004,-1.50457917350003e+001,-8.01729444058191e-001

4.92457765337964e+004,-1.50458020108176e+001,-8.12917877631949e-001

4.99332219560642e+004,-1.50458125737988e+001,-8.24262356820161e-001

5.06302637588109e+004,-1.50458234319193e+001,-8.35765054082469e-001

5.13370359025159e+004,-1.50458345933729e+001,-8.47428171961029e-001

5.20536742176771e+004,-1.50458460665784e+001,-8.59253943486806e-001

5.27803164309155e+004,-1.50458578601845e+001,-8.71244632599800e-001

5.35171021914442e+004,-1.50458699830771e+001,-8.83402534564508e-001

5.42641730979066e+004,-1.50458824443845e+001,-8.95729976399619e-001

5.50216727255895e+004,-1.50458952534848e+001,-9.08229317306250e-001

5.57897466540159e+004,-1.50459084200119e+001,-9.20902949107106e-001

5.65685424949235e+004,-1.50459219538624e+001,-9.33753296688746e-001

5.73582099206328e+004,-1.50459358652025e+001,-9.46782818448147e-001

5.81589006928121e+004,-1.50459501644752e+001,-9.59994006748255e-001

5.89707686916437e+004,-1.50459648624078e+001,-9.73389388376755e-001

5.97939699453972e+004,-1.50459799700188e+001,-9.86971525011573e-001

6.06286626604156e+004,-1.50459954986258e+001,-1.00074301369288e+000

6.14750072515201e+004,-1.50460114598535e+001,-1.01470648729968e+000

6.23331663728396e+004,-1.50460278656415e+001,-1.02886461503363e+000

6.32033049490698e+004,-1.50460447282524e+001,-1.04322010290845e+000

6.40855902071694e+004,-1.50460620602804e+001,-1.05777569424479e+000

6.49801917084985e+004,-1.50460798746599e+001,-1.07253417017229e+000

6.58872813814055e+004,-1.50460981846738e+001,-1.08749835013883e+000

6.68070335542691e+004,-1.50461170039634e+001,-1.10267109242291e+000

6.77396249890018e+004,-1.50461363465365e+001,-1.11805529465504e+000

6.86852349150199e+004,-1.50461562267779e+001,-1.13365389434421e+000

6.96440450636895e+004,-1.50461766594578e+001,-1.14946986941429e+000

7.06162397032520e+004,-1.50461976597430e+001,-1.16550623873946e+000

7.16020056742374e+004,-1.50462192432058e+001,-1.18176606269506e+000

7.26015324253724e+004,-1.50462414258350e+001,-1.19825244370796e+000

7.36150120499896e+004,-1.50462642240458e+001,-1.21496852681971e+000

7.46426393229441e+004,-1.50462876546914e+001,-1.23191750024932e+000

7.56846117380472e+004,-1.50463117350730e+001,-1.24910259597105e+000

7.67411295460207e+004,-1.50463364829516e+001,-1.26652709029286e+000

7.78123957929823e+004,-1.50463619165595e+001,-1.28419430444346e+000

7.88986163594682e+004,-1.50463880546116e+001,-1.30210760516784e+000

7.99999999999995e+004,-1.50464149163175e+001,-1.32027040532879e+000

8.11167583832018e+004,-1.50464425213937e+001,-1.33868616451509e+000

8.22491061324848e+004,-1.50464708900763e+001,-1.35735838965753e+000

8.33972608672892e+004,-1.50465000431330e+001,-1.37629063565206e+000

8.45614432449099e+004,-1.50465300018768e+001,-1.39548650598980e+000

8.57418770029029e+004,-1.50465607881785e+001,-1.41494965339487e+000

8.69387890020841e+004,-1.50465924244805e+001,-1.43468378046982e+000

8.81524092701283e+004,-1.50466249338108e+001,-1.45469264034720e+000

8.93829710457770e+004,-1.50466583397962e+001,-1.47498003734982e+000

9.06307108236633e+004,-1.50466926666772e+001,-1.49554982765830e+000

9.18958683997622e+004,-1.50467279393218e+001,-1.51640591998705e+000

9.31786869174758e+004,-1.50467641832412e+001,-1.53755227626466e+000

9.44794129143618e+004,-1.50468014246038e+001,-1.55899291232636e+000

9.57982963695136e+004,-1.50468396902509e+001,-1.58073189861097e+000

9.71355907516031e+004,-1.50468790077122e+001,-1.60277336086753e+000

9.84915530675926e+004,-1.50469194052219e+001,-1.62512148086761e+000

9.98664439121282e+004,-1.50469609117337e+001,-1.64778049712906e+000

1.01260527517622e+005,-1.50470035569381e+001,-1.67075470564341e+000

1.02674071805032e+005,-1.50470473712786e+001,-1.69404846061453e+000

1.04107348435354e+005,-1.50470923859682e+001,-1.71766617520341e+000

1.05560632861831e+005,-1.50471386330067e+001,-1.74161232228233e+000

1.07034204382888e+005,-1.50471861451979e+001,-1.76589143519610e+000

1.08528346195813e+005,-1.50472349561668e+001,-1.79050810853232e+000

1.10043345451179e+005,-1.50472851003777e+001,-1.81546699889832e+000

1.11579493308032e+005,-1.50473366131520e+001,-1.84077282570913e+000

1.13137084989847e+005,-1.50473895306861e+001,-1.86643037198021e+000

1.14716419841265e+005,-1.50474438900700e+001,-1.89244448513164e+000

1.16317801385624e+005,-1.50474997293056e+001,-1.91882007779916e+000

1.17941537383287e+005,-1.50475570873257e+001,-1.94556212865376e+000

1.19587939890794e+005,-1.50476160040127e+001,-1.97267568322983e+000

1.21257325320831e+005,-1.50476765202175e+001,-2.00016585476238e+000

1.22950014503040e+005,-1.50477386777792e+001,-2.02803782503226e+000

1.24666332745679e+005,-1.50478025195439e+001,-2.05629684521959e+000

1.26406609898139e+005,-1.50478680893845e+001,-2.08494823676769e+000

1.28171180414339e+005,-1.50479354322201e+001,-2.11399739225373e+000

1.29960383416997e+005,-1.50480045940358e+001,-2.14344977626987e+000

1.31774562762811e+005,-1.50480756219021e+001,-2.17331092631195e+000

1.33614067108538e+005,-1.50481485639952e+001,-2.20358645367699e+000

1.35479249978003e+005,-1.50482234696164e+001,-2.23428204437269e+000

1.37370469830040e+005,-1.50483003892122e+001,-2.26540346003162e+000

1.39288090127379e+005,-1.50483793743937e+001,-2.29695653883806e+000

1.41232479406504e+005,-1.50484604779568e+001,-2.32894719646191e+000

1.43204011348474e+005,-1.50485437539016e+001,-2.36138142700382e+000

1.45203064850745e+005,-1.50486292574522e+001,-2.39426530394824e+000

1.47230024099979e+005,-1.50487170450759e+001,-2.42760498112733e+000

1.49285278645888e+005,-1.50488071745030e+001,-2.46140669369258e+000

1.51369223476094e+005,-1.50488997047453e+001,-2.49567675909900e+000

1.53482259092041e+005,-1.50489946961155e+001,-2.53042157809701e+000

1.55624791585964e+005,-1.50490922102455e+001,-2.56564763573480e+000

1.57797232718936e+005,-1.50491923101050e+001,-2.60136150237181e+000

1.59999999999999e+005,-1.50492950600194e+001,-2.63756983470171e+000

1.62233516766403e+005,-1.50494005256874e+001,-2.67427937678619e+000

1.64498212264969e+005,-1.50495087741982e+001,-2.71149696109918e+000

1.66794521734578e+005,-1.50496198740480e+001,-2.74922950958297e+000

1.69122886489819e+005,-1.50497338951566e+001,-2.78748403471408e+000

1.71483754005805e+005,-1.50498509088829e+001,-2.82626764058088e+000

1.73877578004168e+005,-1.50499709880396e+001,-2.86558752397393e+000

1.76304818540256e+005,-1.50500942069077e+001,-2.90545097548703e+000

1.78765942091554e+005,-1.50502206412506e+001,-2.94586538062967e+000

1.81261421647326e+005,-1.50503503683258e+001,-2.98683822095462e+000

1.83791736799524e+005,-1.50504834668979e+001,-3.02837707519538e+000

1.86357373834951e+005,-1.50506200172492e+001,-3.07048962041845e+000

1.88958825828723e+005,-1.50507601011898e+001,-3.11318363318898e+000

1.91596592739027e+005,-1.50509038020667e+001,-3.15646699074904e+000

1.94271181503206e+005,-1.50510512047715e+001,-3.20034767221285e+000

1.96983106135185e+005,-1.50512023957476e+001,-3.24483375977312e+000

1.99732887824256e+005,-1.50513574629955e+001,-3.28993343992672e+000

2.02521055035243e+005,-1.50515164960769e+001,-3.33565500471296e+000

2.05348143610063e+005,-1.50516795861179e+001,-3.38200685296974e+000

2.08214696870707e+005,-1.50518468258100e+001,-3.42899749160696e+000

2.11121265723661e+005,-1.50520183094103e+001,-3.47663553689645e+000

2.14068408765776e+005,-1.50521941327396e+001,-3.52492971578106e+000

2.17056692391625e+005,-1.50523743931791e+001,-3.57388886720277e+000

2.20086690902357e+005,-1.50525591896654e+001,-3.62352194344966e+000

2.23158986616063e+005,-1.50527486226832e+001,-3.67383801152470e+000

2.26274169979693e+005,-1.50529427942570e+001,-3.72484625453522e+000

2.29432839682530e+005,-1.50531418079399e+001,-3.77655597310497e+000

2.32635602771247e+005,-1.50533457688012e+001,-3.82897658680901e+000

2.35883074766574e+005,-1.50535547834110e+001,-3.88211763563411e+000

2.39175879781588e+005,-1.50537689598237e+001,-3.93598878146303e+000

2.42514650641661e+005,-1.50539884075588e+001,-3.99059980958606e+000

2.45900029006080e+005,-1.50542132375787e+001,-4.04596063024028e+000

2.49332665491357e+005,-1.50544435622654e+001,-4.10208128017767e+000

2.52813219796278e+005,-1.50546794953945e+001,-4.15897192426243e+000

2.56342360828676e+005,-1.50549211521057e+001,-4.21664285710102e+000

2.59920766833993e+005,-1.50551686488727e+001,-4.27510450470470e+000

2.63549125525621e+005,-1.50554221034686e+001,-4.33436742618589e+000

2.67228134217075e+005,-1.50556816349304e+001,-4.39444231549125e+000

2.70958499956006e+005,-1.50559473635202e+001,-4.45534000317119e+000

2.74740939660078e+005,-1.50562194106836e+001,-4.51707145818944e+000

2.78576180254757e+005,-1.50564978990061e+001,-4.57964778977241e+000

2.82464958813007e+005,-1.50567829521668e+001,-4.64308024930207e+000

2.86408022696948e+005,-1.50570746948893e+001,-4.70738023225258e+000

2.90406129701488e+005,-1.50573732528902e+001,-4.77255928017255e+000

2.94460048199957e+005,-1.50576787528253e+001,-4.83862908271718e+000

2.98570557291775e+005,-1.50579913222332e+001,-4.90560147972798e+000

3.02738446952187e+005,-1.50583110894768e+001,-4.97348846336712e+000

3.06964518184081e+005,-1.50586381836819e+001,-5.04230218030367e+000

3.11249583171928e+005,-1.50589727346746e+001,-5.11205493395781e+000

3.15594465437872e+005,-1.50593148729157e+001,-5.18275918680220e+000

3.19999999999997e+005,-1.50596647294341e+001,-5.25442756272391e+000

3.24467033532806e+005,-1.50600224357573e+001,-5.32707284945077e+000

3.28996424529938e+005,-1.50603881238416e+001,-5.40070800103951e+000

3.33589043469155e+005,-1.50607619259997e+001,-5.47534614043375e+000

3.38245772979638e+005,-1.50611439748281e+001,-5.55100056208981e+000

3.42967508011610e+005,-1.50615344031330e+001,-5.62768473467425e+000

3.47755156008335e+005,-1.50619333438550e+001,-5.70541230383592e+000

3.52609637080511e+005,-1.50623409299952e+001,-5.78419709505183e+000

3.57531884183106e+005,-1.50627572945383e+001,-5.86405311655399e+000

3.62522843294651e+005,-1.50631825703791e+001,-5.94499456233272e+000

3.67583473599047e+005,-1.50636168902468e+001,-6.02703581522556e+000

3.72714747669902e+005,-1.50640603866320e+001,-6.11019145008787e+000

3.77917651657445e+005,-1.50645131917140e+001,-6.19447623705024e+000

3.83193185478053e+005,-1.50649754372903e+001,-6.27990514486340e+000

3.88542363006410e+005,-1.50654472547082e+001,-6.36649334433325e+000

3.93966212270369e+005,-1.50659287747991e+001,-6.45425621184605e+000

3.99465775648511e+005,-1.50664201278152e+001,-6.54320933298656e+000

4.05042110070485e+005,-1.50669214433712e+001,-6.63336850624996e+000

4.10696287220124e+005,-1.50674328503886e+001,-6.72474974684899e+000

4.16429393741414e+005,-1.50679544770460e+001,-6.81736929061650e+000

4.22242531447321e+005,-1.50684864507339e+001,-6.91124359800522e+000

4.28136817531551e+005,-1.50690288980155e+001,-7.00638935818486e+000

4.34113384783250e+005,-1.50695819445941e+001,-7.10282349323699e+000

4.40173381804713e+005,-1.50701457152879e+001,-7.20056316244750e+000

4.46317973232124e+005,-1.50707203340114e+001,-7.29962576669837e+000

4.52548339959385e+005,-1.50713059237667e+001,-7.40002895295508e+000

4.58865679365059e+005,-1.50719026066424e+001,-7.50179061885277e+000

4.65271205542494e+005,-1.50725105038229e+001,-7.60492891737820e+000

4.71766149533147e+005,-1.50731297356081e+001,-7.70946226164671e+000

4.78351759563174e+005,-1.50737604214436e+001,-7.81540932977365e+000

4.85029301283321e+005,-1.50744026799630e+001,-7.92278906983711e+000

4.91800058012158e+005,-1.50750566290418e+001,-8.03162070493236e+000

4.98665330982714e+005,-1.50757223858649e+001,-8.14192373831325e+000

5.05626439592555e+005,-1.50764000670074e+001,-8.25371795861994e+000

5.12684721657352e+005,-1.50770897885294e+001,-8.36702344518890e+000

5.19841533667984e+005,-1.50777916660856e+001,-8.48186057344322e+000

5.27098251051240e+005,-1.50785058150504e+001,-8.59825002035893e+000

5.34456268434150e+005,-1.50792323506580e+001,-8.71621277000474e+000

5.41916999912011e+005,-1.50799713881606e+001,-8.83577011914915e+000

