Freq.,VOut,OutRef

1.00000000000000e+004,-4.13199863993143e+001,-4.07373956858539e-001

1.01395947979003e+004,-4.13199897281010e+001,-4.13060515102220e-001

1.02811382665607e+004,-4.13199931504499e+001,-4.18826447513057e-001

1.04246576084112e+004,-4.13199966689902e+001,-4.24672861805917e-001

1.05701804056138e+004,-4.13200002864248e+001,-4.30600881146910e-001

1.07177346253629e+004,-4.13200040055326e+001,-4.36611644365822e-001

1.08673486252606e+004,-4.13200078291706e+001,-4.42706306177197e-001

1.10190511587661e+004,-4.13200117602758e+001,-4.48886037399592e-001

1.11728713807222e+004,-4.13200158018679e+001,-4.55152025179889e-001

1.13288388529580e+004,-4.13200199570512e+001,-4.61505473221796e-001

1.14869835499703e+004,-4.13200242290174e+001,-4.67947602013508e-001

1.16473358646846e+004,-4.13200286210477e+001,-4.74479649066001e-001

1.18099266142953e+004,-4.13200331365152e+001,-4.81102869145172e-001

1.19747870461893e+004,-4.13200377788883e+001,-4.87818534513892e-001

1.21419488439505e+004,-4.13200425517323e+001,-4.94627935176073e-001

1.23114441334492e+004,-4.13200474587128e+001,-5.01532379122424e-001

1.24833054890161e+004,-4.13200525035980e+001,-5.08533192582311e-001

1.26575659397028e+004,-4.13200576902622e+001,-5.15631720274810e-001

1.28342589756290e+004,-4.13200630226886e+001,-5.22829325667701e-001

1.30134185544193e+004,-4.13200685049719e+001,-5.30127391237802e-001

1.31950791077289e+004,-4.13200741413216e+001,-5.37527318736557e-001

1.33792755478611e+004,-4.13200799360661e+001,-5.45030529454042e-001

1.35660432744767e+004,-4.13200858936543e+001,-5.52638464496436e-001

1.37554181813974e+004,-4.13200920186607e+001,-5.60352585056178e-001

1.39474366635040e+004,-4.13200983157879e+001,-5.68174372694553e-001

1.41421356237309e+004,-4.13201047898706e+001,-5.76105329622413e-001

1.43395524801583e+004,-4.13201114458789e+001,-5.84146978990165e-001

1.45397251732031e+004,-4.13201182889228e+001,-5.92300865174621e-001

1.47426921729110e+004,-4.13201253242552e+001,-6.00568554077806e-001

1.49484924863494e+004,-4.13201325572767e+001,-6.08951633423495e-001

1.51571656651040e+004,-4.13201399935393e+001,-6.17451713060826e-001

1.53687518128801e+004,-4.13201476387509e+001,-6.26070425272091e-001

1.55832915932100e+004,-4.13201554987795e+001,-6.34809425083309e-001

1.58008262372675e+004,-4.13201635796574e+001,-6.43670390581555e-001

1.60213975517924e+004,-4.13201718875866e+001,-6.52655023232772e-001

1.62450479271247e+004,-4.13201804289425e+001,-6.61765048208247e-001

1.64718203453514e+004,-4.13201892102800e+001,-6.71002214711652e-001

1.67017583885674e+004,-4.13201982383369e+001,-6.80368296315748e-001

1.69349062472505e+004,-4.13202075200410e+001,-6.89865091294859e-001

1.71713087287550e+004,-4.13202170625135e+001,-6.99494422973827e-001

1.74110112659224e+004,-4.13202268730757e+001,-7.09258140070759e-001

1.76540599258131e+004,-4.13202369592540e+001,-7.19158117050708e-001

1.79005014185594e+004,-4.13202473287860e+001,-7.29196254482193e-001

1.81503831063432e+004,-4.13202579896258e+001,-7.39374479400103e-001

1.84037530124975e+004,-4.13202689499509e+001,-7.49694745670200e-001

1.86606598307361e+004,-4.13202802181677e+001,-7.60159034363028e-001

1.89211529345119e+004,-4.13202918029183e+001,-7.70769354129127e-001

1.91852823865052e+004,-4.13203037130868e+001,-7.81527741581788e-001

1.94530989482457e+004,-4.13203159578067e+001,-7.92436261682903e-001

1.97246540898671e+004,-4.13203285464667e+001,-8.03497008137233e-001

1.99999999999999e+004,-4.13203414887191e+001,-8.14712103788597e-001

2.02791895958005e+004,-4.13203547944863e+001,-8.26083701023316e-001

2.05622765331213e+004,-4.13203684739686e+001,-8.37613982178900e-001

2.08493152168224e+004,-4.13203825376521e+001,-8.49305159958325e-001

2.11403608112276e+004,-4.13203969963165e+001,-8.61159477848826e-001

2.14354692507258e+004,-4.13204118610432e+001,-8.73179210548631e-001

2.17346972505211e+004,-4.13204271432240e+001,-8.85366664396881e-001

2.20381023175322e+004,-4.13204428545695e+001,-8.97724177811806e-001

2.23457427614443e+004,-4.13204590071181e+001,-9.10254121732498e-001

2.26576777059159e+004,-4.13204756132450e+001,-9.22958900068601e-001

2.29739670999406e+004,-4.13204926856719e+001,-9.35840950153768e-001

2.32946717293690e+004,-4.13205102374764e+001,-9.48902743208737e-001

2.36198532285905e+004,-4.13205282821018e+001,-9.62146784807558e-001

2.39495740923785e+004,-4.13205468333675e+001,-9.75575615350692e-001

2.42838976879009e+004,-4.13205659054794e+001,-9.89191810545543e-001

2.46228882668982e+004,-4.13205855130406e+001,-1.00299798189232e+000

2.49666109780322e+004,-4.13206056710626e+001,-1.01699677717719e+000

2.53151318794055e+004,-4.13206263949765e+001,-1.03119088097128e+000

2.56685179512580e+004,-4.13206477006446e+001,-1.04558301513796e+000

2.60268371088386e+004,-4.13206696043725e+001,-1.06017593934363e+000

2.63901582154578e+004,-4.13206921229215e+001,-1.07497245157961e+000

2.67585510957221e+004,-4.13207152735212e+001,-1.08997538868641e+000

2.71320865489533e+004,-4.13207390738823e+001,-1.10518762688951e+000

2.75108363627948e+004,-4.13207635422100e+001,-1.12061208233891e+000

2.78948733270080e+004,-4.13207886972181e+001,-1.13625171165739e+000

2.82842712474618e+004,-4.13208145581425e+001,-1.15210951249488e+000

2.86791049603164e+004,-4.13208411447562e+001,-1.16818852409250e+000

2.90794503464061e+004,-4.13208684773840e+001,-1.18449182784998e+000

2.94853843458219e+004,-4.13208965769173e+001,-1.20102254790606e+000

2.98969849726987e+004,-4.13209254648308e+001,-1.21778385172061e+000

3.03143313302078e+004,-4.13209551631976e+001,-1.23477895066890e+000

3.07375036257601e+004,-4.13209856947066e+001,-1.25201110064213e+000

3.11665831864199e+004,-4.13210170826786e+001,-1.26948360265552e+000

3.16016524745350e+004,-4.13210493510848e+001,-1.28719980346346e+000

3.20427951035848e+004,-4.13210825245639e+001,-1.30516309618510e+000

3.24900958542493e+004,-4.13211166284410e+001,-1.32337692093699e+000

3.29436406907028e+004,-4.13211516887465e+001,-1.34184476547225e+000

3.34035167771346e+004,-4.13211877322352e+001,-1.36057016583095e+000

3.38698124945009e+004,-4.13212247864067e+001,-1.37955670699661e+000

3.43426174575100e+004,-4.13212628795257e+001,-1.39880802356263e+000

3.48220225318448e+004,-4.13213020406428e+001,-1.41832780040639e+000

3.53081198516260e+004,-4.13213422996170e+001,-1.43811977337151e+000

3.58010028371187e+004,-4.13213836871367e+001,-1.45818772996178e+000

3.63007662126863e+004,-4.13214262347435e+001,-1.47853551003992e+000

3.68075060249948e+004,-4.13214699748551e+001,-1.49916700653803e+000

3.73213196614721e+004,-4.13215149407895e+001,-1.52008616617568e+000

3.78423058690237e+004,-4.13215611667897e+001,-1.54129699018944e+000

3.83705647730104e+004,-4.13216086880490e+001,-1.56280353506730e+000

3.89061978964912e+004,-4.13216575407370e+001,-1.58460991329732e+000

3.94493081797342e+004,-4.13217077620264e+001,-1.60672029412241e+000

3.99999999999998e+004,-4.13217593901204e+001,-1.62913890430471e+000

4.05583791916010e+004,-4.13218124642807e+001,-1.65187002890255e+000

4.11245530662425e+004,-4.13218670248568e+001,-1.67491801205285e+000

4.16986304336447e+004,-4.13219231133152e+001,-1.69828725776630e+000

4.22807216224550e+004,-4.13219807722700e+001,-1.72198223073247e+000

4.28709385014515e+004,-4.13220400455144e+001,-1.74600745713107e+000

4.34693945010421e+004,-4.13221009780524e+001,-1.77036752545947e+000

4.40762046350642e+004,-4.13221636161321e+001,-1.79506708736464e+000

4.46914855228886e+004,-4.13222280072790e+001,-1.82011085848773e+000

4.53153554118317e+004,-4.13222942003312e+001,-1.84550361932043e+000

4.59479341998812e+004,-4.13223622454744e+001,-1.87125021606801e+000

4.65893434587380e+004,-4.13224321942792e+001,-1.89735556152634e+000

4.72397064571810e+004,-4.13225040997375e+001,-1.92382463596735e+000

4.78991481847569e+004,-4.13225780163018e+001,-1.95066248803624e+000

4.85677953758016e+004,-4.13226539999242e+001,-1.97787423565898e+000

4.92457765337964e+004,-4.13227321080969e+001,-2.00546506696007e+000

4.99332219560642e+004,-4.13228123998937e+001,-2.03344024119205e+000

5.06302637588109e+004,-4.13228949360126e+001,-2.06180508967596e+000

5.13370359025159e+004,-4.13229797788192e+001,-2.09056501675228e+000

5.20536742176771e+004,-4.13230669923917e+001,-2.11972550074356e+000

5.27803164309155e+004,-4.13231566425667e+001,-2.14929209492693e+000

5.35171021914442e+004,-4.13232487969862e+001,-2.17927042852017e+000

5.42641730979066e+004,-4.13233435251460e+001,-2.20966620767730e+000

5.50216727255895e+004,-4.13234408984449e+001,-2.24048521649572e+000

5.57897466540159e+004,-4.13235409902357e+001,-2.27173331803553e+000

5.65685424949235e+004,-4.13236438758770e+001,-2.30341645535080e+000

5.73582099206328e+004,-4.13237496327868e+001,-2.33554065253032e+000

5.81589006928121e+004,-4.13238583404964e+001,-2.36811201575274e+000

5.89707686916437e+004,-4.13239700807074e+001,-2.40113673435094e+000

5.97939699453972e+004,-4.13240849373482e+001,-2.43462108189062e+000

6.06286626604156e+004,-4.13242029966334e+001,-2.46857141725831e+000

6.14750072515201e+004,-4.13243243471239e+001,-2.50299418576321e+000

6.23331663728396e+004,-4.13244490797879e+001,-2.53789592025030e+000

6.32033049490698e+004,-4.13245772880654e+001,-2.57328324222473e+000

6.40855902071694e+004,-4.13247090679321e+001,-2.60916286298931e+000

6.49801917084985e+004,-4.13248445179660e+001,-2.64554158479366e+000

6.58872813814055e+004,-4.13249837394152e+001,-2.68242630199540e+000

6.68070335542691e+004,-4.13251268362677e+001,-2.71982400223359e+000

6.77396249890018e+004,-4.13252739153225e+001,-2.75774176761467e+000

6.86852349150199e+004,-4.13254250862627e+001,-2.79618677590940e+000

6.96440450636895e+004,-4.13255804617298e+001,-2.83516630176446e+000

7.06162397032520e+004,-4.13257401574009e+001,-2.87468771792300e+000

7.16020056742374e+004,-4.13259042920660e+001,-2.91475849646123e+000

7.26015324253724e+004,-4.13260729877085e+001,-2.95538621003455e+000

7.36150120499896e+004,-4.13262463695876e+001,-2.99657853313616e+000

7.46426393229441e+004,-4.13264245663214e+001,-3.03834324336999e+000

7.56846117380472e+004,-4.13266077099728e+001,-3.08068822273466e+000

7.67411295460207e+004,-4.13267959361378e+001,-3.12362145891901e+000

7.78123957929823e+004,-4.13269893840343e+001,-3.16715104661184e+000

7.88986163594682e+004,-4.13271881965948e+001,-3.21128518882294e+000

7.99999999999995e+004,-4.13273925205595e+001,-3.25603219821610e+000

8.11167583832018e+004,-4.13276025065726e+001,-3.30140049845562e+000

8.22491061324848e+004,-4.13278183092801e+001,-3.34739862556489e+000

8.33972608672892e+004,-4.13280400874304e+001,-3.39403522929615e+000

8.45614432449099e+004,-4.13282680039761e+001,-3.44131907451443e+000

8.57418770029029e+004,-4.13285022261795e+001,-3.48925904259175e+000

8.69387890020841e+004,-4.13287429257185e+001,-3.53786413281663e+000

8.81524092701283e+004,-4.13289902787966e+001,-3.58714346381209e+000

8.93829710457770e+004,-4.13292444662541e+001,-3.63710627496896e+000

9.06307108236633e+004,-4.13295056736821e+001,-3.68776192789007e+000

9.18958683997622e+004,-4.13297740915385e+001,-3.73911990784757e+000

9.31786869174758e+004,-4.13300499152674e+001,-3.79118982525049e+000

9.44794129143618e+004,-4.13303333454193e+001,-3.84398141712768e+000

9.57982963695136e+004,-4.13306245877756e+001,-3.89750454861962e+000

9.71355907516031e+004,-4.13309238534743e+001,-3.95176921448511e+000

9.84915530675926e+004,-4.13312313591389e+001,-4.00678554061750e+000

9.98664439121282e+004,-4.13315473270097e+001,-4.06256378557600e+000

1.01260527517622e+005,-4.13318719850775e+001,-4.11911434212585e+000

1.02674071805032e+005,-4.13322055672205e+001,-4.17644773879409e+000

1.04107348435354e+005,-4.13325483133429e+001,-4.23457464143364e+000

1.05560632861831e+005,-4.13329004695175e+001,-4.29350585480260e+000

1.07034204382888e+005,-4.13332622881297e+001,-4.35325232415414e+000

1.08528346195813e+005,-4.13336340280250e+001,-4.41382513683844e+000

1.10043345451179e+005,-4.13340159546594e+001,-4.47523552391695e+000

1.11579493308032e+005,-4.13344083402517e+001,-4.53749486178942e+000

1.13137084989847e+005,-4.13348114639397e+001,-4.60061467383138e+000

1.14716419841265e+005,-4.13352256119384e+001,-4.66460663204585e+000

1.16317801385624e+005,-4.13356510777016e+001,-4.72948255872577e+000

1.17941537383287e+005,-4.13360881620861e+001,-4.79525442812917e+000

1.19587939890794e+005,-4.13365371735188e+001,-4.86193436816682e+000

1.21257325320831e+005,-4.13369984281670e+001,-4.92953466210236e+000

1.22950014503040e+005,-4.13374722501114e+001,-4.99806775026438e+000

1.24666332745679e+005,-4.13379589715220e+001,-5.06754623177217e+000

1.26406609898139e+005,-4.13384589328373e+001,-5.13798286627328e+000

1.28171180414339e+005,-4.13389724829465e+001,-5.20939057569437e+000

1.29960383416997e+005,-4.13394999793741e+001,-5.28178244600550e+000

1.31774562762811e+005,-4.13400417884687e+001,-5.35517172899707e+000

1.33614067108538e+005,-4.13405982855940e+001,-5.42957184407107e+000

1.35479249978003e+005,-4.13411698553231e+001,-5.50499638004548e+000

1.37370469830040e+005,-4.13417568916361e+001,-5.58145909697252e+000

1.39288090127379e+005,-4.13423597981210e+001,-5.65897392797231e+000

1.41232479406504e+005,-4.13429789881775e+001,-5.73755498107977e+000

1.43204011348474e+005,-4.13436148852242e+001,-5.81721654110785e+000

1.45203064850745e+005,-4.13442679229090e+001,-5.89797307152480e+000

1.47230024099979e+005,-4.13449385453229e+001,-5.97983921634864e+000

1.49285278645888e+005,-4.13456272072173e+001,-6.06282980205695e+000

1.51369223476094e+005,-4.13463343742242e+001,-6.14695983951339e+000

1.53482259092041e+005,-4.13470605230805e+001,-6.23224452591207e+000

1.55624791585964e+005,-4.13478061418554e+001,-6.31869924673919e+000

1.57797232718936e+005,-4.13485717301813e+001,-6.40633957775384e+000

1.59999999999999e+005,-4.13493577994889e+001,-6.49518128698672e+000

1.62233516766403e+005,-4.13501648732453e+001,-6.58524033675923e+000

1.64498212264969e+005,-4.13509934871962e+001,-6.67653288572345e+000

1.66794521734578e+005,-4.13518441896123e+001,-6.76907529092250e+000

1.69122886489819e+005,-4.13527175415391e+001,-6.86288410987326e+000

1.71483754005805e+005,-4.13536141170512e+001,-6.95797610267214e+000

1.73877578004168e+005,-4.13545345035107e+001,-7.05436823412341e+000

1.76304818540256e+005,-4.13554793018296e+001,-7.15207767589428e+000

1.78765942091554e+005,-4.13564491267376e+001,-7.25112180869275e+000

1.81261421647326e+005,-4.13574446070534e+001,-7.35151822447438e+000

1.83791736799524e+005,-4.13584663859614e+001,-7.45328472867513e+000

1.86357373834951e+005,-4.13595151212934e+001,-7.55643934247332e+000

1.88958825828723e+005,-4.13605914858155e+001,-7.66100030508043e+000

1.91596592739027e+005,-4.13616961675201e+001,-7.76698607606374e+000

1.94271181503206e+005,-4.13628298699238e+001,-7.87441533769955e+000

1.96983106135185e+005,-4.13639933123711e+001,-7.98330699736001e+000

1.99732887824256e+005,-4.13651872303443e+001,-8.09368018993366e+000

2.02521055035243e+005,-4.13664123757800e+001,-8.20555428028030e+000

2.05348143610063e+005,-4.13676695173919e+001,-8.31894886572343e+000

2.08214696870707e+005,-4.13689594410015e+001,-8.43388377857826e+000

2.11121265723661e+005,-4.13702829498754e+001,-8.55037908871956e+000

2.14068408765776e+005,-4.13716408650717e+001,-8.66845510618735e+000

2.17056692391625e+005,-4.13730340257928e+001,-8.78813238383387e+000

2.20086690902357e+005,-4.13744632897492e+001,-8.90943172001094e+000

2.23158986616063e+005,-4.13759295335310e+001,-9.03237416129986e+000

2.26274169979693e+005,-4.13774336529895e+001,-9.15698100528390e+000

2.29432839682530e+005,-4.13789765636292e+001,-9.28327380336341e+000

2.32635602771247e+005,-4.13805592010106e+001,-9.41127436361689e+000

2.35883074766574e+005,-4.13821825211644e+001,-9.54100475370366e+000

2.39175879781588e+005,-4.13838475010179e+001,-9.67248730381350e+000

2.42514650641661e+005,-4.13855551388333e+001,-9.80574460966031e+000

2.45900029006080e+005,-4.13873064546610e+001,-9.94079953551975e+000

2.49332665491357e+005,-4.13891024908052e+001,-1.00776752173127e+001

2.52813219796278e+005,-4.13909443123056e+001,-1.02163950657315e+001

2.56342360828676e+005,-4.13928330074343e+001,-1.03569827694106e+001

2.59920766833993e+005,-4.13947696882089e+001,-1.04994622981380e+001

2.63549125525621e+005,-4.13967554909238e+001,-1.06438579061101e+001

2.67228134217075e+005,-4.13987915766981e+001,-1.07901941352240e+001

2.70958499956006e+005,-4.14008791320441e+001,-1.09384958184084e+001

2.74740939660078e+005,-4.14030193694547e+001,-1.10887880829899e+001

2.78576180254757e+005,-4.14052135280123e+001,-1.12410963540927e+001

2.82464958813007e+005,-4.14074628740191e+001,-1.13954463580679e+001

2.86408022696948e+005,-4.14097687016501e+001,-1.15518641259490e+001

2.90406129701488e+005,-4.14121323336307e+001,-1.17103759969316e+001

2.94460048199957e+005,-4.14145551219380e+001,-1.18710086218705e+001

2.98570557291775e+005,-4.14170384485286e+001,-1.20337889667918e+001

3.02738446952187e+005,-4.14195837260928e+001,-1.21987443164129e+001

3.06964518184081e+005,-4.14221923988368e+001,-1.23659022776668e+001

3.11249583171928e+005,-4.14248659432937e+001,-1.25352907832225e+001

3.15594465437872e+005,-4.14276058691638e+001,-1.27069380949958e+001

3.19999999999997e+005,-4.14304137201863e+001,-1.28808728076440e+001

3.24467033532806e+005,-4.14332910750420e+001,-1.30571238520348e+001

3.28996424529938e+005,-4.14362395482894e+001,-1.32357204986824e+001

3.33589043469155e+005,-4.14392607913332e+001,-1.34166923611428e+001

3.38245772979638e+005,-4.14423564934284e+001,-1.36000693993550e+001

3.42967508011610e+005,-4.14455283827185e+001,-1.37858819229238e+001

3.47755156008335e+005,-4.14487782273100e+001,-1.39741605943279e+001

3.52609637080511e+005,-4.14521078363840e+001,-1.41649364320461e+001

3.57531884183106e+005,-4.14555190613441e+001,-1.43582408135877e+001

3.62522843294651e+005,-4.14590137970029e+001,-1.45541054784163e+001

3.67583473599047e+005,-4.14625939828063e+001,-1.47525625307528e+001

3.72714747669902e+005,-4.14662616040970e+001,-1.49536444422455e+001

3.77917651657445e+005,-4.14700186934171e+001,-1.51573840544922e+001

3.83193185478053e+005,-4.14738673318489e+001,-1.53638145814023e+001

3.88542363006410e+005,-4.14778096503967e+001,-1.55729696113815e+001

3.93966212270369e+005,-4.14818478314071e+001,-1.57848831093252e+001

3.99465775648511e+005,-4.14859841100286e+001,-1.59995894184070e+001

4.05042110070485e+005,-4.14902207757106e+001,-1.62171232616428e+001

4.10696287220124e+005,-4.14945601737416e+001,-1.64375197432170e+001

4.16429393741414e+005,-4.14990047068247e+001,-1.66608143495548e+001

4.22242531447321e+005,-4.15035568366921e+001,-1.68870429501218e+001

4.28136817531551e+005,-4.15082190857556e+001,-1.71162417979365e+001

4.34113384783250e+005,-4.15129940387941e+001,-1.73484475297777e+001

4.40173381804713e+005,-4.15178843446758e+001,-1.75836971660700e+001

4.46317973232124e+005,-4.15228927181144e+001,-1.78220281104313e+001

4.52548339959385e+005,-4.15280219414589e+001,-1.80634781488638e+001

4.58865679365059e+005,-4.15332748665136e+001,-1.83080854485741e+001

4.65271205542494e+005,-4.15386544163885e+001,-1.85558885564044e+001

4.71766149533147e+005,-4.15441635873778e+001,-1.88069263968571e+001

4.78351759563174e+005,-4.15498054508647e+001,-1.90612382697005e+001

4.85029301283321e+005,-4.15555831552494e+001,-1.93188638471356e+001

4.91800058012158e+005,-4.15614999279008e+001,-1.95798431705105e+001

4.98665330982714e+005,-4.15675590771265e+001,-1.98442166465687e+001

5.05626439592555e+005,-4.15737639941608e+001,-2.01120250432128e+001

5.12684721657352e+005,-4.15801181551671e+001,-2.03833094847738e+001

5.19841533667984e+005,-4.15866251232530e+001,-2.06581114467693e+001

5.27098251051240e+005,-4.15932885504939e+001,-2.09364727501388e+001

5.34456268434150e+005,-4.16001121799633e+001,-2.12184355549446e+001

5.41916999912011e+005,-4.16070998477662e+001,-2.15040423535242e+001

