Freq.,VOut,OutRef

1.00000000000000e+004,-2.15026481029240e+001,-3.95711948434795e-001

1.01395947979003e+004,-2.15026509339097e+001,-4.01235708776037e-001

1.02811382665607e+004,-2.15026538444607e+001,-4.06836570610931e-001

1.04246576084112e+004,-2.15026568368122e+001,-4.12515609926095e-001

1.05701804056138e+004,-2.15026599132626e+001,-4.18273917714315e-001

1.07177346253629e+004,-2.15026630761746e+001,-4.24112600183742e-001

1.08673486252606e+004,-2.15026663279773e+001,-4.30032778971778e-001

1.10190511587661e+004,-2.15026696711681e+001,-4.36035591356554e-001

1.11728713807222e+004,-2.15026731083143e+001,-4.42122190478127e-001

1.13288388529580e+004,-2.15026766420554e+001,-4.48293745556801e-001

1.14869835499703e+004,-2.15026802751051e+001,-4.54551442117266e-001

1.16473358646846e+004,-2.15026840102530e+001,-4.60896482216836e-001

1.18099266142953e+004,-2.15026878503672e+001,-4.67330084673813e-001

1.19747870461893e+004,-2.15026917983963e+001,-4.73853485301641e-001

1.21419488439505e+004,-2.15026958573715e+001,-4.80467937145388e-001

1.23114441334492e+004,-2.15027000304094e+001,-4.87174710720211e-001

1.24833054890161e+004,-2.15027043207136e+001,-4.93975094257042e-001

1.26575659397028e+004,-2.15027087315780e+001,-5.00870393944860e-001

1.28342589756290e+004,-2.15027132663887e+001,-5.07861934185254e-001

1.30134185544193e+004,-2.15027179286269e+001,-5.14951057841154e-001

1.31950791077289e+004,-2.15027227218716e+001,-5.22139126496830e-001

1.33792755478611e+004,-2.15027276498018e+001,-5.29427520717118e-001

1.35660432744767e+004,-2.15027327162003e+001,-5.36817640309175e-001

1.37554181813974e+004,-2.15027379249555e+001,-5.44310904593374e-001

1.39474366635040e+004,-2.15027432800652e+001,-5.51908752672402e-001

1.41421356237309e+004,-2.15027487856392e+001,-5.59612643706561e-001

1.43395524801583e+004,-2.15027544459025e+001,-5.67424057192535e-001

1.45397251732031e+004,-2.15027602651988e+001,-5.75344493245391e-001

1.47426921729110e+004,-2.15027662479934e+001,-5.83375472885858e-001

1.49484924863494e+004,-2.15027723988771e+001,-5.91518538329307e-001

1.51571656651040e+004,-2.15027787225691e+001,-5.99775253281909e-001

1.53687518128801e+004,-2.15027852239212e+001,-6.08147203237502e-001

1.55832915932100e+004,-2.15027919079209e+001,-6.16635995780266e-001

1.58008262372675e+004,-2.15027987796958e+001,-6.25243260891862e-001

1.60213975517924e+004,-2.15028058445172e+001,-6.33970651261142e-001

1.62450479271247e+004,-2.15028131078040e+001,-6.42819842601910e-001

1.64718203453514e+004,-2.15028205751272e+001,-6.51792533967576e-001

1.67017583885674e+004,-2.15028282522137e+001,-6.60890448079854e-001

1.69349062472505e+004,-2.15028361449510e+001,-6.70115331654149e-001

1.71713087287550e+004,-2.15028442593915e+001,-6.79468955732561e-001

1.74110112659224e+004,-2.15028526017571e+001,-6.88953116021776e-001

1.76540599258131e+004,-2.15028611784444e+001,-6.98569633233772e-001

1.79005014185594e+004,-2.15028699960286e+001,-7.08320353433830e-001

1.81503831063432e+004,-2.15028790612695e+001,-7.18207148390562e-001

1.84037530124975e+004,-2.15028883811160e+001,-7.28231915932639e-001

1.86606598307361e+004,-2.15028979627117e+001,-7.38396580308839e-001

1.89211529345119e+004,-2.15029078134001e+001,-7.48703092554357e-001

1.91852823865052e+004,-2.15029179407303e+001,-7.59153430862238e-001

1.94530989482457e+004,-2.15029283524628e+001,-7.69749600957546e-001

1.97246540898671e+004,-2.15029390565752e+001,-7.80493636479829e-001

1.99999999999999e+004,-2.15029500612686e+001,-7.91387599367548e-001

2.02791895958005e+004,-2.15029613749733e+001,-8.02433580251876e-001

2.05622765331213e+004,-2.15029730063556e+001,-8.13633698850514e-001

2.08493152168224e+004,-2.15029849643242e+001,-8.24990104371722e-001

2.11403608112276e+004,-2.15029972580372e+001,-8.36504975920190e-001

2.14354692507258e+004,-2.15030098969082e+001,-8.48180522912302e-001

2.17346972505211e+004,-2.15030228906149e+001,-8.60018985491545e-001

2.20381023175322e+004,-2.15030362491049e+001,-8.72022634955342e-001

2.23457427614443e+004,-2.15030499826042e+001,-8.84193774183807e-001

2.26576777059159e+004,-2.15030641016245e+001,-8.96534738074568e-001

2.29739670999406e+004,-2.15030786169713e+001,-9.09047893986568e-001

2.32946717293690e+004,-2.15030935397519e+001,-9.21735642185706e-001

2.36198532285905e+004,-2.15031088813841e+001,-9.34600416299373e-001

2.39495740923785e+004,-2.15031246536043e+001,-9.47644683774885e-001

2.42838976879009e+004,-2.15031408684771e+001,-9.60870946346276e-001

2.46228882668982e+004,-2.15031575384034e+001,-9.74281740506424e-001

2.49666109780322e+004,-2.15031746761307e+001,-9.87879637984017e-001

2.53151318794055e+004,-2.15031922947622e+001,-1.00166724622940e+000

2.56685179512580e+004,-2.15032104077665e+001,-1.01564720890602e+000

2.60268371088386e+004,-2.15032290289880e+001,-1.02982220638697e+000

2.63901582154578e+004,-2.15032481726575e+001,-1.04419495626012e+000

2.67585510957221e+004,-2.15032678534024e+001,-1.05876821383811e+000

2.71320865489533e+004,-2.15032880862580e+001,-1.07354477267848e+000

2.75108363627948e+004,-2.15033088866786e+001,-1.08852746510563e+000

2.78948733270080e+004,-2.15033302705493e+001,-1.10371916274358e+000

2.82842712474618e+004,-2.15033522541974e+001,-1.11912277705530e+000

2.86791049603164e+004,-2.15033748544053e+001,-1.13474125988766e+000

2.90794503464061e+004,-2.15033980884226e+001,-1.15057760402374e+000

2.94853843458219e+004,-2.15034219739789e+001,-1.16663484374466e+000

2.98969849726987e+004,-2.15034465292976e+001,-1.18291605539568e+000

3.03143313302078e+004,-2.15034717731086e+001,-1.19942435796171e+000

3.07375036257601e+004,-2.15034977246632e+001,-1.21616291365040e+000

3.11665831864199e+004,-2.15035244037476e+001,-1.23313492848129e+000

3.16016524745350e+004,-2.15035518306983e+001,-1.25034365288393e+000

3.20427951035848e+004,-2.15035800264166e+001,-1.26779238230397e+000

3.24900958542493e+004,-2.15036090123848e+001,-1.28548445781589e+000

3.29436406907028e+004,-2.15036388106812e+001,-1.30342326674547e+000

3.34035167771346e+004,-2.15036694439976e+001,-1.32161224329705e+000

3.38698124945009e+004,-2.15037009356550e+001,-1.34005486919432e+000

3.43426174575100e+004,-2.15037333096216e+001,-1.35875467432282e+000

3.48220225318448e+004,-2.15037665905300e+001,-1.37771523738652e+000

3.53081198516260e+004,-2.15038008036959e+001,-1.39694018656869e+000

3.58010028371187e+004,-2.15038359751361e+001,-1.41643320020352e+000

3.63007662126863e+004,-2.15038721315882e+001,-1.43619800745534e+000

3.68075060249948e+004,-2.15039093005299e+001,-1.45623838900706e+000

3.73213196614721e+004,-2.15039475101993e+001,-1.47655817775723e+000

3.78423058690237e+004,-2.15039867896157e+001,-1.49716125952385e+000

3.83705647730104e+004,-2.15040271686007e+001,-1.51805157376220e+000

3.89061978964912e+004,-2.15040686777999e+001,-1.53923311428510e+000

3.94493081797342e+004,-2.15041113487056e+001,-1.56070992999805e+000

3.99999999999998e+004,-2.15041552136793e+001,-1.58248612563981e+000

4.05583791916010e+004,-2.15042003059757e+001,-1.60456586253354e+000

4.11245530662425e+004,-2.15042466597667e+001,-1.62695335934765e+000

4.16986304336447e+004,-2.15042943101661e+001,-1.64965289286521e+000

4.22807216224550e+004,-2.15043432932551e+001,-1.67266879876374e+000

4.28709385014515e+004,-2.15043936461084e+001,-1.69600547240372e+000

4.34693945010421e+004,-2.15044454068210e+001,-1.71966736962806e+000

4.40762046350642e+004,-2.15044986145355e+001,-1.74365900756934e+000

4.46914855228886e+004,-2.15045533094705e+001,-1.76798496546876e+000

4.53153554118317e+004,-2.15046095329495e+001,-1.79264988550416e+000

4.59479341998812e+004,-2.15046673274299e+001,-1.81765847362882e+000

4.65893434587380e+004,-2.15047267365343e+001,-1.84301550041859e+000

4.72397064571810e+004,-2.15047878050810e+001,-1.86872580193135e+000

4.78991481847569e+004,-2.15048505791161e+001,-1.89479428057567e+000

4.85677953758016e+004,-2.15049151059462e+001,-1.92122590598903e+000

4.92457765337964e+004,-2.15049814341719e+001,-1.94802571592865e+000

4.99332219560642e+004,-2.15050496137226e+001,-1.97519881717038e+000

5.06302637588109e+004,-2.15051196958911e+001,-2.00275038641951e+000

5.13370359025159e+004,-2.15051917333702e+001,-2.03068567123247e+000

5.20536742176771e+004,-2.15052657802895e+001,-2.05900999094808e+000

5.27803164309155e+004,-2.15053418922535e+001,-2.08772873763017e+000

5.35171021914442e+004,-2.15054201263803e+001,-2.11684737702215e+000

5.42641730979066e+004,-2.15055005413415e+001,-2.14637144951017e+000

5.50216727255895e+004,-2.15055831974032e+001,-2.17630657109909e+000

5.57897466540159e+004,-2.15056681564673e+001,-2.20665843439932e+000

5.65685424949235e+004,-2.15057554821147e+001,-2.23743280962392e+000

5.73582099206328e+004,-2.15058452396491e+001,-2.26863554559736e+000

5.81589006928121e+004,-2.15059374961416e+001,-2.30027257077586e+000

5.89707686916437e+004,-2.15060323204770e+001,-2.33234989427848e+000

5.97939699453972e+004,-2.15061297834006e+001,-2.36487360693003e+000

6.06286626604156e+004,-2.15062299575664e+001,-2.39784988231466e+000

6.14750072515201e+004,-2.15063329175864e+001,-2.43128497784193e+000

6.23331663728396e+004,-2.15064387400811e+001,-2.46518523582289e+000

6.32033049490698e+004,-2.15065475037310e+001,-2.49955708456011e+000

6.40855902071694e+004,-2.15066592893294e+001,-2.53440703944631e+000

6.49801917084985e+004,-2.15067741798366e+001,-2.56974170407707e+000

6.58872813814055e+004,-2.15068922604349e+001,-2.60556777137395e+000

6.68070335542691e+004,-2.15070136185852e+001,-2.64189202472006e+000

6.77396249890018e+004,-2.15071383440848e+001,-2.67872133910622e+000

6.86852349150199e+004,-2.15072665291263e+001,-2.71606268229038e+000

6.96440450636895e+004,-2.15073982683584e+001,-2.75392311596820e+000

7.06162397032520e+004,-2.15075336589473e+001,-2.79230979695446e+000

7.16020056742374e+004,-2.15076728006395e+001,-2.83122997837827e+000

7.26015324253724e+004,-2.15078157958269e+001,-2.87069101088913e+000

7.36150120499896e+004,-2.15079627496122e+001,-2.91070034387449e+000

7.46426393229441e+004,-2.15081137698763e+001,-2.95126552668990e+000

7.56846117380472e+004,-2.15082689673466e+001,-2.99239420990125e+000

7.67411295460207e+004,-2.15084284556678e+001,-3.03409414653842e+000

7.78123957929823e+004,-2.15085923514729e+001,-3.07637319336121e+000

7.88986163594682e+004,-2.15087607744565e+001,-3.11923931213706e+000

7.99999999999995e+004,-2.15089338474494e+001,-3.16270057093130e+000

8.11167583832018e+004,-2.15091116964945e+001,-3.20676514540906e+000

8.22491061324848e+004,-2.15092944509245e+001,-3.25144132014862e+000

8.33972608672892e+004,-2.15094822434413e+001,-3.29673748996800e+000

8.45614432449099e+004,-2.15096752101959e+001,-3.34266216126284e+000

8.57418770029029e+004,-2.15098734908716e+001,-3.38922395335645e+000

8.69387890020841e+004,-2.15100772287673e+001,-3.43643159986157e+000

8.81524092701283e+004,-2.15102865708832e+001,-3.48429395005528e+000

8.93829710457770e+004,-2.15105016680074e+001,-3.53281997026436e+000

9.06307108236633e+004,-2.15107226748052e+001,-3.58201874526468e+000

9.18958683997622e+004,-2.15109497499086e+001,-3.63189947969048e+000

9.31786869174758e+004,-2.15111830560091e+001,-3.68247149945776e+000

9.44794129143618e+004,-2.15114227599503e+001,-3.73374425319838e+000

9.57982963695136e+004,-2.15116690328237e+001,-3.78572731370743e+000

9.71355907516031e+004,-2.15119220500652e+001,-3.83843037940147e+000

9.84915530675926e+004,-2.15121819915537e+001,-3.89186327579006e+000

9.98664439121282e+004,-2.15124490417110e+001,-3.94603595695923e+000

1.01260527517622e+005,-2.15127233896037e+001,-4.00095850706699e+000

1.02674071805032e+005,-2.15130052290466e+001,-4.05664114185065e+000

1.04107348435354e+005,-2.15132947587076e+001,-4.11309421014815e+000

1.05560632861831e+005,-2.15135921822141e+001,-4.17032819543033e+000

1.07034204382888e+005,-2.15138977082620e+001,-4.22835371734572e+000

1.08528346195813e+005,-2.15142115507247e+001,-4.28718153327882e+000

1.10043345451179e+005,-2.15145339287656e+001,-4.34682253992044e+000

1.11579493308032e+005,-2.15148650669500e+001,-4.40728777485091e+000

1.13137084989847e+005,-2.15152051953610e+001,-4.46858841813642e+000

1.14716419841265e+005,-2.15155545497150e+001,-4.53073579393760e+000

1.16317801385624e+005,-2.15159133714800e+001,-4.59374137213315e+000

1.17941537383287e+005,-2.15162819079944e+001,-4.65761676995425e+000

1.19587939890794e+005,-2.15166604125887e+001,-4.72237375363514e+000

1.21257325320831e+005,-2.15170491447074e+001,-4.78802424007534e+000

1.22950014503040e+005,-2.15174483700331e+001,-4.85458029851736e+000

1.24666332745679e+005,-2.15178583606119e+001,-4.92205415223845e+000

1.26406609898139e+005,-2.15182793949802e+001,-4.99045818025605e+000

1.28171180414339e+005,-2.15187117582930e+001,-5.05980491904943e+000

1.29960383416997e+005,-2.15191557424539e+001,-5.13010706429591e+000

1.31774562762811e+005,-2.15196116462456e+001,-5.20137747262219e+000

1.33614067108538e+005,-2.15200797754629e+001,-5.27362916337327e+000

1.35479249978003e+005,-2.15205604430463e+001,-5.34687532039660e+000

1.37370469830040e+005,-2.15210539692170e+001,-5.42112929384351e+000

1.39288090127379e+005,-2.15215606816134e+001,-5.49640460198867e+000

1.41232479406504e+005,-2.15220809154291e+001,-5.57271493306737e+000

1.43204011348474e+005,-2.15226150135511e+001,-5.65007414713121e+000

1.45203064850745e+005,-2.15231633267009e+001,-5.72849627792407e+000

1.47230024099979e+005,-2.15237262135753e+001,-5.80799553477680e+000

1.49285278645888e+005,-2.15243040409894e+001,-5.88858630452502e+000

1.51369223476094e+005,-2.15248971840204e+001,-5.97028315344591e+000

1.53482259092041e+005,-2.15255060261523e+001,-6.05310082921976e+000

1.55624791585964e+005,-2.15261309594227e+001,-6.13705426291418e+000

1.57797232718936e+005,-2.15267723845701e+001,-6.22215857099228e+000

1.59999999999999e+005,-2.15274307111822e+001,-6.30842905734761e+000

1.62233516766403e+005,-2.15281063578467e+001,-6.39588121536393e+000

1.64498212264969e+005,-2.15287997523015e+001,-6.48453073000472e+000

1.66794521734578e+005,-2.15295113315880e+001,-6.57439347993037e+000

1.69122886489819e+005,-2.15302415422042e+001,-6.66548553964539e+000

1.71483754005805e+005,-2.15309908402607e+001,-6.75782318167838e+000

1.73877578004168e+005,-2.15317596916366e+001,-6.85142287879381e+000

1.76304818540256e+005,-2.15325485721381e+001,-6.94630130623836e+000

1.78765942091554e+005,-2.15333579676583e+001,-7.04247534402447e+000

1.81261421647326e+005,-2.15341883743382e+001,-7.13996207924872e+000

1.83791736799524e+005,-2.15350402987306e+001,-7.23877880845225e+000

1.86357373834951e+005,-2.15359142579648e+001,-7.33894304001991e+000

1.88958825828723e+005,-2.15368107799145e+001,-7.44047249662230e+000

1.91596592739027e+005,-2.15377304033666e+001,-7.54338511770272e+000

1.94271181503206e+005,-2.15386736781942e+001,-7.64769906200944e+000

1.96983106135185e+005,-2.15396411655303e+001,-7.75343271017592e+000

1.99732887824256e+005,-2.15406334379463e+001,-7.86060466735127e+000

2.02521055035243e+005,-2.15416510796319e+001,-7.96923376588170e+000

2.05348143610063e+005,-2.15426946865799e+001,-8.07933906804593e+000

2.08214696870707e+005,-2.15437648667734e+001,-8.19093986884618e+000

2.11121265723661e+005,-2.15448622403783e+001,-8.30405569885576e+000

2.14068408765776e+005,-2.15459874399390e+001,-8.41870632712726e+000

2.17056692391625e+005,-2.15471411105798e+001,-8.53491176416047e+000

2.20086690902357e+005,-2.15483239102112e+001,-8.65269226493450e+000

2.23158986616063e+005,-2.15495365097416e+001,-8.77206833200429e+000

2.26274169979693e+005,-2.15507795932955e+001,-8.89306071866360e+000

2.29432839682530e+005,-2.15520538584382e+001,-9.01569043217632e+000

2.32635602771247e+005,-2.15533600164076e+001,-9.13997873707808e+000

2.35883074766574e+005,-2.15546987923540e+001,-9.26594715854870e+000

2.39175879781588e+005,-2.15560709255883e+001,-9.39361748585749e+000

2.42514650641661e+005,-2.15574771698390e+001,-9.52301177588256e+000

2.45900029006080e+005,-2.15589182935190e+001,-9.65415235670571e+000

2.49332665491357e+005,-2.15603950800033e+001,-9.78706183128157e+000

2.52813219796278e+005,-2.15619083279172e+001,-9.92176308118592e+000

2.56342360828676e+005,-2.15634588514375e+001,-1.00582792704381e+001

2.59920766833993e+005,-2.15650474806054e+001,-1.01966338494035e+001

2.63549125525621e+005,-2.15666750616542e+001,-1.03368505587710e+001

2.67228134217075e+005,-2.15683424573507e+001,-1.04789534336093e+001

2.70958499956006e+005,-2.15700505473534e+001,-1.06229668074980e+001

2.74740939660078e+005,-2.15718002285855e+001,-1.07689153167346e+001

2.78576180254757e+005,-2.15735924156270e+001,-1.09168239046163e+001

2.82464958813007e+005,-2.15754280411241e+001,-1.10667178257925e+001

2.86408022696948e+005,-2.15773080562192e+001,-1.12186226506890e+001

2.90406129701488e+005,-2.15792334310006e+001,-1.13725642699991e+001

2.94460048199957e+005,-2.15812051549746e+001,-1.15285688992394e+001

2.98570557291775e+005,-2.15832242375591e+001,-1.16866630833679e+001

3.02738446952187e+005,-2.15852917086030e+001,-1.18468737014579e+001

3.06964518184081e+005,-2.15874086189287e+001,-1.20092279714261e+001

3.11249583171928e+005,-2.15895760409015e+001,-1.21737534548086e+001

3.15594465437872e+005,-2.15917950690258e+001,-1.23404780615788e+001

3.19999999999997e+005,-2.15940668205699e+001,-1.25094300550026e+001

3.24467033532806e+005,-2.15963924362195e+001,-1.26806380565234e+001

3.28996424529938e+005,-2.15987730807620e+001,-1.28541310506698e+001

3.33589043469155e+005,-2.16012099438016e+001,-1.30299383899785e+001

3.38245772979638e+005,-2.16037042405072e+001,-1.32080897999243e+001

3.42967508011610e+005,-2.16062572123931e+001,-1.33886153838483e+001

3.47755156008335e+005,-2.16088701281342e+001,-1.35715456278741e+001

3.52609637080511e+005,-2.16115442844161e+001,-1.37569114058029e+001

3.57531884183106e+005,-2.16142810068207e+001,-1.39447439839772e+001

3.62522843294651e+005,-2.16170816507485e+001,-1.41350750261012e+001

3.67583473599047e+005,-2.16199476023785e+001,-1.43279365980055e+001

3.72714747669902e+005,-2.16228802796648e+001,-1.45233611723472e+001

3.77917651657445e+005,-2.16258811333728e+001,-1.47213816332288e+001

3.83193185478053e+005,-2.16289516481526e+001,-1.49220312807252e+001

3.88542363006410e+005,-2.16320933436525e+001,-1.51253438353048e+001

3.93966212270369e+005,-2.16353077756711e+001,-1.53313534421306e+001

3.99465775648511e+005,-2.16385965373486e+001,-1.55400946752273e+001

4.05042110070485e+005,-2.16419612603980e+001,-1.57516025414990e+001

4.10696287220124e+005,-2.16454036163744e+001,-1.59659124845838e+001

4.16429393741414e+005,-2.16489253179842e+001,-1.61830603885287e+001

4.22242531447321e+005,-2.16525281204322e+001,-1.64030825812716e+001

4.28136817531551e+005,-2.16562138228069e+001,-1.66260158379111e+001

4.34113384783250e+005,-2.16599842695033e+001,-1.68518973837541e+001

4.40173381804713e+005,-2.16638413516825e+001,-1.70807648971192e+001

4.46317973232124e+005,-2.16677870087664e+001,-1.73126565118855e+001

4.52548339959385e+005,-2.16718232299681e+001,-1.75476108197679e+001

4.58865679365059e+005,-2.16759520558552e+001,-1.77856668723044e+001

4.65271205542494e+005,-2.16801755799459e+001,-1.80268641825411e+001

4.71766149533147e+005,-2.16844959503355e+001,-1.82712427263976e+001

4.78351759563174e+005,-2.16889153713532e+001,-1.85188429436988e+001

4.85029301283321e+005,-2.16934361052453e+001,-1.87697057388596e+001

4.91800058012158e+005,-2.16980604738856e+001,-1.90238724812068e+001

4.98665330982714e+005,-2.17027908605091e+001,-1.92813850049234e+001

5.05626439592555e+005,-2.17076297114675e+001,-1.95422856086046e+001

5.12684721657352e+005,-2.17125795380055e+001,-1.98066170544104e+001

5.19841533667984e+005,-2.17176429180532e+001,-2.00744225668025e+001

5.27098251051240e+005,-2.17228224980350e+001,-2.03457458308538e+001

5.34456268434150e+005,-2.17281209946909e+001,-2.06206309901189e+001

5.41916999912011e+005,-2.17335411969071e+001,-2.08991226440560e+001

