Freq.,VOut,OutRef

1.00000000000000e+004,-1.91053751587085e+001,-1.91496180992412e-001

1.01395947979003e+004,-1.91053766868399e+001,-1.94169210206469e-001

1.02811382665607e+004,-1.91053782579070e+001,-1.96879546817614e-001

1.04246576084112e+004,-1.91053798731156e+001,-1.99627711333573e-001

1.05701804056138e+004,-1.91053815337050e+001,-2.02414231515287e-001

1.07177346253629e+004,-1.91053832409494e+001,-2.05239642480275e-001

1.08673486252606e+004,-1.91053849961589e+001,-2.08104486800385e-001

1.10190511587661e+004,-1.91053868006799e+001,-2.11009314609404e-001

1.11728713807222e+004,-1.91053886558969e+001,-2.13954683706828e-001

1.13288388529580e+004,-1.91053905632331e+001,-2.16941159662394e-001

1.14869835499703e+004,-1.91053925241517e+001,-2.19969315926334e-001

1.16473358646846e+004,-1.91053945401565e+001,-2.23039733938887e-001

1.18099266142953e+004,-1.91053966127942e+001,-2.26153003237294e-001

1.19747870461893e+004,-1.91053987436541e+001,-2.29309721573217e-001

1.21419488439505e+004,-1.91054009343704e+001,-2.32510495024597e-001

1.23114441334492e+004,-1.91054031866232e+001,-2.35755938108693e-001

1.24833054890161e+004,-1.91054055021392e+001,-2.39046673904008e-001

1.26575659397028e+004,-1.91054078826941e+001,-2.42383334163244e-001

1.28342589756290e+004,-1.91054103301127e+001,-2.45766559439544e-001

1.30134185544193e+004,-1.91054128462714e+001,-2.49196999203370e-001

1.31950791077289e+004,-1.91054154330991e+001,-2.52675311968307e-001

1.33792755478611e+004,-1.91054180925783e+001,-2.56202165416617e-001

1.35660432744767e+004,-1.91054208267476e+001,-2.59778236525274e-001

1.37554181813974e+004,-1.91054236377021e+001,-2.63404211695517e-001

1.39474366635040e+004,-1.91054265275959e+001,-2.67080786881673e-001

1.41421356237309e+004,-1.91054294986434e+001,-2.70808667725419e-001

1.43395524801583e+004,-1.91054325531209e+001,-2.74588569687936e-001

1.45397251732031e+004,-1.91054356933683e+001,-2.78421218188270e-001

1.47426921729110e+004,-1.91054389217909e+001,-2.82307348737556e-001

1.49484924863494e+004,-1.91054422408618e+001,-2.86247707080566e-001

1.51571656651040e+004,-1.91054456531225e+001,-2.90243049338104e-001

1.53687518128801e+004,-1.91054491611863e+001,-2.94294142147362e-001

1.55832915932100e+004,-1.91054527677391e+001,-2.98401762810456e-001

1.58008262372675e+004,-1.91054564755422e+001,-3.02566699438788e-001

1.60213975517924e+004,-1.91054602874337e+001,-3.06789751105743e-001

1.62450479271247e+004,-1.91054642063315e+001,-3.11071727992685e-001

1.64718203453514e+004,-1.91054682352347e+001,-3.15413451547544e-001

1.67017583885674e+004,-1.91054723772263e+001,-3.19815754638186e-001

1.69349062472505e+004,-1.91054766354755e+001,-3.24279481707171e-001

1.71713087287550e+004,-1.91054810132400e+001,-3.28805488935984e-001

1.74110112659224e+004,-1.91054855138681e+001,-3.33394644404417e-001

1.76540599258131e+004,-1.91054901408023e+001,-3.38047828252174e-001

1.79005014185594e+004,-1.91054948975806e+001,-3.42765932849447e-001

1.81503831063432e+004,-1.91054997878400e+001,-3.47549862961572e-001

1.84037530124975e+004,-1.91055048153188e+001,-3.52400535921104e-001

1.86606598307361e+004,-1.91055099838600e+001,-3.57318881799325e-001

1.89211529345119e+004,-1.91055152974132e+001,-3.62305843584415e-001

1.91852823865052e+004,-1.91055207600386e+001,-3.67362377354353e-001

1.94530989482457e+004,-1.91055263759094e+001,-3.72489452460596e-001

1.97246540898671e+004,-1.91055321493150e+001,-3.77688051707771e-001

1.99999999999999e+004,-1.91055380846647e+001,-3.82959171538032e-001

2.02791895958005e+004,-1.91055441864902e+001,-3.88303822221115e-001

2.05622765331213e+004,-1.91055504594498e+001,-3.93723028040843e-001

2.08493152168224e+004,-1.91055569083311e+001,-3.99217827486738e-001

2.11403608112276e+004,-1.91055635380554e+001,-4.04789273451339e-001

2.14354692507258e+004,-1.91055703536806e+001,-4.10438433425071e-001

2.17346972505211e+004,-1.91055773604055e+001,-4.16166389695570e-001

2.20381023175322e+004,-1.91055845635734e+001,-4.21974239550918e-001

2.23457427614443e+004,-1.91055919686761e+001,-4.27863095485788e-001

2.26576777059159e+004,-1.91055995813584e+001,-4.33834085404886e-001

2.29739670999406e+004,-1.91056074074215e+001,-4.39888352836914e-001

2.32946717293690e+004,-1.91056154528279e+001,-4.46027057146711e-001

2.36198532285905e+004,-1.91056237237057e+001,-4.52251373750835e-001

2.39495740923785e+004,-1.91056322263531e+001,-4.58562494334217e-001

2.42838976879009e+004,-1.91056409672430e+001,-4.64961627074293e-001

2.46228882668982e+004,-1.91056499530280e+001,-4.71449996863274e-001

2.49666109780322e+004,-1.91056591905449e+001,-4.78028845537386e-001

2.53151318794055e+004,-1.91056686868201e+001,-4.84699432102826e-001

2.56685179512580e+004,-1.91056784490747e+001,-4.91463032973844e-001

2.60268371088386e+004,-1.91056884847298e+001,-4.98320942203306e-001

2.63901582154578e+004,-1.91056988014118e+001,-5.05274471726107e-001

2.67585510957221e+004,-1.91057094069582e+001,-5.12324951598449e-001

2.71320865489533e+004,-1.91057203094232e+001,-5.19473730242551e-001

2.75108363627948e+004,-1.91057315170837e+001,-5.26722174697308e-001

2.78948733270080e+004,-1.91057430384453e+001,-5.34071670866975e-001

2.82842712474618e+004,-1.91057548822484e+001,-5.41523623774974e-001

2.86791049603164e+004,-1.91057670574747e+001,-5.49079457825182e-001

2.90794503464061e+004,-1.91057795733540e+001,-5.56740617056785e-001

2.94853843458219e+004,-1.91057924393699e+001,-5.64508565414353e-001

2.98969849726987e+004,-1.91058056652679e+001,-5.72384787010309e-001

3.03143313302078e+004,-1.91058192610619e+001,-5.80370786397789e-001

3.07375036257601e+004,-1.91058332370414e+001,-5.88468088843756e-001

3.11665831864199e+004,-1.91058476037786e+001,-5.96678240606329e-001

3.16016524745350e+004,-1.91058623721368e+001,-6.05002809214782e-001

3.20427951035848e+004,-1.91058775532778e+001,-6.13443383753946e-001

3.24900958542493e+004,-1.91058931586694e+001,-6.22001575152113e-001

3.29436406907028e+004,-1.91059092000946e+001,-6.30679016469822e-001

3.34035167771346e+004,-1.91059256896592e+001,-6.39477363197188e-001

3.38698124945009e+004,-1.91059426398010e+001,-6.48398293547629e-001

3.43426174575100e+004,-1.91059600632979e+001,-6.57443508764526e-001

3.48220225318448e+004,-1.91059779732777e+001,-6.66614733420820e-001

3.53081198516260e+004,-1.91059963832272e+001,-6.75913715730662e-001

3.58010028371187e+004,-1.91060153070015e+001,-6.85342227859805e-001

3.63007662126863e+004,-1.91060347588337e+001,-6.94902066244163e-001

3.68075060249948e+004,-1.91060547533454e+001,-7.04595051904897e-001

3.73213196614721e+004,-1.91060753055565e+001,-7.14423030775172e-001

3.78423058690237e+004,-1.91060964308957e+001,-7.24387874024101e-001

3.83705647730104e+004,-1.91061181452114e+001,-7.34491478390004e-001

3.89061978964912e+004,-1.91061404647828e+001,-7.44735766511896e-001

3.94493081797342e+004,-1.91061634063309e+001,-7.55122687269092e-001

3.99999999999998e+004,-1.91061869870301e+001,-7.65654216121953e-001

4.05583791916010e+004,-1.91062112245204e+001,-7.76332355458478e-001

4.11245530662425e+004,-1.91062361369188e+001,-7.87159134942617e-001

4.16986304336447e+004,-1.91062617428326e+001,-7.98136611866904e-001

4.22807216224550e+004,-1.91062880613708e+001,-8.09266871511861e-001

4.28709385014515e+004,-1.91063151121587e+001,-8.20552027503144e-001

4.34693945010421e+004,-1.91063429153498e+001,-8.31994222178996e-001

4.40762046350642e+004,-1.91063714916401e+001,-8.43595626957496e-001

4.46914855228886e+004,-1.91064008622815e+001,-8.55358442709546e-001

4.53153554118317e+004,-1.91064310490966e+001,-8.67284900134460e-001

4.59479341998812e+004,-1.91064620744928e+001,-8.79377260139837e-001

4.65893434587380e+004,-1.91064939614773e+001,-8.91637814226571e-001

4.72397064571810e+004,-1.91065267336723e+001,-9.04068884875831e-001

4.78991481847569e+004,-1.91065604153304e+001,-9.16672825940852e-001

4.85677953758016e+004,-1.91065950313506e+001,-9.29452023043119e-001

4.92457765337964e+004,-1.91066306072946e+001,-9.42408893971068e-001

4.99332219560642e+004,-1.91066671694029e+001,-9.55545889084809e-001

5.06302637588109e+004,-1.91067047446122e+001,-9.68865491720748e-001

5.13370359025159e+004,-1.91067433605725e+001,-9.82370218606052e-001

5.20536742176771e+004,-1.91067830456646e+001,-9.96062620270938e-001

5.27803164309155e+004,-1.91068238290181e+001,-1.00994528146860e+000

5.35171021914442e+004,-1.91068657405301e+001,-1.02402082159778e+000

5.42641730979066e+004,-1.91069088108834e+001,-1.03829189512848e+000

5.50216727255895e+004,-1.91069530715659e+001,-1.05276119203306e+000

5.57897466540159e+004,-1.91069985548901e+001,-1.06743143821935e+000

5.65685424949235e+004,-1.91070452940128e+001,-1.08230539596893e+000

5.73582099206328e+004,-1.91070933229554e+001,-1.09738586437792e+000

5.81589006928121e+004,-1.91071426766242e+001,-1.11267567980330e+000

5.89707686916437e+004,-1.91071933908323e+001,-1.12817771630935e+000

5.97939699453972e+004,-1.91072455023196e+001,-1.14389488612235e+000

6.06286626604156e+004,-1.91072990487758e+001,-1.15983014008479e+000

6.14750072515201e+004,-1.91073540688618e+001,-1.17598646811597e+000

6.23331663728396e+004,-1.91074106022324e+001,-1.19236689967424e+000

6.32033049490698e+004,-1.91074686895592e+001,-1.20897450422382e+000

6.40855902071694e+004,-1.91075283725539e+001,-1.22581239170408e+000

6.49801917084985e+004,-1.91075896939918e+001,-1.24288371300351e+000

6.58872813814055e+004,-1.91076526977360e+001,-1.26019166043546e+000

6.68070335542691e+004,-1.91077174287615e+001,-1.27773946821881e+000

6.77396249890018e+004,-1.91077839331802e+001,-1.29553041295959e+000

6.86852349150199e+004,-1.91078522582658e+001,-1.31356781413910e+000

6.96440450636895e+004,-1.91079224524791e+001,-1.33185503460106e+000

7.06162397032520e+004,-1.91079945654943e+001,-1.35039548104478e+000

7.16020056742374e+004,-1.91080686482243e+001,-1.36919260452141e+000

7.26015324253724e+004,-1.91081447528477e+001,-1.38824990092985e+000

7.36150120499896e+004,-1.91082229328353e+001,-1.40757091151986e+000

7.46426393229441e+004,-1.91083032429773e+001,-1.42715922339403e+000

7.56846117380472e+004,-1.91083857394100e+001,-1.44701847001601e+000

7.67411295460207e+004,-1.91084704796440e+001,-1.46715233171753e+000

7.78123957929823e+004,-1.91085575225919e+001,-1.48756453621225e+000

7.88986163594682e+004,-1.91086469285959e+001,-1.50825885910751e+000

7.99999999999995e+004,-1.91087387594565e+001,-1.52923912442256e+000

8.11167583832018e+004,-1.91088330784607e+001,-1.55050920510661e+000

8.22491061324848e+004,-1.91089299504106e+001,-1.57207302356042e+000

8.33972608672892e+004,-1.91090294416523e+001,-1.59393455215896e+000

8.45614432449099e+004,-1.91091316201044e+001,-1.61609781377744e+000

8.57418770029029e+004,-1.91092365552877e+001,-1.63856688231765e+000

8.69387890020841e+004,-1.91093443183530e+001,-1.66134588323919e+000

8.81524092701283e+004,-1.91094549821113e+001,-1.68443899408921e+000

8.93829710457770e+004,-1.91095686210621e+001,-1.70785044503615e+000

9.06307108236633e+004,-1.91096853114228e+001,-1.73158451940501e+000

9.18958683997622e+004,-1.91098051311571e+001,-1.75564555421320e+000

9.31786869174758e+004,-1.91099281600041e+001,-1.78003794071101e+000

9.44794129143618e+004,-1.91100544795069e+001,-1.80476612491865e+000

9.57982963695136e+004,-1.91101841730409e+001,-1.82983460817068e+000

9.71355907516031e+004,-1.91103173258417e+001,-1.85524794765793e+000

9.84915530675926e+004,-1.91104540250332e+001,-1.88101075697228e+000

9.98664439121282e+004,-1.91105943596548e+001,-1.90712770665390e+000

1.01260527517622e+005,-1.91107384206885e+001,-1.93360352473824e+000

1.02674071805032e+005,-1.91108863010852e+001,-1.96044299730638e+000

1.04107348435354e+005,-1.91110380957908e+001,-1.98765096903574e+000

1.05560632861831e+005,-1.91111939017716e+001,-2.01523234375287e+000

1.07034204382888e+005,-1.91113538180386e+001,-2.04319208498826e+000

1.08528346195813e+005,-1.91115179456717e+001,-2.07153521653179e+000

1.10043345451179e+005,-1.91116863878424e+001,-2.10026682299245e+000

1.11579493308032e+005,-1.91118592498362e+001,-2.12939205035593e+000

1.13137084989847e+005,-1.91120366390735e+001,-2.15891610654951e+000

1.14716419841265e+005,-1.91122186651297e+001,-2.18884426200426e+000

1.16317801385624e+005,-1.91124054397540e+001,-2.21918185022360e+000

1.17941537383287e+005,-1.91125970768871e+001,-2.24993426835208e+000

1.19587939890794e+005,-1.91127936926773e+001,-2.28110697774768e+000

1.21257325320831e+005,-1.91129954054952e+001,-2.31270550455869e+000

1.22950014503040e+005,-1.91132023359474e+001,-2.34473544030078e+000

1.24666332745679e+005,-1.91134146068870e+001,-2.37720244244239e+000

1.26406609898139e+005,-1.91136323434248e+001,-2.41011223499019e+000

1.28171180414339e+005,-1.91138556729359e+001,-2.44347060908159e+000

1.29960383416997e+005,-1.91140847250664e+001,-2.47728342358262e+000

1.31774562762811e+005,-1.91143196317369e+001,-2.51155660568807e+000

1.33614067108538e+005,-1.91145605271443e+001,-2.54629615153371e+000

1.35479249978003e+005,-1.91148075477608e+001,-2.58150812680846e+000

1.37370469830040e+005,-1.91150608323309e+001,-2.61719866738057e+000

1.39288090127379e+005,-1.91153205218656e+001,-2.65337397992631e+000

1.41232479406504e+005,-1.91155867596338e+001,-2.69004034257211e+000

1.43204011348474e+005,-1.91158596911509e+001,-2.72720410554366e+000

1.45203064850745e+005,-1.91161394641652e+001,-2.76487169182684e+000

1.47230024099979e+005,-1.91164262286396e+001,-2.80304959784059e+000

1.49285278645888e+005,-1.91167201367319e+001,-2.84174439412244e+000

1.51369223476094e+005,-1.91170213427705e+001,-2.88096272602714e+000

1.53482259092041e+005,-1.91173300032274e+001,-2.92071131444080e+000

1.55624791585964e+005,-1.91176462766872e+001,-2.96099695651245e+000

1.57797232718936e+005,-1.91179703238126e+001,-3.00182652640199e+000

1.59999999999999e+005,-1.91183023073065e+001,-3.04320697604739e+000

1.62233516766403e+005,-1.91186423918692e+001,-3.08514533595373e+000

1.64498212264969e+005,-1.91189907441532e+001,-3.12764871600285e+000

1.66794521734578e+005,-1.91193475327119e+001,-3.17072430628842e+000

1.69122886489819e+005,-1.91197129279462e+001,-3.21437937797638e+000

1.71483754005805e+005,-1.91200871020452e+001,-3.25862128419279e+000

1.73877578004168e+005,-1.91204702289236e+001,-3.30345746094133e+000

1.76304818540256e+005,-1.91208624841544e+001,-3.34889542805285e+000

1.78765942091554e+005,-1.91212640448969e+001,-3.39494279016853e+000

1.81261421647326e+005,-1.91216750898208e+001,-3.44160723775961e+000

1.83791736799524e+005,-1.91220957990253e+001,-3.48889654818429e+000

1.86357373834951e+005,-1.91225263539538e+001,-3.53681858678761e+000

1.88958825828723e+005,-1.91229669373045e+001,-3.58538130804253e+000

1.91596592739027e+005,-1.91234177329361e+001,-3.63459275673846e+000

1.94271181503206e+005,-1.91238789257691e+001,-3.68446106921878e+000

1.96983106135185e+005,-1.91243507016829e+001,-3.73499447466753e+000

1.99732887824256e+005,-1.91248332474088e+001,-3.78620129645354e+000

2.02521055035243e+005,-1.91253267504184e+001,-3.83808995352946e+000

2.05348143610063e+005,-1.91258313988081e+001,-3.89066896189184e+000

2.08214696870707e+005,-1.91263473811798e+001,-3.94394693610456e+000

2.11121265723661e+005,-1.91268748865183e+001,-3.99793259088826e+000

2.14068408765776e+005,-1.91274141040641e+001,-4.05263474277880e+000

2.17056692391625e+005,-1.91279652231843e+001,-4.10806231185983e+000

2.20086690902357e+005,-1.91285284332393e+001,-4.16422432356837e+000

2.23158986616063e+005,-1.91291039234482e+001,-4.22112991058265e+000

2.26274169979693e+005,-1.91296918827502e+001,-4.27878831478901e+000

2.29432839682530e+005,-1.91302924996658e+001,-4.33720888933508e+000

2.32635602771247e+005,-1.91309059621548e+001,-4.39640110077315e+000

2.35883074766574e+005,-1.91315324574746e+001,-4.45637453129131e+000

2.39175879781588e+005,-1.91321721720372e+001,-4.51713888104244e+000

2.42514650641661e+005,-1.91328252912658e+001,-4.57870397056830e+000

2.45900029006080e+005,-1.91334919994529e+001,-4.64107974332510e+000

2.49332665491357e+005,-1.91341724796179e+001,-4.70427626831127e+000

2.52813219796278e+005,-1.91348669133684e+001,-4.76830374280119e+000

2.56342360828676e+005,-1.91355754807615e+001,-4.83317249518668e+000

2.59920766833993e+005,-1.91362983601705e+001,-4.89889298792835e+000

2.63549125525621e+005,-1.91370357281537e+001,-4.96547582062004e+000

2.67228134217075e+005,-1.91377877593285e+001,-5.03293173316612e+000

2.70958499956006e+005,-1.91385546262508e+001,-5.10127160907600e+000

2.74740939660078e+005,-1.91393364993010e+001,-5.17050647887330e+000

2.78576180254757e+005,-1.91401335465760e+001,-5.24064752362671e+000

2.82464958813007e+005,-1.91409459337912e+001,-5.31170607859525e+000

2.86408022696948e+005,-1.91417738241891e+001,-5.38369363699668e+000

2.90406129701488e+005,-1.91426173784600e+001,-5.45662185389243e+000

2.94460048199957e+005,-1.91434767546723e+001,-5.53050255019297e+000

2.98570557291775e+005,-1.91443521082152e+001,-5.60534771678139e+000

3.02738446952187e+005,-1.91452435917544e+001,-5.68116951875368e+000

3.06964518184081e+005,-1.91461513552017e+001,-5.75798029977469e+000

3.11249583171928e+005,-1.91470755456993e+001,-5.83579258654916e+000

3.15594465437872e+005,-1.91480163076207e+001,-5.91461909340210e+000

3.19999999999997e+005,-1.91489737825883e+001,-5.99447272697025e+000

3.24467033532806e+005,-1.91499481095097e+001,-6.07536659099624e+000

3.28996424529938e+005,-1.91509394246317e+001,-6.15731399122656e+000

3.33589043469155e+005,-1.91519478616166e+001,-6.24032844040558e+000

3.38245772979638e+005,-1.91529735516372e+001,-6.32442366336218e+000

3.42967508011610e+005,-1.91540166234959e+001,-6.40961360218480e+000

3.47755156008335e+005,-1.91550772037656e+001,-6.49591242147654e+000

3.52609637080511e+005,-1.91561554169545e+001,-6.58333451368767e+000

3.57531884183106e+005,-1.91572513856960e+001,-6.67189450451650e+000

3.62522843294651e+005,-1.91583652309636e+001,-6.76160725837219e+000

3.67583473599047e+005,-1.91594970723122e+001,-6.85248788389228e+000

3.72714747669902e+005,-1.91606470281456e+001,-6.94455173950790e+000

3.77917651657445e+005,-1.91618152160125e+001,-7.03781443904749e+000

3.83193185478053e+005,-1.91630017529289e+001,-7.13229185737032e+000

3.88542363006410e+005,-1.91642067557300e+001,-7.22800013602225e+000

3.93966212270369e+005,-1.91654303414500e+001,-7.32495568890500e+000

3.99465775648511e+005,-1.91666726277311e+001,-7.42317520794621e+000

4.05042110070485e+005,-1.91679337332614e+001,-7.52267566876667e+000

4.10696287220124e+005,-1.91692137782420e+001,-7.62347433632921e+000

4.16429393741414e+005,-1.91705128848833e+001,-7.72558877056440e+000

4.22242531447321e+005,-1.91718311779302e+001,-7.82903683195974e+000

4.28136817531551e+005,-1.91731687852159e+001,-7.93383668710601e+000

4.34113384783250e+005,-1.91745258382447e+001,-8.04000681418708e+000

4.40173381804713e+005,-1.91759024728018e+001,-8.14756600840844e+000

4.46317973232124e+005,-1.91772988295920e+001,-8.25653338735087e+000

4.52548339959385e+005,-1.91787150549045e+001,-8.36692839624321e+000

4.58865679365059e+005,-1.91801513013037e+001,-8.47877081314308e+000

4.65271205542494e+005,-1.91816077283461e+001,-8.59208075401863e+000

4.71766149533147e+005,-1.91830845033213e+001,-8.70687867772259e+000

4.78351759563174e+005,-1.91845818020168e+001,-8.82318539085118e+000

4.85029301283321e+005,-1.91860998095053e+001,-8.94102205247892e+000

4.91800058012158e+005,-1.91876387209531e+001,-9.06041017876617e+000

4.98665330982714e+005,-1.91891987424494e+001,-9.18137164742891e+000

5.05626439592555e+005,-1.91907800918539e+001,-9.30392870206833e+000

5.12684721657352e+005,-1.91923829996629e+001,-9.42810395635377e+000

5.19841533667984e+005,-1.91940077098907e+001,-9.55392039805474e+000

5.27098251051240e+005,-1.91956544809671e+001,-9.68140139291864e+000

5.34456268434150e+005,-1.91973235866478e+001,-9.81057068839061e+000

5.41916999912011e+005,-1.91990153169375e+001,-9.94145241717350e+000

