Freq.,VOut,OutRef

1.00000000000000e+004,-2.79674830074396e+001,-3.97942598054472e-001

1.01395947979003e+004,-2.79674861576893e+001,-4.03497498155598e-001

1.02811382665607e+004,-2.79674893964810e+001,-4.09129934489954e-001

1.04246576084112e+004,-2.79674927263026e+001,-4.14840989114632e-001

1.05701804056138e+004,-2.79674961497120e+001,-4.20631759177397e-001

1.07177346253629e+004,-2.79674996693388e+001,-4.26503357128021e-001

1.08673486252606e+004,-2.79675032878864e+001,-4.32456910932799e-001

1.10190511587661e+004,-2.79675070081343e+001,-4.38493564286597e-001

1.11728713807222e+004,-2.79675108329396e+001,-4.44614476837390e-001

1.13288388529580e+004,-2.79675147652402e+001,-4.50820824401684e-001

1.14869835499703e+004,-2.79675188080562e+001,-4.57113799194968e-001

1.16473358646846e+004,-2.79675229644926e+001,-4.63494610057364e-001

1.18099266142953e+004,-2.79675272377413e+001,-4.69964482685801e-001

1.19747870461893e+004,-2.79675316310841e+001,-4.76524659867585e-001

1.21419488439505e+004,-2.79675361478949e+001,-4.83176401719914e-001

1.23114441334492e+004,-2.79675407916422e+001,-4.89920985928812e-001

1.24833054890161e+004,-2.79675455658919e+001,-4.96759707995164e-001

1.26575659397028e+004,-2.79675504743100e+001,-5.03693881481564e-001

1.28342589756290e+004,-2.79675555206654e+001,-5.10724838264554e-001

1.30134185544193e+004,-2.79675607088329e+001,-5.17853928787009e-001

1.31950791077289e+004,-2.79675660427958e+001,-5.25082522319702e-001

1.33792755478611e+004,-2.79675715266495e+001,-5.32412007219682e-001

1.35660432744767e+004,-2.79675771646041e+001,-5.39843791197939e-001

1.37554181813974e+004,-2.79675829609878e+001,-5.47379301587476e-001

1.39474366635040e+004,-2.79675889202504e+001,-5.55019985615456e-001

1.41421356237309e+004,-2.79675950469666e+001,-5.62767310680878e-001

1.43395524801583e+004,-2.79676013458394e+001,-5.70622764633879e-001

1.45397251732031e+004,-2.79676078217036e+001,-5.78587856060733e-001

1.47426921729110e+004,-2.79676144795298e+001,-5.86664114570405e-001

1.49484924863494e+004,-2.79676213244279e+001,-5.94853091088333e-001

1.51571656651040e+004,-2.79676283616514e+001,-6.03156358150677e-001

1.53687518128801e+004,-2.79676355966009e+001,-6.11575510206001e-001

1.55832915932100e+004,-2.79676430348285e+001,-6.20112163918373e-001

1.58008262372675e+004,-2.79676506820422e+001,-6.28767958475808e-001

1.60213975517924e+004,-2.79676585441097e+001,-6.37544555903523e-001

1.62450479271247e+004,-2.79676666270638e+001,-6.46443641379519e-001

1.64718203453514e+004,-2.79676749371060e+001,-6.55466923556845e-001

1.67017583885674e+004,-2.79676834806116e+001,-6.64616134890357e-001

1.69349062472505e+004,-2.79676922641351e+001,-6.73893031963747e-001

1.71713087287550e+004,-2.79677012944145e+001,-6.83299395825948e-001

1.74110112659224e+004,-2.79677105783764e+001,-6.92837032331293e-001

1.76540599258131e+004,-2.79677201231420e+001,-7.02507772480431e-001

1.79005014185594e+004,-2.79677299360318e+001,-7.12313472771730e-001

1.81503831063432e+004,-2.79677400245715e+001,-7.22256015553421e-001

1.84037530124975e+004,-2.79677503964979e+001,-7.32337309380148e-001

1.86606598307361e+004,-2.79677610597641e+001,-7.42559289378572e-001

1.89211529345119e+004,-2.79677720225465e+001,-7.52923917613501e-001

1.91852823865052e+004,-2.79677832932501e+001,-7.63433183462065e-001

1.94530989482457e+004,-2.79677948805158e+001,-7.74089103989328e-001

1.97246540898671e+004,-2.79678067932261e+001,-7.84893724334604e-001

1.99999999999999e+004,-2.79678190405125e+001,-7.95849118096731e-001

2.02791895958005e+004,-2.79678316317619e+001,-8.06957387730271e-001

2.05622765331213e+004,-2.79678445766247e+001,-8.18220664941704e-001

2.08493152168224e+004,-2.79678578850205e+001,-8.29641111097111e-001

2.11403608112276e+004,-2.79678715671472e+001,-8.41220917628616e-001

2.14354692507258e+004,-2.79678856334881e+001,-8.52962306451939e-001

2.17346972505211e+004,-2.79679000948196e+001,-8.64867530386748e-001

2.20381023175322e+004,-2.79679149622198e+001,-8.76938873582412e-001

2.23457427614443e+004,-2.79679302470768e+001,-8.89178651951790e-001

2.26576777059159e+004,-2.79679459610971e+001,-9.01589213609092e-001

2.29739670999406e+004,-2.79679621163147e+001,-9.14172939313062e-001

2.32946717293690e+004,-2.79679787251001e+001,-9.26932242918879e-001

2.36198532285905e+004,-2.79679958001699e+001,-9.39869571831862e-001

2.39495740923785e+004,-2.79680133545959e+001,-9.52987407472493e-001

2.42838976879009e+004,-2.79680314018155e+001,-9.66288265742431e-001

2.46228882668982e+004,-2.79680499556417e+001,-9.79774697500723e-001

2.49666109780322e+004,-2.79680690302733e+001,-9.93449289045110e-001

2.53151318794055e+004,-2.79680886403058e+001,-1.00731466259824e+000

2.56685179512580e+004,-2.79681088007427e+001,-1.02137347680297e+000

2.60268371088386e+004,-2.79681295270062e+001,-1.03562842722191e+000

2.63901582154578e+004,-2.79681508349493e+001,-1.05008224684600e+000

2.67585510957221e+004,-2.79681727408677e+001,-1.06473770660701e+000

2.71320865489533e+004,-2.79681952615117e+001,-1.07959761590030e+000

2.75108363627948e+004,-2.79682184140992e+001,-1.09466482311078e+000

2.78948733270080e+004,-2.79682422163286e+001,-1.10994221614839e+000

2.82842712474618e+004,-2.79682666863919e+001,-1.12543272299036e+000

2.86791049603164e+004,-2.79682918429885e+001,-1.14113931222938e+000

2.90794503464061e+004,-2.79683177053393e+001,-1.15706499362987e+000

2.94853843458219e+004,-2.79683442932008e+001,-1.17321281869301e+000

2.98969849726987e+004,-2.79683716268802e+001,-1.18958588122560e+000

3.03143313302078e+004,-2.79683997272509e+001,-1.20618731791885e+000

3.07375036257601e+004,-2.79684286157672e+001,-1.22302030893649e+000

3.11665831864199e+004,-2.79684583144812e+001,-1.24008807850510e+000

3.16016524745350e+004,-2.79684888460592e+001,-1.25739389551828e+000

3.20427951035848e+004,-2.79685202337979e+001,-1.27494107414448e+000

3.24900958542493e+004,-2.79685525016426e+001,-1.29273297444427e+000

3.29436406907028e+004,-2.79685856742048e+001,-1.31077300299594e+000

3.34035167771346e+004,-2.79686197767804e+001,-1.32906461352829e+000

3.38698124945009e+004,-2.79686548353685e+001,-1.34761130756150e+000

3.43426174575100e+004,-2.79686908766908e+001,-1.36641663505921e+000

3.48220225318448e+004,-2.79687279282117e+001,-1.38548419508244e+000

3.53081198516260e+004,-2.79687660181584e+001,-1.40481763646052e+000

3.58010028371187e+004,-2.79688051755416e+001,-1.42442065846255e+000

3.63007662126863e+004,-2.79688454301776e+001,-1.44429701148251e+000

3.68075060249948e+004,-2.79688868127098e+001,-1.46445049773209e+000

3.73213196614721e+004,-2.79689293546317e+001,-1.48488497194057e+000

3.78423058690237e+004,-2.79689730883100e+001,-1.50560434206543e+000

3.83705647730104e+004,-2.79690180470084e+001,-1.52661257001095e+000

3.89061978964912e+004,-2.79690642649123e+001,-1.54791367235650e+000

3.94493081797342e+004,-2.79691117771537e+001,-1.56951172109433e+000

3.99999999999998e+004,-2.79691606198372e+001,-1.59141084437397e+000

4.05583791916010e+004,-2.79692108300664e+001,-1.61361522725980e+000

4.11245530662425e+004,-2.79692624459714e+001,-1.63612911249524e+000

4.16986304336447e+004,-2.79693155067360e+001,-1.65895680127783e+000

4.22807216224550e+004,-2.79693700526269e+001,-1.68210265404332e+000

4.28709385014515e+004,-2.79694261250232e+001,-1.70557109125854e+000

4.34693945010421e+004,-2.79694837664461e+001,-1.72936659422625e+000

4.40762046350642e+004,-2.79695430205901e+001,-1.75349370589786e+000

4.46914855228886e+004,-2.79696039323546e+001,-1.77795703169678e+000

4.53153554118317e+004,-2.79696665478769e+001,-1.80276124035221e+000

4.59479341998812e+004,-2.79697309145650e+001,-1.82791106474172e+000

4.65893434587380e+004,-2.79697970811321e+001,-1.85341130274615e+000

4.72397064571810e+004,-2.79698650976323e+001,-1.87926681811134e+000

4.78991481847569e+004,-2.79699350154957e+001,-1.90548254132487e+000

4.85677953758016e+004,-2.79700068875662e+001,-1.93206347049826e+000

4.92457765337964e+004,-2.79700807681392e+001,-1.95901467226300e+000

4.99332219560642e+004,-2.79701567130001e+001,-1.98634128267699e+000

5.06302637588109e+004,-2.79702347794649e+001,-2.01404850813946e+000

5.13370359025159e+004,-2.79703150264208e+001,-2.04214162631758e+000

5.20536742176771e+004,-2.79703975143678e+001,-2.07062598708664e+000

5.27803164309155e+004,-2.79704823054622e+001,-2.09950701347528e+000

5.35171021914442e+004,-2.79705694635607e+001,-2.12879020262750e+000

5.42641730979066e+004,-2.79706590542651e+001,-2.15848112677206e+000

5.50216727255895e+004,-2.79707511449690e+001,-2.18858543420415e+000

5.57897466540159e+004,-2.79708458049055e+001,-2.21910885027815e+000

5.65685424949235e+004,-2.79709431051951e+001,-2.25005717841164e+000

5.73582099206328e+004,-2.79710431188964e+001,-2.28143630109947e+000

5.81589006928121e+004,-2.79711459210566e+001,-2.31325218094186e+000

5.89707686916437e+004,-2.79712515887642e+001,-2.34551086168019e+000

5.97939699453972e+004,-2.79713602012024e+001,-2.37821846924777e+000

6.06286626604156e+004,-2.79714718397040e+001,-2.41138121282933e+000

6.14750072515201e+004,-2.79715865878080e+001,-2.44500538593381e+000

6.23331663728396e+004,-2.79717045313168e+001,-2.47909736747766e+000

6.32033049490698e+004,-2.79718257583553e+001,-2.51366362288008e+000

6.40855902071694e+004,-2.79719503594317e+001,-2.54871070517003e+000

6.49801917084985e+004,-2.79720784274989e+001,-2.58424525610486e+000

6.58872813814055e+004,-2.79722100580178e+001,-2.62027400730077e+000

6.68070335542691e+004,-2.79723453490227e+001,-2.65680378137433e+000

6.77396249890018e+004,-2.79724844011868e+001,-2.69384149309689e+000

6.86852349150199e+004,-2.79726273178908e+001,-2.73139415056006e+000

6.96440450636895e+004,-2.79727742052921e+001,-2.76946885635309e+000

7.06162397032520e+004,-2.79729251723957e+001,-2.80807280875252e+000

7.16020056742374e+004,-2.79730803311272e+001,-2.84721330292298e+000

7.26015324253724e+004,-2.79732397964072e+001,-2.88689773213074e+000

7.36150120499896e+004,-2.79734036862268e+001,-2.92713358896893e+000

7.46426393229441e+004,-2.79735721217261e+001,-2.96792846659401e+000

7.56846117380472e+004,-2.79737452272733e+001,-3.00929005997515e+000

7.67411295460207e+004,-2.79739231305460e+001,-3.05122616715515e+000

7.78123957929823e+004,-2.79741059626146e+001,-3.09374469052263e+000

7.88986163594682e+004,-2.79742938580267e+001,-3.13685363809767e+000

7.99999999999995e+004,-2.79744869548944e+001,-3.18056112482846e+000

8.11167583832018e+004,-2.79746853949825e+001,-3.22487537389904e+000

8.22491061324848e+004,-2.79748893237995e+001,-3.26980471805156e+000

8.33972608672892e+004,-2.79750988906896e+001,-3.31535760091722e+000

8.45614432449099e+004,-2.79753142489278e+001,-3.36154257836231e+000

8.57418770029029e+004,-2.79755355558156e+001,-3.40836831984316e+000

8.69387890020841e+004,-2.79757629727798e+001,-3.45584360977590e+000

8.81524092701283e+004,-2.79759966654734e+001,-3.50397734891564e+000

8.93829710457770e+004,-2.79762368038772e+001,-3.55277855574929e+000

9.06307108236633e+004,-2.79764835624054e+001,-3.60225636789925e+000

9.18958683997622e+004,-2.79767371200115e+001,-3.65242004353943e+000

9.31786869174758e+004,-2.79769976602978e+001,-3.70327896282335e+000

9.44794129143618e+004,-2.79772653716259e+001,-3.75484262932265e+000

9.57982963695136e+004,-2.79775404472304e+001,-3.80712067147973e+000

9.71355907516031e+004,-2.79778230853337e+001,-3.86012284407010e+000

9.84915530675926e+004,-2.79781134892639e+001,-3.91385902967801e+000

9.98664439121282e+004,-2.79784118675746e+001,-3.96833924018267e+000

1.01260527517622e+005,-2.79787184341667e+001,-4.02357361825813e+000

1.02674071805032e+005,-2.79790334084132e+001,-4.07957243888226e+000

1.04107348435354e+005,-2.79793570152851e+001,-4.13634611085986e+000

1.05560632861831e+005,-2.79796894854806e+001,-4.19390517835735e+000

1.07034204382888e+005,-2.79800310555568e+001,-4.25226032244776e+000

1.08528346195813e+005,-2.79803819680622e+001,-4.31142236266950e+000

1.10043345451179e+005,-2.79807424716731e+001,-4.37140225859597e+000

1.11579493308032e+005,-2.79811128213320e+001,-4.43221111141773e+000

1.13137084989847e+005,-2.79814932783875e+001,-4.49386016553577e+000

1.14716419841265e+005,-2.79818841107378e+001,-4.55636081016903e+000

1.16317801385624e+005,-2.79822855929756e+001,-4.61972458097104e+000

1.17941537383287e+005,-2.79826980065360e+001,-4.68396316166183e+000

1.19587939890794e+005,-2.79831216398462e+001,-4.74908838567065e+000

1.21257325320831e+005,-2.79835567884783e+001,-4.81511223779159e+000

1.22950014503040e+005,-2.79840037553041e+001,-4.88204685585208e+000

1.24666332745679e+005,-2.79844628506522e+001,-4.94990453239409e+000

1.26406609898139e+005,-2.79849343924676e+001,-5.01869771636867e+000

1.28171180414339e+005,-2.79854187064743e+001,-5.08843901484343e+000

1.29960383416997e+005,-2.79859161263392e+001,-5.15914119472411e+000

1.31774562762811e+005,-2.79864269938397e+001,-5.23081718448926e+000

1.33614067108538e+005,-2.79869516590323e+001,-5.30348007594012e+000

1.35479249978003e+005,-2.79874904804255e+001,-5.37714312596310e+000

1.37370469830040e+005,-2.79880438251534e+001,-5.45181975830920e+000

1.39288090127379e+005,-2.79886120691525e+001,-5.52752356538702e+000

1.41232479406504e+005,-2.79891955973415e+001,-5.60426831007212e+000

1.43204011348474e+005,-2.79897948038026e+001,-5.68206792753227e+000

1.45203064850745e+005,-2.79904100919660e+001,-5.76093652706897e+000

1.47230024099979e+005,-2.79910418747969e+001,-5.84088839397625e+000

1.49285278645888e+005,-2.79916905749844e+001,-5.92193799141752e+000

1.51369223476094e+005,-2.79923566251339e+001,-6.00409996231976e+000

1.53482259092041e+005,-2.79930404679615e+001,-6.08738913128794e+000

1.55624791585964e+005,-2.79937425564915e+001,-6.17182050653704e+000

1.57797232718936e+005,-2.79944633542558e+001,-6.25740928184693e+000

1.59999999999999e+005,-2.79952033354967e+001,-6.34417083853638e+000

1.62233516766403e+005,-2.79959629853729e+001,-6.43212074746005e+000

1.64498212264969e+005,-2.79967428001669e+001,-6.52127477102794e+000

1.66794521734578e+005,-2.79975432874967e+001,-6.61164886524933e+000

1.69122886489819e+005,-2.79983649665299e+001,-6.70325918180049e+000

1.71483754005805e+005,-2.79992083682009e+001,-6.79612207011882e+000

1.73877578004168e+005,-2.80000740354312e+001,-6.89025407952423e+000

1.76304818540256e+005,-2.80009625233535e+001,-6.98567196136776e+000

1.78765942091554e+005,-2.80018743995383e+001,-7.08239267120949e+000

1.81261421647326e+005,-2.80028102442248e+001,-7.18043337102756e+000

1.83791736799524e+005,-2.80037706505556e+001,-7.27981143145808e+000

1.86357373834951e+005,-2.80047562248141e+001,-7.38054443406831e+000

1.88958825828723e+005,-2.80057675866677e+001,-7.48265017366375e+000

1.91596592739027e+005,-2.80068053694134e+001,-7.58614666063120e+000

1.94271181503206e+005,-2.80078702202294e+001,-7.69105212331869e+000

1.96983106135185e+005,-2.80089628004304e+001,-7.79738501045338e+000

1.99732887824256e+005,-2.80100837857283e+001,-7.90516399359967e+000

2.02521055035243e+005,-2.80112338664985e+001,-8.01440796965814e+000

2.05348143610063e+005,-2.80124137480502e+001,-8.12513606340768e+000

2.08214696870707e+005,-2.80136241509049e+001,-8.23736763009071e+000

2.11121265723661e+005,-2.80148658110793e+001,-8.35112225804452e+000

2.14068408765776e+005,-2.80161394803754e+001,-8.46641977137891e+000

2.17056692391625e+005,-2.80174459266779e+001,-8.58328023270295e+000

2.20086690902357e+005,-2.80187859342590e+001,-8.70172394589892e+000

2.23158986616063e+005,-2.80201603040906e+001,-8.82177145894991e+000

2.26274169979693e+005,-2.80215698541656e+001,-8.94344356681613e+000

2.29432839682530e+005,-2.80230154198279e+001,-9.06676131436666e+000

2.32635602771247e+005,-2.80244978541122e+001,-9.19174599936326e+000

2.35883074766574e+005,-2.80260180280930e+001,-9.31841917549941e+000

2.39175879781588e+005,-2.80275768312460e+001,-9.44680265549481e+000

2.42514650641661e+005,-2.80291751718194e+001,-9.57691851424578e+000

2.45900029006080e+005,-2.80308139772183e+001,-9.70878909203178e+000

2.49332665491357e+005,-2.80324941944013e+001,-9.84243699777866e+000

2.52813219796278e+005,-2.80342167902913e+001,-9.97788511237822e+000

2.56342360828676e+005,-2.80359827522002e+001,-1.01151565920637e+001

2.59920766833993e+005,-2.80377930882694e+001,-1.02542748718423e+001

2.63549125525621e+005,-2.80396488279259e+001,-1.03952636689808e+001

2.67228134217075e+005,-2.80415510223554e+001,-1.05381469865470e+001

2.70958499956006e+005,-2.80435007449938e+001,-1.06829491170018e+001

2.74740939660078e+005,-2.80454990920373e+001,-1.08296946458438e+001

2.78576180254757e+005,-2.80475471829717e+001,-1.09784084553022e+001

2.82464958813007e+005,-2.80496461611235e+001,-1.11291157280747e+001

2.86408022696948e+005,-2.80517971942322e+001,-1.12818419511106e+001

2.90406129701488e+005,-2.80540014750454e+001,-1.14366129194332e+001

2.94460048199957e+005,-2.80562602219381e+001,-1.15934547399983e+001

2.98570557291775e+005,-2.80585746795565e+001,-1.17523938355855e+001

3.02738446952187e+005,-2.80609461194883e+001,-1.19134569487163e+001

3.06964518184081e+005,-2.80633758409593e+001,-1.20766711455952e+001

3.11249583171928e+005,-2.80658651715585e+001,-1.22420638200667e+001

3.15594465437872e+005,-2.80684154679926e+001,-1.24096626975829e+001

3.19999999999997e+005,-2.80710281168697e+001,-1.25794958391749e+001

3.24467033532806e+005,-2.80737045355151e+001,-1.27515916454194e+001

3.28996424529938e+005,-2.80764461728186e+001,-1.29259788603950e+001

3.33589043469155e+005,-2.80792545101153e+001,-1.31026865756168e+001

3.38245772979638e+005,-2.80821310621001e+001,-1.32817442339426e+001

3.42967508011610e+005,-2.80850773777773e+001,-1.34631816334402e+001

3.47755156008335e+005,-2.80880950414457e+001,-1.36470289312047e+001

3.52609637080511e+005,-2.80911856737203e+001,-1.38333166471168e+001

3.57531884183106e+005,-2.80943509325916e+001,-1.40220756675298e+001

3.62522843294651e+005,-2.80975925145219e+001,-1.42133372488727e+001

3.67583473599047e+005,-2.81009121555810e+001,-1.44071330211587e+001

3.72714747669902e+005,-2.81043116326203e+001,-1.46034949913847e+001

3.77917651657445e+005,-2.81077927644862e+001,-1.48024555468091e+001

3.83193185478053e+005,-2.81113574132737e+001,-1.50040474580939e+001

3.88542363006410e+005,-2.81150074856190e+001,-1.52083038822966e+001

3.93966212270369e+005,-2.81187449340335e+001,-1.54152583656979e+001

3.99465775648511e+005,-2.81225717582761e+001,-1.56249448464483e+001

4.05042110070485e+005,-2.81264900067670e+001,-1.58373976570206e+001

4.10696287220124e+005,-2.81305017780400e+001,-1.60526515264510e+001

4.16429393741414e+005,-2.81346092222350e+001,-1.62707415823525e+001

4.22242531447321e+005,-2.81388145426289e+001,-1.64917033526860e+001

4.28136817531551e+005,-2.81431199972049e+001,-1.67155727672716e+001

4.34113384783250e+005,-2.81475279002591e+001,-1.69423861590226e+001

4.40173381804713e+005,-2.81520406240442e+001,-1.71721802648886e+001

4.46317973232124e+005,-2.81566606004483e+001,-1.74049922264889e+001

4.52548339959385e+005,-2.81613903227086e+001,-1.76408595904190e+001

4.58865679365059e+005,-2.81662323471582e+001,-1.78798203082167e+001

4.65271205542494e+005,-2.81711892950041e+001,-1.81219127359682e+001

4.71766149533147e+005,-2.81762638541365e+001,-1.83671756335409e+001

4.78351759563174e+005,-2.81814587809650e+001,-1.86156481634248e+001

4.85029301283321e+005,-2.81867769022832e+001,-1.88673698891687e+001

4.91800058012158e+005,-2.81922211171563e+001,-1.91223807733942e+001

4.98665330982714e+005,-2.81977943988321e+001,-1.93807211753748e+001

5.05626439592555e+005,-2.82034997966724e+001,-1.96424318481637e+001

5.12684721657352e+005,-2.82093404381012e+001,-1.99075539352569e+001

5.19841533667984e+005,-2.82153195305698e+001,-2.01761289667797e+001

5.27098251051240e+005,-2.82214403635332e+001,-2.04481988551816e+001

5.34456268434150e+005,-2.82277063104376e+001,-2.07238058904278e+001

5.41916999912011e+005,-2.82341208307144e+001,-2.10029927346773e+001

