Freq.,VOut,OutRef

1.00000000000000e+004,-1.53232508012112e+001,-1.30924029342264e-001

1.01395947979003e+004,-1.53232511757594e+001,-1.32751622286763e-001

1.02811382665607e+004,-1.53232515608314e+001,-1.34604725847463e-001

1.04246576084112e+004,-1.53232519567226e+001,-1.36483696070993e-001

1.05701804056138e+004,-1.53232523637368e+001,-1.38388893970202e-001

1.07177346253629e+004,-1.53232527821862e+001,-1.40320685595394e-001

1.08673486252606e+004,-1.53232532123918e+001,-1.42279442102921e-001

1.10190511587661e+004,-1.53232536546841e+001,-1.44265539824564e-001

1.11728713807222e+004,-1.53232541094020e+001,-1.46279360347158e-001

1.13288388529580e+004,-1.53232545768946e+001,-1.48321290576290e-001

1.14869835499703e+004,-1.53232550575203e+001,-1.50391722816620e-001

1.16473358646846e+004,-1.53232555516479e+001,-1.52491054845255e-001

1.18099266142953e+004,-1.53232560596564e+001,-1.54619689986859e-001

1.19747870461893e+004,-1.53232565819354e+001,-1.56778037194433e-001

1.21419488439505e+004,-1.53232571188853e+001,-1.58966511123184e-001

1.23114441334492e+004,-1.53232576709180e+001,-1.61185532211813e-001

1.24833054890161e+004,-1.53232582384568e+001,-1.63435526765493e-001

1.26575659397028e+004,-1.53232588219368e+001,-1.65716927032331e-001

1.28342589756290e+004,-1.53232594218054e+001,-1.68030171292694e-001

1.30134185544193e+004,-1.53232600385224e+001,-1.70375703936670e-001

1.31950791077289e+004,-1.53232606725608e+001,-1.72753975552420e-001

1.33792755478611e+004,-1.53232613244063e+001,-1.75165443015097e-001

1.35660432744767e+004,-1.53232619945585e+001,-1.77610569568359e-001

1.37554181813974e+004,-1.53232626835311e+001,-1.80089824916614e-001

1.39474366635040e+004,-1.53232633918520e+001,-1.82603685314927e-001

1.41421356237309e+004,-1.53232641200642e+001,-1.85152633658720e-001

1.43395524801583e+004,-1.53232648687253e+001,-1.87737159578930e-001

1.45397251732031e+004,-1.53232656384090e+001,-1.90357759532519e-001

1.47426921729110e+004,-1.53232664297047e+001,-1.93014936899480e-001

1.49484924863494e+004,-1.53232672432189e+001,-1.95709202076234e-001

1.51571656651040e+004,-1.53232680795742e+001,-1.98441072579304e-001

1.53687518128801e+004,-1.53232689394113e+001,-2.01211073137102e-001

1.55832915932100e+004,-1.53232698233887e+001,-2.04019735794747e-001

1.58008262372675e+004,-1.53232707321829e+001,-2.06867600016389e-001

1.60213975517924e+004,-1.53232716664897e+001,-2.09755212783971e-001

1.62450479271247e+004,-1.53232726270242e+001,-2.12683128706055e-001

1.64718203453514e+004,-1.53232736145215e+001,-2.15651910121852e-001

1.67017583885674e+004,-1.53232746297374e+001,-2.18662127208383e-001

1.69349062472505e+004,-1.53232756734487e+001,-2.21714358090919e-001

1.71713087287550e+004,-1.53232767464539e+001,-2.24809188951474e-001

1.74110112659224e+004,-1.53232778495737e+001,-2.27947214143484e-001

1.76540599258131e+004,-1.53232789836516e+001,-2.31129036303442e-001

1.79005014185594e+004,-1.53232801495553e+001,-2.34355266463198e-001

1.81503831063432e+004,-1.53232813481759e+001,-2.37626524173994e-001

1.84037530124975e+004,-1.53232825804298e+001,-2.40943437617423e-001

1.86606598307361e+004,-1.53232838472588e+001,-2.44306643729532e-001

1.89211529345119e+004,-1.53232851496312e+001,-2.47716788319172e-001

1.91852823865052e+004,-1.53232864885423e+001,-2.51174526194066e-001

1.94530989482457e+004,-1.53232878650147e+001,-2.54680521285835e-001

1.97246540898671e+004,-1.53232892801000e+001,-2.58235446773731e-001

1.99999999999999e+004,-1.53232907348788e+001,-2.61839985214846e-001

2.02791895958005e+004,-1.53232922304620e+001,-2.65494828674107e-001

2.05622765331213e+004,-1.53232937679914e+001,-2.69200678855136e-001

2.08493152168224e+004,-1.53232953486405e+001,-2.72958247236340e-001

2.11403608112276e+004,-1.53232969736155e+001,-2.76768255203789e-001

2.14354692507258e+004,-1.53232986441563e+001,-2.80631434188793e-001

2.17346972505211e+004,-1.53233003615370e+001,-2.84548525809720e-001

2.20381023175322e+004,-1.53233021270675e+001,-2.88520282009071e-001

2.23457427614443e+004,-1.53233039420940e+001,-2.92547465200280e-001

2.26576777059159e+004,-1.53233058079998e+001,-2.96630848410937e-001

2.29739670999406e+004,-1.53233077262070e+001,-3.00771215430385e-001

2.32946717293690e+004,-1.53233096981772e+001,-3.04969360955635e-001

2.36198532285905e+004,-1.53233117254125e+001,-3.09226090748539e-001

2.39495740923785e+004,-1.53233138094566e+001,-3.13542221783462e-001

2.42838976879009e+004,-1.53233159518962e+001,-3.17918582404130e-001

2.46228882668982e+004,-1.53233181543618e+001,-3.22356012482678e-001

2.49666109780322e+004,-1.53233204185294e+001,-3.26855363574752e-001

2.53151318794055e+004,-1.53233227461213e+001,-3.31417499085677e-001

2.56685179512580e+004,-1.53233251389074e+001,-3.36043294431736e-001

2.60268371088386e+004,-1.53233275987067e+001,-3.40733637206586e-001

2.63901582154578e+004,-1.53233301273888e+001,-3.45489427348470e-001

2.67585510957221e+004,-1.53233327268749e+001,-3.50311577312087e-001

2.71320865489533e+004,-1.53233353991388e+001,-3.55201012242722e-001

2.75108363627948e+004,-1.53233381462098e+001,-3.60158670146631e-001

2.78948733270080e+004,-1.53233409701726e+001,-3.65185502072725e-001

2.82842712474618e+004,-1.53233438731697e+001,-3.70282472291781e-001

2.86791049603164e+004,-1.53233468574028e+001,-3.75450558476681e-001

2.90794503464061e+004,-1.53233499251342e+001,-3.80690751888720e-001

2.94853843458219e+004,-1.53233530786886e+001,-3.86004057565504e-001

2.98969849726987e+004,-1.53233563204550e+001,-3.91391494508575e-001

3.03143313302078e+004,-1.53233596528878e+001,-3.96854095877156e-001

3.07375036257601e+004,-1.53233630785095e+001,-4.02392909182359e-001

3.11665831864199e+004,-1.53233665999114e+001,-4.08008996485629e-001

3.16016524745350e+004,-1.53233702197566e+001,-4.13703434596359e-001

3.20427951035848e+004,-1.53233739407810e+001,-4.19477315277662e-001

3.24900958542493e+004,-1.53233777657959e+001,-4.25331745450037e-001

3.29436406907028e+004,-1.53233816976895e+001,-4.31267847399615e-001

3.34035167771346e+004,-1.53233857394294e+001,-4.37286758989441e-001

3.38698124945009e+004,-1.53233898940644e+001,-4.43389633873599e-001

3.43426174575100e+004,-1.53233941647268e+001,-4.49577641712594e-001

3.48220225318448e+004,-1.53233985546347e+001,-4.55851968393934e-001

3.53081198516260e+004,-1.53234030670942e+001,-4.62213816253226e-001

3.58010028371187e+004,-1.53234077055015e+001,-4.68664404301647e-001

3.63007662126863e+004,-1.53234124733459e+001,-4.75204968450928e-001

3.68075060249948e+004,-1.53234173742115e+001,-4.81836761748019e-001

3.73213196614721e+004,-1.53234224117804e+001,-4.88561054605835e-001

3.78423058690237e+004,-1.53234275898347e+001,-4.95379135044748e-001

3.83705647730104e+004,-1.53234329122594e+001,-5.02292308928475e-001

3.89061978964912e+004,-1.53234383830453e+001,-5.09301900211757e-001

3.94493081797342e+004,-1.53234440062914e+001,-5.16409251184120e-001

3.99999999999998e+004,-1.53234497862080e+001,-5.23615722721079e-001

4.05583791916010e+004,-1.53234557271193e+001,-5.30922694537742e-001

4.11245530662425e+004,-1.53234618334666e+001,-5.38331565444819e-001

4.16986304336447e+004,-1.53234681098115e+001,-5.45843753608488e-001

4.22807216224550e+004,-1.53234745608387e+001,-5.53460696813472e-001

4.28709385014515e+004,-1.53234811913589e+001,-5.61183852730121e-001

4.34693945010421e+004,-1.53234880063132e+001,-5.69014699183196e-001

4.40762046350642e+004,-1.53234950107750e+001,-5.76954734427859e-001

4.46914855228886e+004,-1.53235022099545e+001,-5.85005477422840e-001

4.53153554118317e+004,-1.53235096092013e+001,-5.93168468116000e-001

4.59479341998812e+004,-1.53235172140091e+001,-6.01445267722829e-001

4.65893434587380e+004,-1.53235250300181e+001,-6.09837459019071e-001

4.72397064571810e+004,-1.53235330630196e+001,-6.18346646629720e-001

4.78991481847569e+004,-1.53235413189594e+001,-6.26974457323446e-001

4.85677953758016e+004,-1.53235498039418e+001,-6.35722540313967e-001

4.92457765337964e+004,-1.53235585242336e+001,-6.44592567560185e-001

4.99332219560642e+004,-1.53235674862682e+001,-6.53586234073702e-001

5.06302637588109e+004,-1.53235766966496e+001,-6.62705258229322e-001

5.13370359025159e+004,-1.53235861621566e+001,-6.71951382079357e-001

5.20536742176771e+004,-1.53235958897477e+001,-6.81326371669296e-001

5.27803164309155e+004,-1.53236058865646e+001,-6.90832017363429e-001

5.35171021914442e+004,-1.53236161599374e+001,-7.00470134169491e-001

5.42641730979066e+004,-1.53236267173888e+001,-7.10242562067151e-001

5.50216727255895e+004,-1.53236375666391e+001,-7.20151166343955e-001

5.57897466540159e+004,-1.53236487156107e+001,-7.30197837933791e-001

5.65685424949235e+004,-1.53236601724333e+001,-7.40384493757803e-001

5.73582099206328e+004,-1.53236719454485e+001,-7.50713077071941e-001

5.81589006928121e+004,-1.53236840432150e+001,-7.61185557819109e-001

5.89707686916437e+004,-1.53236964745138e+001,-7.71803932981678e-001

5.97939699453972e+004,-1.53237092483536e+001,-7.82570226942423e-001

6.06286626604156e+004,-1.53237223739756e+001,-7.93486491848525e-001

6.14750072515201e+004,-1.53237358608596e+001,-8.04554807979720e-001

6.23331663728396e+004,-1.53237497187290e+001,-8.15777284120181e-001

6.32033049490698e+004,-1.53237639575569e+001,-8.27156057936093e-001

6.40855902071694e+004,-1.53237785875714e+001,-8.38693296357631e-001

6.49801917084985e+004,-1.53237936192615e+001,-8.50391195964719e-001

6.58872813814055e+004,-1.53238090633829e+001,-8.62251983378431e-001

6.68070335542691e+004,-1.53238249309648e+001,-8.74277915654171e-001

6.77396249890018e+004,-1.53238412333144e+001,-8.86471280685709e-001

6.86852349150199e+004,-1.53238579820247e+001,-8.98834397605919e-001

6.96440450636895e+004,-1.53238751889796e+001,-9.11369617199008e-001

7.06162397032520e+004,-1.53238928663609e+001,-9.24079322314071e-001

7.16020056742374e+004,-1.53239110266543e+001,-9.36965928282593e-001

7.26015324253724e+004,-1.53239296826559e+001,-9.50031883346523e-001

7.36150120499896e+004,-1.53239488474795e+001,-9.63279669082060e-001

7.46426393229441e+004,-1.53239685345619e+001,-9.76711800838480e-001

7.56846117380472e+004,-1.53239887576709e+001,-9.90330828173026e-001

7.67411295460207e+004,-1.53240095309114e+001,-1.00413933529817e+000

7.78123957929823e+004,-1.53240308687321e+001,-1.01813994152828e+000

7.88986163594682e+004,-1.53240527859332e+001,-1.03233530173478e+000

7.99999999999995e+004,-1.53240752976722e+001,-1.04672810680594e+000

8.11167583832018e+004,-1.53240984194721e+001,-1.06132108411055e+000

8.22491061324848e+004,-1.53241221672275e+001,-1.07611699796810e+000

8.33972608672892e+004,-1.53241465572119e+001,-1.09111865012514e+000

8.45614432449099e+004,-1.53241716060853e+001,-1.10632888023399e+000

8.57418770029029e+004,-1.53241973309007e+001,-1.12175056633986e+000

8.69387890020841e+004,-1.53242237491115e+001,-1.13738662537271e+000

8.81524092701283e+004,-1.53242508785788e+001,-1.15324001364269e+000

8.93829710457770e+004,-1.53242787375782e+001,-1.16931372734476e+000

9.06307108236633e+004,-1.53243073448072e+001,-1.18561080306490e+000

9.18958683997622e+004,-1.53243367193922e+001,-1.20213431829609e+000

9.31786869174758e+004,-1.53243668808958e+001,-1.21888739195666e+000

9.44794129143618e+004,-1.53243978493236e+001,-1.23587318491606e+000

9.57982963695136e+004,-1.53244296451311e+001,-1.25309490052692e+000

9.71355907516031e+004,-1.53244622892310e+001,-1.27055578516235e+000

9.84915530675926e+004,-1.53244958029999e+001,-1.28825912875781e+000

9.98664439121282e+004,-1.53245302082850e+001,-1.30620826536356e+000

1.01260527517622e+005,-1.53245655274107e+001,-1.32440657369842e+000

1.02674071805032e+005,-1.53246017831856e+001,-1.34285747771176e+000

1.04107348435354e+005,-1.53246389989082e+001,-1.36156444715347e+000

1.05560632861831e+005,-1.53246771983738e+001,-1.38053099814772e+000

1.07034204382888e+005,-1.53247164058801e+001,-1.39976069377456e+000

1.08528346195813e+005,-1.53247566462336e+001,-1.41925714465843e+000

1.10043345451179e+005,-1.53247979447549e+001,-1.43902400956335e+000

1.11579493308032e+005,-1.53248403272844e+001,-1.45906499599363e+000

1.13137084989847e+005,-1.53248838201877e+001,-1.47938386080413e+000

1.14716419841265e+005,-1.53249284503601e+001,-1.49998441081533e+000

1.16317801385624e+005,-1.53249742452316e+001,-1.52087050343773e+000

1.17941537383287e+005,-1.53250212327715e+001,-1.54204604730131e+000

1.19587939890794e+005,-1.53250694414922e+001,-1.56351500289462e+000

1.21257325320831e+005,-1.53251189004528e+001,-1.58528138321087e+000

1.22950014503040e+005,-1.53251696392626e+001,-1.60734925440230e+000

1.24666332745679e+005,-1.53252216880843e+001,-1.62972273644138e+000

1.26406609898139e+005,-1.53252750776358e+001,-1.65240600379245e+000

1.28171180414339e+005,-1.53253298391928e+001,-1.67540328608977e+000

1.29960383416997e+005,-1.53253860045904e+001,-1.69871886882628e+000

1.31774562762811e+005,-1.53254436062238e+001,-1.72235709404902e+000

1.33614067108538e+005,-1.53255026770487e+001,-1.74632236106651e+000

1.35479249978003e+005,-1.53255632505820e+001,-1.77061912716227e+000

1.37370469830040e+005,-1.53256253609002e+001,-1.79525190832253e+000

1.39288090127379e+005,-1.53256890426387e+001,-1.82022527996882e+000

1.41232479406504e+005,-1.53257543309897e+001,-1.84554387770495e+000

1.43204011348474e+005,-1.53258212616995e+001,-1.87121239807285e+000

1.45203064850745e+005,-1.53258898710650e+001,-1.89723559932040e+000

1.47230024099979e+005,-1.53259601959301e+001,-1.92361830217846e+000

1.49285278645888e+005,-1.53260322736802e+001,-1.95036539065246e+000

1.51369223476094e+005,-1.53261061422369e+001,-1.97748181282429e+000

1.53482259092041e+005,-1.53261818400512e+001,-2.00497258166796e+000

1.55624791585964e+005,-1.53262594060965e+001,-2.03284277587632e+000

1.57797232718936e+005,-1.53263388798599e+001,-2.06109754070348e+000

1.59999999999999e+005,-1.53264203013329e+001,-2.08974208882045e+000

1.62233516766403e+005,-1.53265037110018e+001,-2.11878170118369e+000

1.64498212264969e+005,-1.53265891498359e+001,-2.14822172792079e+000

1.66794521734578e+005,-1.53266766592759e+001,-2.17806758923112e+000

1.69122886489819e+005,-1.53267662812202e+001,-2.20832477630129e+000

1.71483754005805e+005,-1.53268580580112e+001,-2.23899885223880e+000

1.73877578004168e+005,-1.53269520324197e+001,-2.27009545302286e+000

1.76304818540256e+005,-1.53270482476288e+001,-2.30162028847174e+000

1.78765942091554e+005,-1.53271467472161e+001,-2.33357914323148e+000

1.81261421647326e+005,-1.53272475751360e+001,-2.36597787778013e+000

1.83791736799524e+005,-1.53273507756989e+001,-2.39882242945680e+000

1.86357373834951e+005,-1.53274563935516e+001,-2.43211881350684e+000

1.88958825828723e+005,-1.53275644736547e+001,-2.46587312415259e+000

1.91596592739027e+005,-1.53276750612603e+001,-2.50009153568312e+000

1.94271181503206e+005,-1.53277882018876e+001,-2.53478030357008e+000

1.96983106135185e+005,-1.53279039412978e+001,-2.56994576560640e+000

1.99732887824256e+005,-1.53280223254684e+001,-2.60559434306889e+000

2.02521055035243e+005,-1.53281434005656e+001,-2.64173254190876e+000

2.05348143610063e+005,-1.53282672129165e+001,-2.67836695396705e+000

2.08214696870707e+005,-1.53283938089796e+001,-2.71550425821922e+000

2.11121265723661e+005,-1.53285232353155e+001,-2.75315122204716e+000

2.14068408765776e+005,-1.53286555385553e+001,-2.79131470254084e+000

2.17056692391625e+005,-1.53287907653693e+001,-2.83000164783143e+000

2.20086690902357e+005,-1.53289289624349e+001,-2.86921909845469e+000

2.23158986616063e+005,-1.53290701764028e+001,-2.90897418874732e+000

2.26274169979693e+005,-1.53292144538642e+001,-2.94927414827727e+000

2.29432839682530e+005,-1.53293618413162e+001,-2.99012630330714e+000

2.32635602771247e+005,-1.53295123851276e+001,-3.03153807829359e+000

2.35883074766574e+005,-1.53296661315036e+001,-3.07351699742450e+000

2.39175879781588e+005,-1.53298231264518e+001,-3.11607068619029e+000

2.42514650641661e+005,-1.53299834157465e+001,-3.15920687299573e+000

2.45900029006080e+005,-1.53301470448940e+001,-3.20293339081117e+000

2.49332665491357e+005,-1.53303140590985e+001,-3.24725817886181e+000

2.52813219796278e+005,-1.53304845032273e+001,-3.29218928435941e+000

2.56342360828676e+005,-1.53306584217775e+001,-3.33773486427556e+000

2.59920766833993e+005,-1.53308358588432e+001,-3.38390318715642e+000

2.63549125525621e+005,-1.53310168580835e+001,-3.43070263498235e+000

2.67228134217075e+005,-1.53312014626918e+001,-3.47814170506979e+000

2.70958499956006e+005,-1.53313897153659e+001,-3.52622901201920e+000

2.74740939660078e+005,-1.53315816582810e+001,-3.57497328970642e+000

2.78576180254757e+005,-1.53317773330625e+001,-3.62438339332191e+000

2.82464958813007e+005,-1.53319767807625e+001,-3.67446830145458e+000

2.86408022696948e+005,-1.53321800418374e+001,-3.72523711822201e+000

2.90406129701488e+005,-1.53323871561286e+001,-3.77669907544867e+000

2.94460048199957e+005,-1.53325981628457e+001,-3.82886353489046e+000

2.98570557291775e+005,-1.53328131005522e+001,-3.88173999050599e+000

3.02738446952187e+005,-1.53330320071554e+001,-3.93533807077563e+000

3.06964518184081e+005,-1.53332549198985e+001,-3.98966754106710e+000

3.11249583171928e+005,-1.53334818753576e+001,-4.04473830604929e+000

3.15594465437872e+005,-1.53337129094414e+001,-4.10056041215082e+000

3.19999999999997e+005,-1.53339480573969e+001,-4.15714405006585e+000

3.24467033532806e+005,-1.53341873538173e+001,-4.21449955730618e+000

3.28996424529938e+005,-1.53344308326569e+001,-4.27263742079731e+000

3.33589043469155e+005,-1.53346785272490e+001,-4.33156827951937e+000

3.38245772979638e+005,-1.53349304703308e+001,-4.39130292719296e+000

3.42967508011610e+005,-1.53351866940723e+001,-4.45185231500489e+000

3.47755156008335e+005,-1.53354472301118e+001,-4.51322755437866e+000

3.52609637080511e+005,-1.53357121095971e+001,-4.57543991978298e+000

3.57531884183106e+005,-1.53359813632324e+001,-4.63850085158092e+000

3.62522843294651e+005,-1.53362550213324e+001,-4.70242195891660e+000

3.67583473599047e+005,-1.53365331138819e+001,-4.76721502263772e+000

3.72714747669902e+005,-1.53368156706029e+001,-4.83289199825416e+000

3.77917651657445e+005,-1.53371027210280e+001,-4.89946501892823e+000

3.83193185478053e+005,-1.53373942945811e+001,-4.96694639849828e+000

3.88542363006410e+005,-1.53376904206649e+001,-5.03534863453049e+000

3.93966212270369e+005,-1.53379911287556e+001,-5.10468441139964e+000

3.99465775648511e+005,-1.53382964485054e+001,-5.17496660339551e+000

4.05042110070485e+005,-1.53386064098513e+001,-5.24620827785346e+000

4.10696287220124e+005,-1.53389210431320e+001,-5.31842269830763e+000

4.16429393741414e+005,-1.53392403792120e+001,-5.39162332766397e+000

4.22242531447321e+005,-1.53395644496126e+001,-5.46582383139154e+000

4.28136817531551e+005,-1.53398932866512e+001,-5.54103808073043e+000

4.34113384783250e+005,-1.53402269235863e+001,-5.61728015591386e+000

4.40173381804713e+005,-1.53405653947709e+001,-5.69456434940337e+000

4.46317973232124e+005,-1.53409087358126e+001,-5.77290516913348e+000

4.52548339959385e+005,-1.53412569837403e+001,-5.85231734176633e+000

4.58865679365059e+005,-1.53416101771776e+001,-5.93281581595324e+000

4.65271205542494e+005,-1.53419683565235e+001,-6.01441576560097e+000

4.71766149533147e+005,-1.53423315641383e+001,-6.09713259314333e+000

4.78351759563174e+005,-1.53426998445368e+001,-6.18098193281366e+000

4.85029301283321e+005,-1.53430732445865e+001,-6.26597965392034e+000

4.91800058012158e+005,-1.53434518137119e+001,-6.35214186412081e+000

4.98665330982714e+005,-1.53438356041040e+001,-6.43948491269585e+000

5.05626439592555e+005,-1.53442246709352e+001,-6.52802539382081e+000

5.12684721657352e+005,-1.53446190725781e+001,-6.61778014983562e+000

5.19841533667984e+005,-1.53450188708303e+001,-6.70876627451036e+000

5.27098251051240e+005,-1.53454241311418e+001,-6.80100111630848e+000

5.34456268434150e+005,-1.53458349228472e+001,-6.89450228164538e+000

5.41916999912011e+005,-1.53462513194011e+001,-6.98928763814428e+000

