Freq.,VOut,OutRef

1.00000000000000e+004,-2.57835211562114e+001,-2.02364577534396e-001

1.01395947979003e+004,-2.57835223034805e+001,-2.05189397182928e-001

1.02811382665607e+004,-2.57835234829904e+001,-2.08053646253939e-001

1.04246576084112e+004,-2.57835246956469e+001,-2.10957875008771e-001

1.05701804056138e+004,-2.57835259423808e+001,-2.13902641385681e-001

1.07177346253629e+004,-2.57835272241494e+001,-2.16888511102629e-001

1.08673486252606e+004,-2.57835285419368e+001,-2.19916057768452e-001

1.10190511587661e+004,-2.57835298967546e+001,-2.22985862991291e-001

1.11728713807222e+004,-2.57835312896431e+001,-2.26098516491050e-001

1.13288388529580e+004,-2.57835327216713e+001,-2.29254616212435e-001

1.14869835499703e+004,-2.57835341939386e+001,-2.32454768438170e-001

1.16473358646846e+004,-2.57835357075750e+001,-2.35699587905747e-001

1.18099266142953e+004,-2.57835372637422e+001,-2.38989697926400e-001

1.19747870461893e+004,-2.57835388636349e+001,-2.42325730499643e-001

1.21419488439505e+004,-2.57835405084806e+001,-2.45708326442525e-001

1.23114441334492e+004,-2.57835421995419e+001,-2.49138135503227e-001

1.24833054890161e+004,-2.57835439381165e+001,-2.52615816490658e-001

1.26575659397028e+004,-2.57835457255385e+001,-2.56142037400182e-001

1.28342589756290e+004,-2.57835475631794e+001,-2.59717475539918e-001

1.30134185544193e+004,-2.57835494524493e+001,-2.63342817660829e-001

1.31950791077289e+004,-2.57835513947975e+001,-2.67018760087836e-001

1.33792755478611e+004,-2.57835533917146e+001,-2.70746008853054e-001

1.35660432744767e+004,-2.57835554447321e+001,-2.74525279831374e-001

1.37554181813974e+004,-2.57835575554252e+001,-2.78357298876303e-001

1.39474366635040e+004,-2.57835597254129e+001,-2.82242801958855e-001

1.41421356237309e+004,-2.57835619563595e+001,-2.86182535308832e-001

1.43395524801583e+004,-2.57835642499763e+001,-2.90177255556781e-001

1.45397251732031e+004,-2.57835666080222e+001,-2.94227729877949e-001

1.47426921729110e+004,-2.57835690323054e+001,-2.98334736142007e-001

1.49484924863494e+004,-2.57835715246851e+001,-3.02499063055338e-001

1.51571656651040e+004,-2.57835740870722e+001,-3.06721510318240e-001

1.53687518128801e+004,-2.57835767214314e+001,-3.11002888772803e-001

1.55832915932100e+004,-2.57835794297824e+001,-3.15344020560347e-001

1.58008262372675e+004,-2.57835822142011e+001,-3.19745739277925e-001

1.60213975517924e+004,-2.57835850768222e+001,-3.24208890135151e-001

1.62450479271247e+004,-2.57835880198394e+001,-3.28734330118564e-001

1.64718203453514e+004,-2.57835910455086e+001,-3.33322928152100e-001

1.67017583885674e+004,-2.57835941561482e+001,-3.37975565265927e-001

1.69349062472505e+004,-2.57835973541420e+001,-3.42693134759149e-001

1.71713087287550e+004,-2.57836006419400e+001,-3.47476542377858e-001

1.74110112659224e+004,-2.57836040220614e+001,-3.52326706479189e-001

1.76540599258131e+004,-2.57836074970951e+001,-3.57244558212894e-001

1.79005014185594e+004,-2.57836110697033e+001,-3.62231041693599e-001

1.81503831063432e+004,-2.57836147426221e+001,-3.67287114184175e-001

1.84037530124975e+004,-2.57836185186640e+001,-3.72413746277723e-001

1.86606598307361e+004,-2.57836224007209e+001,-3.77611922077586e-001

1.89211529345119e+004,-2.57836263917647e+001,-3.82882639390832e-001

1.91852823865052e+004,-2.57836304948508e+001,-3.88226909914374e-001

1.94530989482457e+004,-2.57836347131202e+001,-3.93645759427052e-001

1.97246540898671e+004,-2.57836390498012e+001,-3.99140227986525e-001

1.99999999999999e+004,-2.57836435082127e+001,-4.04711370125429e-001

2.02791895958005e+004,-2.57836480917661e+001,-4.10360255051203e-001

2.05622765331213e+004,-2.57836528039683e+001,-4.16087966850359e-001

2.08493152168224e+004,-2.57836576484239e+001,-4.21895604693388e-001

2.11403608112276e+004,-2.57836626288383e+001,-4.27784283044104e-001

2.14354692507258e+004,-2.57836677490204e+001,-4.33755131869024e-001

2.17346972505211e+004,-2.57836730128853e+001,-4.39809296854131e-001

2.20381023175322e+004,-2.57836784244573e+001,-4.45947939620116e-001

2.23457427614443e+004,-2.57836839878732e+001,-4.52172237942918e-001

2.26576777059159e+004,-2.57836897073851e+001,-4.58483385976800e-001

2.29739670999406e+004,-2.57836955873634e+001,-4.64882594480602e-001

2.32946717293690e+004,-2.57837016323009e+001,-4.71371091045786e-001

2.36198532285905e+004,-2.57837078468153e+001,-4.77950120329499e-001

2.39495740923785e+004,-2.57837142356530e+001,-4.84620944289410e-001

2.42838976879009e+004,-2.57837208036927e+001,-4.91384842423510e-001

2.46228882668982e+004,-2.57837275559490e+001,-4.98243112008088e-001

2.49666109780322e+004,-2.57837344975762e+001,-5.05197068347012e-001

2.53151318794055e+004,-2.57837416338720e+001,-5.12248045016892e-001

2.56685179512580e+004,-2.57837489702816e+001,-5.19397394118511e-001

2.60268371088386e+004,-2.57837565124017e+001,-5.26646486534437e-001

2.63901582154578e+004,-2.57837642659848e+001,-5.33996712183175e-001

2.67585510957221e+004,-2.57837722369432e+001,-5.41449480284071e-001

2.71320865489533e+004,-2.57837804313537e+001,-5.49006219620784e-001

2.75108363627948e+004,-2.57837888554619e+001,-5.56668378810062e-001

2.78948733270080e+004,-2.57837975156868e+001,-5.64437426575265e-001

2.82842712474618e+004,-2.57838064186260e+001,-5.72314852020140e-001

2.86791049603164e+004,-2.57838155710601e+001,-5.80302164908666e-001

2.90794503464061e+004,-2.57838249799579e+001,-5.88400895949706e-001

2.94853843458219e+004,-2.57838346524814e+001,-5.96612597083264e-001

2.98969849726987e+004,-2.57838445959916e+001,-6.04938841769136e-001

3.03143313302078e+004,-2.57838548180531e+001,-6.13381225285041e-001

3.07375036257601e+004,-2.57838653264405e+001,-6.21941365021790e-001

3.11665831864199e+004,-2.57838761291438e+001,-6.30620900785840e-001

3.16016524745350e+004,-2.57838872343739e+001,-6.39421495108684e-001

3.20427951035848e+004,-2.57838986505692e+001,-6.48344833552880e-001

3.24900958542493e+004,-2.57839103864014e+001,-6.57392625028696e-001

3.29436406907028e+004,-2.57839224507823e+001,-6.66566602111712e-001

3.34035167771346e+004,-2.57839348528698e+001,-6.75868521366059e-001

3.38698124945009e+004,-2.57839476020748e+001,-6.85300163669300e-001

3.43426174575100e+004,-2.57839607080680e+001,-6.94863334545944e-001

3.48220225318448e+004,-2.57839741807873e+001,-7.04559864500301e-001

3.53081198516260e+004,-2.57839880304447e+001,-7.14391609356062e-001

3.58010028371187e+004,-2.57840022675332e+001,-7.24360450602852e-001

3.63007662126863e+004,-2.57840169028358e+001,-7.34468295740223e-001

3.68075060249948e+004,-2.57840319474317e+001,-7.44717078634246e-001

3.73213196614721e+004,-2.57840474127057e+001,-7.55108759871280e-001

3.78423058690237e+004,-2.57840633103552e+001,-7.65645327123114e-001

3.83705647730104e+004,-2.57840796523997e+001,-7.76328795510195e-001

3.89061978964912e+004,-2.57840964511884e+001,-7.87161207975380e-001

3.94493081797342e+004,-2.57841137194100e+001,-7.98144635657162e-001

3.99999999999998e+004,-2.57841314701010e+001,-8.09281178271246e-001

4.05583791916010e+004,-2.57841497166557e+001,-8.20572964496070e-001

4.11245530662425e+004,-2.57841684728351e+001,-8.32022152361229e-001

4.16986304336447e+004,-2.57841877527772e+001,-8.43630929644686e-001

4.22807216224550e+004,-2.57842075710066e+001,-8.55401514270231e-001

4.28709385014515e+004,-2.57842279424452e+001,-8.67336154713830e-001

4.34693945010421e+004,-2.57842488824223e+001,-8.79437130412464e-001

4.40762046350642e+004,-2.57842704066859e+001,-8.91706752179503e-001

4.46914855228886e+004,-2.57842925314132e+001,-9.04147362624485e-001

4.53153554118317e+004,-2.57843152732224e+001,-9.16761336576976e-001

4.59479341998812e+004,-2.57843386491841e+001,-9.29551081519524e-001

4.65893434587380e+004,-2.57843626768333e+001,-9.42519038020185e-001

4.72397064571810e+004,-2.57843873741813e+001,-9.55667680175494e-001

4.78991481847569e+004,-2.57844127597288e+001,-9.68999516054646e-001

4.85677953758016e+004,-2.57844388524778e+001,-9.82517088153344e-001

4.92457765337964e+004,-2.57844656719456e+001,-9.96222973848266e-001

4.99332219560642e+004,-2.57844932381775e+001,-1.01011978586098e+000

5.06302637588109e+004,-2.57845215717611e+001,-1.02421017272430e+000

5.13370359025159e+004,-2.57845506938399e+001,-1.03849681925732e+000

5.20536742176771e+004,-2.57845806261278e+001,-1.05298244704351e+000

5.27803164309155e+004,-2.57846113909240e+001,-1.06766981491560e+000

5.35171021914442e+004,-2.57846430111276e+001,-1.08256171944515e+000

5.42641730979066e+004,-2.57846755102536e+001,-1.09766099543876e+000

5.50216727255895e+004,-2.57847089124484e+001,-1.11297051644037e+000

5.57897466540159e+004,-2.57847432425056e+001,-1.12849319523818e+000

5.65685424949235e+004,-2.57847785258830e+001,-1.14423198437792e+000

5.73582099206328e+004,-2.57848147887191e+001,-1.16018987668243e+000

5.81589006928121e+004,-2.57848520578505e+001,-1.17636990577581e+000

5.89707686916437e+004,-2.57848903608293e+001,-1.19277514661583e+000

5.97939699453972e+004,-2.57849297259413e+001,-1.20940871602992e+000

6.06286626604156e+004,-2.57849701822245e+001,-1.22627377325769e+000

6.14750072515201e+004,-2.57850117594877e+001,-1.24337352050121e+000

6.23331663728396e+004,-2.57850544883293e+001,-1.26071120347938e+000

6.32033049490698e+004,-2.57850984001579e+001,-1.27829011198906e+000

6.40855902071694e+004,-2.57851435272112e+001,-1.29611358047285e+000

6.49801917084985e+004,-2.57851899025771e+001,-1.31418498859257e+000

6.58872813814055e+004,-2.57852375602146e+001,-1.33250776180808e+000

6.68070335542691e+004,-2.57852865349746e+001,-1.35108537196468e+000

6.77396249890018e+004,-2.57853368626219e+001,-1.36992133788473e+000

6.86852349150199e+004,-2.57853885798574e+001,-1.38901922596561e+000

6.96440450636895e+004,-2.57854417243404e+001,-1.40838265078564e+000

7.06162397032520e+004,-2.57854963347119e+001,-1.42801527571480e+000

7.16020056742374e+004,-2.57855524506179e+001,-1.44792081353194e+000

7.26015324253724e+004,-2.57856101127332e+001,-1.46810302705029e+000

7.36150120499896e+004,-2.57856693627861e+001,-1.48856572974608e+000

7.46426393229441e+004,-2.57857302435828e+001,-1.50931278639696e+000

7.56846117380472e+004,-2.57857927990328e+001,-1.53034811372462e+000

7.67411295460207e+004,-2.57858570741747e+001,-1.55167568104551e+000

7.78123957929823e+004,-2.57859231152020e+001,-1.57329951092670e+000

7.88986163594682e+004,-2.57859909694901e+001,-1.59522367984982e+000

7.99999999999995e+004,-2.57860606856232e+001,-1.61745231887993e+000

8.11167583832018e+004,-2.57861323134216e+001,-1.63998961434286e+000

8.22491061324848e+004,-2.57862059039700e+001,-1.66283980850717e+000

8.33972608672892e+004,-2.57862815096454e+001,-1.68600720027560e+000

8.45614432449099e+004,-2.57863591841463e+001,-1.70949614588010e+000

8.57418770029029e+004,-2.57864389825219e+001,-1.73331105958587e+000

8.69387890020841e+004,-2.57865209612014e+001,-1.75745641440135e+000

8.81524092701283e+004,-2.57866051780248e+001,-1.78193674279490e+000

8.93829710457770e+004,-2.57866916922730e+001,-1.80675663741916e+000

9.06307108236633e+004,-2.57867805646983e+001,-1.83192075184251e+000

9.18958683997622e+004,-2.57868718575568e+001,-1.85743380128433e+000

9.31786869174758e+004,-2.57869656346394e+001,-1.88330056336224e+000

9.44794129143618e+004,-2.57870619613037e+001,-1.90952587884361e+000

9.57982963695136e+004,-2.57871609045074e+001,-1.93611465240312e+000

9.71355907516031e+004,-2.57872625328403e+001,-1.96307185339062e+000

9.84915530675926e+004,-2.57873669165579e+001,-1.99040251660314e+000

9.98664439121282e+004,-2.57874741276149e+001,-2.01811174306669e+000

1.01260527517622e+005,-2.57875842396990e+001,-2.04620470082349e+000

1.02674071805032e+005,-2.57876973282652e+001,-2.07468662572893e+000

1.04107348435354e+005,-2.57878134705701e+001,-2.10356282225271e+000

1.05560632861831e+005,-2.57879327457065e+001,-2.13283866429230e+000

1.07034204382888e+005,-2.57880552346389e+001,-2.16251959598871e+000

1.08528346195813e+005,-2.57881810202380e+001,-2.19261113255541e+000

1.10043345451179e+005,-2.57883101873167e+001,-2.22311886111136e+000

1.11579493308032e+005,-2.57884428226653e+001,-2.25404844152473e+000

1.13137084989847e+005,-2.57885790150874e+001,-2.28540560726270e+000

1.14716419841265e+005,-2.57887188554358e+001,-2.31719616625237e+000

1.16317801385624e+005,-2.57888624366486e+001,-2.34942600174749e+000

1.17941537383287e+005,-2.57890098537848e+001,-2.38210107320607e+000

1.19587939890794e+005,-2.57891612040611e+001,-2.41522741717638e+000

1.21257325320831e+005,-2.57893165868875e+001,-2.44881114819153e+000

1.22950014503040e+005,-2.57894761039038e+001,-2.48285845967460e+000

1.24666332745679e+005,-2.57896398590153e+001,-2.51737562485369e+000

1.26406609898139e+005,-2.57898079584293e+001,-2.55236899768429e+000

1.28171180414339e+005,-2.57899805106906e+001,-2.58784501378644e+000

1.29960383416997e+005,-2.57901576267174e+001,-2.62381019138847e+000

1.31774562762811e+005,-2.57903394198371e+001,-2.66027113228402e+000

1.33614067108538e+005,-2.57905260058213e+001,-2.69723452279953e+000

1.35479249978003e+005,-2.57907175029213e+001,-2.73470713477374e+000

1.37370469830040e+005,-2.57909140319029e+001,-2.77269582654943e+000

1.39288090127379e+005,-2.57911157160805e+001,-2.81120754397686e+000

1.41232479406504e+005,-2.57913226813520e+001,-2.85024932143262e+000

1.43204011348474e+005,-2.57915350562320e+001,-2.88982828284872e+000

1.45203064850745e+005,-2.57917529718856e+001,-2.92995164275921e+000

1.47230024099979e+005,-2.57919765621608e+001,-2.97062670735873e+000

1.49285278645888e+005,-2.57922059636216e+001,-3.01186087557870e+000

1.51369223476094e+005,-2.57924413155791e+001,-3.05366164017758e+000

1.53482259092041e+005,-2.57926827601238e+001,-3.09603658884903e+000

1.55624791585964e+005,-2.57929304421554e+001,-3.13899340534725e+000

1.57797232718936e+005,-2.57931845094137e+001,-3.18253987063054e+000

1.59999999999999e+005,-2.57934451125077e+001,-3.22668386402340e+000

1.62233516766403e+005,-2.57937124049447e+001,-3.27143336439810e+000

1.64498212264969e+005,-2.57939865431586e+001,-3.31679645137936e+000

1.66794521734578e+005,-2.57942676865371e+001,-3.36278130656762e+000

1.69122886489819e+005,-2.57945559974490e+001,-3.40939621478715e+000

1.71483754005805e+005,-2.57948516412700e+001,-3.45664956535639e+000

1.73877578004168e+005,-2.57951547864087e+001,-3.50454985338435e+000

1.76304818540256e+005,-2.57954656043309e+001,-3.55310568109250e+000

1.78765942091554e+005,-2.57957842695840e+001,-3.60232575916285e+000

1.81261421647326e+005,-2.57961109598208e+001,-3.65221890811560e+000

1.83791736799524e+005,-2.57964458558220e+001,-3.70279405971534e+000

1.86357373834951e+005,-2.57967891415191e+001,-3.75406025840890e+000

1.88958825828723e+005,-2.57971410040158e+001,-3.80602666279471e+000

1.91596592739027e+005,-2.57975016336099e+001,-3.85870254712569e+000

1.94271181503206e+005,-2.57978712238139e+001,-3.91209730284828e+000

1.96983106135185e+005,-2.57982499713763e+001,-3.96622044017630e+000

1.99732887824256e+005,-2.57986380763018e+001,-4.02108158970336e+000

2.02521055035243e+005,-2.57990357418718e+001,-4.07669050405568e+000

2.05348143610063e+005,-2.57994431746653e+001,-4.13305705958464e+000

2.08214696870707e+005,-2.57998605845790e+001,-4.19019125810233e+000

2.11121265723661e+005,-2.58002881848490e+001,-4.24810322866180e+000

2.14068408765776e+005,-2.58007261920716e+001,-4.30680322938246e+000

2.17056692391625e+005,-2.58011748262260e+001,-4.36630164932365e+000

2.20086690902357e+005,-2.58016343106971e+001,-4.42660901040657e+000

2.23158986616063e+005,-2.58021048722997e+001,-4.48773596938756e+000

2.26274169979693e+005,-2.58025867413039e+001,-4.54969331988313e+000

2.29432839682530e+005,-2.58030801514624e+001,-4.61249199444994e+000

2.32635602771247e+005,-2.58035853400390e+001,-4.67614306671897e+000

2.35883074766574e+005,-2.58041025478401e+001,-4.74065775358788e+000

2.39175879781588e+005,-2.58046320192481e+001,-4.80604741747205e+000

2.42514650641661e+005,-2.58051740022580e+001,-4.87232356861509e+000

2.45900029006080e+005,-2.58057287485165e+001,-4.93949786746064e+000

2.49332665491357e+005,-2.58062965133657e+001,-5.00758212708842e+000

2.52813219796278e+005,-2.58068775558902e+001,-5.07658831571320e+000

2.56342360828676e+005,-2.58074721389681e+001,-5.14652855924911e+000

2.59920766833993e+005,-2.58080805293281e+001,-5.21741514394152e+000

2.63549125525621e+005,-2.58087029976108e+001,-5.28926051906422e+000

2.67228134217075e+005,-2.58093398184361e+001,-5.36207729968733e+000

2.70958499956006e+005,-2.58099912704771e+001,-5.43587826951221e+000

2.74740939660078e+005,-2.58106576365414e+001,-5.51067638377564e+000

2.78576180254757e+005,-2.58113392036579e+001,-5.58648477222649e+000

2.82464958813007e+005,-2.58120362631739e+001,-5.66331674216931e+000

2.86408022696948e+005,-2.58127491108590e+001,-5.74118578157945e+000

2.90406129701488e+005,-2.58134780470190e+001,-5.82010556228925e+000

2.94460048199957e+005,-2.58142233766193e+001,-5.90008994324164e+000

2.98570557291775e+005,-2.58149854094183e+001,-5.98115297381494e+000

3.02738446952187e+005,-2.58157644601127e+001,-6.06330889721471e+000

3.06964518184081e+005,-2.58165608484934e+001,-6.14657215393321e+000

3.11249583171928e+005,-2.58173748996141e+001,-6.23095738527545e+000

3.15594465437872e+005,-2.58182069439732e+001,-6.31647943694901e+000

3.19999999999997e+005,-2.58190573177086e+001,-6.40315336271656e+000

3.24467033532806e+005,-2.58199263628068e+001,-6.49099442811074e+000

3.28996424529938e+005,-2.58208144273278e+001,-6.58001811420478e+000

3.33589043469155e+005,-2.58217218656438e+001,-6.67024012144187e+000

3.38245772979638e+005,-2.58226490386958e+001,-6.76167637351520e+000

3.42967508011610e+005,-2.58235963142656e+001,-6.85434302129990e+000

3.47755156008335e+005,-2.58245640672657e+001,-6.94825644683030e+000

3.52609637080511e+005,-2.58255526800474e+001,-7.04343326732076e+000

3.57531884183106e+005,-2.58265625427264e+001,-7.13989033922525e+000

3.62522843294651e+005,-2.58275940535288e+001,-7.23764476233285e+000

3.67583473599047e+005,-2.58286476191551e+001,-7.33671388389247e+000

3.72714747669902e+005,-2.58297236551653e+001,-7.43711530276437e+000

3.77917651657445e+005,-2.58308225863843e+001,-7.53886687359315e+000

3.83193185478053e+005,-2.58319448473271e+001,-7.64198671099579e+000

3.88542363006410e+005,-2.58330908826472e+001,-7.74649319376186e+000

3.93966212270369e+005,-2.58342611476040e+001,-7.85240496905797e+000

3.99465775648511e+005,-2.58354561085546e+001,-7.95974095663299e+000

4.05042110070485e+005,-2.58366762434657e+001,-8.06852035301765e+000

4.10696287220124e+005,-2.58379220424487e+001,-8.17876263571132e+000

4.16429393741414e+005,-2.58391940083169e+001,-8.29048756735290e+000

4.22242531447321e+005,-2.58404926571657e+001,-8.40371519986712e+000

4.28136817531551e+005,-2.58418185189745e+001,-8.51846587858208e+000

4.34113384783250e+005,-2.58431721382319e+001,-8.63476024631086e+000

4.40173381804713e+005,-2.58445540745832e+001,-8.75261924739108e+000

4.46317973232124e+005,-2.58459649034999e+001,-8.87206413167951e+000

4.52548339959385e+005,-2.58474052169722e+001,-8.99311645848906e+000

4.58865679365059e+005,-2.58488756242227e+001,-9.11579810047036e+000

4.65271205542494e+005,-2.58503767524430e+001,-9.24013124742621e+000

4.71766149533147e+005,-2.58519092475504e+001,-9.36613841005590e+000

4.78351759563174e+005,-2.58534737749675e+001,-9.49384242362312e+000

4.85029301283321e+005,-2.58550710204208e+001,-9.62326645154363e+000

4.91800058012158e+005,-2.58567016907613e+001,-9.75443398888412e+000

4.98665330982714e+005,-2.58583665148041e+001,-9.88736886577248e+000

5.05626439592555e+005,-2.58600662441876e+001,-1.00220952507099e+001

5.12684721657352e+005,-2.58618016542525e+001,-1.01586376537835e+001

5.19841533667984e+005,-2.58635735449377e+001,-1.02970209297741e+001

5.27098251051240e+005,-2.58653827416960e+001,-1.04372702811553e+001

5.34456268434150e+005,-2.58672300964253e+001,-1.05794112609818e+001

5.41916999912011e+005,-2.58691164884181e+001,-1.07234697756598e+001

