Freq.,VOut,OutRef

1.00000000000000e+004,-2.50141126816245e+001,-4.01302165805629e-001

1.01395947979003e+004,-2.50141160055879e+001,-4.06903929515962e-001

1.02811382665607e+004,-2.50141194229713e+001,-4.12583882198521e-001

1.04246576084112e+004,-2.50141229363993e+001,-4.18343114961256e-001

1.05701804056138e+004,-2.50141265485701e+001,-4.24182734126366e-001

1.07177346253629e+004,-2.50141302622581e+001,-4.30103861443030e-001

1.08673486252606e+004,-2.50141340803152e+001,-4.36107634302849e-001

1.10190511587661e+004,-2.50141380056736e+001,-4.42195205957619e-001

1.11728713807222e+004,-2.50141420413478e+001,-4.48367745737919e-001

1.13288388529580e+004,-2.50141461904367e+001,-4.54626439279131e-001

1.14869835499703e+004,-2.50141504561264e+001,-4.60972488748235e-001

1.16473358646846e+004,-2.50141548416924e+001,-4.67407113070756e-001

1.18099266142953e+004,-2.50141593505021e+001,-4.73931548166960e-001

1.19747870461893e+004,-2.50141639860174e+001,-4.80547047187577e-001

1.21419488439505e+004,-2.50141687517975e+001,-4.87254880751984e-001

1.23114441334492e+004,-2.50141736515012e+001,-4.94056337192580e-001

1.24833054890161e+004,-2.50141786888903e+001,-5.00952722799986e-001

1.26575659397028e+004,-2.50141838678319e+001,-5.07945362072954e-001

1.28342589756290e+004,-2.50141891923018e+001,-5.15035597971624e-001

1.30134185544193e+004,-2.50141946663873e+001,-5.22224792173583e-001

1.31950791077289e+004,-2.50142002942903e+001,-5.29514325334990e-001

1.33792755478611e+004,-2.50142060803306e+001,-5.36905597352278e-001

1.35660432744767e+004,-2.50142120289493e+001,-5.44400027631870e-001

1.37554181813974e+004,-2.50142181447120e+001,-5.51999055357894e-001

1.39474366635040e+004,-2.50142244323124e+001,-5.59704139770835e-001

1.41421356237309e+004,-2.50142308965758e+001,-5.67516760442202e-001

1.43395524801583e+004,-2.50142375424628e+001,-5.75438417559978e-001

1.45397251732031e+004,-2.50142443750733e+001,-5.83470632211415e-001

1.47426921729110e+004,-2.50142513996501e+001,-5.91614946675834e-001

1.49484924863494e+004,-2.50142586215829e+001,-5.99872924717442e-001

1.51571656651040e+004,-2.50142660464127e+001,-6.08246151884210e-001

1.53687518128801e+004,-2.50142736798358e+001,-6.16736235807804e-001

1.55832915932100e+004,-2.50142815277081e+001,-6.25344806513551e-001

1.58008262372675e+004,-2.50142895960499e+001,-6.34073516726357e-001

1.60213975517924e+004,-2.50142978910499e+001,-6.42924042190070e-001

1.62450479271247e+004,-2.50143064190705e+001,-6.51898081982159e-001

1.64718203453514e+004,-2.50143151866524e+001,-6.60997358840853e-001

1.67017583885674e+004,-2.50143242005195e+001,-6.70223619489922e-001

1.69349062472505e+004,-2.50143334675842e+001,-6.79578634972533e-001

1.71713087287550e+004,-2.50143429949524e+001,-6.89064200988605e-001

1.74110112659224e+004,-2.50143527899293e+001,-6.98682138232991e-001

1.76540599258131e+004,-2.50143628600245e+001,-7.08434292745704e-001

1.79005014185594e+004,-2.50143732129582e+001,-7.18322536259719e-001

1.81503831063432e+004,-2.50143838566665e+001,-7.28348766557459e-001

1.84037530124975e+004,-2.50143947993081e+001,-7.38514907830665e-001

1.86606598307361e+004,-2.50144060492699e+001,-7.48822911045956e-001

1.89211529345119e+004,-2.50144176151735e+001,-7.59274754315525e-001

1.91852823865052e+004,-2.50144295058823e+001,-7.69872443270243e-001

1.94530989482457e+004,-2.50144417305075e+001,-7.80618011441943e-001

1.97246540898671e+004,-2.50144542984150e+001,-7.91513520649294e-001

1.99999999999999e+004,-2.50144672192334e+001,-8.02561061385082e-001

2.02791895958005e+004,-2.50144805028603e+001,-8.13762753215433e-001

2.05622765331213e+004,-2.50144941594704e+001,-8.25120745179241e-001

2.08493152168224e+004,-2.50145081995228e+001,-8.36637216195987e-001

2.11403608112276e+004,-2.50145226337693e+001,-8.48314375476187e-001

2.14354692507258e+004,-2.50145374732624e+001,-8.60154462939909e-001

2.17346972505211e+004,-2.50145527293633e+001,-8.72159749641352e-001

2.20381023175322e+004,-2.50145684137513e+001,-8.84332538194404e-001

2.23457427614443e+004,-2.50145845384318e+001,-8.96675163210403e-001

2.26576777059159e+004,-2.50146011157459e+001,-9.09189991737360e-001

2.29739670999406e+004,-2.50146181583793e+001,-9.21879423706189e-001

2.32946717293690e+004,-2.50146356793725e+001,-9.34745892383037e-001

2.36198532285905e+004,-2.50146536921297e+001,-9.47791864829005e-001

2.39495740923785e+004,-2.50146722104301e+001,-9.61019842361600e-001

2.42838976879009e+004,-2.50146912484371e+001,-9.74432361028579e-001

2.46228882668982e+004,-2.50147108207098e+001,-9.88031992082923e-001

2.49666109780322e+004,-2.50147309422136e+001,-1.00182134246647e+000

2.53151318794055e+004,-2.50147516283313e+001,-1.01580305530078e+000

2.56685179512580e+004,-2.50147728948754e+001,-1.02997981038021e+000

2.60268371088386e+004,-2.50147947580989e+001,-1.04435432467811e+000

2.63901582154578e+004,-2.50148172347083e+001,-1.05892935285368e+000

2.67585510957221e+004,-2.50148403418761e+001,-1.07370768776904e+000

2.71320865489533e+004,-2.50148640972532e+001,-1.08869216101150e+000

2.75108363627948e+004,-2.50148885189824e+001,-1.10388564342374e+000

2.78948733270080e+004,-2.50149136257123e+001,-1.11929104563915e+000

2.82842712474618e+004,-2.50149394366106e+001,-1.13491131862765e+000

2.86791049603164e+004,-2.50149659713788e+001,-1.15074945424401e+000

2.90794503464061e+004,-2.50149932502672e+001,-1.16680848578700e+000

2.94853843458219e+004,-2.50150212940895e+001,-1.18309148856391e+000

2.98969849726987e+004,-2.50150501242384e+001,-1.19960158046386e+000

3.03143313302078e+004,-2.50150797627019e+001,-1.21634192253718e+000

3.07375036257601e+004,-2.50151102320793e+001,-1.23331571958148e+000

3.11665831864199e+004,-2.50151415555982e+001,-1.25052622073944e+000

3.16016524745350e+004,-2.50151737571317e+001,-1.26797672009872e+000

3.20427951035848e+004,-2.50152068612162e+001,-1.28567055730342e+000

3.24900958542493e+004,-2.50152408930695e+001,-1.30361111817171e+000

3.29436406907028e+004,-2.50152758786094e+001,-1.32180183532339e+000

3.34035167771346e+004,-2.50153118444733e+001,-1.34024618881131e+000

3.38698124945009e+004,-2.50153488180374e+001,-1.35894770676565e+000

3.43426174575100e+004,-2.50153868274371e+001,-1.37790996604355e+000

3.48220225318448e+004,-2.50154259015878e+001,-1.39713659288642e+000

3.53081198516260e+004,-2.50154660702065e+001,-1.41663126358828e+000

3.58010028371187e+004,-2.50155073638329e+001,-1.43639770516967e+000

3.63007662126863e+004,-2.50155498138527e+001,-1.45643969606201e+000

3.68075060249948e+004,-2.50155934525200e+001,-1.47676106679891e+000

3.73213196614721e+004,-2.50156383129815e+001,-1.49736570071792e+000

3.78423058690237e+004,-2.50156844293002e+001,-1.51825753466866e+000

3.83705647730104e+004,-2.50157318364809e+001,-1.53944055973266e+000

3.89061978964912e+004,-2.50157805704952e+001,-1.56091882194840e+000

3.94493081797342e+004,-2.50158306683083e+001,-1.58269642304939e+000

3.99999999999998e+004,-2.50158821679053e+001,-1.60477752120776e+000

4.05583791916010e+004,-2.50159351083195e+001,-1.62716633178840e+000

4.11245530662425e+004,-2.50159895296601e+001,-1.64986712811303e+000

4.16986304336447e+004,-2.50160454731417e+001,-1.67288424223249e+000

4.22807216224550e+004,-2.50161029811140e+001,-1.69622206570766e+000

4.28709385014515e+004,-2.50161620970922e+001,-1.71988505040170e+000

4.34693945010421e+004,-2.50162228657887e+001,-1.74387770928061e+000

4.40762046350642e+004,-2.50162853331452e+001,-1.76820461722256e+000

4.46914855228886e+004,-2.50163495463655e+001,-1.79287041183869e+000

4.53153554118317e+004,-2.50164155539495e+001,-1.81787979430176e+000

4.59479341998812e+004,-2.50164834057280e+001,-1.84323753018587e+000

4.65893434587380e+004,-2.50165531528981e+001,-1.86894845031588e+000

4.72397064571810e+004,-2.50166248480599e+001,-1.89501745162449e+000

4.78991481847569e+004,-2.50166985452538e+001,-1.92144949802350e+000

4.85677953758016e+004,-2.50167742999989e+001,-1.94824962128038e+000

4.92457765337964e+004,-2.50168521693322e+001,-1.97542292190858e+000

4.99332219560642e+004,-2.50169322118490e+001,-2.00297457006591e+000

5.06302637588109e+004,-2.50170144877443e+001,-2.03090980646394e+000

5.13370359025159e+004,-2.50170990588549e+001,-2.05923394328665e+000

5.20536742176771e+004,-2.50171859887030e+001,-2.08795236512091e+000

5.27803164309155e+004,-2.50172753425405e+001,-2.11707052989558e+000

5.35171021914442e+004,-2.50173671873947e+001,-2.14659396983292e+000

5.42641730979066e+004,-2.50174615921145e+001,-2.17652829240836e+000

5.50216727255895e+004,-2.50175586274190e+001,-2.20687918132176e+000

5.57897466540159e+004,-2.50176583659455e+001,-2.23765239747959e+000

5.65685424949235e+004,-2.50177608823003e+001,-2.26885377998705e+000

5.73582099206328e+004,-2.50178662531096e+001,-2.30048924715031e+000

5.81589006928121e+004,-2.50179745570724e+001,-2.33256479749066e+000

5.89707686916437e+004,-2.50180858750143e+001,-2.36508651076766e+000

5.97939699453972e+004,-2.50182002899418e+001,-2.39806054901512e+000

6.06286626604156e+004,-2.50183178870999e+001,-2.43149315758531e+000

6.14750072515201e+004,-2.50184387540287e+001,-2.46539066620533e+000

6.23331663728396e+004,-2.50185629806232e+001,-2.49975949004447e+000

6.32033049490698e+004,-2.50186906591931e+001,-2.53460613079127e+000

6.40855902071694e+004,-2.50188218845250e+001,-2.56993717774171e+000

6.49801917084985e+004,-2.50189567539454e+001,-2.60575930889864e+000

6.58872813814055e+004,-2.50190953673855e+001,-2.64207929208183e+000

6.68070335542691e+004,-2.50192378274468e+001,-2.67890398604759e+000

6.77396249890018e+004,-2.50193842394695e+001,-2.71624034162112e+000

6.86852349150199e+004,-2.50195347116010e+001,-2.75409540283809e+000

6.96440450636895e+004,-2.50196893548664e+001,-2.79247630809795e+000

7.06162397032520e+004,-2.50198482832412e+001,-2.83139029132695e+000

7.16020056742374e+004,-2.50200116137246e+001,-2.87084468315308e+000

7.26015324253724e+004,-2.50201794664150e+001,-2.91084691208998e+000

7.36150120499896e+004,-2.50203519645867e+001,-2.95140450573478e+000

7.46426393229441e+004,-2.50205292347690e+001,-2.99252509197171e+000

7.56846117380472e+004,-2.50207114068261e+001,-3.03421640019114e+000

7.67411295460207e+004,-2.50208986140386e+001,-3.07648626251689e+000

7.78123957929823e+004,-2.50210909931882e+001,-3.11934261504301e+000

7.88986163594682e+004,-2.50212886846418e+001,-3.16279349908432e+000

7.99999999999995e+004,-2.50214918324394e+001,-3.20684706243414e+000

8.11167583832018e+004,-2.50217005843826e+001,-3.25151156063429e+000

8.22491061324848e+004,-2.50219150921252e+001,-3.29679535825586e+000

8.33972608672892e+004,-2.50221355112656e+001,-3.34270693018803e+000

8.45614432449099e+004,-2.50223620014408e+001,-3.38925486294050e+000

8.57418770029029e+004,-2.50225947264226e+001,-3.43644785595244e+000

8.69387890020841e+004,-2.50228338542152e+001,-3.48429472291593e+000

8.81524092701283e+004,-2.50230795571550e+001,-3.53280439310478e+000

8.93829710457770e+004,-2.50233320120117e+001,-3.58198591271797e+000

9.06307108236633e+004,-2.50235914000922e+001,-3.63184844623023e+000

9.18958683997622e+004,-2.50238579073452e+001,-3.68240127775343e+000

9.31786869174758e+004,-2.50241317244686e+001,-3.73365381240825e+000

9.44794129143618e+004,-2.50244130470183e+001,-3.78561557770574e+000

9.57982963695136e+004,-2.50247020755191e+001,-3.83829622493839e+000

9.71355907516031e+004,-2.50249990155771e+001,-3.89170553058176e+000

9.84915530675926e+004,-2.50253040779947e+001,-3.94585339770449e+000

9.98664439121282e+004,-2.50256174788867e+001,-4.00074985739008e+000

1.01260527517622e+005,-2.50259394397985e+001,-4.05640507016656e+000

1.02674071805032e+005,-2.50262701878268e+001,-4.11282932744814e+000

1.04107348435354e+005,-2.50266099557412e+001,-4.17003305298376e+000

1.05560632861831e+005,-2.50269589821082e+001,-4.22802680431819e+000

1.07034204382888e+005,-2.50273175114169e+001,-4.28682127426063e+000

1.08528346195813e+005,-2.50276857942070e+001,-4.34642729236567e+000

1.10043345451179e+005,-2.50280640871975e+001,-4.40685582642086e+000

1.11579493308032e+005,-2.50284526534185e+001,-4.46811798394767e+000

1.13137084989847e+005,-2.50288517623441e+001,-4.53022501370957e+000

1.14716419841265e+005,-2.50292616900269e+001,-4.59318830723196e+000

1.16317801385624e+005,-2.50296827192348e+001,-4.65701940033183e+000

1.17941537383287e+005,-2.50301151395893e+001,-4.72172997465713e+000

1.19587939890794e+005,-2.50305592477051e+001,-4.78733185923830e+000

1.21257325320831e+005,-2.50310153473324e+001,-4.85383703204756e+000

1.22950014503040e+005,-2.50314837494994e+001,-4.92125762157329e+000

1.24666332745679e+005,-2.50319647726580e+001,-4.98960590840051e+000

1.26406609898139e+005,-2.50324587428297e+001,-5.05889432680793e+000

1.28171180414339e+005,-2.50329659937541e+001,-5.12913546637184e+000

1.29960383416997e+005,-2.50334868670386e+001,-5.20034207358626e+000

1.31774562762811e+005,-2.50340217123090e+001,-5.27252705349247e+000

1.33614067108538e+005,-2.50345708873629e+001,-5.34570347132261e+000

1.35479249978003e+005,-2.50351347583229e+001,-5.41988455415679e+000

1.37370469830040e+005,-2.50357136997930e+001,-5.49508369259341e+000

1.39288090127379e+005,-2.50363080950147e+001,-5.57131444243386e+000

1.41232479406504e+005,-2.50369183360257e+001,-5.64859052638290e+000

1.43204011348474e+005,-2.50375448238191e+001,-5.72692583576300e+000

1.45203064850745e+005,-2.50381879685045e+001,-5.80633443224697e+000

1.47230024099979e+005,-2.50388481894703e+001,-5.88683054960629e+000

1.49285278645888e+005,-2.50395259155464e+001,-5.96842859547737e+000

1.51369223476094e+005,-2.50402215851697e+001,-6.05114315314706e+000

1.53482259092041e+005,-2.50409356465494e+001,-6.13498898335721e+000

1.55624791585964e+005,-2.50416685578342e+001,-6.21998102613111e+000

1.57797232718936e+005,-2.50424207872807e+001,-6.30613440261979e+000

1.59999999999999e+005,-2.50431928134229e+001,-6.39346441697262e+000

1.62233516766403e+005,-2.50439851252432e+001,-6.48198655823156e+000

1.64498212264969e+005,-2.50447982223440e+001,-6.57171650225044e+000

1.66794521734578e+005,-2.50456326151214e+001,-6.66267011364161e+000

1.69122886489819e+005,-2.50464888249399e+001,-6.75486344775012e+000

1.71483754005805e+005,-2.50473673843082e+001,-6.84831275265734e+000

1.73877578004168e+005,-2.50482688370571e+001,-6.94303447121615e+000

1.76304818540256e+005,-2.50491937385182e+001,-7.03904524311865e+000

1.78765942091554e+005,-2.50501426557048e+001,-7.13636190699868e+000

1.81261421647326e+005,-2.50511161674944e+001,-7.23500150256946e+000

1.83791736799524e+005,-2.50521148648127e+001,-7.33498127280050e+000

1.86357373834951e+005,-2.50531393508200e+001,-7.43631866613359e+000

1.88958825828723e+005,-2.50541902411001e+001,-7.53903133874096e+000

1.91596592739027e+005,-2.50552681638502e+001,-7.64313715682698e+000

1.94271181503206e+005,-2.50563737600753e+001,-7.74865419897604e+000

1.96983106135185e+005,-2.50575076837838e+001,-7.85560075854776e+000

1.99732887824256e+005,-2.50586706021869e+001,-7.96399534612287e+000

2.02521055035243e+005,-2.50598631959013e+001,-8.07385669200134e+000

2.05348143610063e+005,-2.50610861591555e+001,-8.18520374875370e+000

2.08214696870707e+005,-2.50623402000000e+001,-8.29805569383035e+000

2.11121265723661e+005,-2.50636260405224e+001,-8.41243193222848e+000

2.14068408765776e+005,-2.50649444170664e+001,-8.52835209922024e+000

2.17056692391625e+005,-2.50662960804570e+001,-8.64583606314375e+000

2.20086690902357e+005,-2.50676817962310e+001,-8.76490392825952e+000

2.23158986616063e+005,-2.50691023448737e+001,-8.88557603767273e+000

2.26274169979693e+005,-2.50705585220626e+001,-9.00787297632650e+000

2.29432839682530e+005,-2.50720511389185e+001,-9.13181557406436e+000

2.32635602771247e+005,-2.50735810222644e+001,-9.25742490876602e+000

2.35883074766574e+005,-2.50751490148938e+001,-9.38472230955767e+000

2.39175879781588e+005,-2.50767559758475e+001,-9.51372936009816e+000

2.42514650641661e+005,-2.50784027807013e+001,-9.64446790194154e+000

2.45900029006080e+005,-2.50800903218647e+001,-9.77696003797916e+000

2.49332665491357e+005,-2.50818195088910e+001,-9.91122813596026e+000

2.52813219796278e+005,-2.50835912688008e+001,-1.00472948320919e+001

2.56342360828676e+005,-2.50854065464184e+001,-1.01851830347213e+001

2.59920766833993e+005,-2.50872663047235e+001,-1.03249159280965e+001

2.63549125525621e+005,-2.50891715252184e+001,-1.04665169762087e+001

2.67228134217075e+005,-2.50911232083112e+001,-1.06100099267143e+001

2.70958499956006e+005,-2.50931223737182e+001,-1.07554188149354e+001

2.74740939660078e+005,-2.50951700608838e+001,-1.09027679679385e+001

2.78576180254757e+005,-2.50972673294209e+001,-1.10520820086896e+001

2.82464958813007e+005,-2.50994152595730e+001,-1.12033858602823e+001

2.86408022696948e+005,-2.51016149526976e+001,-1.13567047502379e+001

2.90406129701488e+005,-2.51038675317746e+001,-1.15120642148737e+001

2.94460048199957e+005,-2.51061741419385e+001,-1.16694901037354e+001

2.98570557291775e+005,-2.51085359510369e+001,-1.18290085840903e+001

3.02738446952187e+005,-2.51109541502167e+001,-1.19906461454763e+001

3.06964518184081e+005,-2.51134299545388e+001,-1.21544296043004e+001

3.11249583171928e+005,-2.51159646036226e+001,-1.23203861084828e+001

3.15594465437872e+005,-2.51185593623217e+001,-1.24885431421373e+001

3.19999999999997e+005,-2.51212155214323e+001,-1.26589285302836e+001

3.24467033532806e+005,-2.51239343984344e+001,-1.28315704435813e+001

3.28996424529938e+005,-2.51267173382691e+001,-1.30064974030786e+001

3.33589043469155e+005,-2.51295657141506e+001,-1.31837382849656e+001

3.38245772979638e+005,-2.51324809284164e+001,-1.33633223253228e+001

3.42967508011610e+005,-2.51354644134147e+001,-1.35452791248534e+001

3.47755156008335e+005,-2.51385176324320e+001,-1.37296386535908e+001

3.52609637080511e+005,-2.51416420806602e+001,-1.39164312555643e+001

3.57531884183106e+005,-2.51448392862048e+001,-1.41056876534163e+001

3.62522843294651e+005,-2.51481108111356e+001,-1.42974389529547e+001

3.67583473599047e+005,-2.51514582525790e+001,-1.44917166476251e+001

3.72714747669902e+005,-2.51548832438543e+001,-1.46885526228930e+001

3.77917651657445e+005,-2.51583874556535e+001,-1.48879791605178e+001

3.83193185478053e+005,-2.51619725972654e+001,-1.50900289427022e+001

3.88542363006410e+005,-2.51656404178438e+001,-1.52947350561048e+001

3.93966212270369e+005,-2.51693927077208e+001,-1.55021309956966e+001

3.99465775648511e+005,-2.51732312997645e+001,-1.57122506684445e+001

4.05042110070485e+005,-2.51771580707815e+001,-1.59251283968063e+001

4.10696287220124e+005,-2.51811749429639e+001,-1.61407989220185e+001

4.16429393741414e+005,-2.51852838853800e+001,-1.63592974071588e+001

4.22242531447321e+005,-2.51894869155092e+001,-1.65806594399669e+001

4.28136817531551e+005,-2.51937861008188e+001,-1.68049210354032e+001

4.34113384783250e+005,-2.51981835603840e+001,-1.70321186379290e+001

4.40173381804713e+005,-2.52026814665479e+001,-1.72622891234891e+001

4.46317973232124e+005,-2.52072820466226e+001,-1.74954698011790e+001

4.52548339959385e+005,-2.52119875846279e+001,-1.77316984145775e+001

4.58865679365059e+005,-2.52168004230683e+001,-1.79710131427282e+001

4.65271205542494e+005,-2.52217229647444e+001,-1.82134526007511e+001

4.71766149533147e+005,-2.52267576745993e+001,-1.84590558400667e+001

4.78351759563174e+005,-2.52319070815966e+001,-1.87078623482170e+001

4.85029301283321e+005,-2.52371737806279e+001,-1.89599120482642e+001

4.91800058012158e+005,-2.52425604344483e+001,-1.92152452977526e+001

4.98665330982714e+005,-2.52480697756372e+001,-1.94739028872179e+001

5.05626439592555e+005,-2.52537046085824e+001,-1.97359260382276e+001

5.12684721657352e+005,-2.52594678114829e+001,-2.00013564009391e+001

5.19841533667984e+005,-2.52653623383709e+001,-2.02702360511603e+001

5.27098251051240e+005,-2.52713912211473e+001,-2.05426074869009e+001

5.34456268434150e+005,-2.52775575716285e+001,-2.08185136244010e+001

5.41916999912011e+005,-2.52838645836025e+001,-2.10979977936255e+001

