Freq.,VOut,OutRef

1.00000000000000e+004,-1.16298220657741e+001,-1.12397444651267e-001

1.01395947979003e+004,-1.16298222073298e+001,-1.13966432765206e-001

1.02811382665607e+004,-1.16298223528615e+001,-1.15557322214227e-001

1.04246576084112e+004,-1.16298225024807e+001,-1.17170418690488e-001

1.05701804056138e+004,-1.16298226563022e+001,-1.18806032152610e-001

1.07177346253629e+004,-1.16298228144440e+001,-1.20464476881162e-001

1.08673486252606e+004,-1.16298229770271e+001,-1.22146071546567e-001

1.10190511587661e+004,-1.16298231441764e+001,-1.23851139262451e-001

1.11728713807222e+004,-1.16298233160199e+001,-1.25580007651111e-001

1.13288388529580e+004,-1.16298234926891e+001,-1.27333008910482e-001

1.14869835499703e+004,-1.16298236743195e+001,-1.29110479867898e-001

1.16473358646846e+004,-1.16298238610502e+001,-1.30912762054396e-001

1.18099266142953e+004,-1.16298240530243e+001,-1.32740201764171e-001

1.19747870461893e+004,-1.16298242503888e+001,-1.34593150125161e-001

1.21419488439505e+004,-1.16298244532950e+001,-1.36471963160622e-001

1.23114441334492e+004,-1.16298246618982e+001,-1.38377001865043e-001

1.24833054890161e+004,-1.16298248763582e+001,-1.40308632267632e-001

1.26575659397028e+004,-1.16298250968390e+001,-1.42267225505102e-001

1.28342589756290e+004,-1.16298253235096e+001,-1.44253157891070e-001

1.30134185544193e+004,-1.16298255565434e+001,-1.46266810991034e-001

1.31950791077289e+004,-1.16298257961189e+001,-1.48308571689876e-001

1.33792755478611e+004,-1.16298260424193e+001,-1.50378832274918e-001

1.35660432744767e+004,-1.16298262956333e+001,-1.52477990501524e-001

1.37554181813974e+004,-1.16298265559543e+001,-1.54606449677871e-001

1.39474366635040e+004,-1.16298268235817e+001,-1.56764618734776e-001

1.41421356237309e+004,-1.16298270987201e+001,-1.58952912310477e-001

1.43395524801583e+004,-1.16298273815801e+001,-1.61171750824036e-001

1.45397251732031e+004,-1.16298276723777e+001,-1.63421560562998e-001

1.47426921729110e+004,-1.16298279713354e+001,-1.65702773757299e-001

1.49484924863494e+004,-1.16298282786818e+001,-1.68015828668960e-001

1.51571656651040e+004,-1.16298285946516e+001,-1.70361169670894e-001

1.53687518128801e+004,-1.16298289194865e+001,-1.72739247335050e-001

1.55832915932100e+004,-1.16298292534345e+001,-1.75150518518434e-001

1.58008262372675e+004,-1.16298295967511e+001,-1.77595446447315e-001

1.60213975517924e+004,-1.16298299496980e+001,-1.80074500813020e-001

1.62450479271247e+004,-1.16298303125450e+001,-1.82588157854626e-001

1.64718203453514e+004,-1.16298306855691e+001,-1.85136900452670e-001

1.67017583885674e+004,-1.16298310690552e+001,-1.87721218222437e-001

1.69349062472505e+004,-1.16298314632958e+001,-1.90341607608682e-001

1.71713087287550e+004,-1.16298318685917e+001,-1.92998571977963e-001

1.74110112659224e+004,-1.16298322852522e+001,-1.95692621715533e-001

1.76540599258131e+004,-1.16298327135952e+001,-1.98424274324551e-001

1.79005014185594e+004,-1.16298331539472e+001,-2.01194054524453e-001

1.81503831063432e+004,-1.16298336066440e+001,-2.04002494350624e-001

1.84037530124975e+004,-1.16298340720306e+001,-2.06850133256312e-001

1.86606598307361e+004,-1.16298345504616e+001,-2.09737518218150e-001

1.89211529345119e+004,-1.16298350423015e+001,-2.12665203836447e-001

1.91852823865052e+004,-1.16298355479251e+001,-2.15633752444060e-001

1.94530989482457e+004,-1.16298360677173e+001,-2.18643734214207e-001

1.97246540898671e+004,-1.16298366020736e+001,-2.21695727268823e-001

1.99999999999999e+004,-1.16298371514009e+001,-2.24790317789270e-001

2.02791895958005e+004,-1.16298377161171e+001,-2.27928100125595e-001

2.05622765331213e+004,-1.16298382966516e+001,-2.31109676915914e-001

2.08493152168224e+004,-1.16298388934459e+001,-2.34335659196620e-001

2.11403608112276e+004,-1.16298395069537e+001,-2.37606666519711e-001

2.14354692507258e+004,-1.16298401376411e+001,-2.40923327075003e-001

2.17346972505211e+004,-1.16298407859873e+001,-2.44286277803449e-001

2.20381023175322e+004,-1.16298414524845e+001,-2.47696164525357e-001

2.23457427614443e+004,-1.16298421376387e+001,-2.51153642060982e-001

2.26576777059159e+004,-1.16298428419699e+001,-2.54659374353146e-001

2.29739670999406e+004,-1.16298435660124e+001,-2.58214034597656e-001

2.32946717293690e+004,-1.16298443103151e+001,-2.61818305369779e-001

2.36198532285905e+004,-1.16298450754422e+001,-2.65472878756367e-001

2.39495740923785e+004,-1.16298458619735e+001,-2.69178456483981e-001

2.42838976879009e+004,-1.16298466705047e+001,-2.72935750055984e-001

2.46228882668982e+004,-1.16298475016479e+001,-2.76745480888577e-001

2.49666109780322e+004,-1.16298483560320e+001,-2.80608380444831e-001

2.53151318794055e+004,-1.16298492343032e+001,-2.84525190379509e-001

2.56685179512580e+004,-1.16298501371256e+001,-2.88496662673250e-001

2.60268371088386e+004,-1.16298510651815e+001,-2.92523559781315e-001

2.63901582154578e+004,-1.16298520191718e+001,-2.96606654778064e-001

2.67585510957221e+004,-1.16298529998167e+001,-3.00746731502167e-001

2.71320865489533e+004,-1.16298540078561e+001,-3.04944584706446e-001

2.75108363627948e+004,-1.16298550440504e+001,-3.09201020209824e-001

2.78948733270080e+004,-1.16298561091806e+001,-3.13516855049443e-001

2.82842712474618e+004,-1.16298572040489e+001,-3.17892917638602e-001

2.86791049603164e+004,-1.16298583294798e+001,-3.22330047919929e-001

2.90794503464061e+004,-1.16298594863199e+001,-3.26829097530429e-001

2.94853843458219e+004,-1.16298606754396e+001,-3.31390929956030e-001

2.98969849726987e+004,-1.16298618977321e+001,-3.36016420704572e-001

3.03143313302078e+004,-1.16298631541156e+001,-3.40706457464114e-001

3.07375036257601e+004,-1.16298644455330e+001,-3.45461940275591e-001

3.11665831864199e+004,-1.16298657729531e+001,-3.50283781702337e-001

3.16016524745350e+004,-1.16298671373705e+001,-3.55172907004886e-001

3.20427951035848e+004,-1.16298685398074e+001,-3.60130254312902e-001

3.24900958542493e+004,-1.16298699813133e+001,-3.65156774805905e-001

3.29436406907028e+004,-1.16298714629662e+001,-3.70253432893694e-001

3.34035167771346e+004,-1.16298729858733e+001,-3.75421206396468e-001

3.38698124945009e+004,-1.16298745511717e+001,-3.80661086731787e-001

3.43426174575100e+004,-1.16298761600293e+001,-3.85974079102258e-001

3.48220225318448e+004,-1.16298778136453e+001,-3.91361202684555e-001

3.53081198516260e+004,-1.16298795132512e+001,-3.96823490823554e-001

3.58010028371187e+004,-1.16298812601117e+001,-4.02361991227502e-001

3.63007662126863e+004,-1.16298830555254e+001,-4.07977766163226e-001

3.68075060249948e+004,-1.16298849008258e+001,-4.13671892660909e-001

3.73213196614721e+004,-1.16298867973819e+001,-4.19445462714581e-001

3.78423058690237e+004,-1.16298887465997e+001,-4.25299583488099e-001

3.83705647730104e+004,-1.16298907499224e+001,-4.31235377525955e-001

3.89061978964912e+004,-1.16298928088316e+001,-4.37253982962861e-001

3.94493081797342e+004,-1.16298949248487e+001,-4.43356553739556e-001

3.99999999999998e+004,-1.16298970995353e+001,-4.49544259818317e-001

4.05583791916010e+004,-1.16298993344945e+001,-4.55818287404417e-001

4.11245530662425e+004,-1.16299016313719e+001,-4.62179839169329e-001

4.16986304336447e+004,-1.16299039918564e+001,-4.68630134476098e-001

4.22807216224550e+004,-1.16299064176819e+001,-4.75170409608508e-001

4.28709385014515e+004,-1.16299089106273e+001,-4.81801918004311e-001

4.34693945010421e+004,-1.16299114725190e+001,-4.88525930488027e-001

4.40762046350642e+004,-1.16299141052309e+001,-4.95343735511420e-001

4.46914855228886e+004,-1.16299168106860e+001,-5.02256639394795e-001

4.53153554118317e+004,-1.16299195908578e+001,-5.09265966568575e-001

4.59479341998812e+004,-1.16299224477708e+001,-5.16373059826654e-001

4.65893434587380e+004,-1.16299253835028e+001,-5.23579280571742e-001

4.72397064571810e+004,-1.16299284001849e+001,-5.30886009074270e-001

4.78991481847569e+004,-1.16299315000038e+001,-5.38294644728219e-001

4.85677953758016e+004,-1.16299346852025e+001,-5.45806606310706e-001

4.92457765337964e+004,-1.16299379580817e+001,-5.53423332250323e-001

4.99332219560642e+004,-1.16299413210016e+001,-5.61146280891298e-001

5.06302637588109e+004,-1.16299447763823e+001,-5.68976930768296e-001

5.13370359025159e+004,-1.16299483267065e+001,-5.76916780878220e-001

5.20536742176771e+004,-1.16299519745192e+001,-5.84967350963146e-001

5.27803164309155e+004,-1.16299557224309e+001,-5.93130181787127e-001

5.35171021914442e+004,-1.16299595731177e+001,-6.01406835427391e-001

5.42641730979066e+004,-1.16299635293236e+001,-6.09798895559970e-001

5.50216727255895e+004,-1.16299675938614e+001,-6.18307967754935e-001

5.57897466540159e+004,-1.16299717696144e+001,-6.26935679774601e-001

5.65685424949235e+004,-1.16299760595380e+001,-6.35683681872182e-001

5.73582099206328e+004,-1.16299804666613e+001,-6.44553647098208e-001

5.81589006928121e+004,-1.16299849940886e+001,-6.53547271607431e-001

5.89707686916437e+004,-1.16299896450002e+001,-6.62666274975548e-001

5.97939699453972e+004,-1.16299944226556e+001,-6.71912400510940e-001

6.06286626604156e+004,-1.16299993303937e+001,-6.81287415578996e-001

6.14750072515201e+004,-1.16300043716345e+001,-6.90793111926659e-001

6.23331663728396e+004,-1.16300095498817e+001,-7.00431306008871e-001

6.32033049490698e+004,-1.16300148687233e+001,-7.10203839325564e-001

6.40855902071694e+004,-1.16300203318338e+001,-7.20112578755100e-001

6.49801917084985e+004,-1.16300259429755e+001,-7.30159416900442e-001

6.58872813814055e+004,-1.16300317060003e+001,-7.40346272430865e-001

6.68070335542691e+004,-1.16300376248516e+001,-7.50675090435072e-001

6.77396249890018e+004,-1.16300437035654e+001,-7.61147842774763e-001

6.86852349150199e+004,-1.16300499462723e+001,-7.71766528445376e-001

6.96440450636895e+004,-1.16300563571989e+001,-7.82533173938701e-001

7.06162397032520e+004,-1.16300629406700e+001,-7.93449833610055e-001

7.16020056742374e+004,-1.16300697011094e+001,-8.04518590054808e-001

7.26015324253724e+004,-1.16300766430423e+001,-8.15741554481593e-001

7.36150120499896e+004,-1.16300837710961e+001,-8.27120867099112e-001

7.46426393229441e+004,-1.16300910900027e+001,-8.38658697499261e-001

7.56846117380472e+004,-1.16300986045995e+001,-8.50357245052119e-001

7.67411295460207e+004,-1.16301063198312e+001,-8.62218739301012e-001

7.78123957929823e+004,-1.16301142407514e+001,-8.74245440364669e-001

7.88986163594682e+004,-1.16301223725237e+001,-8.86439639343425e-001

7.99999999999995e+004,-1.16301307204233e+001,-8.98803658732768e-001

8.11167583832018e+004,-1.16301392898386e+001,-9.11339852837230e-001

8.22491061324848e+004,-1.16301480862721e+001,-9.24050608195095e-001

8.33972608672892e+004,-1.16301571153418e+001,-9.36938344004448e-001

8.45614432449099e+004,-1.16301663827825e+001,-9.50005512554732e-001

8.57418770029029e+004,-1.16301758944469e+001,-9.63254599666224e-001

8.69387890020841e+004,-1.16301856563067e+001,-9.76688125131696e-001

8.81524092701283e+004,-1.16301956744534e+001,-9.90308643165662e-001

8.93829710457770e+004,-1.16302059550991e+001,-1.00411874285926e+000

9.06307108236633e+004,-1.16302165045780e+001,-1.01812104863767e+000

9.18958683997622e+004,-1.16302273293461e+001,-1.03231822072807e+000

9.31786869174758e+004,-1.16302384359823e+001,-1.04671295562893e+000

9.44794129143618e+004,-1.16302498311889e+001,-1.06130798658760e+000

9.57982963695136e+004,-1.16302615217917e+001,-1.07610608408270e+000

9.71355907516031e+004,-1.16302735147404e+001,-1.09111005631340e+000

9.84915530675926e+004,-1.16302858171082e+001,-1.10632274969339e+000

9.98664439121282e+004,-1.16302984360922e+001,-1.12174704935131e+000

1.01260527517622e+005,-1.16303113790129e+001,-1.13738587963902e+000

1.02674071805032e+005,-1.16303246533134e+001,-1.15324220464484e+000

1.04107348435354e+005,-1.16303382665590e+001,-1.16931902871094e+000

1.05560632861831e+005,-1.16303522264364e+001,-1.18561939696227e+000

1.07034204382888e+005,-1.16303665407521e+001,-1.20214639583783e+000

1.08528346195813e+005,-1.16303812174318e+001,-1.21890315362934e+000

1.10043345451179e+005,-1.16303962645179e+001,-1.23589284102886e+000

1.11579493308032e+005,-1.16304116901682e+001,-1.25311867168107e+000

1.13137084989847e+005,-1.16304275026539e+001,-1.27058390274191e+000

1.14716419841265e+005,-1.16304437103562e+001,-1.28829183544879e+000

1.16317801385624e+005,-1.16304603217646e+001,-1.30624581569122e+000

1.17941537383287e+005,-1.16304773454732e+001,-1.32444923459526e+000

1.19587939890794e+005,-1.16304947901776e+001,-1.34290552911035e+000

1.21257325320831e+005,-1.16305126646704e+001,-1.36161818260942e+000

1.22950014503040e+005,-1.16305309778379e+001,-1.38059072548913e+000

1.24666332745679e+005,-1.16305497386547e+001,-1.39982673578644e+000

1.26406609898139e+005,-1.16305689561793e+001,-1.41932983979632e+000

1.28171180414339e+005,-1.16305886395480e+001,-1.43910371270269e+000

1.29960383416997e+005,-1.16306087979696e+001,-1.45915207921415e+000

1.31774562762811e+005,-1.16306294407184e+001,-1.47947871421132e+000

1.33614067108538e+005,-1.16306505771275e+001,-1.50008744340070e+000

1.35479249978003e+005,-1.16306722165813e+001,-1.52098214397940e+000

1.37370469830040e+005,-1.16306943685075e+001,-1.54216674530729e+000

1.39288090127379e+005,-1.16307170423684e+001,-1.56364522959056e+000

1.41232479406504e+005,-1.16307402476516e+001,-1.58542163257346e+000

1.43204011348474e+005,-1.16307639938605e+001,-1.60750004424068e+000

1.45203064850745e+005,-1.16307882905036e+001,-1.62988460952939e+000

1.47230024099979e+005,-1.16308131470831e+001,-1.65257952905322e+000

1.49285278645888e+005,-1.16308385730835e+001,-1.67558905983477e+000

1.51369223476094e+005,-1.16308645779586e+001,-1.69891751605118e+000

1.53482259092041e+005,-1.16308911711186e+001,-1.72256926978954e+000

1.55624791585964e+005,-1.16309183619157e+001,-1.74654875181520e+000

1.57797232718936e+005,-1.16309461596293e+001,-1.77086045235128e+000

1.59999999999999e+005,-1.16309745734502e+001,-1.79550892187003e+000

1.62233516766403e+005,-1.16310036124643e+001,-1.82049877189934e+000

1.64498212264969e+005,-1.16310332856351e+001,-1.84583467583902e+000

1.66794521734578e+005,-1.16310636017852e+001,-1.87152136979226e+000

1.69122886489819e+005,-1.16310945695774e+001,-1.89756365341163e+000

1.71483754005805e+005,-1.16311261974946e+001,-1.92396639075831e+000

1.73877578004168e+005,-1.16311584938184e+001,-1.95073451117558e+000

1.76304818540256e+005,-1.16311914666075e+001,-1.97787301017881e+000

1.78765942091554e+005,-1.16312251236745e+001,-2.00538695036107e+000

1.81261421647326e+005,-1.16312594725617e+001,-2.03328146231290e+000

1.83791736799524e+005,-1.16312945205166e+001,-2.06156174556196e+000

1.86357373834951e+005,-1.16313302744655e+001,-2.09023306952585e+000

1.88958825828723e+005,-1.16313667409866e+001,-2.11930077448676e+000

1.91596592739027e+005,-1.16314039262816e+001,-2.14877027258149e+000

1.94271181503206e+005,-1.16314418361473e+001,-2.17864704881093e+000

1.96983106135185e+005,-1.16314804759447e+001,-2.20893666206941e+000

1.99732887824256e+005,-1.16315198505681e+001,-2.23964474619423e+000

2.02521055035243e+005,-1.16315599644129e+001,-2.27077701103406e+000

2.05348143610063e+005,-1.16316008213420e+001,-2.30233924354131e+000

2.08214696870707e+005,-1.16316424246520e+001,-2.33433730888321e+000

2.11121265723661e+005,-1.16316847770373e+001,-2.36677715157784e+000

2.14068408765776e+005,-1.16317278805541e+001,-2.39966479665249e+000

2.17056692391625e+005,-1.16317717365830e+001,-2.43300635082434e+000

2.20086690902357e+005,-1.16318163457906e+001,-2.46680800370866e+000

2.23158986616063e+005,-1.16318617080908e+001,-2.50107602904830e+000

2.26274169979693e+005,-1.16319078226040e+001,-2.53581678597319e+000

2.29432839682530e+005,-1.16319546876167e+001,-2.57103672028176e+000

2.32635602771247e+005,-1.16320023005396e+001,-2.60674236575296e+000

2.35883074766574e+005,-1.16320506578648e+001,-2.64294034548588e+000

2.39175879781588e+005,-1.16320997551230e+001,-2.67963737326484e+000

2.42514650641661e+005,-1.16321495868396e+001,-2.71684025495668e+000

2.45900029006080e+005,-1.16322001464895e+001,-2.75455588993781e+000

2.49332665491357e+005,-1.16322514264531e+001,-2.79279127254874e+000

2.52813219796278e+005,-1.16323034179701e+001,-2.83155349358332e+000

2.56342360828676e+005,-1.16323561110937e+001,-2.87084974180791e+000

2.59920766833993e+005,-1.16324094946450e+001,-2.91068730551164e+000

2.63549125525621e+005,-1.16324635561657e+001,-2.95107357409265e+000

2.67228134217075e+005,-1.16325182818725e+001,-2.99201603967497e+000

2.70958499956006e+005,-1.16325736566097e+001,-3.03352229876105e+000

2.74740939660078e+005,-1.16326296638034e+001,-3.07560005391757e+000

2.78576180254757e+005,-1.16326862854151e+001,-3.11825711549614e+000

2.82464958813007e+005,-1.16327435018952e+001,-3.16150140339172e+000

2.86408022696948e+005,-1.16328012921377e+001,-3.20534094883306e+000

2.90406129701488e+005,-1.16328596334353e+001,-3.24978389621092e+000

2.94460048199957e+005,-1.16329185014345e+001,-3.29483850494422e+000

2.98570557291775e+005,-1.16329778700918e+001,-3.34051315138022e+000

3.02738446952187e+005,-1.16330377116312e+001,-3.38681633073210e+000

3.06964518184081e+005,-1.16330979965019e+001,-3.43375665905472e+000

3.11249583171928e+005,-1.16331586933375e+001,-3.48134287525641e+000

3.15594465437872e+005,-1.16332197689165e+001,-3.52958384314778e+000

3.19999999999997e+005,-1.16332811881239e+001,-3.57848855352797e+000

3.24467033532806e+005,-1.16333429139146e+001,-3.62806612630694e+000

3.28996424529938e+005,-1.16334049072779e+001,-3.67832581266675e+000

3.33589043469155e+005,-1.16334671272041e+001,-3.72927699725727e+000

3.38245772979638e+005,-1.16335295306527e+001,-3.78092920042889e+000

3.42967508011610e+005,-1.16335920725226e+001,-3.83329208050184e+000

3.47755156008335e+005,-1.16336547056243e+001,-3.88637543607169e+000

3.52609637080511e+005,-1.16337173806541e+001,-3.94018920834790e+000

3.57531884183106e+005,-1.16337800461707e+001,-3.99474348352978e+000

3.62522843294651e+005,-1.16338426485735e+001,-4.05004849521599e+000

3.67583473599047e+005,-1.16339051320842e+001,-4.10611462684612e+000

3.72714747669902e+005,-1.16339674387300e+001,-4.16295241417855e+000

3.77917651657445e+005,-1.16340295083292e+001,-4.22057254779763e+000

3.83193185478053e+005,-1.16340912784800e+001,-4.27898587565480e+000

3.88542363006410e+005,-1.16341526845512e+001,-4.33820340563954e+000

3.93966212270369e+005,-1.16342136596753e+001,-4.39823630818148e+000

3.99465775648511e+005,-1.16342741347450e+001,-4.45909591888149e+000

4.05042110070485e+005,-1.16343340384109e+001,-4.52079374117156e+000

4.10696287220124e+005,-1.16343932970830e+001,-4.58334144900292e+000

4.16429393741414e+005,-1.16344518349336e+001,-4.64675088956158e+000

4.22242531447321e+005,-1.16345095739032e+001,-4.71103408600889e+000

4.28136817531551e+005,-1.16345664337085e+001,-4.77620324025018e+000

4.34113384783250e+005,-1.16346223318525e+001,-4.84227073572601e+000

4.40173381804713e+005,-1.16346771836372e+001,-4.90924914022836e+000

4.46317973232124e+005,-1.16347309021774e+001,-4.97715120874156e+000

4.52548339959385e+005,-1.16347833984177e+001,-5.04598988630357e+000

4.58865679365059e+005,-1.16348345811498e+001,-5.11577831089264e+000

4.65271205542494e+005,-1.16348843570325e+001,-5.18652981633298e+000

4.71766149533147e+005,-1.16349326306124e+001,-5.25825793522387e+000

4.78351759563174e+005,-1.16349793043465e+001,-5.33097640188878e+000

4.85029301283321e+005,-1.16350242786249e+001,-5.40469915534580e+000

4.91800058012158e+005,-1.16350674517953e+001,-5.47944034229782e+000

4.98665330982714e+005,-1.16351087201871e+001,-5.55521432014439e+000

5.05626439592555e+005,-1.16351479781373e+001,-5.63203566001289e+000

5.12684721657352e+005,-1.16351851180144e+001,-5.70991914981201e+000

5.19841533667984e+005,-1.16352200302446e+001,-5.78887979730419e+000

5.27098251051240e+005,-1.16352526033357e+001,-5.86893283320041e+000

5.34456268434150e+005,-1.16352827239017e+001,-5.95009371427745e+000

5.41916999912011e+005,-1.16353102766858e+001,-6.03237812651527e+000

