Freq.,VOut,OutRef

1.00000000000000e+004,-2.63503619541120e+001,-4.05547878983674e-001

1.01395947979003e+004,-2.63503651491922e+001,-4.11208941594114e-001

1.02811382665607e+004,-2.63503684340743e+001,-4.16949022274026e-001

1.04246576084112e+004,-2.63503718112818e+001,-4.22769223758058e-001

1.05701804056138e+004,-2.63503752834087e+001,-4.28670664163902e-001

1.07177346253629e+004,-2.63503788531223e+001,-4.34654477201500e-001

1.08673486252606e+004,-2.63503825231642e+001,-4.40721812394042e-001

1.10190511587661e+004,-2.63503862963535e+001,-4.46873835295204e-001

1.11728713807222e+004,-2.63503901755882e+001,-4.53111727714284e-001

1.13288388529580e+004,-2.63503941638478e+001,-4.59436687939785e-001

1.14869835499703e+004,-2.63503982641954e+001,-4.65849930972815e-001

1.16473358646846e+004,-2.63504024797800e+001,-4.72352688756279e-001

1.18099266142953e+004,-2.63504068138391e+001,-4.78946210412390e-001

1.19747870461893e+004,-2.63504112697013e+001,-4.85631762478964e-001

1.21419488439505e+004,-2.63504158507882e+001,-4.92410629157058e-001

1.23114441334492e+004,-2.63504205606179e+001,-4.99284112550926e-001

1.24833054890161e+004,-2.63504254028069e+001,-5.06253532920010e-001

1.26575659397028e+004,-2.63504303810735e+001,-5.13320228932411e-001

1.28342589756290e+004,-2.63504354992401e+001,-5.20485557917235e-001

1.30134185544193e+004,-2.63504407612365e+001,-5.27750896128488e-001

1.31950791077289e+004,-2.63504461711030e+001,-5.35117639004165e-001

1.33792755478611e+004,-2.63504517329929e+001,-5.42587201436156e-001

1.35660432744767e+004,-2.63504574511764e+001,-5.50161018038305e-001

1.37554181813974e+004,-2.63504633300432e+001,-5.57840543422401e-001

1.39474366635040e+004,-2.63504693741066e+001,-5.65627252474594e-001

1.41421356237309e+004,-2.63504755880061e+001,-5.73522640638374e-001

1.43395524801583e+004,-2.63504819765118e+001,-5.81528224198617e-001

1.45397251732031e+004,-2.63504885445270e+001,-5.89645540573639e-001

1.47426921729110e+004,-2.63504952970933e+001,-5.97876148605338e-001

1.49484924863494e+004,-2.63505022393933e+001,-6.06221628859527e-001

1.51571656651040e+004,-2.63505093767550e+001,-6.14683583927049e-001

1.53687518128801e+004,-2.63505167146559e+001,-6.23263638727986e-001

1.55832915932100e+004,-2.63505242587272e+001,-6.31963440824232e-001

1.58008262372675e+004,-2.63505320147579e+001,-6.40784660730556e-001

1.60213975517924e+004,-2.63505399886995e+001,-6.49728992236431e-001

1.62450479271247e+004,-2.63505481866701e+001,-6.58798152726907e-001

1.64718203453514e+004,-2.63505566149596e+001,-6.67993883510643e-001

1.67017583885674e+004,-2.63505652800344e+001,-6.77317950150609e-001

1.69349062472505e+004,-2.63505741885417e+001,-6.86772142803028e-001

1.71713087287550e+004,-2.63505833473153e+001,-6.96358276555924e-001

1.74110112659224e+004,-2.63505927633808e+001,-7.06078191775145e-001

1.76540599258131e+004,-2.63506024439603e+001,-7.15933754456197e-001

1.79005014185594e+004,-2.63506123964785e+001,-7.25926856577641e-001

1.81503831063432e+004,-2.63506226285682e+001,-7.36059416461927e-001

1.84037530124975e+004,-2.63506331480761e+001,-7.46333379140097e-001

1.86606598307361e+004,-2.63506439630685e+001,-7.56750716722471e-001

1.89211529345119e+004,-2.63506550818379e+001,-7.67313428772155e-001

1.91852823865052e+004,-2.63506665129091e+001,-7.78023542685851e-001

1.94530989482457e+004,-2.63506782650457e+001,-7.88883114078877e-001

1.97246540898671e+004,-2.63506903472566e+001,-7.99894227175805e-001

1.99999999999999e+004,-2.63507027688029e+001,-8.11058995206477e-001

2.02791895958005e+004,-2.63507155392055e+001,-8.22379560806111e-001

2.05622765331213e+004,-2.63507286682512e+001,-8.33858096422883e-001

2.08493152168224e+004,-2.63507421660014e+001,-8.45496804728634e-001

2.11403608112276e+004,-2.63507560427988e+001,-8.57297919038605e-001

2.14354692507258e+004,-2.63507703092755e+001,-8.69263703732825e-001

2.17346972505211e+004,-2.63507849763612e+001,-8.81396454686285e-001

2.20381023175322e+004,-2.63508000552917e+001,-8.93698499702505e-001

2.23457427614443e+004,-2.63508155576168e+001,-9.06172198955374e-001

2.26576777059159e+004,-2.63508314952094e+001,-9.18819945435433e-001

2.29739670999406e+004,-2.63508478802747e+001,-9.31644165402730e-001

2.32946717293690e+004,-2.63508647253591e+001,-9.44647318844008e-001

2.36198532285905e+004,-2.63508820433598e+001,-9.57831899940014e-001

2.39495740923785e+004,-2.63508998475344e+001,-9.71200437534811e-001

2.42838976879009e+004,-2.63509181515115e+001,-9.84755495613840e-001

2.46228882668982e+004,-2.63509369693001e+001,-9.98499673787858e-001

2.49666109780322e+004,-2.63509563153009e+001,-1.01243560778289e+000

2.53151318794055e+004,-2.63509762043172e+001,-1.02656596993692e+000

2.56685179512580e+004,-2.63509966515652e+001,-1.04089346970448e+000

2.60268371088386e+004,-2.63510176726866e+001,-1.05542085416513e+000

2.63901582154578e+004,-2.63510392837596e+001,-1.07015090854197e+000

2.67585510957221e+004,-2.63510615013113e+001,-1.08508645672544e+000

2.71320865489533e+004,-2.63510843423302e+001,-1.10023036180183e+000

2.75108363627948e+004,-2.63511078242789e+001,-1.11558552659521e+000

2.78948733270080e+004,-2.63511319651070e+001,-1.13115489420853e+000

2.82842712474618e+004,-2.63511567832651e+001,-1.14694144857791e+000

2.86791049603164e+004,-2.63511822977183e+001,-1.16294821503128e+000

2.90794503464061e+004,-2.63512085279604e+001,-1.17917826085554e+000

2.94853843458219e+004,-2.63512354940288e+001,-1.19563469587140e+000

2.98969849726987e+004,-2.63512632165189e+001,-1.21232067301442e+000

3.03143313302078e+004,-2.63512917166006e+001,-1.22923938892440e+000

3.07375036257601e+004,-2.63513210160330e+001,-1.24639408454275e+000

3.11665831864199e+004,-2.63513511371815e+001,-1.26378804571804e+000

3.16016524745350e+004,-2.63513821030339e+001,-1.28142460381887e+000

3.20427951035848e+004,-2.63514139372182e+001,-1.29930713635303e+000

3.24900958542493e+004,-2.63514466640194e+001,-1.31743906759874e+000

3.29436406907028e+004,-2.63514803083985e+001,-1.33582386924077e+000

3.34035167771346e+004,-2.63515148960106e+001,-1.35446506101500e+000

3.38698124945009e+004,-2.63515504532238e+001,-1.37336621136332e+000

3.43426174575100e+004,-2.63515870071392e+001,-1.39253093809490e+000

3.48220225318448e+004,-2.63516245856111e+001,-1.41196290905707e+000

3.53081198516260e+004,-2.63516632172672e+001,-1.43166584281482e+000

3.58010028371187e+004,-2.63517029315301e+001,-1.45164350933744e+000

3.63007662126863e+004,-2.63517437586390e+001,-1.47189973069754e+000

3.68075060249948e+004,-2.63517857296725e+001,-1.49243838177332e+000

3.73213196614721e+004,-2.63518288765706e+001,-1.51326339096676e+000

3.78423058690237e+004,-2.63518732321595e+001,-1.53437874092342e+000

3.83705647730104e+004,-2.63519188301745e+001,-1.55578846926843e+000

3.89061978964912e+004,-2.63519657052862e+001,-1.57749666934557e+000

3.94493081797342e+004,-2.63520138931248e+001,-1.59950749097125e+000

3.99999999999998e+004,-2.63520634303070e+001,-1.62182514119263e+000

4.05583791916010e+004,-2.63521143544627e+001,-1.64445388505911e+000

4.11245530662425e+004,-2.63521667042623e+001,-1.66739804640191e+000

4.16986304336447e+004,-2.63522205194454e+001,-1.69066200862352e+000

4.22807216224550e+004,-2.63522758408498e+001,-1.71425021549547e+000

4.28709385014515e+004,-2.63523327104407e+001,-1.73816717197039e+000

4.34693945010421e+004,-2.63523911713424e+001,-1.76241744499711e+000

4.40762046350642e+004,-2.63524512678684e+001,-1.78700566435248e+000

4.46914855228886e+004,-2.63525130455545e+001,-1.81193652347987e+000

4.53153554118317e+004,-2.63525765511916e+001,-1.83721478033691e+000

4.59479341998812e+004,-2.63526418328593e+001,-1.86284525825694e+000

4.65893434587380e+004,-2.63527089399612e+001,-1.88883284681759e+000

4.72397064571810e+004,-2.63527779232598e+001,-1.91518250272190e+000

4.78991481847569e+004,-2.63528488349139e+001,-1.94189925068912e+000

4.85677953758016e+004,-2.63529217285156e+001,-1.96898818435518e+000

4.92457765337964e+004,-2.63529966591287e+001,-1.99645446718592e+000

4.99332219560642e+004,-2.63530736833287e+001,-2.02430333339938e+000

5.06302637588109e+004,-2.63531528592426e+001,-2.05254008890042e+000

5.13370359025159e+004,-2.63532342465907e+001,-2.08117011222355e+000

5.20536742176771e+004,-2.63533179067294e+001,-2.11019885549103e+000

5.27803164309155e+004,-2.63534039026941e+001,-2.13963184537696e+000

5.35171021914442e+004,-2.63534922992446e+001,-2.16947468408718e+000

5.42641730979066e+004,-2.63535831629105e+001,-2.19973305034704e+000

5.50216727255895e+004,-2.63536765620384e+001,-2.23041270040228e+000

5.57897466540159e+004,-2.63537725668398e+001,-2.26151946903073e+000

5.65685424949235e+004,-2.63538712494408e+001,-2.29305927056414e+000

5.73582099206328e+004,-2.63539726839321e+001,-2.32503809992424e+000

5.81589006928121e+004,-2.63540769464213e+001,-2.35746203366782e+000

5.89707686916437e+004,-2.63541841150857e+001,-2.39033723104456e+000

5.97939699453972e+004,-2.63542942702269e+001,-2.42366993506518e+000

6.06286626604156e+004,-2.63544074943259e+001,-2.45746647358446e+000

6.14750072515201e+004,-2.63545238721009e+001,-2.49173326039168e+000

6.23331663728396e+004,-2.63546434905653e+001,-2.52647679631585e+000

6.32033049490698e+004,-2.63547664390874e+001,-2.56170367034183e+000

6.40855902071694e+004,-2.63548928094521e+001,-2.59742056073845e+000

6.49801917084985e+004,-2.63550226959230e+001,-2.63363423619829e+000

6.58872813814055e+004,-2.63551561953071e+001,-2.67035155698952e+000

6.68070335542691e+004,-2.63552934070202e+001,-2.70757947611966e+000

6.77396249890018e+004,-2.63554344331544e+001,-2.74532504051213e+000

6.86852349150199e+004,-2.63555793785466e+001,-2.78359539219280e+000

6.96440450636895e+004,-2.63557283508492e+001,-2.82239776949150e+000

7.06162397032520e+004,-2.63558814606019e+001,-2.86173950825297e+000

7.16020056742374e+004,-2.63560388213055e+001,-2.90162804306144e+000

7.26015324253724e+004,-2.63562005494976e+001,-2.94207090847671e+000

7.36150120499896e+004,-2.63563667648289e+001,-2.98307574028265e+000

7.46426393229441e+004,-2.63565375901429e+001,-3.02465027674814e+000

7.56846117380472e+004,-2.63567131515558e+001,-3.06680235989929e+000

7.67411295460207e+004,-2.63568935785392e+001,-3.10953993680435e+000

7.78123957929823e+004,-2.63570790040046e+001,-3.15287106087115e+000

7.88986163594682e+004,-2.63572695643886e+001,-3.19680389315622e+000

7.99999999999995e+004,-2.63574653997417e+001,-3.24134670368618e+000

8.11167583832018e+004,-2.63576666538179e+001,-3.28650787279063e+000

8.22491061324848e+004,-2.63578734741659e+001,-3.33229589244970e+000

8.33972608672892e+004,-2.63580860122238e+001,-3.37871936764999e+000

8.45614432449099e+004,-2.63583044234139e+001,-3.42578701775591e+000

8.57418770029029e+004,-2.63585288672411e+001,-3.47350767789099e+000

8.69387890020841e+004,-2.63587595073921e+001,-3.52189030033335e+000

8.81524092701283e+004,-2.63589965118377e+001,-3.57094395592093e+000

8.93829710457770e+004,-2.63592400529362e+001,-3.62067783547102e+000

9.06307108236633e+004,-2.63594903075398e+001,-3.67110125120988e+000

9.18958683997622e+004,-2.63597474571024e+001,-3.72222363821681e+000

9.31786869174758e+004,-2.63600116877902e+001,-3.77405455587736e+000

9.44794129143618e+004,-2.63602831905940e+001,-3.82660368935127e+000

9.57982963695136e+004,-2.63605621614435e+001,-3.87988085105122e+000

9.71355907516031e+004,-2.63608488013247e+001,-3.93389598213285e+000

9.84915530675926e+004,-2.63611433163989e+001,-3.98865915399849e+000

9.98664439121282e+004,-2.63614459181234e+001,-4.04418056981215e+000

1.01260527517622e+005,-2.63617568233759e+001,-4.10047056602556e+000

1.02674071805032e+005,-2.63620762545800e+001,-4.15753961391810e+000

1.04107348435354e+005,-2.63624044398335e+001,-4.21539832114719e+000

1.05560632861831e+005,-2.63627416130386e+001,-4.27405743331149e+000

1.07034204382888e+005,-2.63630880140352e+001,-4.33352783552579e+000

1.08528346195813e+005,-2.63634438887356e+001,-4.39382055400883e+000

1.10043345451179e+005,-2.63638094892625e+001,-4.45494675768150e+000

1.11579493308032e+005,-2.63641850740886e+001,-4.51691775977956e+000

1.13137084989847e+005,-2.63645709081788e+001,-4.57974501947688e+000

1.14716419841265e+005,-2.63649672631349e+001,-4.64344014352112e+000

1.16317801385624e+005,-2.63653744173430e+001,-4.70801488788311e+000

1.17941537383287e+005,-2.63657926561225e+001,-4.77348115941657e+000

1.19587939890794e+005,-2.63662222718780e+001,-4.83985101753333e+000

1.21257325320831e+005,-2.63666635642538e+001,-4.90713667588838e+000

1.22950014503040e+005,-2.63671168402905e+001,-4.97535050407984e+000

1.24666332745679e+005,-2.63675824145841e+001,-5.04450502936073e+000

1.26406609898139e+005,-2.63680606094476e+001,-5.11461293836516e+000

1.28171180414339e+005,-2.63685517550749e+001,-5.18568707884715e+000

1.29960383416997e+005,-2.63690561897073e+001,-5.25774046143354e+000

1.31774562762811e+005,-2.63695742598025e+001,-5.33078626139059e+000

1.33614067108538e+005,-2.63701063202057e+001,-5.40483782040546e+000

1.35479249978003e+005,-2.63706527343236e+001,-5.47990864838125e+000

1.37370469830040e+005,-2.63712138743008e+001,-5.55601242524853e+000

1.39288090127379e+005,-2.63717901211982e+001,-5.63316300279062e+000

1.41232479406504e+005,-2.63723818651747e+001,-5.71137440648573e+000

1.43204011348474e+005,-2.63729895056705e+001,-5.79066083736496e+000

1.45203064850745e+005,-2.63736134515938e+001,-5.87103667388679e+000

1.47230024099979e+005,-2.63742541215093e+001,-5.95251647382970e+000

1.49285278645888e+005,-2.63749119438299e+001,-6.03511497620102e+000

1.51369223476094e+005,-2.63755873570103e+001,-6.11884710316629e+000

1.53482259092041e+005,-2.63762808097439e+001,-6.20372796199575e+000

1.55624791585964e+005,-2.63769927611619e+001,-6.28977284703227e+000

1.57797232718936e+005,-2.63777236810351e+001,-6.37699724167858e+000

1.59999999999999e+005,-2.63784740499786e+001,-6.46541682040688e+000

1.62233516766403e+005,-2.63792443596595e+001,-6.55504745078976e+000

1.64498212264969e+005,-2.63800351130066e+001,-6.64590519555509e+000

1.66794521734578e+005,-2.63808468244242e+001,-6.73800631466423e+000

1.69122886489819e+005,-2.63816800200077e+001,-6.83136726741557e+000

1.71483754005805e+005,-2.63825352377634e+001,-6.92600471457449e+000

1.73877578004168e+005,-2.63834130278303e+001,-7.02193552052949e+000

1.76304818540256e+005,-2.63843139527061e+001,-7.11917675547771e+000

1.78765942091554e+005,-2.63852385874765e+001,-7.21774569763933e+000

1.81261421647326e+005,-2.63861875200473e+001,-7.31765983550199e+000

1.83791736799524e+005,-2.63871613513812e+001,-7.41893687009901e+000

1.86357373834951e+005,-2.63881606957376e+001,-7.52159471731873e+000

1.88958825828723e+005,-2.63891861809168e+001,-7.62565151024944e+000

1.91596592739027e+005,-2.63902384485088e+001,-7.73112560156020e+000

1.94271181503206e+005,-2.63913181541458e+001,-7.83803556591887e+000

1.96983106135185e+005,-2.63924259677597e+001,-7.94640020244816e+000

1.99732887824256e+005,-2.63935625738452e+001,-8.05623853722292e+000

2.02521055035243e+005,-2.63947286717267e+001,-8.16756982580831e+000

2.05348143610063e+005,-2.63959249758325e+001,-8.28041355584038e+000

2.08214696870707e+005,-2.63971522159732e+001,-8.39478944965251e+000

2.11121265723661e+005,-2.63984111376278e+001,-8.51071746694556e+000

2.14068408765776e+005,-2.63997025022354e+001,-8.62821780750771e+000

2.17056692391625e+005,-2.64010270874942e+001,-8.74731091398014e+000

2.20086690902357e+005,-2.64023856876684e+001,-8.86801747467409e+000

2.23158986616063e+005,-2.64037791139023e+001,-8.99035842643920e+000

2.26274169979693e+005,-2.64052081945439e+001,-9.11435495758239e+000

2.29432839682530e+005,-2.64066737754763e+001,-9.24002851084153e+000

2.32635602771247e+005,-2.64081767204595e+001,-9.36740078641245e+000

2.35883074766574e+005,-2.64097179114821e+001,-9.49649374503110e+000

2.39175879781588e+005,-2.64112982491237e+001,-9.62732961111204e+000

2.42514650641661e+005,-2.64129186529291e+001,-9.75993087594196e+000

2.45900029006080e+005,-2.64145800617943e+001,-9.89432030093103e+000

2.49332665491357e+005,-2.64162834343653e+001,-1.00305209209205e+001

2.52813219796278e+005,-2.64180297494512e+001,-1.01685560475470e+001

2.56342360828676e+005,-2.64198200064511e+001,-1.03084492726638e+001

2.59920766833993e+005,-2.64216552257968e+001,-1.04502244718172e+001

2.63549125525621e+005,-2.64235364494109e+001,-1.05939058077797e+001

2.67228134217075e+005,-2.64254647411833e+001,-1.07395177341348e+001

2.70958499956006e+005,-2.64274411874639e+001,-1.08870849989171e+001

2.74740939660078e+005,-2.64294668975760e+001,-1.10366326483011e+001

2.78576180254757e+005,-2.64315430043481e+001,-1.11881860303403e+001

2.82464958813007e+005,-2.64336706646678e+001,-1.13417707987514e+001

2.86408022696948e+005,-2.64358510600564e+001,-1.14974129167422e+001

2.90406129701488e+005,-2.64380853972676e+001,-1.16551386608794e+001

2.94460048199957e+005,-2.64403749089092e+001,-1.18149746249928e+001

2.98570557291775e+005,-2.64427208540904e+001,-1.19769477241102e+001

3.02738446952187e+005,-2.64451245190950e+001,-1.21410851984202e+001

3.06964518184081e+005,-2.64475872180815e+001,-1.23074146172565e+001

3.11249583171928e+005,-2.64501102938117e+001,-1.24759638830975e+001

3.15594465437872e+005,-2.64526951184083e+001,-1.26467612355756e+001

3.19999999999997e+005,-2.64553430941429e+001,-1.28198352554899e+001

3.24467033532806e+005,-2.64580556542550e+001,-1.29952148688114e+001

3.28996424529938e+005,-2.64608342638035e+001,-1.31729293506783e+001

3.33589043469155e+005,-2.64636804205515e+001,-1.33530083293673e+001

3.38245772979638e+005,-2.64665956558845e+001,-1.35354817902347e+001

3.42967508011610e+005,-2.64695815357646e+001,-1.37203800796171e+001

3.47755156008335e+005,-2.64726396617196e+001,-1.39077339086797e+001

3.52609637080511e+005,-2.64757716718695e+001,-1.40975743572045e+001

3.57531884183106e+005,-2.64789792419896e+001,-1.42899328773027e+001

3.62522843294651e+005,-2.64822640866117e+001,-1.44848412970432e+001

3.67583473599047e+005,-2.64856279601643e+001,-1.46823318239807e+001

3.72714747669902e+005,-2.64890726581509e+001,-1.48824370485748e+001

3.77917651657445e+005,-2.64926000183686e+001,-1.50851899474817e+001

3.83193185478053e+005,-2.64962119221652e+001,-1.52906238867082e+001

3.88542363006410e+005,-2.64999102957378e+001,-1.54987726246106e+001

3.93966212270369e+005,-2.65036971114694e+001,-1.57096703147263e+001

3.99465775648511e+005,-2.65075743893069e+001,-1.59233515084197e+001

4.05042110070485e+005,-2.65115441981784e+001,-1.61398511573297e+001

4.10696287220124e+005,-2.65156086574498e+001,-1.63592046156004e+001

4.16429393741414e+005,-2.65197699384208e+001,-1.65814476418805e+001

4.22242531447321e+005,-2.65240302658593e+001,-1.68066164010738e+001

4.28136817531551e+005,-2.65283919195738e+001,-1.70347474658249e+001

4.34113384783250e+005,-2.65328572360234e+001,-1.72658778177227e+001

4.40173381804713e+005,-2.65374286099633e+001,-1.75000448482068e+001

4.46317973232124e+005,-2.65421084961256e+001,-1.77372863591562e+001

4.52548339959385e+005,-2.65468994109346e+001,-1.79776405631479e+001

4.58865679365059e+005,-2.65518039342542e+001,-1.82211460833668e+001

4.65271205542494e+005,-2.65568247111661e+001,-1.84678419531490e+001

4.71766149533147e+005,-2.65619644537782e+001,-1.87177676151447e+001

4.78351759563174e+005,-2.65672259430601e+001,-1.89709629200842e+001

4.85029301283321e+005,-2.65726120307042e+001,-1.92274681251289e+001

4.91800058012158e+005,-2.65781256410106e+001,-1.94873238917959e+001

4.98665330982714e+005,-2.65837697727939e+001,-1.97505712834371e+001

5.05626439592555e+005,-2.65895475013083e+001,-2.00172517622622e+001

5.12684721657352e+005,-2.65954619801895e+001,-2.02874071858883e+001

5.19841533667984e+005,-2.66015164434109e+001,-2.05610798034044e+001

5.27098251051240e+005,-2.66077142072512e+001,-2.08383122509386e+001

5.34456268434150e+005,-2.66140586722698e+001,-2.11191475467127e+001

5.41916999912011e+005,-2.66205533252883e+001,-2.14036290855767e+001

