Freq.,VOut,OutRef

1.00000000000000e+004,-1.36982084370900e+001,-8.59117138903524e-002

1.01395947979003e+004,-1.36982089073222e+001,-8.71109385729213e-002

1.02811382665607e+004,-1.36982093907650e+001,-8.83269013384813e-002

1.04246576084112e+004,-1.36982098877890e+001,-8.95598357398816e-002

1.05701804056138e+004,-1.36982103987755e+001,-9.08099785813731e-002

1.07177346253629e+004,-1.36982109241165e+001,-9.20775699704122e-002

1.08673486252606e+004,-1.36982114642148e+001,-9.33628533621130e-002

1.10190511587661e+004,-1.36982120194847e+001,-9.46660756020000e-002

1.11728713807222e+004,-1.36982125903518e+001,-9.59874869806089e-002

1.13288388529580e+004,-1.36982131772541e+001,-9.73273412726102e-002

1.14869835499703e+004,-1.36982137806416e+001,-9.86858957911436e-002

1.16473358646846e+004,-1.36982144009767e+001,-1.00063411437206e-001

1.18099266142953e+004,-1.36982150387349e+001,-1.01460152746097e-001

1.19747870461893e+004,-1.36982156944054e+001,-1.02876387937824e-001

1.21419488439505e+004,-1.36982163684906e+001,-1.04312388972999e-001

1.23114441334492e+004,-1.36982170615071e+001,-1.05768431599083e-001

1.24833054890161e+004,-1.36982177739861e+001,-1.07244795407132e-001

1.26575659397028e+004,-1.36982185064736e+001,-1.08741763883180e-001

1.28342589756290e+004,-1.36982192595307e+001,-1.10259624461640e-001

1.30134185544193e+004,-1.36982200337346e+001,-1.11798668582223e-001

1.31950791077289e+004,-1.36982208296781e+001,-1.13359191745267e-001

1.33792755478611e+004,-1.36982216479710e+001,-1.14941493565219e-001

1.35660432744767e+004,-1.36982224892404e+001,-1.16545877828330e-001

1.37554181813974e+004,-1.36982233541301e+001,-1.18172652556798e-001

1.39474366635040e+004,-1.36982242433026e+001,-1.19822130058493e-001

1.41421356237309e+004,-1.36982251574389e+001,-1.21494626989686e-001

1.43395524801583e+004,-1.36982260972387e+001,-1.23190464419404e-001

1.45397251732031e+004,-1.36982270634213e+001,-1.24909967885025e-001

1.47426921729110e+004,-1.36982280567264e+001,-1.26653467456509e-001

1.49484924863494e+004,-1.36982290779143e+001,-1.28421297798074e-001

1.51571656651040e+004,-1.36982301277664e+001,-1.30213798233398e-001

1.53687518128801e+004,-1.36982312070858e+001,-1.32031312810886e-001

1.55832915932100e+004,-1.36982323166984e+001,-1.33874190364761e-001

1.58008262372675e+004,-1.36982334574528e+001,-1.35742784585464e-001

1.60213975517924e+004,-1.36982346302216e+001,-1.37637454085219e-001

1.62450479271247e+004,-1.36982358359017e+001,-1.39558562465947e-001

1.64718203453514e+004,-1.36982370754148e+001,-1.41506478389390e-001

1.67017583885674e+004,-1.36982383497084e+001,-1.43481575645530e-001

1.69349062472505e+004,-1.36982396597567e+001,-1.45484233223672e-001

1.71713087287550e+004,-1.36982410065607e+001,-1.47514835386506e-001

1.74110112659224e+004,-1.36982423911497e+001,-1.49573771738129e-001

1.76540599258131e+004,-1.36982438145815e+001,-1.51661437302483e-001

1.79005014185594e+004,-1.36982452779431e+001,-1.53778232597467e-001

1.81503831063432e+004,-1.36982467823522e+001,-1.55924563707886e-001

1.84037530124975e+004,-1.36982483289575e+001,-1.58100842364939e-001

1.86606598307361e+004,-1.36982499189398e+001,-1.60307486021944e-001

1.89211529345119e+004,-1.36982515535125e+001,-1.62544917936834e-001

1.91852823865052e+004,-1.36982532339231e+001,-1.64813567246491e-001

1.94530989482457e+004,-1.36982549614535e+001,-1.67113869053229e-001

1.97246540898671e+004,-1.36982567374217e+001,-1.69446264503046e-001

1.99999999999999e+004,-1.36982585631817e+001,-1.71811200872666e-001

2.02791895958005e+004,-1.36982604401257e+001,-1.74209131648648e-001

2.05622765331213e+004,-1.36982623696846e+001,-1.76640516616378e-001

2.08493152168224e+004,-1.36982643533286e+001,-1.79105821947786e-001

2.11403608112276e+004,-1.36982663925693e+001,-1.81605520284159e-001

2.14354692507258e+004,-1.36982684889597e+001,-1.84140090830890e-001

2.17346972505211e+004,-1.36982706440964e+001,-1.86710019442207e-001

2.20381023175322e+004,-1.36982728596202e+001,-1.89315798715778e-001

2.23457427614443e+004,-1.36982751372169e+001,-1.91957928086038e-001

2.26576777059159e+004,-1.36982774786199e+001,-1.94636913912314e-001

2.29739670999406e+004,-1.36982798856100e+001,-1.97353269580595e-001

2.32946717293690e+004,-1.36982823600176e+001,-2.00107515594819e-001

2.36198532285905e+004,-1.36982849037235e+001,-2.02900179678189e-001

2.39495740923785e+004,-1.36982875186611e+001,-2.05731796866518e-001

2.42838976879009e+004,-1.36982902068168e+001,-2.08602909613770e-001

2.46228882668982e+004,-1.36982929702322e+001,-2.11514067890510e-001

2.49666109780322e+004,-1.36982958110051e+001,-2.14465829286864e-001

2.53151318794055e+004,-1.36982987312916e+001,-2.17458759115737e-001

2.56685179512580e+004,-1.36983017333071e+001,-2.20493430521051e-001

2.60268371088386e+004,-1.36983048193282e+001,-2.23570424580106e-001

2.63901582154578e+004,-1.36983079916944e+001,-2.26690330415469e-001

2.67585510957221e+004,-1.36983112528095e+001,-2.29853745302618e-001

2.71320865489533e+004,-1.36983146051436e+001,-2.33061274780469e-001

2.75108363627948e+004,-1.36983180512352e+001,-2.36313532764009e-001

2.78948733270080e+004,-1.36983215936921e+001,-2.39611141659535e-001

2.82842712474618e+004,-1.36983252351942e+001,-2.42954732477293e-001

2.86791049603164e+004,-1.36983289784952e+001,-2.46344944949426e-001

2.90794503464061e+004,-1.36983328264240e+001,-2.49782427648407e-001

2.94853843458219e+004,-1.36983367818874e+001,-2.53267838107173e-001

2.98969849726987e+004,-1.36983408478722e+001,-2.56801842937783e-001

3.03143313302078e+004,-1.36983450274467e+001,-2.60385117956514e-001

3.07375036257601e+004,-1.36983493237636e+001,-2.64018348307613e-001

3.11665831864199e+004,-1.36983537400617e+001,-2.67702228587771e-001

3.16016524745350e+004,-1.36983582796684e+001,-2.71437462975421e-001

3.20427951035848e+004,-1.36983629460025e+001,-2.75224765357183e-001

3.24900958542493e+004,-1.36983677425754e+001,-2.79064859463358e-001

3.29436406907028e+004,-1.36983726729952e+001,-2.82958478992376e-001

3.34035167771346e+004,-1.36983777409675e+001,-2.86906367752781e-001

3.38698124945009e+004,-1.36983829502998e+001,-2.90909279791545e-001

3.43426174575100e+004,-1.36983883049024e+001,-2.94967979537159e-001

3.48220225318448e+004,-1.36983938087927e+001,-2.99083241933931e-001

3.53081198516260e+004,-1.36983994660965e+001,-3.03255852585352e-001

3.58010028371187e+004,-1.36984052810524e+001,-3.07486607893812e-001

3.63007662126863e+004,-1.36984112580133e+001,-3.11776315207377e-001

3.68075060249948e+004,-1.36984174014502e+001,-3.16125792962952e-001

3.73213196614721e+004,-1.36984237159552e+001,-3.20535870835382e-001

3.78423058690237e+004,-1.36984302062445e+001,-3.25007389884839e-001

3.83705647730104e+004,-1.36984368771615e+001,-3.29541202709517e-001

3.89061978964912e+004,-1.36984437336804e+001,-3.34138173596642e-001

3.94493081797342e+004,-1.36984507809091e+001,-3.38799178679100e-001

3.99999999999998e+004,-1.36984580240934e+001,-3.43525106088294e-001

4.05583791916010e+004,-1.36984654686195e+001,-3.48316856117029e-001

4.11245530662425e+004,-1.36984731200185e+001,-3.53175341374538e-001

4.16986304336447e+004,-1.36984809839694e+001,-3.58101486952004e-001

4.22807216224550e+004,-1.36984890663036e+001,-3.63096230584032e-001

4.28709385014515e+004,-1.36984973730080e+001,-3.68160522814492e-001

4.34693945010421e+004,-1.36985059102292e+001,-3.73295327165431e-001

4.40762046350642e+004,-1.36985146842779e+001,-3.78501620302958e-001

4.46914855228886e+004,-1.36985237016322e+001,-3.83780392213352e-001

4.53153554118317e+004,-1.36985329689425e+001,-3.89132646371411e-001

4.59479341998812e+004,-1.36985424930357e+001,-3.94559399917088e-001

4.65893434587380e+004,-1.36985522809190e+001,-4.00061683833812e-001

4.72397064571810e+004,-1.36985623397849e+001,-4.05640543124842e-001

4.78991481847569e+004,-1.36985726770157e+001,-4.11297036996817e-001

4.85677953758016e+004,-1.36985833001879e+001,-4.17032239038925e-001

4.92457765337964e+004,-1.36985942170769e+001,-4.22847237411608e-001

4.99332219560642e+004,-1.36986054356623e+001,-4.28743135028332e-001

5.06302637588109e+004,-1.36986169641323e+001,-4.34721049749133e-001

5.13370359025159e+004,-1.36986288108890e+001,-4.40782114567446e-001

5.20536742176771e+004,-1.36986409845533e+001,-4.46927477803829e-001

5.27803164309155e+004,-1.36986534939702e+001,-4.53158303301222e-001

5.35171021914442e+004,-1.36986663482143e+001,-4.59475770619673e-001

5.42641730979066e+004,-1.36986795565946e+001,-4.65881075236616e-001

5.50216727255895e+004,-1.36986931286609e+001,-4.72375428744215e-001

5.57897466540159e+004,-1.36987070742084e+001,-4.78960059055896e-001

5.65685424949235e+004,-1.36987214032840e+001,-4.85636210606875e-001

5.73582099206328e+004,-1.36987361261918e+001,-4.92405144561647e-001

5.81589006928121e+004,-1.36987512534994e+001,-4.99268139022764e-001

5.89707686916437e+004,-1.36987667960427e+001,-5.06226489241749e-001

5.97939699453972e+004,-1.36987827649335e+001,-5.13281507828522e-001

6.06286626604156e+004,-1.36987991715644e+001,-5.20434524967793e-001

6.14750072515201e+004,-1.36988160276154e+001,-5.27686888634839e-001

6.23331663728396e+004,-1.36988333450606e+001,-5.35039964812175e-001

6.32033049490698e+004,-1.36988511361738e+001,-5.42495137711684e-001

6.40855902071694e+004,-1.36988694135355e+001,-5.50053809994076e-001

6.49801917084985e+004,-1.36988881900394e+001,-5.57717402994186e-001

6.58872813814055e+004,-1.36989074788986e+001,-5.65487356947812e-001

6.68070335542691e+004,-1.36989272936528e+001,-5.73365131215737e-001

6.77396249890018e+004,-1.36989476481749e+001,-5.81352204516531e-001

6.86852349150199e+004,-1.36989685566772e+001,-5.89450075157580e-001

6.96440450636895e+004,-1.36989900337191e+001,-5.97660261267331e-001

7.06162397032520e+004,-1.36990120942138e+001,-6.05984301029990e-001

7.16020056742374e+004,-1.36990347534347e+001,-6.14423752924502e-001

7.26015324253724e+004,-1.36990580270229e+001,-6.22980195962241e-001

7.36150120499896e+004,-1.36990819309946e+001,-6.31655229926974e-001

7.46426393229441e+004,-1.36991064817471e+001,-6.40450475619580e-001

7.56846117380472e+004,-1.36991316960667e+001,-6.49367575099372e-001

7.67411295460207e+004,-1.36991575911357e+001,-6.58408191933174e-001

7.78123957929823e+004,-1.36991841845391e+001,-6.67574011441144e-001

7.88986163594682e+004,-1.36992114942720e+001,-6.76866740947598e-001

7.99999999999995e+004,-1.36992395387466e+001,-6.86288110031218e-001

8.11167583832018e+004,-1.36992683367996e+001,-6.95839870778544e-001

8.22491061324848e+004,-1.36992979076983e+001,-7.05523798040011e-001

8.33972608672892e+004,-1.36993282711484e+001,-7.15341689684637e-001

8.45614432449099e+004,-1.36993594473006e+001,-7.25295366859807e-001

8.57418770029029e+004,-1.36993914567574e+001,-7.35386674249241e-001

8.69387890020841e+004,-1.36994243205798e+001,-7.45617480337182e-001

8.81524092701283e+004,-1.36994580602941e+001,-7.55989677668221e-001

8.93829710457770e+004,-1.36994926978982e+001,-7.66505183115692e-001

9.06307108236633e+004,-1.36995282558679e+001,-7.77165938146450e-001

9.18958683997622e+004,-1.36995647571635e+001,-7.87973909087228e-001

9.31786869174758e+004,-1.36996022252352e+001,-7.98931087399252e-001

9.44794129143618e+004,-1.36996406840297e+001,-8.10039489944172e-001

9.57982963695136e+004,-1.36996801579952e+001,-8.21301159260274e-001

9.71355907516031e+004,-1.36997206720871e+001,-8.32718163837325e-001

9.84915530675926e+004,-1.36997622517728e+001,-8.44292598391807e-001

9.98664439121282e+004,-1.36998049230369e+001,-8.56026584144461e-001

1.01260527517622e+005,-1.36998487123856e+001,-8.67922269102044e-001

1.02674071805032e+005,-1.36998936468505e+001,-8.79981828337851e-001

1.04107348435354e+005,-1.36999397539933e+001,-8.92207464272724e-001

1.05560632861831e+005,-1.36999870619081e+001,-9.04601406964140e-001

1.07034204382888e+005,-1.37000355992250e+001,-9.17165914390366e-001

1.08528346195813e+005,-1.37000853951129e+001,-9.29903272738460e-001

1.10043345451179e+005,-1.37001364792809e+001,-9.42815796697405e-001

1.11579493308032e+005,-1.37001888819802e+001,-9.55905829748769e-001

1.13137084989847e+005,-1.37002426340048e+001,-9.69175744461547e-001

1.14716419841265e+005,-1.37002977666922e+001,-9.82627942789617e-001

1.16317801385624e+005,-1.37003543119227e+001,-9.96264856371218e-001

1.17941537383287e+005,-1.37004123021188e+001,-1.01008894682742e+000

1.19587939890794e+005,-1.37004717702431e+001,-1.02410270607042e+000

1.21257325320831e+005,-1.37005327497964e+001,-1.03830865660546e+000

1.22950014503040e+005,-1.37005952748137e+001,-1.05270935184333e+000

1.24666332745679e+005,-1.37006593798609e+001,-1.06730737640978e+000

1.26406609898139e+005,-1.37007251000293e+001,-1.08210534646239e+000

1.28171180414339e+005,-1.37007924709297e+001,-1.09710591000822e+000

1.29960383416997e+005,-1.37008615286856e+001,-1.11231174722453e+000

1.31774562762811e+005,-1.37009323099249e+001,-1.12772557078571e+000

1.33614067108538e+005,-1.37010048517715e+001,-1.14335012619131e+000

1.35479249978003e+005,-1.37010791918343e+001,-1.15918819209899e+000

1.37370469830040e+005,-1.37011553681964e+001,-1.17524258066384e+000

1.39288090127379e+005,-1.37012334194016e+001,-1.19151613788021e+000

1.41232479406504e+005,-1.37013133844418e+001,-1.20801174392772e+000

1.43204011348474e+005,-1.37013953027402e+001,-1.22473231352662e+000

1.45203064850745e+005,-1.37014792141354e+001,-1.24168079629520e+000

1.47230024099979e+005,-1.37015651588631e+001,-1.25886017711427e+000

1.49285278645888e+005,-1.37016531775359e+001,-1.27627347649987e+000

1.51369223476094e+005,-1.37017433111228e+001,-1.29392375098076e+000

1.53482259092041e+005,-1.37018356009254e+001,-1.31181409348537e+000

1.55624791585964e+005,-1.37019300885537e+001,-1.32994763373491e+000

1.57797232718936e+005,-1.37020268158997e+001,-1.34832753864718e+000

1.59999999999999e+005,-1.37021258251092e+001,-1.36695701274820e+000

1.62233516766403e+005,-1.37022271585516e+001,-1.38583929859346e+000

1.64498212264969e+005,-1.37023308587884e+001,-1.40497767720015e+000

1.66794521734578e+005,-1.37024369685389e+001,-1.42437546849200e+000

1.69122886489819e+005,-1.37025455306447e+001,-1.44403603175244e+000

1.71483754005805e+005,-1.37026565880317e+001,-1.46396276609303e+000

1.73877578004168e+005,-1.37027701836702e+001,-1.48415911093504e+000

1.76304818540256e+005,-1.37028863605329e+001,-1.50462854650428e+000

1.78765942091554e+005,-1.37030051615506e+001,-1.52537459434228e+000

1.81261421647326e+005,-1.37031266295664e+001,-1.54640081783130e+000

1.83791736799524e+005,-1.37032508072865e+001,-1.56771082273884e+000

1.86357373834951e+005,-1.37033777372300e+001,-1.58930825777748e+000

1.88958825828723e+005,-1.37035074616759e+001,-1.61119681518611e+000

1.91596592739027e+005,-1.37036400226078e+001,-1.63338023132940e+000

1.94271181503206e+005,-1.37037754616569e+001,-1.65586228731768e+000

1.96983106135185e+005,-1.37039138200420e+001,-1.67864680965117e+000

1.99732887824256e+005,-1.37040551385083e+001,-1.70173767088521e+000

2.02521055035243e+005,-1.37041994572629e+001,-1.72513879032078e+000

2.05348143610063e+005,-1.37043468159093e+001,-1.74885413472021e+000

2.08214696870707e+005,-1.37044972533788e+001,-1.77288771905069e+000

2.11121265723661e+005,-1.37046508078606e+001,-1.79724360725388e+000

2.14068408765776e+005,-1.37048075167296e+001,-1.82192591304679e+000

2.17056692391625e+005,-1.37049674164719e+001,-1.84693880075144e+000

2.20086690902357e+005,-1.37051305426095e+001,-1.87228648615757e+000

2.23158986616063e+005,-1.37052969296221e+001,-1.89797323741686e+000

2.26274169979693e+005,-1.37054666108681e+001,-1.92400337597415e+000

2.29432839682530e+005,-1.37056396185036e+001,-1.95038127753001e+000

2.32635602771247e+005,-1.37058159834002e+001,-1.97711137304588e+000

2.35883074766574e+005,-1.37059957350618e+001,-2.00419814978098e+000

2.39175879781588e+005,-1.37061789015398e+001,-2.03164615237414e+000

2.42514650641661e+005,-1.37063655093477e+001,-2.05945998396292e+000

2.45900029006080e+005,-1.37065555833751e+001,-2.08764430734512e+000

2.49332665491357e+005,-1.37067491468008e+001,-2.11620384618434e+000

2.52813219796278e+005,-1.37069462210060e+001,-2.14514338625776e+000

2.56342360828676e+005,-1.37071468254872e+001,-2.17446777675006e+000

2.59920766833993e+005,-1.37073509777689e+001,-2.20418193159431e+000

2.63549125525621e+005,-1.37075586933176e+001,-2.23429083085656e+000

2.67228134217075e+005,-1.37077699854555e+001,-2.26479952217261e+000

2.70958499956006e+005,-1.37079848652758e+001,-2.29571312222844e+000

2.74740939660078e+005,-1.37082033415588e+001,-2.32703681829491e+000

2.78576180254757e+005,-1.37084254206902e+001,-2.35877586980753e+000

2.82464958813007e+005,-1.37086511065802e+001,-2.39093560999925e+000

2.86408022696948e+005,-1.37088804005858e+001,-2.42352144758331e+000

2.90406129701488e+005,-1.37091133014350e+001,-2.45653886848564e+000

2.94460048199957e+005,-1.37093498051542e+001,-2.48999343762973e+000

2.98570557291775e+005,-1.37095899049980e+001,-2.52389080077088e+000

3.02738446952187e+005,-1.37098335913841e+001,-2.55823668638095e+000

3.06964518184081e+005,-1.37100808518303e+001,-2.59303690758531e+000

3.11249583171928e+005,-1.37103316708970e+001,-2.62829736414629e+000

3.15594465437872e+005,-1.37105860301335e+001,-2.66402404449800e+000

3.19999999999997e+005,-1.37108439080301e+001,-2.70022302782882e+000

3.24467033532806e+005,-1.37111052799744e+001,-2.73690048621085e+000

3.28996424529938e+005,-1.37113701182145e+001,-2.77406268677429e+000

3.33589043469155e+005,-1.37116383918271e+001,-2.81171599392869e+000

3.38245772979638e+005,-1.37119100666922e+001,-2.84986687162545e+000

3.42967508011610e+005,-1.37121851054751e+001,-2.88852188566315e+000

3.47755156008335e+005,-1.37124634676147e+001,-2.92768770603115e+000

3.52609637080511e+005,-1.37127451093184e+001,-2.96737110929227e+000

3.57531884183106e+005,-1.37130299835662e+001,-3.00757898099954e+000

3.62522843294651e+005,-1.37133180401213e+001,-3.04831831814670e+000

3.67583473599047e+005,-1.37136092255483e+001,-3.08959623165042e+000

3.72714747669902e+005,-1.37139034832409e+001,-3.13141994885846e+000

3.77917651657445e+005,-1.37142007534570e+001,-3.17379681608521e+000

3.83193185478053e+005,-1.37145009733624e+001,-3.21673430116849e+000

3.88542363006410e+005,-1.37148040770835e+001,-3.26023999604639e+000

3.93966212270369e+005,-1.37151099957680e+001,-3.30432161935141e+000

3.99465775648511e+005,-1.37154186576553e+001,-3.34898701901608e+000

4.05042110070485e+005,-1.37157299881547e+001,-3.39424417489140e+000

4.10696287220124e+005,-1.37160439099331e+001,-3.44010120137050e+000

4.16429393741414e+005,-1.37163603430109e+001,-3.48656635001709e+000

4.22242531447321e+005,-1.37166792048668e+001,-3.53364801219441e+000

4.28136817531551e+005,-1.37170004105510e+001,-3.58135472169226e+000

4.34113384783250e+005,-1.37173238728065e+001,-3.62969515734700e+000

4.40173381804713e+005,-1.37176495021986e+001,-3.67867814565355e+000

4.46317973232124e+005,-1.37179772072529e+001,-3.72831266336663e+000

4.52548339959385e+005,-1.37183068945997e+001,-3.77860784008489e+000

4.58865679365059e+005,-1.37186384691264e+001,-3.82957296081982e+000

4.65271205542494e+005,-1.37189718341368e+001,-3.88121746854319e+000

4.71766149533147e+005,-1.37193068915169e+001,-3.93355096671141e+000

4.78351759563174e+005,-1.37196435419063e+001,-3.98658322176554e+000

4.85029301283321e+005,-1.37199816848762e+001,-4.04032416560383e+000

4.91800058012158e+005,-1.37203212191115e+001,-4.09478389802481e+000

4.98665330982714e+005,-1.37206620425984e+001,-4.14997268913957e+000

5.05626439592555e+005,-1.37210040528158e+001,-4.20590098175187e+000

5.12684721657352e+005,-1.37213471469305e+001,-4.26257939370288e+000

5.19841533667984e+005,-1.37216912219949e+001,-4.32001872018474e+000

5.27098251051240e+005,-1.37220361751480e+001,-4.37822993601445e+000

5.34456268434150e+005,-1.37223819038177e+001,-4.43722419787554e+000

5.41916999912011e+005,-1.37227283059243e+001,-4.49701284652243e+000

