Freq.,VOut,OutRef

1.00000000000000e+004,-5.63130171227146e+000,-2.15066133726250e-002

1.01395947979003e+004,-5.63130256486641e+000,-2.18067265736951e-002

1.02811382665607e+004,-5.63130344141283e+000,-2.21110246200585e-002

1.04246576084112e+004,-5.63130434258299e+000,-2.24195657361437e-002

1.05701804056138e+004,-5.63130526906909e+000,-2.27324089442127e-002

1.07177346253629e+004,-5.63130622158082e+000,-2.30496140934969e-002

1.08673486252606e+004,-5.63130720084932e+000,-2.33712418500483e-002

1.10190511587661e+004,-5.63130820762498e+000,-2.36973537254587e-002

1.11728713807222e+004,-5.63130924267980e+000,-2.40280120763147e-002

1.13288388529580e+004,-5.63131030680818e+000,-2.43632801146498e-002

1.14869835499703e+004,-5.63131140082487e+000,-2.47032219366293e-002

1.16473358646846e+004,-5.63131252556992e+000,-2.50479025059220e-002

1.18099266142953e+004,-5.63131368190367e+000,-2.53973877026384e-002

1.19747870461893e+004,-5.63131487071455e+000,-2.57517442888991e-002

1.21419488439505e+004,-5.63131609291232e+000,-2.61110399689729e-002

1.23114441334492e+004,-5.63131734943340e+000,-2.64753433717740e-002

1.24833054890161e+004,-5.63131864124168e+000,-2.68447240622350e-002

1.26575659397028e+004,-5.63131996932679e+000,-2.72192525704759e-002

1.28342589756290e+004,-5.63132133470632e+000,-2.75990003947611e-002

1.30134185544193e+004,-5.63132273842550e+000,-2.79840400214612e-002

1.31950791077289e+004,-5.63132418156042e+000,-2.83744449224082e-002

1.33792755478611e+004,-5.63132566521599e+000,-2.87702895864727e-002

1.35660432744767e+004,-5.63132719052856e+000,-2.91716495217856e-002

1.37554181813974e+004,-5.63132875866676e+000,-2.95786012689563e-002

1.39474366635040e+004,-5.63133037083067e+000,-2.99912224263647e-002

1.41421356237309e+004,-5.63133202825458e+000,-3.04095916516093e-002

1.43395524801583e+004,-5.63133373220738e+000,-3.08337886788598e-002

1.45397251732031e+004,-5.63133548399383e+000,-3.12638943317894e-002

1.47426921729110e+004,-5.63133728495371e+000,-3.16999905490838e-002

1.49484924863494e+004,-5.63133913646608e+000,-3.21421603784205e-002

1.51571656651040e+004,-5.63134103994683e+000,-3.25904880128360e-002

1.53687518128801e+004,-5.63134299685278e+000,-3.30450587874018e-002

1.55832915932100e+004,-5.63134500868076e+000,-3.35059592058117e-002

1.58008262372675e+004,-5.63134707696931e+000,-3.39732769527753e-002

1.60213975517924e+004,-5.63134920329981e+000,-3.44471009086058e-002

1.62450479271247e+004,-5.63135138929833e+000,-3.49275211619549e-002

1.64718203453514e+004,-5.63135363663677e+000,-3.54146290241054e-002

1.67017583885674e+004,-5.63135594703169e+000,-3.59085170619656e-002

1.69349062472505e+004,-5.63135832224936e+000,-3.64092790892721e-002

1.71713087287550e+004,-5.63136076410517e+000,-3.69170101942291e-002

1.74110112659224e+004,-5.63136327446373e+000,-3.74318067659464e-002

1.76540599258131e+004,-5.63136585524283e+000,-3.79537664924433e-002

1.79005014185594e+004,-5.63136850841402e+000,-3.84829883833680e-002

1.81503831063432e+004,-5.63137123600252e+000,-3.90195727979484e-002

1.84037530124975e+004,-5.63137404009124e+000,-3.95636214440606e-002

1.86606598307361e+004,-5.63137692281996e+000,-4.01152374120000e-002

1.89211529345119e+004,-5.63137988638874e+000,-4.06745251800198e-002

1.91852823865052e+004,-5.63138293305845e+000,-4.12415906379742e-002

1.94530989482457e+004,-5.63138606515351e+000,-4.18165410986392e-002

1.97246540898671e+004,-5.63138928506203e+000,-4.23994853265690e-002

1.99999999999999e+004,-5.63139259523949e+000,-4.29905335429252e-002

2.02791895958005e+004,-5.63139599820903e+000,-4.35897974531145e-002

2.05622765331213e+004,-5.63139949656419e+000,-4.41973902605075e-002

2.08493152168224e+004,-5.63140309297015e+000,-4.48134266883504e-002

2.11403608112276e+004,-5.63140679016638e+000,-4.54380229944656e-002

2.14354692507258e+004,-5.63141059096819e+000,-4.60712969926778e-002

2.17346972505211e+004,-5.63141449826976e+000,-4.67133680663395e-002

2.20381023175322e+004,-5.63141851504475e+000,-4.73643571957901e-002

2.23457427614443e+004,-5.63142264434907e+000,-4.80243869753138e-002

2.26576777059159e+004,-5.63142688932469e+000,-4.86935816209862e-002

2.29739670999406e+004,-5.63143125319862e+000,-4.93720670129918e-002

2.32946717293690e+004,-5.63143573928917e+000,-5.00599706883766e-002

2.36198532285905e+004,-5.63144035100513e+000,-5.07574218835538e-002

2.39495740923785e+004,-5.63144509185035e+000,-5.14645515393509e-002

2.42838976879009e+004,-5.63144996542514e+000,-5.21814923290666e-002

2.46228882668982e+004,-5.63145497543019e+000,-5.29083786697348e-002

2.49666109780322e+004,-5.63146012566698e+000,-5.36453467574565e-002

2.53151318794055e+004,-5.63146542004370e+000,-5.43925345672531e-002

2.56685179512580e+004,-5.63147086257510e+000,-5.51500818924305e-002

2.60268371088386e+004,-5.63147645738679e+000,-5.59181303560166e-002

2.63901582154578e+004,-5.63148220871902e+000,-5.66968234275224e-002

2.67585510957221e+004,-5.63148812092881e+000,-5.74863064473021e-002

2.71320865489533e+004,-5.63149419849131e+000,-5.82867266606628e-002

2.75108363627948e+004,-5.63150044600795e+000,-5.90982332058944e-002

2.78948733270080e+004,-5.63150686820391e+000,-5.99209771730627e-002

2.82842712474618e+004,-5.63151346993624e+000,-6.07551115943707e-002

2.86791049603164e+004,-5.63152025619386e+000,-6.16007914876175e-002

2.90794503464061e+004,-5.63152723210444e+000,-6.24581738552553e-002

2.94853843458219e+004,-5.63153440293487e+000,-6.33274177262465e-002

2.98969849726987e+004,-5.63154177409722e+000,-6.42086841625317e-002

3.03143313302078e+004,-5.63154935115156e+000,-6.51021362873136e-002

3.07375036257601e+004,-5.63155713981009e+000,-6.60079393041682e-002

3.11665831864199e+004,-5.63156514594230e+000,-6.69262605098486e-002

3.16016524745350e+004,-5.63157337557647e+000,-6.78572693338410e-002

3.20427951035848e+004,-5.63158183490667e+000,-6.88011373404897e-002

3.24900958542493e+004,-5.63159053029617e+000,-6.97580382557686e-002

3.29436406907028e+004,-5.63159946828102e+000,-7.07281479932046e-002

3.34035167771346e+004,-5.63160865557605e+000,-7.17116446665586e-002

3.38698124945009e+004,-5.63161809907872e+000,-7.27087086134479e-002

3.43426174575100e+004,-5.63162780587393e+000,-7.37195224171204e-002

3.48220225318448e+004,-5.63163778323875e+000,-7.47442709274058e-002

3.53081198516260e+004,-5.63164803864882e+000,-7.57831412711706e-002

3.58010028371187e+004,-5.63165857978179e+000,-7.68363228833599e-002

3.63007662126863e+004,-5.63166941452307e+000,-7.79040075235801e-002

3.68075060249948e+004,-5.63168055097198e+000,-7.89863892901930e-002

3.73213196614721e+004,-5.63169199744678e+000,-8.00836646427103e-002

3.78423058690237e+004,-5.63170376249017e+000,-8.11960324215443e-002

3.83705647730104e+004,-5.63171585487506e+000,-8.23236938652793e-002

3.89061978964912e+004,-5.63172828361099e+000,-8.34668526278005e-002

3.94493081797342e+004,-5.63174105795013e+000,-8.46257147936142e-002

3.99999999999998e+004,-5.63175418739246e+000,-8.58004889039731e-002

4.05583791916010e+004,-5.63176768169340e+000,-8.69913859638279e-002

4.11245530662425e+004,-5.63178155087017e+000,-8.81986194590763e-002

4.16986304336447e+004,-5.63179580520751e+000,-8.94224053793261e-002

4.22807216224550e+004,-5.63181045526499e+000,-9.06629622282936e-002

4.28709385014515e+004,-5.63182551188393e+000,-9.19205110393994e-002

4.34693945010421e+004,-5.63184098619549e+000,-9.31952753831921e-002

4.40762046350642e+004,-5.63185688962551e+000,-9.44874813959625e-002

4.46914855228886e+004,-5.63187323390443e+000,-9.57973577765248e-002

4.53153554118317e+004,-5.63189003107274e+000,-9.71251358113062e-002

4.59479341998812e+004,-5.63190729349030e+000,-9.84710493755348e-002

4.65893434587380e+004,-5.63192503384386e+000,-9.98353349455599e-002

4.72397064571810e+004,-5.63194326515365e+000,-1.01218231617937e-001

4.78991481847569e+004,-5.63196200078367e+000,-1.02619981104500e-001

4.85677953758016e+004,-5.63198125444877e+000,-1.04040827747729e-001

4.92457765337964e+004,-5.63200104022368e+000,-1.05481018524574e-001

4.99332219560642e+004,-5.63202137255061e+000,-1.06940803059113e-001

5.06302637588109e+004,-5.63204226624972e+000,-1.08420433616157e-001

5.13370359025159e+004,-5.63206373652705e+000,-1.09920165111737e-001

5.20536742176771e+004,-5.63208579898454e+000,-1.11440255109267e-001

5.27803164309155e+004,-5.63210846962777e+000,-1.12980963831782e-001

5.35171021914442e+004,-5.63213176487696e+000,-1.14542554150239e-001

5.42641730979066e+004,-5.63215570157700e+000,-1.16125291579797e-001

5.50216727255895e+004,-5.63218029700490e+000,-1.17729444292184e-001

5.57897466540159e+004,-5.63220556888261e+000,-1.19355283091845e-001

5.65685424949235e+004,-5.63223153538575e+000,-1.21003081417983e-001

5.73582099206328e+004,-5.63225821515322e+000,-1.22673115341752e-001

5.81589006928121e+004,-5.63228562729984e+000,-1.24365663541263e-001

5.89707686916437e+004,-5.63231379142512e+000,-1.26081007301619e-001

5.97939699453972e+004,-5.63234272762467e+000,-1.27819430496773e-001

6.06286626604156e+004,-5.63237245650119e+000,-1.29581219573675e-001

6.14750072515201e+004,-5.63240299917547e+000,-1.31366663533087e-001

6.23331663728396e+004,-5.63243437729791e+000,-1.33176053908722e-001

6.32033049490698e+004,-5.63246661305965e+000,-1.35009684745007e-001

6.40855902071694e+004,-5.63249972920397e+000,-1.36867852572839e-001

6.49801917084985e+004,-5.63253374903800e+000,-1.38750856381175e-001

6.58872813814055e+004,-5.63256869644507e+000,-1.40658997582465e-001

6.68070335542691e+004,-5.63260459589555e+000,-1.42592579987024e-001

6.77396249890018e+004,-5.63264147245977e+000,-1.44551909759547e-001

6.86852349150199e+004,-5.63267935181934e+000,-1.46537295386357e-001

6.96440450636895e+004,-5.63271826027985e+000,-1.48549047629462e-001

7.06162397032520e+004,-5.63275822478354e+000,-1.50587479478910e-001

7.16020056742374e+004,-5.63279927292034e+000,-1.52652906111912e-001

7.26015324253724e+004,-5.63284143294097e+000,-1.54745644837352e-001

7.36150120499896e+004,-5.63288473377053e+000,-1.56866015032606e-001

7.46426393229441e+004,-5.63292920501820e+000,-1.59014338101832e-001

7.56846117380472e+004,-5.63297487699315e+000,-1.61190937391502e-001

7.67411295460207e+004,-5.63302178071374e+000,-1.63396138145769e-001

7.78123957929823e+004,-5.63306994792257e+000,-1.65630267417328e-001

7.88986163594682e+004,-5.63311941109739e+000,-1.67893654004010e-001

7.99999999999995e+004,-5.63317020346408e+000,-1.70186628365394e-001

8.11167583832018e+004,-5.63322235900919e+000,-1.72509522538163e-001

8.22491061324848e+004,-5.63327591249162e+000,-1.74862670051078e-001

8.33972608672892e+004,-5.63333089945498e+000,-1.77246405831481e-001

8.45614432449099e+004,-5.63338735623984e+000,-1.79661066105567e-001

8.57418770029029e+004,-5.63344531999533e+000,-1.82106988297403e-001

8.69387890020841e+004,-5.63350482869070e+000,-1.84584510922716e-001

8.81524092701283e+004,-5.63356592112685e+000,-1.87093973474117e-001

8.93829710457770e+004,-5.63362863694737e+000,-1.89635716304596e-001

9.06307108236633e+004,-5.63369301664976e+000,-1.92210080502549e-001

9.18958683997622e+004,-5.63375910159526e+000,-1.94817407765476e-001

9.31786869174758e+004,-5.63382693402002e+000,-1.97458040261739e-001

9.44794129143618e+004,-5.63389655704439e+000,-2.00132320490862e-001

9.57982963695136e+004,-5.63396801468200e+000,-2.02840591140904e-001

9.71355907516031e+004,-5.63404135184931e+000,-2.05583194931200e-001

9.84915530675926e+004,-5.63411661437389e+000,-2.08360474453777e-001

9.98664439121282e+004,-5.63419384900164e+000,-2.11172772013272e-001

1.01260527517622e+005,-5.63427310340472e+000,-2.14020429451280e-001

1.02674071805032e+005,-5.63435442618759e+000,-2.16903787971155e-001

1.04107348435354e+005,-5.63443786689385e+000,-2.19823187947907e-001

1.05560632861831e+005,-5.63452347600979e+000,-2.22778968747475e-001

1.07034204382888e+005,-5.63461130496958e+000,-2.25771468522427e-001

1.08528346195813e+005,-5.63470140615866e+000,-2.28801024008752e-001

1.10043345451179e+005,-5.63479383291619e+000,-2.31867970313880e-001

1.11579493308032e+005,-5.63488863953548e+000,-2.34972640705080e-001

1.13137084989847e+005,-5.63498588126564e+000,-2.38115366377611e-001

1.14716419841265e+005,-5.63508561431021e+000,-2.41296476226083e-001

1.16317801385624e+005,-5.63518789582454e+000,-2.44516296610085e-001

1.17941537383287e+005,-5.63529278391327e+000,-2.47775151104772e-001

1.19587939890794e+005,-5.63540033762527e+000,-2.51073360251372e-001

1.21257325320831e+005,-5.63551061694711e+000,-2.54411241300878e-001

1.22950014503040e+005,-5.63562368279581e+000,-2.57789107948123e-001

1.24666332745679e+005,-5.63573959700928e+000,-2.61207270061005e-001

1.26406609898139e+005,-5.63585842233528e+000,-2.64666033404272e-001

1.28171180414339e+005,-5.63598022241815e+000,-2.68165699358925e-001

1.29960383416997e+005,-5.63610506178489e+000,-2.71706564629036e-001

1.31774562762811e+005,-5.63623300582771e+000,-2.75288920950623e-001

1.33614067108538e+005,-5.63636412078523e+000,-2.78913054794087e-001

1.35479249978003e+005,-5.63649847372213e+000,-2.82579247053621e-001

1.37370469830040e+005,-5.63663613250468e+000,-2.86287772747340e-001

1.39288090127379e+005,-5.63677716577628e+000,-2.90038900695447e-001

1.41232479406504e+005,-5.63692164292882e+000,-2.93832893207281e-001

1.43204011348474e+005,-5.63706963407174e+000,-2.97670005760878e-001

1.45203064850745e+005,-5.63722120999857e+000,-3.01550486682144e-001

1.47230024099979e+005,-5.63737644215190e+000,-3.05474576810867e-001

1.49285278645888e+005,-5.63753540258208e+000,-3.09442509186925e-001

1.51369223476094e+005,-5.63769816390781e+000,-3.13454508707123e-001

1.53482259092041e+005,-5.63786479926862e+000,-3.17510791809759e-001

1.55624791585964e+005,-5.63803538227810e+000,-3.21611566137520e-001

1.57797232718936e+005,-5.63820998697125e+000,-3.25757030216821e-001

1.59999999999999e+005,-5.63838868775019e+000,-3.29947373127731e-001

1.62233516766403e+005,-5.63857155932492e+000,-3.34182774187335e-001

1.64498212264969e+005,-5.63875867665168e+000,-3.38463402629356e-001

1.66794521734578e+005,-5.63895011486709e+000,-3.42789417290904e-001

1.69122886489819e+005,-5.63914594921824e+000,-3.47160966309562e-001

1.71483754005805e+005,-5.63934625499009e+000,-3.51578186819393e-001

1.73877578004168e+005,-5.63955110742717e+000,-3.56041204666287e-001

1.76304818540256e+005,-5.63976058165314e+000,-3.60550134123646e-001

1.78765942091554e+005,-5.63997475258486e+000,-3.65105077625688e-001

1.81261421647326e+005,-5.64019369484378e+000,-3.69706125507928e-001

1.83791736799524e+005,-5.64041748266183e+000,-3.74353355767151e-001

1.86357373834951e+005,-5.64064618978373e+000,-3.79046833835942e-001

1.88958825828723e+005,-5.64087988936530e+000,-3.83786612372246e-001

1.91596592739027e+005,-5.64111865386759e+000,-3.88572731068240e-001

1.94271181503206e+005,-5.64136255494626e+000,-3.93405216482497e-001

1.96983106135185e+005,-5.64161166333724e+000,-3.98284081893517e-001

1.99732887824256e+005,-5.64186604873826e+000,-4.03209327175895e-001

2.02521055035243e+005,-5.64212577968591e+000,-4.08180938705147e-001

2.05348143610063e+005,-5.64239092342863e+000,-4.13198889291658e-001

2.08214696870707e+005,-5.64266154579643e+000,-4.18263138139673e-001

2.11121265723661e+005,-5.64293771106600e+000,-4.23373630843029e-001

2.14068408765776e+005,-5.64321948182170e+000,-4.28530299416906e-001

2.17056692391625e+005,-5.64350691881433e+000,-4.33733062357389e-001

2.20086690902357e+005,-5.64380008081487e+000,-4.38981824748770e-001

2.23158986616063e+005,-5.64409902446532e+000,-4.44276478408050e-001

2.26274169979693e+005,-5.64440380412734e+000,-4.49616902067469e-001

2.29432839682530e+005,-5.64471447172636e+000,-4.55002961609506e-001

2.32635602771247e+005,-5.64503107659452e+000,-4.60434510341291e-001

2.35883074766574e+005,-5.64535366531000e+000,-4.65911389322954e-001

2.39175879781588e+005,-5.64568228153549e+000,-4.71433427741353e-001

2.42514650641661e+005,-5.64601696585306e+000,-4.77000443344376e-001

2.45900029006080e+005,-5.64635775559951e+000,-4.82612242920450e-001

2.49332665491357e+005,-5.64670468469925e+000,-4.88268622839992e-001

2.52813219796278e+005,-5.64705778349724e+000,-4.93969369651973e-001

2.56342360828676e+005,-5.64741707859096e+000,-4.99714260742819e-001

2.59920766833993e+005,-5.64778259266311e+000,-5.05503065053289e-001

2.63549125525621e+005,-5.64815434431449e+000,-5.11335543859478e-001

2.67228134217075e+005,-5.64853234789839e+000,-5.17211451615237e-001

2.70958499956006e+005,-5.64891661335602e+000,-5.23130536862050e-001

2.74740939660078e+005,-5.64930714605466e+000,-5.29092543201177e-001

2.78576180254757e+005,-5.64970394662798e+000,-5.35097210333130e-001

2.82464958813007e+005,-5.65010701082029e+000,-5.41144275162513e-001

2.86408022696948e+005,-5.65051632933340e+000,-5.47233472973697e-001

2.90406129701488e+005,-5.65093188767967e+000,-5.53364538664840e-001

2.94460048199957e+005,-5.65135366603840e+000,-5.59537208056660e-001

2.98570557291775e+005,-5.65178163911945e+000,-5.65751219260781e-001

3.02738446952187e+005,-5.65221577603162e+000,-5.72006314118913e-001

3.06964518184081e+005,-5.65265604015975e+000,-5.78302239698529e-001

3.11249583171928e+005,-5.65310238904784e+000,-5.84638749858748e-001

3.15594465437872e+005,-5.65355477429148e+000,-5.91015606872189e-001

3.19999999999997e+005,-5.65401314143903e+000,-5.97432583106833e-001

3.24467033532806e+005,-5.65447742990209e+000,-6.03889462764298e-001

3.28996424529938e+005,-5.65494757287634e+000,-6.10386043673555e-001

3.33589043469155e+005,-5.65542349727299e+000,-6.16922139134964e-001

3.38245772979638e+005,-5.65590512366201e+000,-6.23497579811097e-001

3.42967508011610e+005,-5.65639236622737e+000,-6.30112215660151e-001

3.47755156008335e+005,-5.65688513273373e+000,-6.36765917917740e-001

3.52609637080511e+005,-5.65738332450800e+000,-6.43458581102998e-001

3.57531884183106e+005,-5.65788683643285e+000,-6.50190125065190e-001

3.62522843294651e+005,-5.65839555695481e+000,-6.56960497055603e-001

3.67583473599047e+005,-5.65890936810687e+000,-6.63769673817566e-001

3.72714747669902e+005,-5.65942814554557e+000,-6.70617663697097e-001

3.77917651657445e+005,-5.65995175860323e+000,-6.77504508762135e-001

3.83193185478053e+005,-5.66048007035546e+000,-6.84430286928980e-001

3.88542363006410e+005,-5.66101293770400e+000,-6.91395114087015e-001

3.93966212270369e+005,-5.66155021147599e+000,-6.98399146213312e-001

3.99465775648511e+005,-5.66209173653749e+000,-7.05442581482568e-001

4.05042110070485e+005,-5.66263735192401e+000,-7.12525662349334e-001

4.10696287220124e+005,-5.66318689098655e+000,-7.19648677607265e-001

4.16429393741414e+005,-5.66374018155226e+000,-7.26811964419216e-001

4.22242531447321e+005,-5.66429704610162e+000,-7.34015910303243e-001

4.28136817531551e+005,-5.66485730196043e+000,-7.41260955075725e-001

4.34113384783250e+005,-5.66542076150556e+000,-7.48547592745394e-001

4.40173381804713e+005,-5.66598723238674e+000,-7.55876373344535e-001

4.46317973232124e+005,-5.66655651776103e+000,-7.63247904699409e-001

4.52548339959385e+005,-5.66712841654099e+000,-7.70662854130051e-001

4.58865679365059e+005,-5.66770272365550e+000,-7.78121950074511e-001

4.65271205542494e+005,-5.66827923032297e+000,-7.85625983629866e-001

4.71766149533147e+005,-5.66885772433586e+000,-7.93175810006955e-001

4.78351759563174e+005,-5.66943799035497e+000,-8.00772349897239e-001

4.85029301283321e+005,-5.67001981021435e+000,-8.08416590739765e-001

4.91800058012158e+005,-5.67060296323467e+000,-8.16109587887513e-001

4.98665330982714e+005,-5.67118722654409e+000,-8.23852465673019e-001

5.05626439592555e+005,-5.67177237540657e+000,-8.31646418362771e-001

5.12684721657352e+005,-5.67235818355524e+000,-8.39492711005314e-001

5.19841533667984e+005,-5.67294442353120e+000,-8.47392680162170e-001

5.27098251051240e+005,-5.67353086702537e+000,-8.55347734528845e-001

5.34456268434150e+005,-5.67411728522332e+000,-8.63359355435880e-001

5.41916999912011e+005,-5.67470344915096e+000,-8.71429097236424e-001

