Freq.,VOut,OutRef

1.00000000000000e+004,-2.08400913555391e+001,-3.06256534757537e-001

1.01395947979003e+004,-2.08400934192888e+001,-3.10531563966620e-001

1.02811382665607e+004,-2.08400955410350e+001,-3.14866263877915e-001

1.04246576084112e+004,-2.08400977224067e+001,-3.19261467188123e-001

1.05701804056138e+004,-2.08400999650788e+001,-3.23718018207313e-001

1.07177346253629e+004,-2.08401022707732e+001,-3.28236773018201e-001

1.08673486252606e+004,-2.08401046412600e+001,-3.32818599642484e-001

1.10190511587661e+004,-2.08401070783592e+001,-3.37464378204231e-001

1.11728713807222e+004,-2.08401095839419e+001,-3.42175001100702e-001

1.13288388529580e+004,-2.08401121599312e+001,-3.46951373173407e-001

1.14869835499703e+004,-2.08401148083048e+001,-3.51794411878049e-001

1.16473358646846e+004,-2.08401175310955e+001,-3.56705047462549e-001

1.18099266142953e+004,-2.08401203303934e+001,-3.61684223144845e-001

1.19747870461893e+004,-2.08401232083469e+001,-3.66732895291886e-001

1.21419488439505e+004,-2.08401261671648e+001,-3.71852033604933e-001

1.23114441334492e+004,-2.08401292091182e+001,-3.77042621301194e-001

1.24833054890161e+004,-2.08401323365412e+001,-3.82305655306213e-001

1.26575659397028e+004,-2.08401355518340e+001,-3.87642146439894e-001

1.28342589756290e+004,-2.08401388574639e+001,-3.93053119612801e-001

1.30134185544193e+004,-2.08401422559673e+001,-3.98539614021869e-001

1.31950791077289e+004,-2.08401457499517e+001,-4.04102683346863e-001

1.33792755478611e+004,-2.08401493420979e+001,-4.09743395952954e-001

1.35660432744767e+004,-2.08401530351618e+001,-4.15462835094506e-001

1.37554181813974e+004,-2.08401568319764e+001,-4.21262099122108e-001

1.39474366635040e+004,-2.08401607354545e+001,-4.27142301691663e-001

1.41421356237309e+004,-2.08401647485899e+001,-4.33104571978439e-001

1.43395524801583e+004,-2.08401688744608e+001,-4.39150054890182e-001

1.45397251732031e+004,-2.08401731162318e+001,-4.45279911286369e-001

1.47426921729110e+004,-2.08401774771557e+001,-4.51495318201429e-001

1.49484924863494e+004,-2.08401819605767e+001,-4.57797469065648e-001

1.51571656651040e+004,-2.08401865699327e+001,-4.64187573937305e-001

1.53687518128801e+004,-2.08401913087580e+001,-4.70666859728271e-001

1.55832915932100e+004,-2.08401961806857e+001,-4.77236570441530e-001

1.58008262372675e+004,-2.08402011894506e+001,-4.83897967407098e-001

1.60213975517924e+004,-2.08402063388925e+001,-4.90652329520730e-001

1.62450479271247e+004,-2.08402116329584e+001,-4.97500953490259e-001

1.64718203453514e+004,-2.08402170757059e+001,-5.04445154080056e-001

1.67017583885674e+004,-2.08402226713060e+001,-5.11486264362414e-001

1.69349062472505e+004,-2.08402284240468e+001,-5.18625635971471e-001

1.71713087287550e+004,-2.08402343383364e+001,-5.25864639357657e-001

1.74110112659224e+004,-2.08402404187060e+001,-5.33204664053191e-001

1.76540599258131e+004,-2.08402466698137e+001,-5.40647118931215e-001

1.79005014185594e+004,-2.08402530964480e+001,-5.48193432477236e-001

1.81503831063432e+004,-2.08402597035315e+001,-5.55845053056850e-001

1.84037530124975e+004,-2.08402664961241e+001,-5.63603449196151e-001

1.86606598307361e+004,-2.08402734794275e+001,-5.71470109854552e-001

1.89211529345119e+004,-2.08402806587889e+001,-5.79446544710894e-001

1.91852823865052e+004,-2.08402880397048e+001,-5.87534284450078e-001

1.94530989482457e+004,-2.08402956278255e+001,-5.95734881051442e-001

1.97246540898671e+004,-2.08403034289594e+001,-6.04049908083389e-001

1.99999999999999e+004,-2.08403114490766e+001,-6.12480961004351e-001

2.02791895958005e+004,-2.08403196943147e+001,-6.21029657461151e-001

2.05622765331213e+004,-2.08403281709825e+001,-6.29697637596669e-001

2.08493152168224e+004,-2.08403368855648e+001,-6.38486564362208e-001

2.11403608112276e+004,-2.08403458447280e+001,-6.47398123829042e-001

2.14354692507258e+004,-2.08403550553242e+001,-6.56434025510287e-001

2.17346972505211e+004,-2.08403645243969e+001,-6.65596002681560e-001

2.20381023175322e+004,-2.08403742591862e+001,-6.74885812709684e-001

2.23457427614443e+004,-2.08403842671344e+001,-6.84305237384828e-001

2.26576777059159e+004,-2.08403945558911e+001,-6.93856083256368e-001

2.29739670999406e+004,-2.08404051333195e+001,-7.03540181973282e-001

2.32946717293690e+004,-2.08404160075021e+001,-7.13359390631060e-001

2.36198532285905e+004,-2.08404271867466e+001,-7.23315592119980e-001

2.39495740923785e+004,-2.08404386795924e+001,-7.33410695481444e-001

2.42838976879009e+004,-2.08404504948167e+001,-7.43646636265540e-001

2.46228882668982e+004,-2.08404626414415e+001,-7.54025376897158e-001

2.49666109780322e+004,-2.08404751287398e+001,-7.64548907043538e-001

2.53151318794055e+004,-2.08404879662429e+001,-7.75219243989933e-001

2.56685179512580e+004,-2.08405011637477e+001,-7.86038433015817e-001

2.60268371088386e+004,-2.08405147313233e+001,-7.97008547781862e-001

2.63901582154578e+004,-2.08405286793194e+001,-8.08131690716647e-001

2.67585510957221e+004,-2.08405430183731e+001,-8.19409993412543e-001

2.71320865489533e+004,-2.08405577594178e+001,-8.30845617022319e-001

2.75108363627948e+004,-2.08405729136904e+001,-8.42440752667149e-001

2.78948733270080e+004,-2.08405884927403e+001,-8.54197621844578e-001

2.82842712474618e+004,-2.08406045084376e+001,-8.66118476843483e-001

2.86791049603164e+004,-2.08406209729820e+001,-8.78205601166135e-001

2.90794503464061e+004,-2.08406378989122e+001,-8.90461309951949e-001

2.94853843458219e+004,-2.08406552991145e+001,-9.02887950412350e-001

2.98969849726987e+004,-2.08406731868327e+001,-9.15487902266444e-001

3.03143313302078e+004,-2.08406915756782e+001,-9.28263578183741e-001

3.07375036257601e+004,-2.08407104796392e+001,-9.41217424233445e-001

3.11665831864199e+004,-2.08407299130920e+001,-9.54351920338906e-001

3.16016524745350e+004,-2.08407498908106e+001,-9.67669580738485e-001

3.20427951035848e+004,-2.08407704279785e+001,-9.81172954451179e-001

3.24900958542493e+004,-2.08407915401991e+001,-9.94864625749469e-001

3.29436406907028e+004,-2.08408132435074e+001,-1.00874721463800e+000

3.34035167771346e+004,-2.08408355543818e+001,-1.02282337733721e+000

3.38698124945009e+004,-2.08408584897563e+001,-1.03709580677494e+000

3.43426174575100e+004,-2.08408820670324e+001,-1.05156723308278e+000

3.48220225318448e+004,-2.08409063040920e+001,-1.06624042410028e+000

3.53081198516260e+004,-2.08409312193107e+001,-1.08111818588329e+000

3.58010028371187e+004,-2.08409568315709e+001,-1.09620336322027e+000

3.63007662126863e+004,-2.08409831602752e+001,-1.11149884015645e+000

3.68075060249948e+004,-2.08410102253611e+001,-1.12700754052036e+000

3.73213196614721e+004,-2.08410380473148e+001,-1.14273242846241e+000

3.78423058690237e+004,-2.08410666471865e+001,-1.15867650899421e+000

3.83705647730104e+004,-2.08410960466051e+001,-1.17484282854091e+000

3.89061978964912e+004,-2.08411262677942e+001,-1.19123447549496e+000

3.94493081797342e+004,-2.08411573335877e+001,-1.20785458077932e+000

3.99999999999998e+004,-2.08411892674463e+001,-1.22470631841824e+000

4.05583791916010e+004,-2.08412220934742e+001,-1.24179290611360e+000

4.11245530662425e+004,-2.08412558364365e+001,-1.25911760582734e+000

4.16986304336447e+004,-2.08412905217767e+001,-1.27668372437482e+000

4.22807216224550e+004,-2.08413261756346e+001,-1.29449461402081e+000

4.28709385014515e+004,-2.08413628248652e+001,-1.31255367308664e+000

4.34693945010421e+004,-2.08414004970573e+001,-1.33086434656125e+000

4.40762046350642e+004,-2.08414392205532e+001,-1.34943012672174e+000

4.46914855228886e+004,-2.08414790244687e+001,-1.36825455376148e+000

4.53153554118317e+004,-2.08415199387135e+001,-1.38734121642368e+000

4.59479341998812e+004,-2.08415619940117e+001,-1.40669375264483e+000

4.65893434587380e+004,-2.08416052219241e+001,-1.42631585020394e+000

4.72397064571810e+004,-2.08416496548694e+001,-1.44621124738111e+000

4.78991481847569e+004,-2.08416953261472e+001,-1.46638373362039e+000

4.85677953758016e+004,-2.08417422699608e+001,-1.48683715020618e+000

4.92457765337964e+004,-2.08417905214410e+001,-1.50757539094096e+000

4.99332219560642e+004,-2.08418401166702e+001,-1.52860240283518e+000

5.06302637588109e+004,-2.08418910927067e+001,-1.54992218680489e+000

5.13370359025159e+004,-2.08419434876112e+001,-1.57153879837291e+000

5.20536742176771e+004,-2.08419973404716e+001,-1.59345634838427e+000

5.27803164309155e+004,-2.08420526914298e+001,-1.61567900372535e+000

5.35171021914442e+004,-2.08421095817095e+001,-1.63821098805164e+000

5.42641730979066e+004,-2.08421680536433e+001,-1.66105658252574e+000

5.50216727255895e+004,-2.08422281507012e+001,-1.68422012656126e+000

5.57897466540159e+004,-2.08422899175203e+001,-1.70770601857497e+000

5.65685424949235e+004,-2.08423533999338e+001,-1.73151871674898e+000

5.73582099206328e+004,-2.08424186450017e+001,-1.75566273979963e+000

5.81589006928121e+004,-2.08424857010423e+001,-1.78014266775519e+000

5.89707686916437e+004,-2.08425546176634e+001,-1.80496314274096e+000

5.97939699453972e+004,-2.08426254457950e+001,-1.83012886977588e+000

6.06286626604156e+004,-2.08426982377230e+001,-1.85564461757140e+000

6.14750072515201e+004,-2.08427730471222e+001,-1.88151521934646e+000

6.23331663728396e+004,-2.08428499290918e+001,-1.90774557364443e+000

6.32033049490698e+004,-2.08429289401906e+001,-1.93434064516185e+000

6.40855902071694e+004,-2.08430101384730e+001,-1.96130546558501e+000

6.49801917084985e+004,-2.08430935835258e+001,-1.98864513443490e+000

6.58872813814055e+004,-2.08431793365064e+001,-2.01636481991976e+000

6.68070335542691e+004,-2.08432674601809e+001,-2.04446975979871e+000

6.77396249890018e+004,-2.08433580189634e+001,-2.07296526225045e+000

6.86852349150199e+004,-2.08434510789560e+001,-2.10185670675363e+000

6.96440450636895e+004,-2.08435467079899e+001,-2.13114954497400e+000

7.06162397032520e+004,-2.08436449756667e+001,-2.16084930166064e+000

7.16020056742374e+004,-2.08437459534012e+001,-2.19096157555052e+000

7.26015324253724e+004,-2.08438497144641e+001,-2.22149204028322e+000

7.36150120499896e+004,-2.08439563340270e+001,-2.25244644532061e+000

7.46426393229441e+004,-2.08440658892062e+001,-2.28383061688013e+000

7.56846117380472e+004,-2.08441784591094e+001,-2.31565045887152e+000

7.67411295460207e+004,-2.08442941248816e+001,-2.34791195384670e+000

7.78123957929823e+004,-2.08444129697530e+001,-2.38062116395533e+000

7.88986163594682e+004,-2.08445350790866e+001,-2.41378423190959e+000

7.99999999999995e+004,-2.08446605404279e+001,-2.44740738195848e+000

8.11167583832018e+004,-2.08447894435542e+001,-2.48149692087001e+000

8.22491061324848e+004,-2.08449218805256e+001,-2.51605923892172e+000

8.33972608672892e+004,-2.08450579457365e+001,-2.55110081090098e+000

8.45614432449099e+004,-2.08451977359677e+001,-2.58662819711238e+000

8.57418770029029e+004,-2.08453413504398e+001,-2.62264804439514e+000

8.69387890020841e+004,-2.08454888908670e+001,-2.65916708714780e+000

8.81524092701283e+004,-2.08456404615118e+001,-2.69619214836345e+000

8.93829710457770e+004,-2.08457961692405e+001,-2.73373014067119e+000

9.06307108236633e+004,-2.08459561235796e+001,-2.77178806738831e+000

9.18958683997622e+004,-2.08461204367725e+001,-2.81037302358070e+000

9.31786869174758e+004,-2.08462892238378e+001,-2.84949219712962e+000

9.44794129143618e+004,-2.08464626026273e+001,-2.88915286981228e+000

9.57982963695136e+004,-2.08466406938854e+001,-2.92936241838530e+000

9.71355907516031e+004,-2.08468236213091e+001,-2.97012831568112e+000

9.84915530675926e+004,-2.08470115116085e+001,-3.01145813171185e+000

9.98664439121282e+004,-2.08472044945677e+001,-3.05335953478140e+000

1.01260527517622e+005,-2.08474027031071e+001,-3.09584029260796e+000

1.02674071805032e+005,-2.08476062733456e+001,-3.13890827345393e+000

1.04107348435354e+005,-2.08478153446636e+001,-3.18257144726669e+000

1.05560632861831e+005,-2.08480300597663e+001,-3.22683788682654e+000

1.07034204382888e+005,-2.08482505647480e+001,-3.27171576890610e+000

1.08528346195813e+005,-2.08484770091565e+001,-3.31721337543742e+000

1.10043345451179e+005,-2.08487095460578e+001,-3.36333909468951e+000

1.11579493308032e+005,-2.08489483321018e+001,-3.41010142245511e+000

1.13137084989847e+005,-2.08491935275873e+001,-3.45750896324832e+000

1.14716419841265e+005,-2.08494452965285e+001,-3.50557043151107e+000

1.16317801385624e+005,-2.08497038067209e+001,-3.55429465283035e+000

1.17941537383287e+005,-2.08499692298075e+001,-3.60369056516640e+000

1.19587939890794e+005,-2.08502417413460e+001,-3.65376722009112e+000

1.21257325320831e+005,-2.08505215208748e+001,-3.70453378403775e+000

1.22950014503040e+005,-2.08508087519799e+001,-3.75599953956200e+000

1.24666332745679e+005,-2.08511036223617e+001,-3.80817388661549e+000

1.26406609898139e+005,-2.08514063239017e+001,-3.86106634382940e+000

1.28171180414339e+005,-2.08517170527291e+001,-3.91468654981285e+000

1.29960383416997e+005,-2.08520360092865e+001,-3.96904426446362e+000

1.31774562762811e+005,-2.08523633983972e+001,-4.02414937029112e+000

1.33614067108538e+005,-2.08526994293299e+001,-4.08001187375517e+000

1.35479249978003e+005,-2.08530443158650e+001,-4.13664190661772e+000

1.37370469830040e+005,-2.08533982763594e+001,-4.19404972731118e+000

1.39288090127379e+005,-2.08537615338108e+001,-4.25224572232101e+000

1.41232479406504e+005,-2.08541343159224e+001,-4.31124040758697e+000

1.43204011348474e+005,-2.08545168551657e+001,-4.37104442991896e+000

1.45203064850745e+005,-2.08549093888437e+001,-4.43166856843375e+000

1.47230024099979e+005,-2.08553121591529e+001,-4.49312373600802e+000

1.49285278645888e+005,-2.08557254132444e+001,-4.55542098075404e+000

1.51369223476094e+005,-2.08561494032847e+001,-4.61857148751426e+000

1.53482259092041e+005,-2.08565843865150e+001,-4.68258657937791e+000

1.55624791585964e+005,-2.08570306253099e+001,-4.74747771922231e+000

1.57797232718936e+005,-2.08574883872353e+001,-4.81325651127707e+000

1.59999999999999e+005,-2.08579579451046e+001,-4.87993470271354e+000

1.62233516766403e+005,-2.08584395770349e+001,-4.94752418526214e+000

1.64498212264969e+005,-2.08589335665009e+001,-5.01603699685727e+000

1.66794521734578e+005,-2.08594402023888e+001,-5.08548532331250e+000

1.69122886489819e+005,-2.08599597790485e+001,-5.15588150002567e+000

1.71483754005805e+005,-2.08604925963444e+001,-5.22723801371833e+000

1.73877578004168e+005,-2.08610389597062e+001,-5.29956750420847e+000

1.76304818540256e+005,-2.08615991801774e+001,-5.37288276622049e+000

1.78765942091554e+005,-2.08621735744632e+001,-5.44719675123241e+000

1.81261421647326e+005,-2.08627624649776e+001,-5.52252256936388e+000

1.83791736799524e+005,-2.08633661798892e+001,-5.59887349130503e+000

1.86357373834951e+005,-2.08639850531665e+001,-5.67626295029062e+000

1.88958825828723e+005,-2.08646194246213e+001,-5.75470454411896e+000

1.91596592739027e+005,-2.08652696399533e+001,-5.83421203722040e+000

1.94271181503206e+005,-2.08659360507920e+001,-5.91479936277539e+000

1.96983106135185e+005,-2.08666190147397e+001,-5.99648062488536e+000

1.99732887824256e+005,-2.08673188954133e+001,-6.07927010079941e+000

2.02521055035243e+005,-2.08680360624867e+001,-6.16318224319785e+000

2.05348143610063e+005,-2.08687708917325e+001,-6.24823168253574e+000

2.08214696870707e+005,-2.08695237650647e+001,-6.33443322944938e+000

2.11121265723661e+005,-2.08702950705818e+001,-6.42180187722713e+000

2.14068408765776e+005,-2.08710852026106e+001,-6.51035280434741e+000

2.17056692391625e+005,-2.08718945617514e+001,-6.60010137708799e+000

2.20086690902357e+005,-2.08727235549246e+001,-6.69106315220554e+000

2.23158986616063e+005,-2.08735725954193e+001,-6.78325387969207e+000

2.26274169979693e+005,-2.08744421029444e+001,-6.87668950560735e+000

2.29432839682530e+005,-2.08753325036819e+001,-6.97138617499262e+000

2.32635602771247e+005,-2.08762442303443e+001,-7.06736023486444e+000

2.35883074766574e+005,-2.08771777222349e+001,-7.16462823729540e+000

2.39175879781588e+005,-2.08781334253128e+001,-7.26320694257932e+000

2.42514650641661e+005,-2.08791117922630e+001,-7.36311332248728e+000

2.45900029006080e+005,-2.08801132825713e+001,-7.46436456361314e+000

2.49332665491357e+005,-2.08811383626064e+001,-7.56697807081260e+000

2.52813219796278e+005,-2.08821875057075e+001,-7.67097147073632e+000

2.56342360828676e+005,-2.08832611922807e+001,-7.77636261545929e+000

2.59920766833993e+005,-2.08843599099029e+001,-7.88316958620787e+000

2.63549125525621e+005,-2.08854841534351e+001,-7.99141069718448e+000

2.67228134217075e+005,-2.08866344251460e+001,-8.10110449949286e+000

2.70958499956006e+005,-2.08878112348453e+001,-8.21226978516287e+000

2.74740939660078e+005,-2.08890151000300e+001,-8.32492559127601e+000

2.78576180254757e+005,-2.08902465460429e+001,-8.43909120419107e+000

2.82464958813007e+005,-2.08915061062436e+001,-8.55478616387094e+000

2.86408022696948e+005,-2.08927943221959e+001,-8.67203026830845e+000

2.90406129701488e+005,-2.08941117438694e+001,-8.79084357805196e+000

2.94460048199957e+005,-2.08954589298580e+001,-8.91124642082719e+000

2.98570557291775e+005,-2.08968364476162e+001,-9.03325939625690e+000

3.02738446952187e+005,-2.08982448737137e+001,-9.15690338067212e+000

3.06964518184081e+005,-2.08996847941102e+001,-9.28219953201626e+000

3.11249583171928e+005,-2.09011568044505e+001,-9.40916929483681e+000

3.15594465437872e+005,-2.09026615103820e+001,-9.53783440536182e+000

3.19999999999997e+005,-2.09041995278942e+001,-9.66821689665696e+000

3.24467033532806e+005,-2.09057714836833e+001,-9.80033910386044e+000

3.28996424529938e+005,-2.09073780155412e+001,-9.93422366948708e+000

3.33589043469155e+005,-2.09090197727704e+001,-1.00698935488012e+001

3.38245772979638e+005,-2.09106974166268e+001,-1.02073720152479e+001

3.42967508011610e+005,-2.09124116207894e+001,-1.03466826659397e+001

3.47755156008335e+005,-2.09141630718599e+001,-1.04878494271888e+001

3.52609637080511e+005,-2.09159524698923e+001,-1.06308965600809e+001

3.57531884183106e+005,-2.09177805289522e+001,-1.07758486660797e+001

3.62522843294651e+005,-2.09196479777091e+001,-1.09227306926554e+001

3.67583473599047e+005,-2.09215555600600e+001,-1.10715679389284e+001

3.72714747669902e+005,-2.09235040357867e+001,-1.12223860613183e+001

3.77917651657445e+005,-2.09254941812465e+001,-1.13752110791902e+001

3.83193185478053e+005,-2.09275267900974e+001,-1.15300693804856e+001

3.88542363006410e+005,-2.09296026740575e+001,-1.16869877273309e+001

3.93966212270369e+005,-2.09317226637006e+001,-1.18459932616101e+001

3.99465775648511e+005,-2.09338876092861e+001,-1.20071135104922e+001

4.05042110070485e+005,-2.09360983816259e+001,-1.21703763919021e+001

4.10696287220124e+005,-2.09383558729856e+001,-1.23358102199227e+001

4.16429393741414e+005,-2.09406609980234e+001,-1.25034437101176e+001

4.22242531447321e+005,-2.09430146947637e+001,-1.26733059847616e+001

4.28136817531551e+005,-2.09454179256067e+001,-1.28454265779688e+001

4.34113384783250e+005,-2.09478716783738e+001,-1.30198354407040e+001

4.40173381804713e+005,-2.09503769673879e+001,-1.31965629456685e+001

4.46317973232124e+005,-2.09529348345884e+001,-1.33756398920444e+001

4.52548339959385e+005,-2.09555463506809e+001,-1.35570975100911e+001

4.58865679365059e+005,-2.09582126163199e+001,-1.37409674655764e+001

4.65271205542494e+005,-2.09609347633243e+001,-1.39272818640352e+001

4.71766149533147e+005,-2.09637139559256e+001,-1.41160732548426e+001

4.78351759563174e+005,-2.09665513920460e+001,-1.43073746350902e+001

4.85029301283321e+005,-2.09694483046084e+001,-1.45012194532553e+001

4.91800058012158e+005,-2.09724059628731e+001,-1.46976416126541e+001

4.98665330982714e+005,-2.09754256738044e+001,-1.48966754746647e+001

5.05626439592555e+005,-2.09785087834623e+001,-1.50983558617158e+001

5.12684721657352e+005,-2.09816566784205e+001,-1.53027180600271e+001

5.19841533667984e+005,-2.09848707872076e+001,-1.55097978220952e+001

5.27098251051240e+005,-2.09881525817712e+001,-1.57196313689168e+001

5.34456268434150e+005,-2.09915035789627e+001,-1.59322553919394e+001

5.41916999912011e+005,-2.09949253420417e+001,-1.61477070547340e+001

