Freq.,VOut,OutRef

1.00000000000000e+004,-1.46751252433338e+001,-5.62210767519239e-002

1.01395947979003e+004,-1.46751256972736e+001,-5.70058375108213e-002

1.02811382665607e+004,-1.46751261639665e+001,-5.78015507332106e-002

1.04246576084112e+004,-1.46751266437700e+001,-5.86083692104000e-002

1.05701804056138e+004,-1.46751271370522e+001,-5.94264478613021e-002

1.07177346253629e+004,-1.46751276441913e+001,-6.02559437616952e-002

1.08673486252606e+004,-1.46751281655767e+001,-6.10970161740449e-002

1.10190511587661e+004,-1.46751287016078e+001,-6.19498265825982e-002

1.11728713807222e+004,-1.46751292526958e+001,-6.28145387192162e-002

1.13288388529580e+004,-1.46751298192635e+001,-6.36913185935936e-002

1.14869835499703e+004,-1.46751304017450e+001,-6.45803345325962e-002

1.16473358646846e+004,-1.46751310005870e+001,-6.54817572017898e-002

1.18099266142953e+004,-1.46751316162485e+001,-6.63957596477184e-002

1.19747870461893e+004,-1.46751322492015e+001,-6.73225173230069e-002

1.21419488439505e+004,-1.46751328999311e+001,-6.82622081243311e-002

1.23114441334492e+004,-1.46751335689363e+001,-6.92150124234082e-002

1.24833054890161e+004,-1.46751342567294e+001,-7.01811131066437e-002

1.26575659397028e+004,-1.46751349638376e+001,-7.11606956020474e-002

1.28342589756290e+004,-1.46751356908031e+001,-7.21539479183989e-002

1.30134185544193e+004,-1.46751364381824e+001,-7.31610606851314e-002

1.31950791077289e+004,-1.46751372065479e+001,-7.41822271823912e-002

1.33792755478611e+004,-1.46751379964889e+001,-7.52176433756996e-002

1.35660432744767e+004,-1.46751388086097e+001,-7.62675079634547e-002

1.37554181813974e+004,-1.46751396435327e+001,-7.73320224044672e-002

1.39474366635040e+004,-1.46751405018970e+001,-7.84113909616598e-002

1.41421356237309e+004,-1.46751413843601e+001,-7.95058207372323e-002

1.43395524801583e+004,-1.46751422915976e+001,-8.06155217137556e-002

1.45397251732031e+004,-1.46751432243036e+001,-8.17407067991041e-002

1.47426921729110e+004,-1.46751441831924e+001,-8.28815918548998e-002

1.49484924863494e+004,-1.46751451689978e+001,-8.40383957455938e-002

1.51571656651040e+004,-1.46751461824741e+001,-8.52113403813607e-002

1.53687518128801e+004,-1.46751472243966e+001,-8.64006507550211e-002

1.55832915932100e+004,-1.46751482955627e+001,-8.76065549840561e-002

1.58008262372675e+004,-1.46751493967914e+001,-8.88292843615237e-002

1.60213975517924e+004,-1.46751505289255e+001,-9.00690733875784e-002

1.62450479271247e+004,-1.46751516928301e+001,-9.13261598271935e-002

1.64718203453514e+004,-1.46751528893955e+001,-9.26007847433615e-002

1.67017583885674e+004,-1.46751541195362e+001,-9.38931925498444e-002

1.69349062472505e+004,-1.46751553841926e+001,-9.52036310534641e-002

1.71713087287550e+004,-1.46751566843311e+001,-9.65323515021856e-002

1.74110112659224e+004,-1.46751580209455e+001,-9.78796086315520e-002

1.76540599258131e+004,-1.46751593950562e+001,-9.92456607168090e-002

1.79005014185594e+004,-1.46751608077135e+001,-1.00630769612181e-001

1.81503831063432e+004,-1.46751622599959e+001,-1.02035200809918e-001

1.84037530124975e+004,-1.46751637530121e+001,-1.03459223485536e-001

1.86606598307361e+004,-1.46751652879022e+001,-1.04903110546414e-001

1.89211529345119e+004,-1.46751668658375e+001,-1.06367138687409e-001

1.91852823865052e+004,-1.46751684880223e+001,-1.07851588437893e-001

1.94530989482457e+004,-1.46751701556942e+001,-1.09356744218403e-001

1.97246540898671e+004,-1.46751718701250e+001,-1.10882894394120e-001

1.99999999999999e+004,-1.46751736326224e+001,-1.12430331323340e-001

2.02791895958005e+004,-1.46751754445302e+001,-1.13999351416059e-001

2.05622765331213e+004,-1.46751773072294e+001,-1.15590255191082e-001

2.08493152168224e+004,-1.46751792221394e+001,-1.17203347327871e-001

2.11403608112276e+004,-1.46751811907194e+001,-1.18838936724621e-001

2.14354692507258e+004,-1.46751832144688e+001,-1.20497336556575e-001

2.17346972505211e+004,-1.46751852949285e+001,-1.22178864335693e-001

2.20381023175322e+004,-1.46751874336825e+001,-1.23883841964347e-001

2.23457427614443e+004,-1.46751896323586e+001,-1.25612595801441e-001

2.26576777059159e+004,-1.46751918926294e+001,-1.27365456718804e-001

2.29739670999406e+004,-1.46751942162143e+001,-1.29142760163833e-001

2.32946717293690e+004,-1.46751966048804e+001,-1.30944846218734e-001

2.36198532285905e+004,-1.46751990604431e+001,-1.32772059670993e-001

2.39495740923785e+004,-1.46752015847690e+001,-1.34624750066338e-001

2.42838976879009e+004,-1.46752041797753e+001,-1.36503271783321e-001

2.46228882668982e+004,-1.46752068474330e+001,-1.38407984090441e-001

2.49666109780322e+004,-1.46752095897674e+001,-1.40339251217521e-001

2.53151318794055e+004,-1.46752124088594e+001,-1.42297442421172e-001

2.56685179512580e+004,-1.46752153068479e+001,-1.44282932050758e-001

2.60268371088386e+004,-1.46752182859304e+001,-1.46296099620276e-001

2.63901582154578e+004,-1.46752213483654e+001,-1.48337329873054e-001

2.67585510957221e+004,-1.46752244964733e+001,-1.50407012857643e-001

2.71320865489533e+004,-1.46752277326387e+001,-1.52505543995863e-001

2.75108363627948e+004,-1.46752310593118e+001,-1.54633324153243e-001

2.78948733270080e+004,-1.46752344790103e+001,-1.56790759715783e-001

2.82842712474618e+004,-1.46752379943209e+001,-1.58978262662149e-001

2.86791049603164e+004,-1.46752416079019e+001,-1.61196250635586e-001

2.90794503464061e+004,-1.46752453224840e+001,-1.63445147026078e-001

2.94853843458219e+004,-1.46752491408734e+001,-1.65725381039291e-001

2.98969849726987e+004,-1.46752530659534e+001,-1.68037387777950e-001

3.03143313302078e+004,-1.46752571006856e+001,-1.70381608322507e-001

3.07375036257601e+004,-1.46752612481136e+001,-1.72758489804702e-001

3.11665831864199e+004,-1.46752655113637e+001,-1.75168485492922e-001

3.16016524745350e+004,-1.46752698936481e+001,-1.77612054870782e-001

3.20427951035848e+004,-1.46752743982666e+001,-1.80089663719226e-001

3.24900958542493e+004,-1.46752790286094e+001,-1.82601784200280e-001

3.29436406907028e+004,-1.46752837881588e+001,-1.85148894942162e-001

3.34035167771346e+004,-1.46752886804926e+001,-1.87731481121031e-001

3.38698124945009e+004,-1.46752937092855e+001,-1.90350034552181e-001

3.43426174575100e+004,-1.46752988783128e+001,-1.93005053770181e-001

3.48220225318448e+004,-1.46753041914520e+001,-1.95697044124089e-001

3.53081198516260e+004,-1.46753096526862e+001,-1.98426517860288e-001

3.58010028371187e+004,-1.46753152661067e+001,-2.01193994216114e-001

3.63007662126863e+004,-1.46753210359155e+001,-2.03999999509613e-001

3.68075060249948e+004,-1.46753269664282e+001,-2.06845067233377e-001

3.73213196614721e+004,-1.46753330620779e+001,-2.09729738141164e-001

3.78423058690237e+004,-1.46753393274171e+001,-2.12654560350532e-001

3.83705647730104e+004,-1.46753457671208e+001,-2.15620089432681e-001

3.89061978964912e+004,-1.46753523859910e+001,-2.18626888507848e-001

3.94493081797342e+004,-1.46753591889583e+001,-2.21675528344250e-001

3.99999999999998e+004,-1.46753661810862e+001,-2.24766587457606e-001

4.05583791916010e+004,-1.46753733675741e+001,-2.27900652205518e-001

4.11245530662425e+004,-1.46753807537611e+001,-2.31078316892059e-001

4.16986304336447e+004,-1.46753883451292e+001,-2.34300183866652e-001

4.22807216224550e+004,-1.46753961473072e+001,-2.37566863625022e-001

4.28709385014515e+004,-1.46754041660743e+001,-2.40878974914992e-001

4.34693945010421e+004,-1.46754124073637e+001,-2.44237144839282e-001

4.40762046350642e+004,-1.46754208772669e+001,-2.47642008960019e-001

4.46914855228886e+004,-1.46754295820372e+001,-2.51094211407315e-001

4.53153554118317e+004,-1.46754385280941e+001,-2.54594404981231e-001

4.59479341998812e+004,-1.46754477220273e+001,-2.58143251266032e-001

4.65893434587380e+004,-1.46754571706009e+001,-2.61741420735142e-001

4.72397064571810e+004,-1.46754668807573e+001,-2.65389592865509e-001

4.78991481847569e+004,-1.46754768596225e+001,-2.69088456242828e-001

4.85677953758016e+004,-1.46754871145100e+001,-2.72838708677366e-001

4.92457765337964e+004,-1.46754976529251e+001,-2.76641057318005e-001

4.99332219560642e+004,-1.46755084825702e+001,-2.80496218764043e-001

5.06302637588109e+004,-1.46755196113487e+001,-2.84404919182741e-001

5.13370359025159e+004,-1.46755310473712e+001,-2.88367894420402e-001

5.20536742176771e+004,-1.46755427989587e+001,-2.92385890126670e-001

5.27803164309155e+004,-1.46755548746491e+001,-2.96459661864684e-001

5.35171021914442e+004,-1.46755672832015e+001,-3.00589975236361e-001

5.42641730979066e+004,-1.46755800336016e+001,-3.04777605998337e-001

5.50216727255895e+004,-1.46755931350667e+001,-3.09023340184803e-001

5.57897466540159e+004,-1.46756065970521e+001,-3.13327974225556e-001

5.65685424949235e+004,-1.46756204292549e+001,-3.17692315074056e-001

5.73582099206328e+004,-1.46756346416213e+001,-3.22117180324983e-001

5.81589006928121e+004,-1.46756492443511e+001,-3.26603398340851e-001

5.89707686916437e+004,-1.46756642479038e+001,-3.31151808377796e-001

5.97939699453972e+004,-1.46756796630041e+001,-3.35763260711683e-001

6.06286626604156e+004,-1.46756955006489e+001,-3.40438616759323e-001

6.14750072515201e+004,-1.46757117721116e+001,-3.45178749213623e-001

6.23331663728396e+004,-1.46757284889495e+001,-3.49984542166342e-001

6.32033049490698e+004,-1.46757456630097e+001,-3.54856891236752e-001

6.40855902071694e+004,-1.46757633064345e+001,-3.59796703705772e-001

6.49801917084985e+004,-1.46757814316688e+001,-3.64804898639741e-001

6.58872813814055e+004,-1.46758000514662e+001,-3.69882407024870e-001

6.68070335542691e+004,-1.46758191788944e+001,-3.75030171900207e-001

6.77396249890018e+004,-1.46758388273433e+001,-3.80249148485654e-001

6.86852349150199e+004,-1.46758590105305e+001,-3.85540304316156e-001

6.96440450636895e+004,-1.46758797425081e+001,-3.90904619376303e-001

7.06162397032520e+004,-1.46759010376696e+001,-3.96343086230865e-001

7.16020056742374e+004,-1.46759229107564e+001,-4.01856710163220e-001

7.26015324253724e+004,-1.46759453768644e+001,-4.07446509304732e-001

7.36150120499896e+004,-1.46759684514515e+001,-4.13113514773554e-001

7.46426393229441e+004,-1.46759921503433e+001,-4.18858770808857e-001

7.56846117380472e+004,-1.46760164897408e+001,-4.24683334907371e-001

7.67411295460207e+004,-1.46760414862269e+001,-4.30588277956272e-001

7.78123957929823e+004,-1.46760671567732e+001,-4.36574684374145e-001

7.88986163594682e+004,-1.46760935187470e+001,-4.42643652243513e-001

7.99999999999995e+004,-1.46761205899180e+001,-4.48796293450099e-001

8.11167583832018e+004,-1.46761483884650e+001,-4.55033733818527e-001

8.22491061324848e+004,-1.46761769329828e+001,-4.61357113251857e-001

8.33972608672892e+004,-1.46762062424888e+001,-4.67767585864283e-001

8.45614432449099e+004,-1.46762363364297e+001,-4.74266320123931e-001

8.57418770029029e+004,-1.46762672346882e+001,-4.80854498984790e-001

8.69387890020841e+004,-1.46762989575892e+001,-4.87533320029356e-001

8.81524092701283e+004,-1.46763315259062e+001,-4.94303995602559e-001

8.93829710457770e+004,-1.46763649608678e+001,-5.01167752950957e-001

9.06307108236633e+004,-1.46763992841637e+001,-5.08125834357798e-001

9.18958683997622e+004,-1.46764345179507e+001,-5.15179497283216e-001

9.31786869174758e+004,-1.46764706848580e+001,-5.22330014500351e-001

9.44794129143618e+004,-1.46765078079939e+001,-5.29578674229705e-001

9.57982963695136e+004,-1.46765459109502e+001,-5.36926780280926e-001

9.71355907516031e+004,-1.46765850178076e+001,-5.44375652184158e-001

9.84915530675926e+004,-1.46766251531410e+001,-5.51926625330646e-001

9.98664439121282e+004,-1.46766663420236e+001,-5.59581051107367e-001

1.01260527517622e+005,-1.46767086100318e+001,-5.67340297030775e-001

1.02674071805032e+005,-1.46767519832486e+001,-5.75205746887054e-001

1.04107348435354e+005,-1.46767964882677e+001,-5.83178800863695e-001

1.05560632861831e+005,-1.46768421521964e+001,-5.91260875688340e-001

1.07034204382888e+005,-1.46768890026587e+001,-5.99453404760800e-001

1.08528346195813e+005,-1.46769370677978e+001,-6.07757838289063e-001

1.10043345451179e+005,-1.46769863762777e+001,-6.16175643425290e-001

1.11579493308032e+005,-1.46770369572847e+001,-6.24708304399252e-001

1.13137084989847e+005,-1.46770888405286e+001,-6.33357322652573e-001

1.14716419841265e+005,-1.46771420562425e+001,-6.42124216974956e-001

1.16317801385624e+005,-1.46771966351828e+001,-6.51010523638229e-001

1.17941537383287e+005,-1.46772526086278e+001,-6.60017796530060e-001

1.19587939890794e+005,-1.46773100083771e+001,-6.69147607288546e-001

1.21257325320831e+005,-1.46773688667473e+001,-6.78401545440971e-001

1.22950014503040e+005,-1.46774292165710e+001,-6.87781218533813e-001

1.24666332745679e+005,-1.46774910911909e+001,-6.97288252274393e-001

1.26406609898139e+005,-1.46775545244559e+001,-7.06924290662849e-001

1.28171180414339e+005,-1.46776195507153e+001,-7.16690996132386e-001

1.29960383416997e+005,-1.46776862048116e+001,-7.26590049686608e-001

1.31774562762811e+005,-1.46777545220728e+001,-7.36623151040263e-001

1.33614067108538e+005,-1.46778245383039e+001,-7.46792018757810e-001

1.35479249978003e+005,-1.46778962897767e+001,-7.57098390397040e-001

1.37370469830040e+005,-1.46779698132187e+001,-7.67544022653451e-001

1.39288090127379e+005,-1.46780451458008e+001,-7.78130691506123e-001

1.41232479406504e+005,-1.46781223251236e+001,-7.88860192365830e-001

1.43204011348474e+005,-1.46782013892030e+001,-7.99734340226226e-001

1.45203064850745e+005,-1.46782823764530e+001,-8.10754969817649e-001

1.47230024099979e+005,-1.46783653256693e+001,-8.21923935763660e-001

1.49285278645888e+005,-1.46784502760087e+001,-8.33243112744581e-001

1.51369223476094e+005,-1.46785372669697e+001,-8.44714395658032e-001

1.53482259092041e+005,-1.46786263383691e+001,-8.56339699792518e-001

1.55624791585964e+005,-1.46787175303190e+001,-8.68120960999236e-001

1.57797232718936e+005,-1.46788108832008e+001,-8.80060135873006e-001

1.59999999999999e+005,-1.46789064376378e+001,-8.92159201936759e-001

1.62233516766403e+005,-1.46790042344662e+001,-9.04420157835305e-001

1.64498212264969e+005,-1.46791043147043e+001,-9.16845023532949e-001

1.66794521734578e+005,-1.46792067195193e+001,-9.29435840522538e-001

1.69122886489819e+005,-1.46793114901930e+001,-9.42194672038261e-001

1.71483754005805e+005,-1.46794186680847e+001,-9.55123603282079e-001

1.73877578004168e+005,-1.46795282945929e+001,-9.68224741657715e-001

1.76304818540256e+005,-1.46796404111142e+001,-9.81500217012686e-001

1.78765942091554e+005,-1.46797550590005e+001,-9.94952181898729e-001

1.81261421647326e+005,-1.46798722795146e+001,-1.00858281183518e+000

1.83791736799524e+005,-1.46799921137826e+001,-1.02239430559273e+000

1.86357373834951e+005,-1.46801146027451e+001,-1.03638888548733e+000

1.88958825828723e+005,-1.46802397871057e+001,-1.05056879769027e+000

1.91596592739027e+005,-1.46803677072780e+001,-1.06493631255211e+000

1.94271181503206e+005,-1.46804984033293e+001,-1.07949372494644e+000

1.96983106135185e+005,-1.46806319149238e+001,-1.09424335462822e+000

1.99732887824256e+005,-1.46807682812618e+001,-1.10918754661324e+000

2.02521055035243e+005,-1.46809075410186e+001,-1.12432867157484e+000

2.05348143610063e+005,-1.46810497322799e+001,-1.13966912626491e+000

2.08214696870707e+005,-1.46811948924760e+001,-1.15521133395420e+000

2.11121265723661e+005,-1.46813430583137e+001,-1.17095774489680e+000

2.14068408765776e+005,-1.46814942657063e+001,-1.18691083681868e+000

2.17056692391625e+005,-1.46816485497018e+001,-1.20307311543269e+000

2.20086690902357e+005,-1.46818059444095e+001,-1.21944711497822e+000

2.23158986616063e+005,-1.46819664829243e+001,-1.23603539879097e+000

2.26274169979693e+005,-1.46821301972500e+001,-1.25284055990067e+000

2.29432839682530e+005,-1.46822971182212e+001,-1.26986522165817e+000

2.32635602771247e+005,-1.46824672754234e+001,-1.28711203839523e+000

2.35883074766574e+005,-1.46826406971119e+001,-1.30458369611757e+000

2.39175879781588e+005,-1.46828174101303e+001,-1.32228291322803e+000

2.42514650641661e+005,-1.46829974398272e+001,-1.34021244128918e+000

2.45900029006080e+005,-1.46831808099731e+001,-1.35837506581778e+000

2.49332665491357e+005,-1.46833675426758e+001,-1.37677360711934e+000

2.52813219796278e+005,-1.46835576582968e+001,-1.39541092115730e+000

2.56342360828676e+005,-1.46837511753659e+001,-1.41428990046509e+000

2.59920766833993e+005,-1.46839481104978e+001,-1.43341347509305e+000

2.63549125525621e+005,-1.46841484783072e+001,-1.45278461360039e+000

2.67228134217075e+005,-1.46843522913262e+001,-1.47240632408629e+000

2.70958499956006e+005,-1.46845595599218e+001,-1.49228165526164e+000

2.74740939660078e+005,-1.46847702922142e+001,-1.51241369756680e+000

2.78576180254757e+005,-1.46849844939976e+001,-1.53280558432820e+000

2.82464958813007e+005,-1.46852021686619e+001,-1.55346049296212e+000

2.86408022696948e+005,-1.46854233171169e+001,-1.57438164621884e+000

2.90406129701488e+005,-1.46856479377190e+001,-1.59557231347273e+000

2.94460048199957e+005,-1.46858760262001e+001,-1.61703581205433e+000

2.98570557291775e+005,-1.46861075756002e+001,-1.63877550862763e+000

3.02738446952187e+005,-1.46863425762031e+001,-1.66079482060996e+000

3.06964518184081e+005,-1.46865810154758e+001,-1.68309721763325e+000

3.11249583171928e+005,-1.46868228780121e+001,-1.70568622305049e+000

3.15594465437872e+005,-1.46870681454806e+001,-1.72856541548136e+000

3.19999999999997e+005,-1.46873167965775e+001,-1.75173843039893e+000

3.24467033532806e+005,-1.46875688069844e+001,-1.77520896175810e+000

3.28996424529938e+005,-1.46878241493317e+001,-1.79898076365880e+000

3.33589043469155e+005,-1.46880827931676e+001,-1.82305765205014e+000

3.38245772979638e+005,-1.46883447049334e+001,-1.84744350646556e+000

3.42967508011610e+005,-1.46886098479451e+001,-1.87214227179768e+000

3.47755156008335e+005,-1.46888781823813e+001,-1.89715796009880e+000

3.52609637080511e+005,-1.46891496652792e+001,-1.92249465241567e+000

3.57531884183106e+005,-1.46894242505360e+001,-1.94815650064974e+000

3.62522843294651e+005,-1.46897018889199e+001,-1.97414772944448e+000

3.67583473599047e+005,-1.46899825280869e+001,-2.00047263809395e+000

3.72714747669902e+005,-1.46902661126066e+001,-2.02713560247219e+000

3.77917651657445e+005,-1.46905525839959e+001,-2.05414107698033e+000

3.83193185478053e+005,-1.46908418807600e+001,-2.08149359651000e+000

3.88542363006410e+005,-1.46911339384438e+001,-2.10919777841389e+000

3.93966212270369e+005,-1.46914286896887e+001,-2.13725832449141e+000

3.99465775648511e+005,-1.46917260643007e+001,-2.16568002297393e+000

4.05042110070485e+005,-1.46920259893249e+001,-2.19446775051749e+000

4.10696287220124e+005,-1.46923283891300e+001,-2.22362647419095e+000

4.16429393741414e+005,-1.46926331854998e+001,-2.25316125346310e+000

4.22242531447321e+005,-1.46929402977337e+001,-2.28307724218117e+000

4.28136817531551e+005,-1.46932496427559e+001,-2.31337969053815e+000

4.34113384783250e+005,-1.46935611352312e+001,-2.34407394702986e+000

4.40173381804713e+005,-1.46938746876899e+001,-2.37516546039118e+000

4.46317973232124e+005,-1.46941902106599e+001,-2.40665978151558e+000

4.52548339959385e+005,-1.46945076128057e+001,-2.43856256535115e+000

4.58865679365059e+005,-1.46948268010745e+001,-2.47087957277051e+000

4.65271205542494e+005,-1.46951476808499e+001,-2.50361667241393e+000

4.71766149533147e+005,-1.46954701561101e+001,-2.53677984249945e+000

4.78351759563174e+005,-1.46957941295940e+001,-2.57037517260219e+000

4.85029301283321e+005,-1.46961195029709e+001,-2.60440886539666e+000

4.91800058012158e+005,-1.46964461770167e+001,-2.63888723836229e+000

4.98665330982714e+005,-1.46967740517932e+001,-2.67381672544948e+000

5.05626439592555e+005,-1.46971030268326e+001,-2.70920387870539e+000

5.12684721657352e+005,-1.46974330013246e+001,-2.74505536985697e+000

5.19841533667984e+005,-1.46977638743070e+001,-2.78137799185016e+000

5.27098251051240e+005,-1.46980955448580e+001,-2.81817866034744e+000

5.34456268434150e+005,-1.46984279122910e+001,-2.85546441517845e+000

5.41916999912011e+005,-1.46987608763501e+001,-2.89324242174611e+000

