Freq.,VOut,OutRef

1.00000000000000e+004,-1.89888853959364e+001,-2.84259303129647e-001

1.01395947979003e+004,-1.89888870913163e+001,-2.88227281406702e-001

1.02811382665607e+004,-1.89888888343388e+001,-2.92250644920669e-001

1.04246576084112e+004,-1.89888906263423e+001,-2.96330166579583e-001

1.05701804056138e+004,-1.89888924687025e+001,-3.00466630070470e-001

1.07177346253629e+004,-1.89888943628337e+001,-3.04660830010237e-001

1.08673486252606e+004,-1.89888963101899e+001,-3.08913572098006e-001

1.10190511587661e+004,-1.89888983122662e+001,-3.13225673265746e-001

1.11728713807222e+004,-1.89889003705993e+001,-3.17597961839154e-001

1.13288388529580e+004,-1.89889024867691e+001,-3.22031277694746e-001

1.14869835499703e+004,-1.89889046623998e+001,-3.26526472419896e-001

1.16473358646846e+004,-1.89889068991614e+001,-3.31084409474624e-001

1.18099266142953e+004,-1.89889091987704e+001,-3.35705964359922e-001

1.19747870461893e+004,-1.89889115629916e+001,-3.40392024782687e-001

1.21419488439505e+004,-1.89889139936395e+001,-3.45143490826149e-001

1.23114441334492e+004,-1.89889164925790e+001,-3.49961275122463e-001

1.24833054890161e+004,-1.89889190617278e+001,-3.54846303026458e-001

1.26575659397028e+004,-1.89889217030570e+001,-3.59799512793920e-001

1.28342589756290e+004,-1.89889244185932e+001,-3.64821855758769e-001

1.30134185544193e+004,-1.89889272104198e+001,-3.69914296516267e-001

1.31950791077289e+004,-1.89889300806784e+001,-3.75077813108063e-001

1.33792755478611e+004,-1.89889330315710e+001,-3.80313397206532e-001

1.35660432744767e+004,-1.89889360653609e+001,-3.85622054307270e-001

1.37554181813974e+004,-1.89889391843751e+001,-3.91004803917987e-001

1.39474366635040e+004,-1.89889423910059e+001,-3.96462679756274e-001

1.41421356237309e+004,-1.89889456877124e+001,-4.01996729944434e-001

1.43395524801583e+004,-1.89889490770226e+001,-4.07608017212038e-001

1.45397251732031e+004,-1.89889525615356e+001,-4.13297619095022e-001

1.47426921729110e+004,-1.89889561439230e+001,-4.19066628145469e-001

1.49484924863494e+004,-1.89889598269314e+001,-4.24916152137670e-001

1.51571656651040e+004,-1.89889636133845e+001,-4.30847314278920e-001

1.53687518128801e+004,-1.89889675061847e+001,-4.36861253426027e-001

1.55832915932100e+004,-1.89889715083160e+001,-4.42959124299728e-001

1.58008262372675e+004,-1.89889756228457e+001,-4.49142097707890e-001

1.60213975517924e+004,-1.89889798529272e+001,-4.55411360764219e-001

1.62450479271247e+004,-1.89889842018020e+001,-4.61768117119682e-001

1.64718203453514e+004,-1.89889886728024e+001,-4.68213587187470e-001

1.67017583885674e+004,-1.89889932693540e+001,-4.74749008376954e-001

1.69349062472505e+004,-1.89889979949782e+001,-4.81375635330874e-001

1.71713087287550e+004,-1.89890028532951e+001,-4.88094740160217e-001

1.74110112659224e+004,-1.89890078480258e+001,-4.94907612690783e-001

1.76540599258131e+004,-1.89890129829957e+001,-5.01815560704820e-001

1.79005014185594e+004,-1.89890182621369e+001,-5.08819910192612e-001

1.81503831063432e+004,-1.89890236894919e+001,-5.15922005601695e-001

1.84037530124975e+004,-1.89890292692160e+001,-5.23123210095090e-001

1.86606598307361e+004,-1.89890350055804e+001,-5.30424905808561e-001

1.89211529345119e+004,-1.89890409029762e+001,-5.37828494113527e-001

1.91852823865052e+004,-1.89890469659169e+001,-5.45335395883080e-001

1.94530989482457e+004,-1.89890531990422e+001,-5.52947051762119e-001

1.97246540898671e+004,-1.89890596071213e+001,-5.60664922440549e-001

1.99999999999999e+004,-1.89890661950567e+001,-5.68490488929878e-001

2.02791895958005e+004,-1.89890729678880e+001,-5.76425252843818e-001

2.05622765331213e+004,-1.89890799307952e+001,-5.84470736683650e-001

2.08493152168224e+004,-1.89890870891029e+001,-5.92628484127523e-001

2.11403608112276e+004,-1.89890944482848e+001,-6.00900060319202e-001

2.14354692507258e+004,-1.89891020139668e+001,-6.09287052169195e-001

2.17346972505211e+004,-1.89891097919319e+001,-6.17791068650814e-001

2.20381023175322e+004,-1.89891177881246e+001,-6.26413741107482e-001

2.23457427614443e+004,-1.89891260086550e+001,-6.35156723558827e-001

2.26576777059159e+004,-1.89891344598037e+001,-6.44021693014707e-001

2.29739670999406e+004,-1.89891431480260e+001,-6.53010349792960e-001

2.32946717293690e+004,-1.89891520799576e+001,-6.62124417836734e-001

2.36198532285905e+004,-1.89891612624188e+001,-6.71365645043106e-001

2.39495740923785e+004,-1.89891707024198e+001,-6.80735803592717e-001

2.42838976879009e+004,-1.89891804071662e+001,-6.90236690280513e-001

2.46228882668982e+004,-1.89891903840642e+001,-6.99870126858411e-001

2.49666109780322e+004,-1.89892006407258e+001,-7.09637960376181e-001

2.53151318794055e+004,-1.89892111849752e+001,-7.19542063528710e-001

2.56685179512580e+004,-1.89892220248540e+001,-7.29584335009152e-001

2.60268371088386e+004,-1.89892331686274e+001,-7.39766699865758e-001

2.63901582154578e+004,-1.89892446247905e+001,-7.50091109862431e-001

2.67585510957221e+004,-1.89892564020745e+001,-7.60559543846298e-001

2.71320865489533e+004,-1.89892685094529e+001,-7.71174008119146e-001

2.75108363627948e+004,-1.89892809561485e+001,-7.81936536812409e-001

2.78948733270080e+004,-1.89892937516404e+001,-7.92849192268766e-001

2.82842712474618e+004,-1.89893069056703e+001,-8.03914065428660e-001

2.86791049603164e+004,-1.89893204282506e+001,-8.15133276221615e-001

2.90794503464061e+004,-1.89893343296710e+001,-8.26508973961285e-001

2.94853843458219e+004,-1.89893486205067e+001,-8.38043337747932e-001

2.98969849726987e+004,-1.89893633116257e+001,-8.49738576876246e-001

3.03143313302078e+004,-1.89893784141973e+001,-8.61596931244366e-001

3.07375036257601e+004,-1.89893939396996e+001,-8.73620671775585e-001

3.11665831864199e+004,-1.89894098999290e+001,-8.85812100835838e-001

3.16016524745350e+004,-1.89894263070075e+001,-8.98173552668312e-001

3.20427951035848e+004,-1.89894431733927e+001,-9.10707393821144e-001

3.24900958542493e+004,-1.89894605118864e+001,-9.23416023592139e-001

3.29436406907028e+004,-1.89894783356440e+001,-9.36301874469758e-001

3.34035167771346e+004,-1.89894966581842e+001,-9.49367412586535e-001

3.38698124945009e+004,-1.89895154933986e+001,-9.62615138175568e-001

3.43426174575100e+004,-1.89895348555621e+001,-9.76047586031410e-001

3.48220225318448e+004,-1.89895547593429e+001,-9.89667325981043e-001

3.53081198516260e+004,-1.89895752198136e+001,-1.00347696335438e+000

3.58010028371187e+004,-1.89895962524616e+001,-1.01747913946996e+000

3.63007662126863e+004,-1.89896178732006e+001,-1.03167653211592e+000

3.68075060249948e+004,-1.89896400983819e+001,-1.04607185604675e+000

3.73213196614721e+004,-1.89896629448064e+001,-1.06066786347995e+000

3.78423058690237e+004,-1.89896864297362e+001,-1.07546734460216e+000

3.83705647730104e+004,-1.89897105709075e+001,-1.09047312807980e+000

3.89061978964912e+004,-1.89897353865429e+001,-1.10568808157786e+000

3.94493081797342e+004,-1.89897608953646e+001,-1.12111511228300e+000

3.99999999999998e+004,-1.89897871166077e+001,-1.13675716743568e+000

4.05583791916010e+004,-1.89898140700336e+001,-1.15261723486637e+000

4.11245530662425e+004,-1.89898417759444e+001,-1.16869834354048e+000

4.16986304336447e+004,-1.89898702551972e+001,-1.18500356410794e+000

4.22807216224550e+004,-1.89898995292185e+001,-1.20153600946150e+000

4.28709385014515e+004,-1.89899296200195e+001,-1.21829883530045e+000

4.34693945010421e+004,-1.89899605502115e+001,-1.23529524070321e+000

4.40762046350642e+004,-1.89899923430220e+001,-1.25252846870205e+000

4.46914855228886e+004,-1.89900250223104e+001,-1.27000180687199e+000

4.53153554118317e+004,-1.89900586125849e+001,-1.28771858792012e+000

4.59479341998812e+004,-1.89900931390196e+001,-1.30568219028508e+000

4.65893434587380e+004,-1.89901286274719e+001,-1.32389603874480e+000

4.72397064571810e+004,-1.89901651045001e+001,-1.34236360502846e+000

4.78991481847569e+004,-1.89902025973820e+001,-1.36108840843729e+000

4.85677953758016e+004,-1.89902411341332e+001,-1.38007401647392e+000

4.92457765337964e+004,-1.89902807435268e+001,-1.39932404547640e+000

4.99332219560642e+004,-1.89903214551127e+001,-1.41884216126070e+000

5.06302637588109e+004,-1.89903632992373e+001,-1.43863207977250e+000

5.13370359025159e+004,-1.89904063070649e+001,-1.45869756774405e+000

5.20536742176771e+004,-1.89904505105978e+001,-1.47904244335965e+000

5.27803164309155e+004,-1.89904959426985e+001,-1.49967057692770e+000

5.35171021914442e+004,-1.89905426371111e+001,-1.52058589156276e+000

5.42641730979066e+004,-1.89905906284843e+001,-1.54179236387319e+000

5.50216727255895e+004,-1.89906399523940e+001,-1.56329402465682e+000

5.57897466540159e+004,-1.89906906453669e+001,-1.58509495960486e+000

5.65685424949235e+004,-1.89907427449046e+001,-1.60719931001383e+000

5.73582099206328e+004,-1.89907962895082e+001,-1.62961127350555e+000

5.81589006928121e+004,-1.89908513187031e+001,-1.65233510475332e+000

5.89707686916437e+004,-1.89909078730651e+001,-1.67537511621765e+000

5.97939699453972e+004,-1.89909659942459e+001,-1.69873567889096e+000

6.06286626604156e+004,-1.89910257250007e+001,-1.72242122304702e+000

6.14750072515201e+004,-1.89910871092148e+001,-1.74643623900105e+000

6.23331663728396e+004,-1.89911501919316e+001,-1.77078527787823e+000

6.32033049490698e+004,-1.89912150193815e+001,-1.79547295238806e+000

6.40855902071694e+004,-1.89912816390105e+001,-1.82050393760853e+000

6.49801917084985e+004,-1.89913500995096e+001,-1.84588297177837e+000

6.58872813814055e+004,-1.89914204508459e+001,-1.87161485709678e+000

6.68070335542691e+004,-1.89914927442925e+001,-1.89770446053221e+000

6.77396249890018e+004,-1.89915670324602e+001,-1.92415671463897e+000

6.86852349150199e+004,-1.89916433693299e+001,-1.95097661838169e+000

6.96440450636895e+004,-1.89917218102844e+001,-1.97816923796979e+000

7.06162397032520e+004,-1.89918024121426e+001,-2.00573970769746e+000

7.16020056742374e+004,-1.89918852331927e+001,-2.03369323079454e+000

7.26015324253724e+004,-1.89919703332266e+001,-2.06203508028495e+000

7.36150120499896e+004,-1.89920577735756e+001,-2.09077059985301e+000

7.46426393229441e+004,-1.89921476171455e+001,-2.11990520471826e+000

7.56846117380472e+004,-1.89922399284528e+001,-2.14944438252008e+000

7.67411295460207e+004,-1.89923347736624e+001,-2.17939369420813e+000

7.78123957929823e+004,-1.89924322206242e+001,-2.20975877494435e+000

7.88986163594682e+004,-1.89925323389118e+001,-2.24054533501061e+000

7.99999999999995e+004,-1.89926351998612e+001,-2.27175916072631e+000

8.11167583832018e+004,-1.89927408766096e+001,-2.30340611537572e+000

8.22491061324848e+004,-1.89928494441361e+001,-2.33549214013971e+000

8.33972608672892e+004,-1.89929609793016e+001,-2.36802325504179e+000

8.45614432449099e+004,-1.89930755608903e+001,-2.40100555989712e+000

8.57418770029029e+004,-1.89931932696508e+001,-2.43444523527410e+000

8.69387890020841e+004,-1.89933141883388e+001,-2.46834854346338e+000

8.81524092701283e+004,-1.89934384017597e+001,-2.50272182945357e+000

8.93829710457770e+004,-1.89935659968118e+001,-2.53757152191938e+000

9.06307108236633e+004,-1.89936970625300e+001,-2.57290413421537e+000

9.18958683997622e+004,-1.89938316901304e+001,-2.60872626537894e+000

9.31786869174758e+004,-1.89939699730546e+001,-2.64504460114422e+000

9.44794129143618e+004,-1.89941120070154e+001,-2.68186591496212e+000

9.57982963695136e+004,-1.89942578900420e+001,-2.71919706903055e+000

9.71355907516031e+004,-1.89944077225265e+001,-2.75704501533359e+000

9.84915530675926e+004,-1.89945616072700e+001,-2.79541679668959e+000

9.98664439121282e+004,-1.89947196495296e+001,-2.83431954780789e+000

1.01260527517622e+005,-1.89948819570657e+001,-2.87376049635574e+000

1.02674071805032e+005,-1.89950486401892e+001,-2.91374696403296e+000

1.04107348435354e+005,-1.89952198118094e+001,-2.95428636765750e+000

1.05560632861831e+005,-1.89953955874821e+001,-2.99538622025962e+000

1.07034204382888e+005,-1.89955760854574e+001,-3.03705413218571e+000

1.08528346195813e+005,-1.89957614267285e+001,-3.07929781221181e+000

1.10043345451179e+005,-1.89959517350802e+001,-3.12212506866789e+000

1.11579493308032e+005,-1.89961471371369e+001,-3.16554381057100e+000

1.13137084989847e+005,-1.89963477624119e+001,-3.20956204876905e+000

1.14716419841265e+005,-1.89965537433557e+001,-3.25418789709556e+000

1.16317801385624e+005,-1.89967652154046e+001,-3.29942957353428e+000

1.17941537383287e+005,-1.89969823170289e+001,-3.34529540139628e+000

1.19587939890794e+005,-1.89972051897819e+001,-3.39179381050557e+000

1.21257325320831e+005,-1.89974339783473e+001,-3.43893333839907e+000

1.22950014503040e+005,-1.89976688305873e+001,-3.48672263153681e+000

1.24666332745679e+005,-1.89979098975904e+001,-3.53517044652441e+000

1.26406609898139e+005,-1.89981573337181e+001,-3.58428565134922e+000

1.28171180414339e+005,-1.89984112966517e+001,-3.63407722662782e+000

1.29960383416997e+005,-1.89986719474389e+001,-3.68455426686807e+000

1.31774562762811e+005,-1.89989394505389e+001,-3.73572598174515e+000

1.33614067108538e+005,-1.89992139738680e+001,-3.78760169739078e+000

1.35479249978003e+005,-1.89994956888433e+001,-3.84019085769993e+000

1.37370469830040e+005,-1.89997847704271e+001,-3.89350302564989e+000

1.39288090127379e+005,-1.90000813971686e+001,-3.94754788463838e+000

1.41232479406504e+005,-1.90003857512469e+001,-4.00233523983726e+000

1.43204011348474e+005,-1.90006980185112e+001,-4.05787501956409e+000

1.45203064850745e+005,-1.90010183885210e+001,-4.11417727667227e+000

1.47230024099979e+005,-1.90013470545848e+001,-4.17125218996062e+000

1.49285278645888e+005,-1.90016842137982e+001,-4.22911006560337e+000

1.51369223476094e+005,-1.90020300670798e+001,-4.28776133860055e+000

1.53482259092041e+005,-1.90023848192069e+001,-4.34721657425169e+000

1.55624791585964e+005,-1.90027486788493e+001,-4.40748646965181e+000

1.57797232718936e+005,-1.90031218586020e+001,-4.46858185521227e+000

1.59999999999999e+005,-1.90035045750163e+001,-4.53051369620754e+000

1.62233516766403e+005,-1.90038970486293e+001,-4.59329309434802e+000

1.64498212264969e+005,-1.90042995039925e+001,-4.65693128938219e+000

1.66794521734578e+005,-1.90047121696983e+001,-4.72143966072666e+000

1.69122886489819e+005,-1.90051352784051e+001,-4.78682972912941e+000

1.71483754005805e+005,-1.90055690668612e+001,-4.85311315836409e+000

1.73877578004168e+005,-1.90060137759263e+001,-4.92030175695903e+000

1.76304818540256e+005,-1.90064696505925e+001,-4.98840747996208e+000

1.78765942091554e+005,-1.90069369400027e+001,-5.05744243074295e+000

1.81261421647326e+005,-1.90074158974684e+001,-5.12741886283511e+000

1.83791736799524e+005,-1.90079067804852e+001,-5.19834918181924e+000

1.86357373834951e+005,-1.90084098507472e+001,-5.27024594724929e+000

1.88958825828723e+005,-1.90089253741600e+001,-5.34312187462459e+000

1.91596592739027e+005,-1.90094536208525e+001,-5.41698983740807e+000

1.94271181503206e+005,-1.90099948651871e+001,-5.49186286909573e+000

1.96983106135185e+005,-1.90105493857690e+001,-5.56775416533607e+000

1.99732887824256e+005,-1.90111174654547e+001,-5.64467708610369e+000

2.02521055035243e+005,-1.90116993913590e+001,-5.72264515793095e+000

2.05348143610063e+005,-1.90122954548624e+001,-5.80167207619449e+000

2.08214696870707e+005,-1.90129059516168e+001,-5.88177170746631e+000

2.11121265723661e+005,-1.90135311815518e+001,-5.96295809192569e+000

2.14068408765776e+005,-1.90141714488807e+001,-6.04524544583783e+000

2.17056692391625e+005,-1.90148270621067e+001,-6.12864816409964e+000

2.20086690902357e+005,-1.90154983340292e+001,-6.21318082285762e+000

2.23158986616063e+005,-1.90161855817523e+001,-6.29885818219692e+000

2.26274169979693e+005,-1.90168891266925e+001,-6.38569518890674e+000

2.29432839682530e+005,-1.90176092945900e+001,-6.47370697932319e+000

2.32635602771247e+005,-1.90183464155200e+001,-6.56290888225228e+000

2.35883074766574e+005,-1.90191008239084e+001,-6.65331642197516e+000

2.39175879781588e+005,-1.90198728585488e+001,-6.74494532133780e+000

2.42514650641661e+005,-1.90206628626232e+001,-6.83781150492800e+000

2.45900029006080e+005,-1.90214711837276e+001,-6.93193110234008e+000

2.49332665491357e+005,-1.90222981739007e+001,-7.02732045153201e+000

2.52813219796278e+005,-1.90231441896585e+001,-7.12399610227221e+000

2.56342360828676e+005,-1.90240095920343e+001,-7.22197481968422e+000

2.59920766833993e+005,-1.90248947466252e+001,-7.32127358788399e+000

2.63549125525621e+005,-1.90258000236456e+001,-7.42190961371535e+000

2.67228134217075e+005,-1.90267257979882e+001,-7.52390033058382e+000

2.70958499956006e+005,-1.90276724492940e+001,-7.62726340238926e+000

2.74740939660078e+005,-1.90286403620312e+001,-7.73201672755778e+000

2.78576180254757e+005,-1.90296299255843e+001,-7.83817844317493e+000

2.82464958813007e+005,-1.90306415343544e+001,-7.94576692921718e+000

2.86408022696948e+005,-1.90316755878707e+001,-8.05480081288623e+000

2.90406129701488e+005,-1.90327324909154e+001,-8.16529897303990e+000

2.94460048199957e+005,-1.90338126536617e+001,-8.27728054472539e+000

2.98570557291775e+005,-1.90349164918261e+001,-8.39076492380677e+000

3.02738446952187e+005,-1.90360444268368e+001,-8.50577177169158e+000

3.06964518184081e+005,-1.90371968860176e+001,-8.62232102015052e+000

3.11249583171928e+005,-1.90383743027897e+001,-8.74043287622999e+000

3.15594465437872e+005,-1.90395771168917e+001,-8.86012782725312e+000

3.19999999999997e+005,-1.90408057746180e+001,-8.98142664590947e+000

3.24467033532806e+005,-1.90420607290782e+001,-9.10435039542578e+000

3.28996424529938e+005,-1.90433424404773e+001,-9.22892043481732e+000

3.33589043469155e+005,-1.90446513764175e+001,-9.35515842421372e+000

3.38245772979638e+005,-1.90459880122229e+001,-9.48308633025544e+000

3.42967508011610e+005,-1.90473528312886e+001,-9.61272643155468e+000

3.47755156008335e+005,-1.90487463254531e+001,-9.74410132421743e+000

3.52609637080511e+005,-1.90501689953975e+001,-9.87723392741697e+000

3.57531884183106e+005,-1.90516213510694e+001,-1.00121474890169e+001

3.62522843294651e+005,-1.90531039121349e+001,-1.01488655912329e+001

3.67583473599047e+005,-1.90546172084574e+001,-1.02874121563289e+001

3.72714747669902e+005,-1.90561617806047e+001,-1.04278114523383e+001

3.77917651657445e+005,-1.90577381803851e+001,-1.05700880988038e+001

3.83193185478053e+005,-1.90593469714126e+001,-1.07142670725265e+001

3.88542363006410e+005,-1.90609887297018e+001,-1.08603737133158e+001

3.93966212270369e+005,-1.90626640442929e+001,-1.10084337297331e+001

3.99465775648511e+005,-1.90643735179072e+001,-1.11584732048174e+001

4.05042110070485e+005,-1.90661177676331e+001,-1.13105186017859e+001

4.10696287220124e+005,-1.90678974256431e+001,-1.14645967696988e+001

4.16429393741414e+005,-1.90697131399414e+001,-1.16207349490804e+001

4.22242531447321e+005,-1.90715655751426e+001,-1.17789607774844e+001

4.28136817531551e+005,-1.90734554132811e+001,-1.19393022949956e+001

4.34113384783250e+005,-1.90753833546510e+001,-1.21017879496576e+001

4.40173381804713e+005,-1.90773501186764e+001,-1.22664466028177e+001

4.46317973232124e+005,-1.90793564448117e+001,-1.24333075343761e+001

4.52548339959385e+005,-1.90814030934715e+001,-1.26024004479347e+001

4.58865679365059e+005,-1.90834908469898e+001,-1.27737554758317e+001

4.65271205542494e+005,-1.90856205106065e+001,-1.29474031840557e+001

4.71766149533147e+005,-1.90877929134837e+001,-1.31233745770272e+001

4.78351759563174e+005,-1.90900089097467e+001,-1.33017011022429e+001

4.85029301283321e+005,-1.90922693795537e+001,-1.34824146547690e+001

4.91800058012158e+005,-1.90945752301883e+001,-1.36655475815809e+001

4.98665330982714e+005,-1.90969273971785e+001,-1.38511326857357e+001

5.05626439592555e+005,-1.90993268454378e+001,-1.40392032303750e+001

5.12684721657352e+005,-1.91017745704292e+001,-1.42297929425475e+001

5.19841533667984e+005,-1.91042715993502e+001,-1.44229360168461e+001

5.27098251051240e+005,-1.91068189923377e+001,-1.46186671188531e+001

5.34456268434150e+005,-1.91094178436924e+001,-1.48170213883874e+001

5.41916999912011e+005,-1.91120692831198e+001,-1.50180344425480e+001

