Freq.,VOut,OutRef

1.00000000000000e+004,-1.23583772539009e+001,-9.56776779852369e-002

1.01395947979003e+004,-1.23583777243794e+001,-9.70132280616493e-002

1.02811382665607e+004,-1.23583782080745e+001,-9.83674191548011e-002

1.04246576084112e+004,-1.23583787053578e+001,-9.97405113712269e-002

1.05701804056138e+004,-1.23583792166104e+001,-1.01132768448932e-001

1.07177346253629e+004,-1.23583797422244e+001,-1.02544457801227e-001

1.08673486252606e+004,-1.23583802826027e+001,-1.03975850569133e-001

1.10190511587661e+004,-1.23583808381601e+001,-1.05427221671274e-001

1.11728713807222e+004,-1.23583814093224e+001,-1.06898849862577e-001

1.13288388529580e+004,-1.23583819965273e+001,-1.08391017782160e-001

1.14869835499703e+004,-1.23583826002252e+001,-1.09904012006248e-001

1.16473358646846e+004,-1.23583832208790e+001,-1.11438123107550e-001

1.18099266142953e+004,-1.23583838589642e+001,-1.12993645709670e-001

1.19747870461893e+004,-1.23583845149701e+001,-1.14570878539546e-001

1.21419488439505e+004,-1.23583851893992e+001,-1.16170124489184e-001

1.23114441334492e+004,-1.23583858827686e+001,-1.17791690670563e-001

1.24833054890161e+004,-1.23583865956093e+001,-1.19435888476525e-001

1.26575659397028e+004,-1.23583873284678e+001,-1.21103033635818e-001

1.28342589756290e+004,-1.23583880819053e+001,-1.22793446280865e-001

1.30134185544193e+004,-1.23583888564993e+001,-1.24507450998951e-001

1.31950791077289e+004,-1.23583896528427e+001,-1.26245376904605e-001

1.33792755478611e+004,-1.23583904715458e+001,-1.28007557693774e-001

1.35660432744767e+004,-1.23583913132354e+001,-1.29794331712396e-001

1.37554181813974e+004,-1.23583921785559e+001,-1.31606042019984e-001

1.39474366635040e+004,-1.23583930681702e+001,-1.33443036451606e-001

1.41421356237309e+004,-1.23583939827589e+001,-1.35305667690717e-001

1.43395524801583e+004,-1.23583949230222e+001,-1.37194293330190e-001

1.45397251732031e+004,-1.23583958896801e+001,-1.39109275941441e-001

1.47426921729110e+004,-1.23583968834720e+001,-1.41050983148120e-001

1.49484924863494e+004,-1.23583979051584e+001,-1.43019787690693e-001

1.51571656651040e+004,-1.23583989555211e+001,-1.45016067498946e-001

1.53687518128801e+004,-1.23584000353635e+001,-1.47040205765797e-001

1.55832915932100e+004,-1.23584011455116e+001,-1.49092591016054e-001

1.58008262372675e+004,-1.23584022868143e+001,-1.51173617185984e-001

1.60213975517924e+004,-1.23584034601444e+001,-1.53283683691998e-001

1.62450479271247e+004,-1.23584046663989e+001,-1.55423195511535e-001

1.64718203453514e+004,-1.23584059064999e+001,-1.57592563257171e-001

1.67017583885674e+004,-1.23584071813951e+001,-1.59792203254730e-001

1.69349062472505e+004,-1.23584084920591e+001,-1.62022537622562e-001

1.71713087287550e+004,-1.23584098394927e+001,-1.64283994355020e-001

1.74110112659224e+004,-1.23584112247257e+001,-1.66577007395731e-001

1.76540599258131e+004,-1.23584126488160e+001,-1.68902016727863e-001

1.79005014185594e+004,-1.23584141128510e+001,-1.71259468452788e-001

1.81503831063432e+004,-1.23584156179484e+001,-1.73649814876931e-001

1.84037530124975e+004,-1.23584171652572e+001,-1.76073514595859e-001

1.86606598307361e+004,-1.23584187559582e+001,-1.78531032582702e-001

1.89211529345119e+004,-1.23584203912652e+001,-1.81022840272298e-001

1.91852823865052e+004,-1.23584220724258e+001,-1.83549415655300e-001

1.94530989482457e+004,-1.23584238007221e+001,-1.86111243366635e-001

1.97246540898671e+004,-1.23584255774721e+001,-1.88708814775327e-001

1.99999999999999e+004,-1.23584274040300e+001,-1.91342628079850e-001

2.02791895958005e+004,-1.23584292817883e+001,-1.94013188399647e-001

2.05622765331213e+004,-1.23584312121777e+001,-1.96721007872408e-001

2.08493152168224e+004,-1.23584331966690e+001,-1.99466605748889e-001

2.11403608112276e+004,-1.23584352367730e+001,-2.02250508495009e-001

2.14354692507258e+004,-1.23584373340437e+001,-2.05073249882435e-001

2.17346972505211e+004,-1.23584394900770e+001,-2.07935371100057e-001

2.20381023175322e+004,-1.23584417065140e+001,-2.10837420844708e-001

2.23457427614443e+004,-1.23584439850407e+001,-2.13779955433111e-001

2.26576777059159e+004,-1.23584463273901e+001,-2.16763538901781e-001

2.29739670999406e+004,-1.23584487353429e+001,-2.19788743114994e-001

2.32946717293690e+004,-1.23584512107296e+001,-2.22856147868568e-001

2.36198532285905e+004,-1.23584537554309e+001,-2.25966341004061e-001

2.39495740923785e+004,-1.23584563713798e+001,-2.29119918513678e-001

2.42838976879009e+004,-1.23584590605625e+001,-2.32317484656516e-001

2.46228882668982e+004,-1.23584618250204e+001,-2.35559652066582e-001

2.49666109780322e+004,-1.23584646668510e+001,-2.38847041873005e-001

2.53151318794055e+004,-1.23584675882099e+001,-2.42180283809751e-001

2.56685179512580e+004,-1.23584705913122e+001,-2.45560016338792e-001

2.60268371088386e+004,-1.23584736784339e+001,-2.48986886766392e-001

2.63901582154578e+004,-1.23584768519139e+001,-2.52461551364043e-001

2.67585510957221e+004,-1.23584801141554e+001,-2.55984675491441e-001

2.71320865489533e+004,-1.23584834676280e+001,-2.59556933718402e-001

2.75108363627948e+004,-1.23584869148691e+001,-2.63179009952339e-001

2.78948733270080e+004,-1.23584904584859e+001,-2.66851597564395e-001

2.82842712474618e+004,-1.23584941011571e+001,-2.70575399519122e-001

2.86791049603164e+004,-1.23584978456354e+001,-2.74351128500762e-001

2.90794503464061e+004,-1.23585016947486e+001,-2.78179507051797e-001

2.94853843458219e+004,-1.23585056514024e+001,-2.82061267700739e-001

2.98969849726987e+004,-1.23585097185818e+001,-2.85997153101172e-001

3.03143313302078e+004,-1.23585138993539e+001,-2.89987916165991e-001

3.07375036257601e+004,-1.23585181968695e+001,-2.94034320209026e-001

3.11665831864199e+004,-1.23585226143658e+001,-2.98137139082222e-001

3.16016524745350e+004,-1.23585271551683e+001,-3.02297157321785e-001

3.20427951035848e+004,-1.23585318226933e+001,-3.06515170290342e-001

3.24900958542493e+004,-1.23585366204503e+001,-3.10791984322561e-001

3.29436406907028e+004,-1.23585415520445e+001,-3.15128416872927e-001

3.34035167771346e+004,-1.23585466211793e+001,-3.19525296666966e-001

3.38698124945009e+004,-1.23585518316589e+001,-3.23983463849881e-001

3.43426174575100e+004,-1.23585571873908e+001,-3.28503770143522e-001

3.48220225318448e+004,-1.23585626923886e+001,-3.33087078997967e-001

3.53081198516260e+004,-1.23585683507751e+001,-3.37734265751141e-001

3.58010028371187e+004,-1.23585741667843e+001,-3.42446217787448e-001

3.63007662126863e+004,-1.23585801447653e+001,-3.47223834697017e-001

3.68075060249948e+004,-1.23585862891847e+001,-3.52068028441033e-001

3.73213196614721e+004,-1.23585926046295e+001,-3.56979723516759e-001

3.78423058690237e+004,-1.23585990958110e+001,-3.61959857120536e-001

3.83705647730104e+004,-1.23586057675667e+001,-3.67009379323200e-001

3.89061978964912e+004,-1.23586126248653e+001,-3.72129253233946e-001

3.94493081797342e+004,-1.23586196728082e+001,-3.77320455178773e-001

3.99999999999998e+004,-1.23586269166341e+001,-3.82583974874336e-001

4.05583791916010e+004,-1.23586343617223e+001,-3.87920815602244e-001

4.11245530662425e+004,-1.23586420135961e+001,-3.93331994391241e-001

4.16986304336447e+004,-1.23586498779262e+001,-3.98818542197673e-001

4.22807216224550e+004,-1.23586579605351e+001,-4.04381504089026e-001

4.28709385014515e+004,-1.23586662674002e+001,-4.10021939428921e-001

4.34693945010421e+004,-1.23586748046584e+001,-4.15740922064314e-001

4.40762046350642e+004,-1.23586835786091e+001,-4.21539540517511e-001

4.46914855228886e+004,-1.23586925957193e+001,-4.27418898176063e-001

4.53153554118317e+004,-1.23587018626272e+001,-4.33380113487192e-001

4.59479341998812e+004,-1.23587113861466e+001,-4.39424320154287e-001

4.65893434587380e+004,-1.23587211732709e+001,-4.45552667335737e-001

4.72397064571810e+004,-1.23587312311779e+001,-4.51766319846714e-001

4.78991481847569e+004,-1.23587415672340e+001,-4.58066458359575e-001

4.85677953758016e+004,-1.23587521889993e+001,-4.64454279609763e-001

4.92457765337964e+004,-1.23587631042315e+001,-4.70930996605883e-001

4.99332219560642e+004,-1.23587743208911e+001,-4.77497838835160e-001

5.06302637588109e+004,-1.23587858471462e+001,-4.84156052479595e-001

5.13370359025159e+004,-1.23587976913778e+001,-4.90906900625629e-001

5.20536742176771e+004,-1.23588098621840e+001,-4.97751663484189e-001

5.27803164309155e+004,-1.23588223683857e+001,-5.04691638608572e-001

5.35171021914442e+004,-1.23588352190319e+001,-5.11728141114473e-001

5.42641730979066e+004,-1.23588484234047e+001,-5.18862503902975e-001

5.50216727255895e+004,-1.23588619910246e+001,-5.26096077888492e-001

5.57897466540159e+004,-1.23588759316566e+001,-5.33430232223212e-001

5.65685424949235e+004,-1.23588902553148e+001,-5.40866354530844e-001

5.73582099206328e+004,-1.23589049722691e+001,-5.48405851134964e-001

5.81589006928121e+004,-1.23589200930501e+001,-5.56050147298608e-001

5.89707686916437e+004,-1.23589356284555e+001,-5.63800687456226e-001

5.97939699453972e+004,-1.23589515895555e+001,-5.71658935456728e-001

6.06286626604156e+004,-1.23589679876991e+001,-5.79626374803719e-001

6.14750072515201e+004,-1.23589848345204e+001,-5.87704508899122e-001

6.23331663728396e+004,-1.23590021419440e+001,-5.95894861290374e-001

6.32033049490698e+004,-1.23590199221920e+001,-6.04198975917614e-001

6.40855902071694e+004,-1.23590381877897e+001,-6.12618417366216e-001

6.49801917084985e+004,-1.23590569515725e+001,-6.21154771117430e-001

6.58872813814055e+004,-1.23590762266919e+001,-6.29809643805935e-001

6.68070335542691e+004,-1.23590960266218e+001,-6.38584663477148e-001

6.77396249890018e+004,-1.23591163651658e+001,-6.47481479845986e-001

6.86852349150199e+004,-1.23591372564629e+001,-6.56501764559772e-001

6.96440450636895e+004,-1.23591587149948e+001,-6.65647211462344e-001

7.06162397032520e+004,-1.23591807555922e+001,-6.74919536860943e-001

7.16020056742374e+004,-1.23592033934416e+001,-6.84320479795821e-001

7.26015324253724e+004,-1.23592266440921e+001,-6.93851802309778e-001

7.36150120499896e+004,-1.23592505234619e+001,-7.03515289722395e-001

7.46426393229441e+004,-1.23592750478453e+001,-7.13312750905924e-001

7.56846117380472e+004,-1.23593002339194e+001,-7.23246018562131e-001

7.67411295460207e+004,-1.23593260987511e+001,-7.33316949502278e-001

7.78123957929823e+004,-1.23593526598031e+001,-7.43527424930650e-001

7.88986163594682e+004,-1.23593799349416e+001,-7.53879350727017e-001

7.99999999999995e+004,-1.23594079424420e+001,-7.64374657734587e-001

8.11167583832018e+004,-1.23594367009964e+001,-7.75015302046512e-001

8.22491061324848e+004,-1.23594662297198e+001,-7.85803265299093e-001

8.33972608672892e+004,-1.23594965481565e+001,-7.96740554962924e-001

8.45614432449099e+004,-1.23595276762865e+001,-8.07829204638131e-001

8.57418770029029e+004,-1.23595596345322e+001,-8.19071274352676e-001

8.69387890020841e+004,-1.23595924437642e+001,-8.30468850859562e-001

8.81524092701283e+004,-1.23596261253075e+001,-8.42024047939420e-001

8.93829710457770e+004,-1.23596607009475e+001,-8.53739006704065e-001

9.06307108236633e+004,-1.23596961929358e+001,-8.65615895901241e-001

9.18958683997622e+004,-1.23597326239953e+001,-8.77656912222209e-001

9.31786869174758e+004,-1.23597700173263e+001,-8.89864280612434e-001

9.44794129143618e+004,-1.23598083966109e+001,-9.02240254582914e-001

9.57982963695136e+004,-1.23598477860183e+001,-9.14787116522973e-001

9.71355907516031e+004,-1.23598882102094e+001,-9.27507178018904e-001

9.84915530675926e+004,-1.23599296943407e+001,-9.40402780169770e-001

9.98664439121282e+004,-1.23599722640687e+001,-9.53476293909211e-001

1.01260527517622e+005,-1.23600159455533e+001,-9.66730120327123e-001

1.02674071805032e+005,-1.23600607654611e+001,-9.80166690996105e-001

1.04107348435354e+005,-1.23601067509681e+001,-9.93788468296511e-001

1.05560632861831e+005,-1.23601539297620e+001,-1.00759794574770e+000

1.07034204382888e+005,-1.23602023300445e+001,-1.02159764833888e+000

1.08528346195813e+005,-1.23602519805320e+001,-1.03579013286329e+000

1.10043345451179e+005,-1.23603029104572e+001,-1.05017798825490e+000

1.11579493308032e+005,-1.23603551495684e+001,-1.06476383592936e+000

1.13137084989847e+005,-1.23604087281302e+001,-1.07955033012260e+000

1.14716419841265e+005,-1.23604636769213e+001,-1.09454015823911e+000

1.16317801385624e+005,-1.23605200272339e+001,-1.10973604119648e+000

1.17941537383287e+005,-1.23605778108701e+001,-1.12514073377745e+000

1.19587939890794e+005,-1.23606370601395e+001,-1.14075702498293e+000

1.21257325320831e+005,-1.23606978078543e+001,-1.15658773838918e+000

1.22950014503040e+005,-1.23607600873251e+001,-1.17263573250716e+000

1.24666332745679e+005,-1.23608239323541e+001,-1.18890390114638e+000

1.26406609898139e+005,-1.23608893772289e+001,-1.20539517378243e+000

1.28171180414339e+005,-1.23609564567140e+001,-1.22211251592891e+000

1.29960383416997e+005,-1.23610252060419e+001,-1.23905892951194e+000

1.31774562762811e+005,-1.23610956609034e+001,-1.25623745324984e+000

1.33614067108538e+005,-1.23611678574354e+001,-1.27365116303788e+000

1.35479249978003e+005,-1.23612418322086e+001,-1.29130317233943e+000

1.37370469830040e+005,-1.23613176222141e+001,-1.30919663257663e+000

1.39288090127379e+005,-1.23613952648472e+001,-1.32733473353517e+000

1.41232479406504e+005,-1.23614747978914e+001,-1.34572070376711e+000

1.43204011348474e+005,-1.23615562594999e+001,-1.36435781100391e+000

1.45203064850745e+005,-1.23616396881759e+001,-1.38324936257598e+000

1.47230024099979e+005,-1.23617251227512e+001,-1.40239870583971e+000

1.49285278645888e+005,-1.23618126023637e+001,-1.42180922860825e+000

1.51369223476094e+005,-1.23619021664320e+001,-1.44148435959657e+000

1.53482259092041e+005,-1.23619938546295e+001,-1.46142756886956e+000

1.55624791585964e+005,-1.23620877068559e+001,-1.48164236830162e+000

1.57797232718936e+005,-1.23621837632070e+001,-1.50213231204694e+000

1.59999999999999e+005,-1.23622820639427e+001,-1.52290099701807e+000

1.62233516766403e+005,-1.23623826494528e+001,-1.54395206337636e+000

1.64498212264969e+005,-1.23624855602210e+001,-1.56528919503273e+000

1.66794521734578e+005,-1.23625908367864e+001,-1.58691612016504e+000

1.69122886489819e+005,-1.23626985197030e+001,-1.60883661174304e+000

1.71483754005805e+005,-1.23628086494977e+001,-1.63105448806989e+000

1.73877578004168e+005,-1.23629212666249e+001,-1.65357361333966e+000

1.76304818540256e+005,-1.23630364114193e+001,-1.67639789820794e+000

1.78765942091554e+005,-1.23631541240468e+001,-1.69953130038113e+000

1.81261421647326e+005,-1.23632744444527e+001,-1.72297782522086e+000

1.83791736799524e+005,-1.23633974123072e+001,-1.74674152636996e+000

1.86357373834951e+005,-1.23635230669492e+001,-1.77082650639458e+000

1.88958825828723e+005,-1.23636514473272e+001,-1.79523691744905e+000

1.91596592739027e+005,-1.23637825919377e+001,-1.81997696196296e+000

1.94271181503206e+005,-1.23639165387618e+001,-1.84505089334790e+000

1.96983106135185e+005,-1.23640533251988e+001,-1.87046301673144e+000

1.99732887824256e+005,-1.23641929879974e+001,-1.89621768971474e+000

2.02521055035243e+005,-1.23643355631849e+001,-1.92231932315587e+000

2.05348143610063e+005,-1.23644810859938e+001,-1.94877238198323e+000

2.08214696870707e+005,-1.23646295907861e+001,-1.97558138603435e+000

2.11121265723661e+005,-1.23647811109754e+001,-2.00275091092731e+000

2.14068408765776e+005,-1.23649356789467e+001,-2.03028558896397e+000

2.17056692391625e+005,-1.23650933259741e+001,-2.05819011006375e+000

2.20086690902357e+005,-1.23652540821368e+001,-2.08646922273445e+000

2.23158986616063e+005,-1.23654179762322e+001,-2.11512773507557e+000

2.26274169979693e+005,-1.23655850356883e+001,-2.14417051582127e+000

2.29432839682530e+005,-1.23657552864739e+001,-2.17360249541990e+000

2.32635602771247e+005,-1.23659287530066e+001,-2.20342866715395e+000

2.35883074766574e+005,-1.23661054580602e+001,-2.23365408830084e+000

2.39175879781588e+005,-1.23662854226708e+001,-2.26428388133393e+000

2.42514650641661e+005,-1.23664686660410e+001,-2.29532323517213e+000

2.45900029006080e+005,-1.23666552054439e+001,-2.32677740646758e+000

2.49332665491357e+005,-1.23668450561261e+001,-2.35865172094486e+000

2.52813219796278e+005,-1.23670382312101e+001,-2.39095157478526e+000

2.56342360828676e+005,-1.23672347415969e+001,-2.42368243605730e+000

2.59920766833993e+005,-1.23674345958675e+001,-2.45684984620148e+000

2.63549125525621e+005,-1.23676378001862e+001,-2.49045942155971e+000

2.67228134217075e+005,-1.23678443582027e+001,-2.52451685495982e+000

2.70958499956006e+005,-1.23680542709564e+001,-2.55902791735166e+000

2.74740939660078e+005,-1.23682675367807e+001,-2.59399845949287e+000

2.78576180254757e+005,-1.23684841512094e+001,-2.62943441369225e+000

2.82464958813007e+005,-1.23687041068847e+001,-2.66534179560372e+000

2.86408022696948e+005,-1.23689273934666e+001,-2.70172670607617e+000

2.90406129701488e+005,-1.23691539975455e+001,-2.73859533305637e+000

2.94460048199957e+005,-1.23693839025572e+001,-2.77595395354805e+000

2.98570557291775e+005,-1.23696170887006e+001,-2.81380893562391e+000

3.02738446952187e+005,-1.23698535328593e+001,-2.85216674049414e+000

3.06964518184081e+005,-1.23700932085272e+001,-2.89103392462537e+000

3.11249583171928e+005,-1.23703360857371e+001,-2.93041714191683e+000

3.15594465437872e+005,-1.23705821309954e+001,-2.97032314592731e+000

3.19999999999997e+005,-1.23708313072201e+001,-3.01075879215444e+000

3.24467033532806e+005,-1.23710835736854e+001,-3.05173104036551e+000

3.28996424529938e+005,-1.23713388859708e+001,-3.09324695697727e+000

3.33589043469155e+005,-1.23715971959172e+001,-3.13531371748501e+000

3.38245772979638e+005,-1.23718584515876e+001,-3.17793860893816e+000

3.42967508011610e+005,-1.23721225972364e+001,-3.22112903246118e+000

3.47755156008335e+005,-1.23723895732842e+001,-3.26489250581783e+000

3.52609637080511e+005,-1.23726593162999e+001,-3.30923666601699e+000

3.57531884183106e+005,-1.23729317589912e+001,-3.35416927195683e+000

3.62522843294651e+005,-1.23732068302012e+001,-3.39969820710672e+000

3.67583473599047e+005,-1.23734844549146e+001,-3.44583148222296e+000

3.72714747669902e+005,-1.23737645542708e+001,-3.49257723809604e+000

3.77917651657445e+005,-1.23740470455862e+001,-3.53994374832599e+000

3.83193185478053e+005,-1.23743318423836e+001,-3.58793942212567e+000

3.88542363006410e+005,-1.23746188544320e+001,-3.63657280714440e+000

3.93966212270369e+005,-1.23749079877935e+001,-3.68585259231303e+000

3.99465775648511e+005,-1.23751991448797e+001,-3.73578761070532e+000

4.05042110070485e+005,-1.23754922245159e+001,-3.78638684241297e+000

4.10696287220124e+005,-1.23757871220154e+001,-3.83765941743003e+000

4.16429393741414e+005,-1.23760837292610e+001,-3.88961461854371e+000

4.22242531447321e+005,-1.23763819347955e+001,-3.94226188423166e+000

4.28136817531551e+005,-1.23766816239205e+001,-3.99561081155590e+000

4.34113384783250e+005,-1.23769826788036e+001,-4.04967115905599e+000

4.40173381804713e+005,-1.23772849785927e+001,-4.10445284963573e+000

4.46317973232124e+005,-1.23775883995392e+001,-4.15996597343999e+000

4.52548339959385e+005,-1.23778928151271e+001,-4.21622079072095e+000

4.58865679365059e+005,-1.23781980962100e+001,-4.27322773468706e+000

4.65271205542494e+005,-1.23785041111546e+001,-4.33099741433691e+000

4.71766149533147e+005,-1.23788107259903e+001,-4.38954061727011e+000

4.78351759563174e+005,-1.23791178045640e+001,-4.44886831247803e+000

4.85029301283321e+005,-1.23794252087011e+001,-4.50899165310803e+000

4.91800058012158e+005,-1.23797327983704e+001,-4.56992197920191e+000

4.98665330982714e+005,-1.23800404318539e+001,-4.63167082040590e+000

5.05626439592555e+005,-1.23803479659194e+001,-4.69424989864964e+000

5.12684721657352e+005,-1.23806552559968e+001,-4.75767113079685e+000

5.19841533667984e+005,-1.23809621563565e+001,-4.82194663126012e+000

5.27098251051240e+005,-1.23812685202900e+001,-4.88708871458725e+000

5.34456268434150e+005,-1.23815742002908e+001,-4.95310989801215e+000

5.41916999912011e+005,-1.23818790482369e+001,-5.02002290397343e+000

