Freq.,VOut,OutRef

1.00000000000000e+004,-1.79488266397606e+001,-2.13990139171451e-001

1.01395947979003e+004,-1.79488278330758e+001,-2.16977220027535e-001

1.02811382665607e+004,-1.79488290599218e+001,-2.20005994303221e-001

1.04246576084112e+004,-1.79488303212405e+001,-2.23077043816558e-001

1.05701804056138e+004,-1.79488316179996e+001,-2.26190958503344e-001

1.07177346253629e+004,-1.79488329511945e+001,-2.29348336522500e-001

1.08673486252606e+004,-1.79488343218486e+001,-2.32549784373826e-001

1.10190511587661e+004,-1.79488357310134e+001,-2.35795917016872e-001

1.11728713807222e+004,-1.79488371797704e+001,-2.39087357982551e-001

1.13288388529580e+004,-1.79488386692314e+001,-2.42424739496933e-001

1.14869835499703e+004,-1.79488402005390e+001,-2.45808702601385e-001

1.16473358646846e+004,-1.79488417748683e+001,-2.49239897274058e-001

1.18099266142953e+004,-1.79488433934270e+001,-2.52718982554019e-001

1.19747870461893e+004,-1.79488450574568e+001,-2.56246626669705e-001

1.21419488439505e+004,-1.79488467682343e+001,-2.59823507163401e-001

1.23114441334492e+004,-1.79488485270716e+001,-2.63450311023189e-001

1.24833054890161e+004,-1.79488503353180e+001,-2.67127734812001e-001

1.26575659397028e+004,-1.79488521943603e+001,-2.70856484803520e-001

1.28342589756290e+004,-1.79488541056241e+001,-2.74637277115476e-001

1.30134185544193e+004,-1.79488560705752e+001,-2.78470837844784e-001

1.31950791077289e+004,-1.79488580907204e+001,-2.82357903210257e-001

1.33792755478611e+004,-1.79488601676086e+001,-2.86299219689654e-001

1.35660432744767e+004,-1.79488623028320e+001,-2.90295544163797e-001

1.37554181813974e+004,-1.79488644980279e+001,-2.94347644059735e-001

1.39474366635040e+004,-1.79488667548789e+001,-2.98456297499536e-001

1.41421356237309e+004,-1.79488690751150e+001,-3.02622293446776e-001

1.43395524801583e+004,-1.79488714605144e+001,-3.06846431858112e-001

1.45397251732031e+004,-1.79488739129055e+001,-3.11129523833305e-001

1.47426921729110e+004,-1.79488764341674e+001,-3.15472391775298e-001

1.49484924863494e+004,-1.79488790262324e+001,-3.19875869539366e-001

1.51571656651040e+004,-1.79488816910861e+001,-3.24340802600547e-001

1.53687518128801e+004,-1.79488844307704e+001,-3.28868048207936e-001

1.55832915932100e+004,-1.79488872473839e+001,-3.33458475551169e-001

1.58008262372675e+004,-1.79488901430839e+001,-3.38112965925633e-001

1.60213975517924e+004,-1.79488931200884e+001,-3.42832412898977e-001

1.62450479271247e+004,-1.79488961806771e+001,-3.47617722483113e-001

1.64718203453514e+004,-1.79488993271937e+001,-3.52469813305609e-001

1.67017583885674e+004,-1.79489025620470e+001,-3.57389616784924e-001

1.69349062472505e+004,-1.79489058877138e+001,-3.62378077305486e-001

1.71713087287550e+004,-1.79489093067396e+001,-3.67436152401402e-001

1.74110112659224e+004,-1.79489128217412e+001,-3.72564812934094e-001

1.76540599258131e+004,-1.79489164354085e+001,-3.77765043279511e-001

1.79005014185594e+004,-1.79489201505066e+001,-3.83037841515609e-001

1.81503831063432e+004,-1.79489239698779e+001,-3.88384219608278e-001

1.84037530124975e+004,-1.79489278964440e+001,-3.93805203607131e-001

1.86606598307361e+004,-1.79489319332082e+001,-3.99301833839712e-001

1.89211529345119e+004,-1.79489360832578e+001,-4.04875165105419e-001

1.91852823865052e+004,-1.79489403497658e+001,-4.10526266881694e-001

1.94530989482457e+004,-1.79489447359942e+001,-4.16256223521322e-001

1.97246540898671e+004,-1.79489492452959e+001,-4.22066134459057e-001

1.99999999999999e+004,-1.79489538811172e+001,-4.27957114422913e-001

2.02791895958005e+004,-1.79489586470006e+001,-4.33930293641185e-001

2.05622765331213e+004,-1.79489635465874e+001,-4.39986818059439e-001

2.08493152168224e+004,-1.79489685836204e+001,-4.46127849555430e-001

2.11403608112276e+004,-1.79489737619466e+001,-4.52354566159527e-001

2.14354692507258e+004,-1.79489790855203e+001,-4.58668162277495e-001

2.17346972505211e+004,-1.79489845584059e+001,-4.65069848916068e-001

2.20381023175322e+004,-1.79489901847809e+001,-4.71560853912212e-001

2.23457427614443e+004,-1.79489959689393e+001,-4.78142422162850e-001

2.26576777059159e+004,-1.79490019152945e+001,-4.84815815862331e-001

2.29739670999406e+004,-1.79490080283827e+001,-4.91582314739089e-001

2.32946717293690e+004,-1.79490143128663e+001,-4.98443216296253e-001

2.36198532285905e+004,-1.79490207735372e+001,-5.05399836057927e-001

2.39495740923785e+004,-1.79490274153207e+001,-5.12453507815592e-001

2.42838976879009e+004,-1.79490342432791e+001,-5.19605583878035e-001

2.46228882668982e+004,-1.79490412626149e+001,-5.26857435328608e-001

2.49666109780322e+004,-1.79490484786755e+001,-5.34210452279513e-001

2.53151318794055e+004,-1.79490558969566e+001,-5.41666044134879e-001

2.56685179512580e+004,-1.79490635231064e+001,-5.49225639855725e-001

2.60268371088386e+004,-1.79490713629298e+001,-5.56890688226137e-001

2.63901582154578e+004,-1.79490794223927e+001,-5.64662658126394e-001

2.67585510957221e+004,-1.79490877076265e+001,-5.72543038807373e-001

2.71320865489533e+004,-1.79490962249322e+001,-5.80533340170228e-001

2.75108363627948e+004,-1.79491049807857e+001,-5.88635093046337e-001

2.78948733270080e+004,-1.79491139818418e+001,-5.96849849487288e-001

2.82842712474618e+004,-1.79491232349401e+001,-6.05179183050301e-001

2.86791049603164e+004,-1.79491327471085e+001,-6.13624689097442e-001

2.90794503464061e+004,-1.79491425255701e+001,-6.22187985086597e-001

2.94853843458219e+004,-1.79491525777471e+001,-6.30870710878047e-001

2.98969849726987e+004,-1.79491629112670e+001,-6.39674529036867e-001

3.03143313302078e+004,-1.79491735339678e+001,-6.48601125142983e-001

3.07375036257601e+004,-1.79491844539037e+001,-6.57652208105366e-001

3.11665831864199e+004,-1.79491956793512e+001,-6.66829510477950e-001

3.16016524745350e+004,-1.79492072188149e+001,-6.76134788781141e-001

3.20427951035848e+004,-1.79492190810337e+001,-6.85569823827587e-001

3.24900958542493e+004,-1.79492312749874e+001,-6.95136421050935e-001

3.29436406907028e+004,-1.79492438099023e+001,-7.04836410842744e-001

3.34035167771346e+004,-1.79492566952591e+001,-7.14671648886290e-001

3.38698124945009e+004,-1.79492699407989e+001,-7.24644016501587e-001

3.43426174575100e+004,-1.79492835565300e+001,-7.34755420991863e-001

3.48220225318448e+004,-1.79492975527361e+001,-7.45007795994085e-001

3.53081198516260e+004,-1.79493119399825e+001,-7.55403101835087e-001

3.58010028371187e+004,-1.79493267291241e+001,-7.65943325892183e-001

3.63007662126863e+004,-1.79493419313136e+001,-7.76630482954921e-001

3.68075060249948e+004,-1.79493575580086e+001,-7.87466615597980e-001

3.73213196614721e+004,-1.79493736209802e+001,-7.98453794553221e-001

3.78423058690237e+004,-1.79493901323212e+001,-8.09594119086827e-001

3.83705647730104e+004,-1.79494071044548e+001,-8.20889717383954e-001

3.89061978964912e+004,-1.79494245501429e+001,-8.32342746937048e-001

3.94493081797342e+004,-1.79494424824958e+001,-8.43955394936059e-001

3.99999999999998e+004,-1.79494609149802e+001,-8.55729878668995e-001

4.05583791916010e+004,-1.79494798614301e+001,-8.67668445920852e-001

4.11245530662425e+004,-1.79494993360551e+001,-8.79773375383881e-001

4.16986304336447e+004,-1.79495193534510e+001,-8.92046977066434e-001

4.22807216224550e+004,-1.79495399286098e+001,-9.04491592713246e-001

4.28709385014515e+004,-1.79495610769299e+001,-9.17109596225322e-001

4.34693945010421e+004,-1.79495828142265e+001,-9.29903394088095e-001

4.40762046350642e+004,-1.79496051567429e+001,-9.42875425803899e-001

4.46914855228886e+004,-1.79496281211614e+001,-9.56028164328160e-001

4.53153554118317e+004,-1.79496517246145e+001,-9.69364116512974e-001

4.59479341998812e+004,-1.79496759846967e+001,-9.82885823554821e-001

4.65893434587380e+004,-1.79497009194764e+001,-9.96595861447294e-001

4.72397064571810e+004,-1.79497265475079e+001,-1.01049684143971e+000

4.78991481847569e+004,-1.79497528878439e+001,-1.02459141050092e+000

4.85677953758016e+004,-1.79497799600486e+001,-1.03888225178717e+000

4.92457765337964e+004,-1.79498077842099e+001,-1.05337208511882e+000

4.99332219560642e+004,-1.79498363809536e+001,-1.06806366745786e+000

5.06302637588109e+004,-1.79498657714564e+001,-1.08295979339456e+000

5.13370359025159e+004,-1.79498959774602e+001,-1.09806329563737e+000

5.20536742176771e+004,-1.79499270212858e+001,-1.11337704551075e+000

5.27803164309155e+004,-1.79499589258479e+001,-1.12890395345589e+000

5.35171021914442e+004,-1.79499917146699e+001,-1.14464696953758e+000

5.42641730979066e+004,-1.79500254118986e+001,-1.16060908395908e+000

5.50216727255895e+004,-1.79500600423201e+001,-1.17679332757986e+000

5.57897466540159e+004,-1.79500956313756e+001,-1.19320277243975e+000

5.65685424949235e+004,-1.79501322051770e+001,-1.20984053228943e+000

5.73582099206328e+004,-1.79501697905241e+001,-1.22670976312628e+000

5.81589006928121e+004,-1.79502084149208e+001,-1.24381366373593e+000

5.89707686916437e+004,-1.79502481065922e+001,-1.26115547623962e+000

5.97939699453972e+004,-1.79502888945026e+001,-1.27873848664654e+000

6.06286626604156e+004,-1.79503308083726e+001,-1.29656602541433e+000

6.14750072515201e+004,-1.79503738786977e+001,-1.31464146801197e+000

6.23331663728396e+004,-1.79504181367666e+001,-1.33296823549187e+000

6.32033049490698e+004,-1.79504636146800e+001,-1.35154979506538e+000

6.40855902071694e+004,-1.79505103453697e+001,-1.37038966068551e+000

6.49801917084985e+004,-1.79505583626183e+001,-1.38949139363491e+000

6.58872813814055e+004,-1.79506077010788e+001,-1.40885860312030e+000

6.68070335542691e+004,-1.79506583962950e+001,-1.42849494687161e+000

6.77396249890018e+004,-1.79507104847219e+001,-1.44840413174944e+000

6.86852349150199e+004,-1.79507640037464e+001,-1.46858991435550e+000

6.96440450636895e+004,-1.79508189917092e+001,-1.48905610165014e+000

7.06162397032520e+004,-1.79508754879253e+001,-1.50980655157861e+000

7.16020056742374e+004,-1.79509335327068e+001,-1.53084517369738e+000

7.26015324253724e+004,-1.79509931673846e+001,-1.55217592981251e+000

7.36150120499896e+004,-1.79510544343310e+001,-1.57380283461985e+000

7.46426393229441e+004,-1.79511173769827e+001,-1.59572995635312e+000

7.56846117380472e+004,-1.79511820398639e+001,-1.61796141743805e+000

7.67411295460207e+004,-1.79512484686096e+001,-1.64050139515047e+000

7.78123957929823e+004,-1.79513167099896e+001,-1.66335412228414e+000

7.88986163594682e+004,-1.79513868119324e+001,-1.68652388782015e+000

7.99999999999995e+004,-1.79514588235496e+001,-1.71001503760577e+000

8.11167583832018e+004,-1.79515327951603e+001,-1.73383197503861e+000

8.22491061324848e+004,-1.79516087783163e+001,-1.75797916175457e+000

8.33972608672892e+004,-1.79516868258270e+001,-1.78246111832494e+000

8.45614432449099e+004,-1.79517669917844e+001,-1.80728242495811e+000

8.57418770029029e+004,-1.79518493315893e+001,-1.83244772220652e+000

8.69387890020841e+004,-1.79519339019765e+001,-1.85796171168128e+000

8.81524092701283e+004,-1.79520207610407e+001,-1.88382915677176e+000

8.93829710457770e+004,-1.79521099682631e+001,-1.91005488337161e+000

9.06307108236633e+004,-1.79522015845369e+001,-1.93664378061156e+000

9.18958683997622e+004,-1.79522956721940e+001,-1.96360080159695e+000

9.31786869174758e+004,-1.79523922950313e+001,-1.99093096415296e+000

9.44794129143618e+004,-1.79524915183374e+001,-2.01863935157476e+000

9.57982963695136e+004,-1.79525934089188e+001,-2.04673111338488e+000

9.71355907516031e+004,-1.79526980351263e+001,-2.07521146609654e+000

9.84915530675926e+004,-1.79528054668821e+001,-2.10408569398339e+000

9.98664439121282e+004,-1.79529157757057e+001,-2.13335914985505e+000

1.01260527517622e+005,-1.79530290347403e+001,-2.16303725584105e+000

1.02674071805032e+005,-1.79531453187793e+001,-2.19312550417830e+000

1.04107348435354e+005,-1.79532647042924e+001,-2.22362945800781e+000

1.05560632861831e+005,-1.79533872694511e+001,-2.25455475217764e+000

1.07034204382888e+005,-1.79535130941547e+001,-2.28590709405131e+000

1.08528346195813e+005,-1.79536422600554e+001,-2.31769226432566e+000

1.10043345451179e+005,-1.79537748505834e+001,-2.34991611785289e+000

1.11579493308032e+005,-1.79539109509720e+001,-2.38258458447199e+000

1.13137084989847e+005,-1.79540506482810e+001,-2.41570366984753e+000

1.14716419841265e+005,-1.79541940314209e+001,-2.44927945631494e+000

1.16317801385624e+005,-1.79543411911762e+001,-2.48331810373433e+000

1.17941537383287e+005,-1.79544922202278e+001,-2.51782585035239e+000

1.19587939890794e+005,-1.79546472131752e+001,-2.55280901367200e+000

1.21257325320831e+005,-1.79548062665574e+001,-2.58827399133181e+000

1.22950014503040e+005,-1.79549694788738e+001,-2.62422726199280e+000

1.24666332745679e+005,-1.79551369506037e+001,-2.66067538623509e+000

1.26406609898139e+005,-1.79553087842250e+001,-2.69762500746447e+000

1.28171180414339e+005,-1.79554850842323e+001,-2.73508285282782e+000

1.29960383416997e+005,-1.79556659571536e+001,-2.77305573413955e+000

1.31774562762811e+005,-1.79558515115654e+001,-2.81155054881935e+000

1.33614067108538e+005,-1.79560418581082e+001,-2.85057428083920e+000

1.35479249978003e+005,-1.79562371094994e+001,-2.89013400168383e+000

1.37370469830040e+005,-1.79564373805449e+001,-2.93023687132247e+000

1.39288090127379e+005,-1.79566427881500e+001,-2.97089013919498e+000

1.41232479406504e+005,-1.79568534513288e+001,-3.01210114520809e+000

1.43204011348474e+005,-1.79570694912113e+001,-3.05387732074957e+000

1.45203064850745e+005,-1.79572910310497e+001,-3.09622618971475e+000

1.47230024099979e+005,-1.79575181962225e+001,-3.13915536954931e+000

1.49285278645888e+005,-1.79577511142372e+001,-3.18267257230890e+000

1.51369223476094e+005,-1.79579899147310e+001,-3.22678560573507e+000

1.53482259092041e+005,-1.79582347294696e+001,-3.27150237434975e+000

1.55624791585964e+005,-1.79584856923440e+001,-3.31683088057016e+000

1.57797232718936e+005,-1.79587429393654e+001,-3.36277922584084e+000

1.59999999999999e+005,-1.79590066086580e+001,-3.40935561179011e+000

1.62233516766403e+005,-1.79592768404493e+001,-3.45656834140725e+000

1.64498212264969e+005,-1.79595537770589e+001,-3.50442582024277e+000

1.66794521734578e+005,-1.79598375628841e+001,-3.55293655763471e+000

1.69122886489819e+005,-1.79601283443841e+001,-3.60210916796097e+000

1.71483754005805e+005,-1.79604262700613e+001,-3.65195237191738e+000

1.73877578004168e+005,-1.79607314904404e+001,-3.70247499782819e+000

1.76304818540256e+005,-1.79610441580450e+001,-3.75368598298311e+000

1.78765942091554e+005,-1.79613644273717e+001,-3.80559437500880e+000

1.81261421647326e+005,-1.79616924548623e+001,-3.85820933327409e+000

1.83791736799524e+005,-1.79620283988727e+001,-3.91154013032929e+000

1.86357373834951e+005,-1.79623724196402e+001,-3.96559615338412e+000

1.88958825828723e+005,-1.79627246792479e+001,-4.02038690582267e+000

1.91596592739027e+005,-1.79630853415866e+001,-4.07592200876236e+000

1.94271181503206e+005,-1.79634545723150e+001,-4.13221120265188e+000

1.96983106135185e+005,-1.79638325388173e+001,-4.18926434891717e+000

1.99732887824256e+005,-1.79642194101584e+001,-4.24709143165212e+000

2.02521055035243e+005,-1.79646153570372e+001,-4.30570255936013e+000

2.05348143610063e+005,-1.79650205517382e+001,-4.36510796674433e+000

2.08214696870707e+005,-1.79654351680808e+001,-4.42531801655359e+000

2.11121265723661e+005,-1.79658593813672e+001,-4.48634320148193e+000

2.14068408765776e+005,-1.79662933683284e+001,-4.54819414612746e+000

2.17056692391625e+005,-1.79667373070699e+001,-4.61088160900915e+000

2.20086690902357e+005,-1.79671913770143e+001,-4.67441648464841e+000

2.23158986616063e+005,-1.79676557588456e+001,-4.73880980571246e+000

2.26274169979693e+005,-1.79681306344505e+001,-4.80407274522622e+000

2.29432839682530e+005,-1.79686161868604e+001,-4.87021661885345e+000

2.32635602771247e+005,-1.79691126001941e+001,-4.93725288724766e+000

2.35883074766574e+005,-1.79696200595990e+001,-5.00519315847681e+000

2.39175879781588e+005,-1.79701387511943e+001,-5.07404919052601e+000

2.42514650641661e+005,-1.79706688620152e+001,-5.14383289387391e+000

2.45900029006080e+005,-1.79712105799577e+001,-5.21455633415209e+000

2.49332665491357e+005,-1.79717640937259e+001,-5.28623173488482e+000

2.52813219796278e+005,-1.79723295927819e+001,-5.35887148031201e+000

2.56342360828676e+005,-1.79729072672976e+001,-5.43248811829878e+000

2.59920766833993e+005,-1.79734973081107e+001,-5.50709436333052e+000

2.63549125525621e+005,-1.79740999066848e+001,-5.58270309959693e+000

2.67228134217075e+005,-1.79747152550727e+001,-5.65932738416612e+000

2.70958499956006e+005,-1.79753435458861e+001,-5.73698045024892e+000

2.74740939660078e+005,-1.79759849722707e+001,-5.81567571055535e+000

2.78576180254757e+005,-1.79766397278867e+001,-5.89542676074425e+000

2.82464958813007e+005,-1.79773080068981e+001,-5.97624738296447e+000

2.86408022696948e+005,-1.79779900039677e+001,-6.05815154949164e+000

2.90406129701488e+005,-1.79786859142620e+001,-6.14115342645702e+000

2.94460048199957e+005,-1.79793959334645e+001,-6.22526737767053e+000

2.98570557291775e+005,-1.79801202577989e+001,-6.31050796853686e+000

3.02738446952187e+005,-1.79808590840634e+001,-6.39688997006248e+000

3.06964518184081e+005,-1.79816126096751e+001,-6.48442836295659e+000

3.11249583171928e+005,-1.79823810327283e+001,-6.57313834181888e+000

3.15594465437872e+005,-1.79831645520640e+001,-6.66303531941831e+000

3.19999999999997e+005,-1.79839633673542e+001,-6.75413493105610e+000

3.24467033532806e+005,-1.79847776791993e+001,-6.84645303901498e+000

3.28996424529938e+005,-1.79856076892425e+001,-6.94000573708724e+000

3.33589043469155e+005,-1.79864536002978e+001,-7.03480935518362e+000

3.38245772979638e+005,-1.79873156164965e+001,-7.13088046401654e+000

3.42967508011610e+005,-1.79881939434499e+001,-7.22823587985462e+000

3.47755156008335e+005,-1.79890887884304e+001,-7.32689266934478e+000

3.52609637080511e+005,-1.79900003605708e+001,-7.42686815439896e+000

3.57531884183106e+005,-1.79909288710833e+001,-7.52817991713818e+000

3.62522843294651e+005,-1.79918745334982e+001,-7.63084580489060e+000

3.67583473599047e+005,-1.79928375639224e+001,-7.73488393523965e+000

3.72714747669902e+005,-1.79938181813199e+001,-7.84031270111342e+000

3.77917651657445e+005,-1.79948166078125e+001,-7.94715077591318e+000

3.83193185478053e+005,-1.79958330690029e+001,-8.05541711867220e+000

3.88542363006410e+005,-1.79968677943196e+001,-8.16513097924046e+000

3.93966212270369e+005,-1.79979210173841e+001,-8.27631190348841e+000

3.99465775648511e+005,-1.79989929764015e+001,-8.38897973852214e+000

4.05042110070485e+005,-1.80000839145724e+001,-8.50315463790523e+000

4.10696287220124e+005,-1.80011940805295e+001,-8.61885706687901e+000

4.16429393741414e+005,-1.80023237287958e+001,-8.73610780757405e+000

4.22242531447321e+005,-1.80034731202662e+001,-8.85492796420796e+000

4.28136817531551e+005,-1.80046425227124e+001,-8.97533896825992e+000

4.34113384783250e+005,-1.80058322113097e+001,-9.09736258361663e+000

4.40173381804713e+005,-1.80070424691870e+001,-9.22102091168293e+000

4.46317973232124e+005,-1.80082735879986e+001,-9.34633639644908e+000

4.52548339959385e+005,-1.80095258685180e+001,-9.47333182950934e+000

4.58865679365059e+005,-1.80107996212531e+001,-9.60203035502428e+000

4.65271205542494e+005,-1.80120951670824e+001,-9.73245547462130e+000

4.71766149533147e+005,-1.80134128379115e+001,-9.86463105222706e+000

4.78351759563174e+005,-1.80147529773495e+001,-9.99858131882533e+000

4.85029301283321e+005,-1.80161159414044e+001,-1.01343308771367e+001

4.91800058012158e+005,-1.80175020991973e+001,-1.02719047062116e+001

4.98665330982714e+005,-1.80189118336938e+001,-1.04113281659362e+001

5.05626439592555e+005,-1.80203455424529e+001,-1.05526270014420e+001

5.12684721657352e+005,-1.80218036383910e+001,-1.06958273474192e+001

5.19841533667984e+005,-1.80232865505625e+001,-1.08409557323270e+001

5.27098251051240e+005,-1.80247947249536e+001,-1.09880390824997e+001

5.34456268434150e+005,-1.80263286252896e+001,-1.11371047261448e+001

5.41916999912011e+005,-1.80278887338556e+001,-1.12881803972310e+001

