Freq.,VOut,OutRef

1.00000000000000e+004,-2.36645678295287e+001,-5.22078525784925e-001

1.01395947979003e+004,-2.36645725282156e+001,-5.29366213870147e-001

1.02811382665607e+004,-2.36645773589674e+001,-5.36755623399947e-001

1.04246576084112e+004,-2.36645823254951e+001,-5.44248173889994e-001

1.05701804056138e+004,-2.36645874316138e+001,-5.51845304652978e-001

1.07177346253629e+004,-2.36645926812459e+001,-5.59548475073235e-001

1.08673486252606e+004,-2.36645980784239e+001,-5.67359164884530e-001

1.10190511587661e+004,-2.36646036272934e+001,-5.75278874457485e-001

1.11728713807222e+004,-2.36646093321167e+001,-5.83309125080912e-001

1.13288388529580e+004,-2.36646151972755e+001,-5.91451459257968e-001

1.14869835499703e+004,-2.36646212272748e+001,-5.99707440998622e-001

1.16473358646846e+004,-2.36646274267458e+001,-6.08078656119646e-001

1.18099266142953e+004,-2.36646338004498e+001,-6.16566712547461e-001

1.19747870461893e+004,-2.36646403532822e+001,-6.25173240624869e-001

1.21419488439505e+004,-2.36646470902753e+001,-6.33899893424701e-001

1.23114441334492e+004,-2.36646540166029e+001,-6.42748347065622e-001

1.24833054890161e+004,-2.36646611375840e+001,-6.51720301030448e-001

1.26575659397028e+004,-2.36646684586870e+001,-6.60817478492806e-001

1.28342589756290e+004,-2.36646759855338e+001,-6.70041626645932e-001

1.30134185544193e+004,-2.36646837239040e+001,-6.79394517035442e-001

1.31950791077289e+004,-2.36646916797395e+001,-6.88877945900989e-001

1.33792755478611e+004,-2.36646998591489e+001,-6.98493734514591e-001

1.35660432744767e+004,-2.36647082684125e+001,-7.08243729532464e-001

1.37554181813974e+004,-2.36647169139864e+001,-7.18129803345474e-001

1.39474366635040e+004,-2.36647258025084e+001,-7.28153854437194e-001

1.41421356237309e+004,-2.36647349408020e+001,-7.38317807746624e-001

1.43395524801583e+004,-2.36647443358828e+001,-7.48623615034127e-001

1.45397251732031e+004,-2.36647539949628e+001,-7.59073255255468e-001

1.47426921729110e+004,-2.36647639254563e+001,-7.69668734938830e-001

1.49484924863494e+004,-2.36647741349861e+001,-7.80412088565885e-001

1.51571656651040e+004,-2.36647846313884e+001,-7.91305378962203e-001

1.53687518128801e+004,-2.36647954227195e+001,-8.02350697688470e-001

1.55832915932100e+004,-2.36648065172613e+001,-8.13550165441004e-001

1.58008262372675e+004,-2.36648179235284e+001,-8.24905932452819e-001

1.60213975517924e+004,-2.36648296502742e+001,-8.36420178906377e-001

1.62450479271247e+004,-2.36648417064973e+001,-8.48095115347423e-001

1.64718203453514e+004,-2.36648541014489e+001,-8.59932983104649e-001

1.67017583885674e+004,-2.36648668446395e+001,-8.71936054719033e-001

1.69349062472505e+004,-2.36648799458462e+001,-8.84106634374195e-001

1.71713087287550e+004,-2.36648934151206e+001,-8.96447058334442e-001

1.74110112659224e+004,-2.36649072627955e+001,-9.08959695391082e-001

1.76540599258131e+004,-2.36649214994940e+001,-9.21646947310464e-001

1.79005014185594e+004,-2.36649361361366e+001,-9.34511249292824e-001

1.81503831063432e+004,-2.36649511839497e+001,-9.47555070432709e-001

1.84037530124975e+004,-2.36649666544748e+001,-9.60780914189912e-001

1.86606598307361e+004,-2.36649825595767e+001,-9.74191318862504e-001

1.89211529345119e+004,-2.36649989114524e+001,-9.87788858071736e-001

1.91852823865052e+004,-2.36650157226409e+001,-1.00157614124764e+000

1.94530989482457e+004,-2.36650330060324e+001,-1.01555581412542e+000

1.97246540898671e+004,-2.36650507748782e+001,-1.02973055924688e+000

1.99999999999999e+004,-2.36650690428008e+001,-1.04410309646883e+000

2.02791895958005e+004,-2.36650878238044e+001,-1.05867618347783e+000

2.05622765331213e+004,-2.36651071322849e+001,-1.07345261631351e+000

2.08493152168224e+004,-2.36651269830417e+001,-1.08843522989749e+000

2.11403608112276e+004,-2.36651473912887e+001,-1.10362689856913e+000

2.14354692507258e+004,-2.36651683726651e+001,-1.11903053663090e+000

2.17346972505211e+004,-2.36651899432485e+001,-1.13464909889782e+000

2.20381023175322e+004,-2.36652121195661e+001,-1.15048558125576e+000

2.23457427614443e+004,-2.36652349186079e+001,-1.16654302122909e+000

2.26576777059159e+004,-2.36652583578390e+001,-1.18282449855285e+000

2.29739670999406e+004,-2.36652824552132e+001,-1.19933313575422e+000

2.32946717293690e+004,-2.36653072291868e+001,-1.21607209874048e+000

2.36198532285905e+004,-2.36653326987321e+001,-1.23304459739817e+000

2.39495740923785e+004,-2.36653588833519e+001,-1.25025388619601e+000

2.42838976879009e+004,-2.36653858030944e+001,-1.26770326479837e+000

2.46228882668982e+004,-2.36654134785685e+001,-1.28539607868560e+000

2.49666109780322e+004,-2.36654419309589e+001,-1.30333571978487e+000

2.53151318794055e+004,-2.36654711820424e+001,-1.32152562710611e+000

2.56685179512580e+004,-2.36655012542045e+001,-1.33996928738908e+000

2.60268371088386e+004,-2.36655321704561e+001,-1.35867023575783e+000

2.63901582154578e+004,-2.36655639544508e+001,-1.37763205638345e+000

2.67585510957221e+004,-2.36655966305029e+001,-1.39685838315702e+000

2.71320865489533e+004,-2.36656302236055e+001,-1.41635290036970e+000

2.75108363627948e+004,-2.36656647594497e+001,-1.43611934340290e+000

2.78948733270080e+004,-2.36657002644438e+001,-1.45616149942711e+000

2.82842712474618e+004,-2.36657367657326e+001,-1.47648320811039e+000

2.86791049603164e+004,-2.36657742912189e+001,-1.49708836233516e+000

2.90794503464061e+004,-2.36658128695835e+001,-1.51798090892488e+000

2.94853843458219e+004,-2.36658525303073e+001,-1.53916484938051e+000

2.98969849726987e+004,-2.36658933036931e+001,-1.56064424062636e+000

3.03143313302078e+004,-2.36659352208886e+001,-1.58242319576516e+000

3.07375036257601e+004,-2.36659783139096e+001,-1.60450588484372e+000

3.11665831864199e+004,-2.36660226156639e+001,-1.62689653562761e+000

3.16016524745350e+004,-2.36660681599761e+001,-1.64959943438599e+000

3.20427951035848e+004,-2.36661149816129e+001,-1.67261892668861e+000

3.24900958542493e+004,-2.36661631163089e+001,-1.69595941820880e+000

3.29436406907028e+004,-2.36662126007933e+001,-1.71962537554118e+000

3.34035167771346e+004,-2.36662634728176e+001,-1.74362132702667e+000

3.38698124945009e+004,-2.36663157711834e+001,-1.76795186358994e+000

3.43426174575100e+004,-2.36663695357715e+001,-1.79262163958647e+000

3.48220225318448e+004,-2.36664248075716e+001,-1.81763537366014e+000

3.53081198516260e+004,-2.36664816287125e+001,-1.84299784961374e+000

3.58010028371187e+004,-2.36665400424936e+001,-1.86871391728742e+000

3.63007662126863e+004,-2.36666000934172e+001,-1.89478849344998e+000

3.68075060249948e+004,-2.36666618272211e+001,-1.92122656270192e+000

3.73213196614721e+004,-2.36667252909130e+001,-1.94803317838777e+000

3.78423058690237e+004,-2.36667905328047e+001,-1.97521346352156e+000

3.83705647730104e+004,-2.36668576025480e+001,-2.00277261172290e+000

3.89061978964912e+004,-2.36669265511718e+001,-2.03071588816568e+000

3.94493081797342e+004,-2.36669974311189e+001,-2.05904863053597e+000

3.99999999999998e+004,-2.36670702962855e+001,-2.08777625000555e+000

4.05583791916010e+004,-2.36671452020602e+001,-2.11690423221317e+000

4.11245530662425e+004,-2.36672222053650e+001,-2.14643813826161e+000

4.16986304336447e+004,-2.36673013646971e+001,-2.17638360572403e+000

4.22807216224550e+004,-2.36673827401715e+001,-2.20674634966374e+000

4.28709385014515e+004,-2.36674663935653e+001,-2.23753216366698e+000

4.34693945010421e+004,-2.36675523883628e+001,-2.26874692088556e+000

4.40762046350642e+004,-2.36676407898017e+001,-2.30039657509516e+000

4.46914855228886e+004,-2.36677316649209e+001,-2.33248716176371e+000

4.53153554118317e+004,-2.36678250826087e+001,-2.36502479913441e+000

4.59479341998812e+004,-2.36679211136539e+001,-2.39801568931951e+000

4.65893434587380e+004,-2.36680198307960e+001,-2.43146611940831e+000

4.72397064571810e+004,-2.36681213087788e+001,-2.46538246258791e+000

4.78991481847569e+004,-2.36682256244039e+001,-2.49977117927680e+000

4.85677953758016e+004,-2.36683328565866e+001,-2.53463881827146e+000

4.92457765337964e+004,-2.36684430864122e+001,-2.56999201790607e+000

4.99332219560642e+004,-2.36685563971949e+001,-2.60583750722540e+000

5.06302637588109e+004,-2.36686728745373e+001,-2.64218210717262e+000

5.13370359025159e+004,-2.36687926063919e+001,-2.67903273178718e+000

5.20536742176771e+004,-2.36689156831240e+001,-2.71639638941945e+000

5.27803164309155e+004,-2.36690421975762e+001,-2.75428018395744e+000

5.35171021914442e+004,-2.36691722451343e+001,-2.79269131606675e+000

5.42641730979066e+004,-2.36693059237959e+001,-2.83163708444476e+000

5.50216727255895e+004,-2.36694433342388e+001,-2.87112488708953e+000

5.57897466540159e+004,-2.36695845798933e+001,-2.91116222257910e+000

5.65685424949235e+004,-2.36697297670146e+001,-2.95175669136972e+000

5.73582099206328e+004,-2.36698790047582e+001,-2.99291599710232e+000

5.81589006928121e+004,-2.36700324052560e+001,-3.03464794792792e+000

5.89707686916437e+004,-2.36701900836954e+001,-3.07696045784336e+000

5.97939699453972e+004,-2.36703521583998e+001,-3.11986154804269e+000

6.06286626604156e+004,-2.36705187509111e+001,-3.16335934828206e+000

6.14750072515201e+004,-2.36706899860744e+001,-3.20746209825900e+000

6.23331663728396e+004,-2.36708659921243e+001,-3.25217814900558e+000

6.32033049490698e+004,-2.36710469007740e+001,-3.29751596429464e+000

6.40855902071694e+004,-2.36712328473061e+001,-3.34348412206247e+000

6.49801917084985e+004,-2.36714239706654e+001,-3.39009131584256e+000

6.58872813814055e+004,-2.36716204135548e+001,-3.43734635621535e+000

6.68070335542691e+004,-2.36718223225321e+001,-3.48525817227202e+000

6.77396249890018e+004,-2.36720298481105e+001,-3.53383581309093e+000

6.86852349150199e+004,-2.36722431448608e+001,-3.58308844922977e+000

6.96440450636895e+004,-2.36724623715157e+001,-3.63302537422997e+000

7.06162397032520e+004,-2.36726876910773e+001,-3.68365600613710e+000

7.16020056742374e+004,-2.36729192709262e+001,-3.73498988903330e+000

7.26015324253724e+004,-2.36731572829345e+001,-3.78703669458417e+000

7.36150120499896e+004,-2.36734019035796e+001,-3.83980622359991e+000

7.46426393229441e+004,-2.36736533140621e+001,-3.89330840761029e+000

7.56846117380472e+004,-2.36739117004256e+001,-3.94755331045229e+000

7.67411295460207e+004,-2.36741772536795e+001,-4.00255112987271e+000

7.78123957929823e+004,-2.36744501699246e+001,-4.05831219914313e+000

7.88986163594682e+004,-2.36747306504811e+001,-4.11484698868929e+000

7.99999999999995e+004,-2.36750189020200e+001,-4.17216610773352e+000

8.11167583832018e+004,-2.36753151366972e+001,-4.23028030594997e+000

8.22491061324848e+004,-2.36756195722901e+001,-4.28920047513419e+000

8.33972608672892e+004,-2.36759324323380e+001,-4.34893765088449e+000

8.45614432449099e+004,-2.36762539462846e+001,-4.40950301429742e+000

8.57418770029029e+004,-2.36765843496244e+001,-4.47090789367511e+000

8.69387890020841e+004,-2.36769238840518e+001,-4.53316376624629e+000

8.81524092701283e+004,-2.36772727976132e+001,-4.59628225989926e+000

8.93829710457770e+004,-2.36776313448624e+001,-4.66027515492774e+000

9.06307108236633e+004,-2.36779997870196e+001,-4.72515438578906e+000

9.18958683997622e+004,-2.36783783921332e+001,-4.79093204287367e+000

9.31786869174758e+004,-2.36787674352449e+001,-4.85762037428854e+000

9.44794129143618e+004,-2.36791671985586e+001,-4.92523178765076e+000

9.57982963695136e+004,-2.36795779716122e+001,-4.99377885189361e+000

9.71355907516031e+004,-2.36800000514528e+001,-5.06327429908404e+000

9.84915530675926e+004,-2.36804337428161e+001,-5.13373102625248e+000

9.98664439121282e+004,-2.36808793583081e+001,-5.20516209723235e+000

1.01260527517622e+005,-2.36813372185912e+001,-5.27758074451231e+000

1.02674071805032e+005,-2.36818076525735e+001,-5.35100037109811e+000

1.04107348435354e+005,-2.36822909976020e+001,-5.42543455238663e+000

1.05560632861831e+005,-2.36827875996588e+001,-5.50089703804953e+000

1.07034204382888e+005,-2.36832978135614e+001,-5.57740175392776e+000

1.08528346195813e+005,-2.36838220031665e+001,-5.65496280393708e+000

1.10043345451179e+005,-2.36843605415777e+001,-5.73359447198276e+000

1.11579493308032e+005,-2.36849138113564e+001,-5.81331122388487e+000

1.13137084989847e+005,-2.36854822047372e+001,-5.89412770931373e+000

1.14716419841265e+005,-2.36860661238461e+001,-5.97605876373561e+000

1.16317801385624e+005,-2.36866659809231e+001,-6.05911941036665e+000

1.17941537383287e+005,-2.36872821985487e+001,-6.14332486213844e+000

1.19587939890794e+005,-2.36879152098737e+001,-6.22869052367106e+000

1.21257325320831e+005,-2.36885654588532e+001,-6.31523199325800e+000

1.22950014503040e+005,-2.36892334004841e+001,-6.40296506485807e+000

1.24666332745679e+005,-2.36899195010471e+001,-6.49190573009900e+000

1.26406609898139e+005,-2.36906242383515e+001,-6.58207018028827e+000

1.28171180414339e+005,-2.36913481019853e+001,-6.67347480843512e+000

1.29960383416997e+005,-2.36920915935677e+001,-6.76613621128107e+000

1.31774562762811e+005,-2.36928552270064e+001,-6.86007119134004e+000

1.33614067108538e+005,-2.36936395287589e+001,-6.95529675894763e+000

1.35479249978003e+005,-2.36944450380974e+001,-7.05183013432150e+000

1.37370469830040e+005,-2.36952723073774e+001,-7.14968874962935e+000

1.39288090127379e+005,-2.36961219023109e+001,-7.24889025106856e+000

1.41232479406504e+005,-2.36969944022431e+001,-7.34945250095561e+000

1.43204011348474e+005,-2.36978904004336e+001,-7.45139357982520e+000

1.45203064850745e+005,-2.36988105043408e+001,-7.55473178854046e+000

1.47230024099979e+005,-2.36997553359114e+001,-7.65948565041453e+000

1.49285278645888e+005,-2.37007255318728e+001,-7.76567391334289e+000

1.51369223476094e+005,-2.37017217440309e+001,-7.87331555194715e+000

1.53482259092041e+005,-2.37027446395709e+001,-7.98242976973225e+000

1.55624791585964e+005,-2.37037949013632e+001,-8.09303600125426e+000

1.57797232718936e+005,-2.37048732282725e+001,-8.20515391430360e+000

1.59999999999999e+005,-2.37059803354725e+001,-8.31880341209975e+000

1.62233516766403e+005,-2.37071169547637e+001,-8.43400463550229e+000

1.64498212264969e+005,-2.37082838348965e+001,-8.55077796523510e+000

1.66794521734578e+005,-2.37094817418983e+001,-8.66914402412793e+000

1.69122886489819e+005,-2.37107114594056e+001,-8.78912367937285e+000

1.71483754005805e+005,-2.37119737890002e+001,-8.91073804479914e+000

1.73877578004168e+005,-2.37132695505507e+001,-9.03400848316572e+000

1.76304818540256e+005,-2.37145995825591e+001,-9.15895660847244e+000

1.78765942091554e+005,-2.37159647425116e+001,-9.28560428829175e+000

1.81261421647326e+005,-2.37173659072359e+001,-9.41397364612053e+000

1.83791736799524e+005,-2.37188039732624e+001,-9.54408706375415e+000

1.86357373834951e+005,-2.37202798571926e+001,-9.67596718368378e+000

1.88958825828723e+005,-2.37217944960719e+001,-9.80963691151645e+000

1.91596592739027e+005,-2.37233488477693e+001,-9.94511941842127e+000

1.94271181503206e+005,-2.37249438913633e+001,-1.00824381436008e+001

1.96983106135185e+005,-2.37265806275341e+001,-1.02216167967902e+001

1.99732887824256e+005,-2.37282600789626e+001,-1.03626793607836e+001

2.02521055035243e+005,-2.37299832907373e+001,-1.05056500939909e+001

2.05348143610063e+005,-2.37317513307679e+001,-1.06505535330236e+001

2.08214696870707e+005,-2.37335652902073e+001,-1.07974144953128e+001

2.11121265723661e+005,-2.37354262838821e+001,-1.09462580817588e+001

2.14068408765776e+005,-2.37373354507317e+001,-1.10971096794138e+001

2.17056692391625e+005,-2.37392939542564e+001,-1.12499949641993e+001

2.20086690902357e+005,-2.37413029829762e+001,-1.14049399036560e+001

2.23158986616063e+005,-2.37433637508989e+001,-1.15619707597318e+001

2.26274169979693e+005,-2.37454774979998e+001,-1.17211140916030e+001

2.29432839682530e+005,-2.37476454907126e+001,-1.18823967585326e+001

2.32635602771247e+005,-2.37498690224332e+001,-1.20458459227645e+001

2.35883074766574e+005,-2.37521494140350e+001,-1.22114890524540e+001

2.39175879781588e+005,-2.37544880143994e+001,-1.23793539246342e+001

2.42514650641661e+005,-2.37568862009596e+001,-1.25494686282173e+001

2.45900029006080e+005,-2.37593453802599e+001,-1.27218615670311e+001

2.49332665491357e+005,-2.37618669885312e+001,-1.28965614628894e+001

2.52813219796278e+005,-2.37644524922828e+001,-1.30735973586939e+001

2.56342360828676e+005,-2.37671033889128e+001,-1.32529986215676e+001

2.59920766833993e+005,-2.37698212073362e+001,-1.34347949460161e+001

2.63549125525621e+005,-2.37726075086336e+001,-1.36190163571161e+001

2.67228134217075e+005,-2.37754638867199e+001,-1.38056932137260e+001

2.70958499956006e+005,-2.37783919690349e+001,-1.39948562117177e+001

2.74740939660078e+005,-2.37813934172566e+001,-1.41865363872238e+001

2.78576180254757e+005,-2.37844699280378e+001,-1.43807651198975e+001

2.82464958813007e+005,-2.37876232337686e+001,-1.45775741361788e+001

2.86408022696948e+005,-2.37908551033631e+001,-1.47769955125634e+001

2.90406129701488e+005,-2.37941673430748e+001,-1.49790616788668e+001

2.94460048199957e+005,-2.37975617973388e+001,-1.51838054214768e+001

2.98570557291775e+005,-2.38010403496436e+001,-1.53912598865901e+001

3.02738446952187e+005,-2.38046049234329e+001,-1.56014585834203e+001

3.06964518184081e+005,-2.38082574830391e+001,-1.58144353873731e+001

3.11249583171928e+005,-2.38120000346482e+001,-1.60302245431770e+001

3.15594465437872e+005,-2.38158346272986e+001,-1.62488606679601e+001

3.19999999999997e+005,-2.38197633539138e+001,-1.64703787542622e+001

3.24467033532806e+005,-2.38237883523705e+001,-1.66948141729713e+001

3.28996424529938e+005,-2.38279118066020e+001,-1.69222026761717e+001

3.33589043469155e+005,-2.38321359477388e+001,-1.71525803998900e+001

3.38245772979638e+005,-2.38364630552867e+001,-1.73859838667281e+001

3.42967508011610e+005,-2.38408954583424e+001,-1.76224499883644e+001

3.47755156008335e+005,-2.38454355368481e+001,-1.78620160679131e+001

3.52609637080511e+005,-2.38500857228851e+001,-1.81047198021211e+001

3.57531884183106e+005,-2.38548485020062e+001,-1.83505992833893e+001

3.62522843294651e+005,-2.38597264146084e+001,-1.85996930015993e+001

3.67583473599047e+005,-2.38647220573445e+001,-1.88520398457286e+001

3.72714747669902e+005,-2.38698380845742e+001,-1.91076791052346e+001

3.77917651657445e+005,-2.38750772098551e+001,-1.93666504711904e+001

3.83193185478053e+005,-2.38804422074718e+001,-1.96289940371514e+001

3.88542363006410e+005,-2.38859359140037e+001,-1.98947502997319e+001

3.93966212270369e+005,-2.38915612299302e+001,-2.01639601588750e+001

3.99465775648511e+005,-2.38973211212730e+001,-2.04366649177902e+001

4.05042110070485e+005,-2.39032186212734e+001,-2.07129062825410e+001

4.10696287220124e+005,-2.39092568321039e+001,-2.09927263612616e+001

4.16429393741414e+005,-2.39154389266132e+001,-2.12761676629779e+001

4.22242531447321e+005,-2.39217681501013e+001,-2.15632730960156e+001

4.28136817531551e+005,-2.39282478221245e+001,-2.18540859659710e+001

4.34113384783250e+005,-2.39348813383266e+001,-2.21486499732252e+001

4.40173381804713e+005,-2.39416721722953e+001,-2.24470092099789e+001

4.46317973232124e+005,-2.39486238774402e+001,-2.27492081567888e+001

4.52548339959385e+005,-2.39557400888900e+001,-2.30552916785831e+001

4.58865679365059e+005,-2.39630245254056e+001,-2.33653050201390e+001

4.65271205542494e+005,-2.39704809913061e+001,-2.36792938009999e+001

4.71766149533147e+005,-2.39781133784045e+001,-2.39973040098149e+001

4.78351759563174e+005,-2.39859256679479e+001,-2.43193819980838e+001

4.85029301283321e+005,-2.39939219325604e+001,-2.46455744732883e+001

4.91800058012158e+005,-2.40021063381825e+001,-2.49759284913946e+001

4.98665330982714e+005,-2.40104831460043e+001,-2.53104914487115e+001

5.05626439592555e+005,-2.40190567143863e+001,-2.56493110730921e+001

5.12684721657352e+005,-2.40278315007647e+001,-2.59924354144622e+001

5.19841533667984e+005,-2.40368120635347e+001,-2.63399128346687e+001

5.27098251051240e+005,-2.40460030639075e+001,-2.66917919966341e+001

5.34456268434150e+005,-2.40554092677359e+001,-2.70481218528105e+001

5.41916999912011e+005,-2.40650355473016e+001,-2.74089516329256e+001

