Freq.,VOut,OutRef

1.00000000000000e+004,-7.62329712573629e+000,-8.08363952684088e-002

1.01395947979003e+004,-7.62329727001148e+000,-8.19648041546621e-002

1.02811382665607e+004,-7.62329741833837e+000,-8.31089639763294e-002

1.04246576084112e+004,-7.62329757083094e+000,-8.42690945611457e-002

1.05701804056138e+004,-7.62329772760607e+000,-8.54454188053332e-002

1.07177346253629e+004,-7.62329788878363e+000,-8.66381627165542e-002

1.08673486252606e+004,-7.62329805448740e+000,-8.78475554516245e-002

1.10190511587661e+004,-7.62329822484427e+000,-8.90738293661384e-002

1.11728713807222e+004,-7.62329839998434e+000,-9.03172200596482e-002

1.13288388529580e+004,-7.62329858004239e+000,-9.15779664111090e-002

1.14869835499703e+004,-7.62329876515604e+000,-9.28563106382800e-002

1.16473358646846e+004,-7.62329895546675e+000,-9.41524983366805e-002

1.18099266142953e+004,-7.62329915112070e+000,-9.54667785232095e-002

1.19747870461893e+004,-7.62329935226762e+000,-9.67994036916791e-002

1.21419488439505e+004,-7.62329955906127e+000,-9.81506298582523e-002

1.23114441334492e+004,-7.62329977166001e+000,-9.95207166085313e-002

1.24833054890161e+004,-7.62329999022678e+000,-1.00909927146843e-001

1.26575659397028e+004,-7.62330021492863e+000,-1.02318528352099e-001

1.28342589756290e+004,-7.62330044593749e+000,-1.03746790823414e-001

1.30134185544193e+004,-7.62330068342995e+000,-1.05194988934960e-001

1.31950791077289e+004,-7.62330092758812e+000,-1.06663400883087e-001

1.33792755478611e+004,-7.62330117859825e+000,-1.08152308750334e-001

1.35660432744767e+004,-7.62330143665285e+000,-1.09661998545642e-001

1.37554181813974e+004,-7.62330170194875e+000,-1.11192760273291e-001

1.39474366635040e+004,-7.62330197468892e+000,-1.12744887977360e-001

1.41421356237309e+004,-7.62330225508197e+000,-1.14318679802017e-001

1.43395524801583e+004,-7.62330254334192e+000,-1.15914438051267e-001

1.45397251732031e+004,-7.62330283968934e+000,-1.17532469240394e-001

1.47426921729110e+004,-7.62330314435042e+000,-1.19173084161845e-001

1.49484924863494e+004,-7.62330345755795e+000,-1.20836597939123e-001

1.51571656651040e+004,-7.62330377955135e+000,-1.22523330087764e-001

1.53687518128801e+004,-7.62330411057618e+000,-1.24233604582121e-001

1.55832915932100e+004,-7.62330445088522e+000,-1.25967749909268e-001

1.58008262372675e+004,-7.62330480073835e+000,-1.27726099135805e-001

1.60213975517924e+004,-7.62330516040242e+000,-1.29508989972879e-001

1.62450479271247e+004,-7.62330553015195e+000,-1.31316764836757e-001

1.64718203453514e+004,-7.62330591026901e+000,-1.33149770917476e-001

1.67017583885674e+004,-7.62330630104338e+000,-1.35008360244949e-001

1.69349062472505e+004,-7.62330670277336e+000,-1.36892889752358e-001

1.71713087287550e+004,-7.62330711576482e+000,-1.38803721351892e-001

1.74110112659224e+004,-7.62330754033247e+000,-1.40741221997393e-001

1.76540599258131e+004,-7.62330797679995e+000,-1.42705763754543e-001

1.79005014185594e+004,-7.62330842549995e+000,-1.44697723873746e-001

1.81503831063432e+004,-7.62330888677377e+000,-1.46717484865760e-001

1.84037530124975e+004,-7.62330936097302e+000,-1.48765434565592e-001

1.86606598307361e+004,-7.62330984845826e+000,-1.50841966216880e-001

1.89211529345119e+004,-7.62331034960066e+000,-1.52947478538000e-001

1.91852823865052e+004,-7.62331086478142e+000,-1.55082375803007e-001

1.94530989482457e+004,-7.62331139439220e+000,-1.57247067919148e-001

1.97246540898671e+004,-7.62331193883571e+000,-1.59441970501087e-001

1.99999999999999e+004,-7.62331249852583e+000,-1.61667504952662e-001

2.02791895958005e+004,-7.62331307388755e+000,-1.63924098549236e-001

2.05622765331213e+004,-7.62331366535817e+000,-1.66212184512977e-001

2.08493152168224e+004,-7.62331427338654e+000,-1.68532202102277e-001

2.11403608112276e+004,-7.62331489843410e+000,-1.70884596691342e-001

2.14354692507258e+004,-7.62331554097539e+000,-1.73269819853225e-001

2.17346972505211e+004,-7.62331620149732e+000,-1.75688329452938e-001

2.20381023175322e+004,-7.62331688050105e+000,-1.78140589724623e-001

2.23457427614443e+004,-7.62331757850090e+000,-1.80627071368883e-001

2.26576777059159e+004,-7.62331829602564e+000,-1.83148251637331e-001

2.29739670999406e+004,-7.62331903361866e+000,-1.85704614423558e-001

2.32946717293690e+004,-7.62331979183807e+000,-1.88296650357017e-001

2.36198532285905e+004,-7.62332057125782e+000,-1.90924856892336e-001

2.39495740923785e+004,-7.62332137246718e+000,-1.93589738409079e-001

2.42838976879009e+004,-7.62332219607170e+000,-1.96291806304191e-001

2.46228882668982e+004,-7.62332304269358e+000,-1.99031579089508e-001

2.49666109780322e+004,-7.62332391297208e+000,-2.01809582490172e-001

2.53151318794055e+004,-7.62332480756423e+000,-2.04626349542439e-001

2.56685179512580e+004,-7.62332572714481e+000,-2.07482420698854e-001

2.60268371088386e+004,-7.62332667240717e+000,-2.10378343926564e-001

2.63901582154578e+004,-7.62332764406343e+000,-2.13314674814767e-001

2.67585510957221e+004,-7.62332864284543e+000,-2.16291976676166e-001

2.71320865489533e+004,-7.62332966950493e+000,-2.19310820655258e-001

2.75108363627948e+004,-7.62333072481418e+000,-2.22371785836938e-001

2.78948733270080e+004,-7.62333180956654e+000,-2.25475459354518e-001

2.82842712474618e+004,-7.62333292457686e+000,-2.28622436502362e-001

2.86791049603164e+004,-7.62333407068243e+000,-2.31813320845978e-001

2.90794503464061e+004,-7.62333524874309e+000,-2.35048724338272e-001

2.94853843458219e+004,-7.62333645964193e+000,-2.38329267434773e-001

2.98969849726987e+004,-7.62333770428646e+000,-2.41655579207457e-001

3.03143313302078e+004,-7.62333898360832e+000,-2.45028297468179e-001

3.07375036257601e+004,-7.62334029856468e+000,-2.48448068884782e-001

3.11665831864199e+004,-7.62334165013838e+000,-2.51915549105678e-001

3.16016524745350e+004,-7.62334303933928e+000,-2.55431402879094e-001

3.20427951035848e+004,-7.62334446720389e+000,-2.58996304184628e-001

3.24900958542493e+004,-7.62334593479704e+000,-2.62610936354096e-001

3.29436406907028e+004,-7.62334744321227e+000,-2.66275992201298e-001

3.34035167771346e+004,-7.62334899357235e+000,-2.69992174154445e-001

3.38698124945009e+004,-7.62335058703033e+000,-2.73760194384818e-001

3.43426174575100e+004,-7.62335222477006e+000,-2.77580774942455e-001

3.48220225318448e+004,-7.62335390800747e+000,-2.81454647888935e-001

3.53081198516260e+004,-7.62335563799046e+000,-2.85382555438796e-001

3.58010028371187e+004,-7.62335741600074e+000,-2.89365250092996e-001

3.63007662126863e+004,-7.62335924335413e+000,-2.93403494782480e-001

3.68075060249948e+004,-7.62336112140128e+000,-2.97498063012215e-001

3.73213196614721e+004,-7.62336305152892e+000,-3.01649739001775e-001

3.78423058690237e+004,-7.62336503516053e+000,-3.05859317835266e-001

3.83705647730104e+004,-7.62336707375747e+000,-3.10127605605502e-001

3.89061978964912e+004,-7.62336916881956e+000,-3.14455419568536e-001

3.94493081797342e+004,-7.62337132188633e+000,-3.18843588292511e-001

3.99999999999998e+004,-7.62337353453776e+000,-3.23292951813753e-001

4.05583791916010e+004,-7.62337580839571e+000,-3.27804361789359e-001

4.11245530662425e+004,-7.62337814512440e+000,-3.32378681659551e-001

4.16986304336447e+004,-7.62338054643164e+000,-3.37016786805343e-001

4.22807216224550e+004,-7.62338301407007e+000,-3.41719564710612e-001

4.28709385014515e+004,-7.62338554983778e+000,-3.46487915128042e-001

4.34693945010421e+004,-7.62338815557979e+000,-3.51322750243288e-001

4.40762046350642e+004,-7.62339083318938e+000,-3.56224994842835e-001

4.46914855228886e+004,-7.62339358460838e+000,-3.61195586488636e-001

4.53153554118317e+004,-7.62339641182899e+000,-3.66235475687190e-001

4.59479341998812e+004,-7.62339931689486e+000,-3.71345626065262e-001

4.65893434587380e+004,-7.62340230190228e+000,-3.76527014546670e-001

4.72397064571810e+004,-7.62340536900095e+000,-3.81780631534300e-001

4.78991481847569e+004,-7.62340852039599e+000,-3.87107481087290e-001

4.85677953758016e+004,-7.62341175834820e+000,-3.92508581110713e-001

4.92457765337964e+004,-7.62341508517645e+000,-3.97984963534832e-001

4.99332219560642e+004,-7.62341850325800e+000,-4.03537674510331e-001

5.06302637588109e+004,-7.62342201503020e+000,-4.09167774595576e-001

5.13370359025159e+004,-7.62342562299185e+000,-4.14876338950158e-001

5.20536742176771e+004,-7.62342932970452e+000,-4.20664457531273e-001

5.27803164309155e+004,-7.62343313779366e+000,-4.26533235292476e-001

5.35171021914442e+004,-7.62343704995017e+000,-4.32483792383346e-001

5.42641730979066e+004,-7.62344106893190e+000,-4.38517264351729e-001

5.50216727255895e+004,-7.62344519756452e+000,-4.44634802352074e-001

5.57897466540159e+004,-7.62344943874382e+000,-4.50837573348904e-001

5.65685424949235e+004,-7.62345379543589e+000,-4.57126760333928e-001

5.73582099206328e+004,-7.62345827068001e+000,-4.63503562531046e-001

5.81589006928121e+004,-7.62346286758864e+000,-4.69969195620230e-001

5.89707686916437e+004,-7.62346758934995e+000,-4.76524891949472e-001

5.97939699453972e+004,-7.62347243922847e+000,-4.83171900761119e-001

6.06286626604156e+004,-7.62347742056742e+000,-4.89911488409036e-001

6.14750072515201e+004,-7.62348253678924e+000,-4.96744938591915e-001

6.23331663728396e+004,-7.62348779139767e+000,-5.03673552576981e-001

6.32033049490698e+004,-7.62349318797896e+000,-5.10698649434886e-001

6.40855902071694e+004,-7.62349873020352e+000,-5.17821566271040e-001

6.49801917084985e+004,-7.62350442182705e+000,-5.25043658466922e-001

6.58872813814055e+004,-7.62351026669218e+000,-5.32366299916896e-001

6.68070335542691e+004,-7.62351626872995e+000,-5.39790883272406e-001

6.77396249890018e+004,-7.62352243196133e+000,-5.47318820185941e-001

6.86852349150199e+004,-7.62352876049805e+000,-5.54951541563649e-001

6.96440450636895e+004,-7.62353525854478e+000,-5.62690497811396e-001

7.06162397032520e+004,-7.62354193040004e+000,-5.70537159092743e-001

7.16020056742374e+004,-7.62354878045741e+000,-5.78493015585880e-001

7.26015324253724e+004,-7.62355581320719e+000,-5.86559577742788e-001

7.36150120499896e+004,-7.62356303323760e+000,-5.94738376552144e-001

7.46426393229441e+004,-7.62357044523579e+000,-6.03030963807407e-001

7.56846117380472e+004,-7.62357805398913e+000,-6.11438912374768e-001

7.67411295460207e+004,-7.62358586438659e+000,-6.19963816465163e-001

7.78123957929823e+004,-7.62359388141955e+000,-6.28607291910342e-001

7.88986163594682e+004,-7.62360211018286e+000,-6.37370976441522e-001

7.99999999999995e+004,-7.62361055587590e+000,-6.46256529970959e-001

8.11167583832018e+004,-7.62361922380348e+000,-6.55265634876472e-001

8.22491061324848e+004,-7.62362811937660e+000,-6.64399996288965e-001

8.33972608672892e+004,-7.62363724811321e+000,-6.73661342385177e-001

8.45614432449099e+004,-7.62364661563876e+000,-6.83051424681373e-001

8.57418770029029e+004,-7.62365622768690e+000,-6.92572018330705e-001

8.69387890020841e+004,-7.62366609009984e+000,-7.02224922424722e-001

8.81524092701283e+004,-7.62367620882862e+000,-7.12011960298235e-001

8.93829710457770e+004,-7.62368658993329e+000,-7.21934979837047e-001

9.06307108236633e+004,-7.62369723958314e+000,-7.31995853788438e-001

9.18958683997622e+004,-7.62370816405639e+000,-7.42196480076726e-001

9.31786869174758e+004,-7.62371936974011e+000,-7.52538782120992e-001

9.44794129143618e+004,-7.62373086312967e+000,-7.63024709157426e-001

9.57982963695136e+004,-7.62374265082830e+000,-7.73656236564174e-001

9.71355907516031e+004,-7.62375473954615e+000,-7.84435366190390e-001

9.84915530675926e+004,-7.62376713609942e+000,-7.95364126689261e-001

9.98664439121282e+004,-7.62377984740920e+000,-8.06444573853361e-001

1.01260527517622e+005,-7.62379288049988e+000,-8.17678790956312e-001

1.02674071805032e+005,-7.62380624249770e+000,-8.29068889094547e-001

1.04107348435354e+005,-7.62381994062862e+000,-8.40617007537450e-001

1.05560632861831e+005,-7.62383398221624e+000,-8.52325314077272e-001

1.07034204382888e+005,-7.62384837467923e+000,-8.64196005386384e-001

1.08528346195813e+005,-7.62386312552867e+000,-8.76231307375244e-001

1.10043345451179e+005,-7.62387824236466e+000,-8.88433475558642e-001

1.11579493308032e+005,-7.62389373287313e+000,-9.00804795421876e-001

1.13137084989847e+005,-7.62390960482206e+000,-9.13347582793031e-001

1.14716419841265e+005,-7.62392586605686e+000,-9.26064184222445e-001

1.16317801385624e+005,-7.62394252449616e+000,-9.38956977360647e-001

1.17941537383287e+005,-7.62395958812662e+000,-9.52028371346785e-001

1.19587939890794e+005,-7.62397706499744e+000,-9.65280807197863e-001

1.21257325320831e+005,-7.62399496321454e+000,-9.78716758203502e-001

1.22950014503040e+005,-7.62401329093400e+000,-9.92338730327640e-001

1.24666332745679e+005,-7.62403205635509e+000,-1.00614926261312e+000

1.26406609898139e+005,-7.62405126771309e+000,-1.02015092759062e+000

1.28171180414339e+005,-7.62407093327079e+000,-1.03434633169628e+000

1.29960383416997e+005,-7.62409106131022e+000,-1.04873811569157e+000

1.31774562762811e+005,-7.62411166012343e+000,-1.06332895508920e+000

1.33614067108538e+005,-7.62413273800222e+000,-1.07812156058750e+000

1.35479249978003e+005,-7.62415430322802e+000,-1.09311867850657e+000

1.37370469830040e+005,-7.62417636406055e+000,-1.10832309123246e+000

1.39288090127379e+005,-7.62419892872580e+000,-1.12373761766925e+000

1.41232479406504e+005,-7.62422200540319e+000,-1.13936511369524e+000

1.43204011348474e+005,-7.62424560221237e+000,-1.15520847262649e+000

1.45203064850745e+005,-7.62426972719875e+000,-1.17127062568741e+000

1.47230024099979e+005,-7.62429438831845e+000,-1.18755454248834e+000

1.49285278645888e+005,-7.62431959342211e+000,-1.20406323151181e+000

1.51369223476094e+005,-7.62434535023827e+000,-1.22079974060404e+000

1.53482259092041e+005,-7.62437166635532e+000,-1.23776715747651e+000

1.55624791585964e+005,-7.62439854920286e+000,-1.25496861021477e+000

1.57797232718936e+005,-7.62442600603187e+000,-1.27240726779621e+000

1.59999999999999e+005,-7.62445404389391e+000,-1.29008634061641e+000

1.62233516766403e+005,-7.62448266961934e+000,-1.30800908102520e+000

1.64498212264969e+005,-7.62451188979448e+000,-1.32617878387102e+000

1.66794521734578e+005,-7.62454171073737e+000,-1.34459878705797e+000

1.69122886489819e+005,-7.62457213847305e+000,-1.36327247210907e+000

1.71483754005805e+005,-7.62460317870691e+000,-1.38220326474493e+000

1.73877578004168e+005,-7.62463483679740e+000,-1.40139463546962e+000

1.76304818540256e+005,-7.62466711772751e+000,-1.42085010017032e+000

1.78765942091554e+005,-7.62470002607454e+000,-1.44057322072939e+000

1.81261421647326e+005,-7.62473356597958e+000,-1.46056760564557e+000

1.83791736799524e+005,-7.62476774111446e+000,-1.48083691067439e+000

1.86357373834951e+005,-7.62480255464858e+000,-1.50138483947522e+000

1.88958825828723e+005,-7.62483800921381e+000,-1.52221514427746e+000

1.91596592739027e+005,-7.62487410686834e+000,-1.54333162655885e+000

1.94271181503206e+005,-7.62491084905898e+000,-1.56473813773957e+000

1.96983106135185e+005,-7.62494823658238e+000,-1.58643857989297e+000

1.99732887824256e+005,-7.62498626954497e+000,-1.60843690646991e+000

2.02521055035243e+005,-7.62502494732126e+000,-1.63073712304380e+000

2.05348143610063e+005,-7.62506426851103e+000,-1.65334328807079e+000

2.08214696870707e+005,-7.62510423089540e+000,-1.67625951366718e+000

2.11121265723661e+005,-7.62514483139116e+000,-1.69948996640918e+000

2.14068408765776e+005,-7.62518606600417e+000,-1.72303886814860e+000

2.17056692391625e+005,-7.62522792978141e+000,-1.74691049685010e+000

2.20086690902357e+005,-7.62527041676152e+000,-1.77110918745063e+000

2.23158986616063e+005,-7.62531351992479e+000,-1.79563933273618e+000

2.26274169979693e+005,-7.62535723114115e+000,-1.82050538424620e+000

2.29432839682530e+005,-7.62540154111765e+000,-1.84571185319557e+000

2.32635602771247e+005,-7.62544643934450e+000,-1.87126331142403e+000

2.35883074766574e+005,-7.62549191404016e+000,-1.89716439236730e+000

2.39175879781588e+005,-7.62553795209567e+000,-1.92341979205348e+000

2.42514650641661e+005,-7.62558453901742e+000,-1.95003427012631e+000

2.45900029006080e+005,-7.62563165886985e+000,-1.97701265089226e+000

2.49332665491357e+005,-7.62567929421688e+000,-2.00435982439577e+000

2.52813219796278e+005,-7.62572742606252e+000,-2.03208074752152e+000

2.56342360828676e+005,-7.62577603379134e+000,-2.06018044512437e+000

2.59920766833993e+005,-7.62582509510774e+000,-2.08866401118861e+000

2.63549125525621e+005,-7.62587458597541e+000,-2.11753661001471e+000

2.67228134217075e+005,-7.62592448055603e+000,-2.14680347743683e+000

2.70958499956006e+005,-7.62597475114786e+000,-2.17646992206920e+000

2.74740939660078e+005,-7.62602536812398e+000,-2.20654132658502e+000

2.78576180254757e+005,-7.62607629987097e+000,-2.23702314902333e+000

2.82464958813007e+005,-7.62612751272721e+000,-2.26792092412868e+000

2.86408022696948e+005,-7.62617897092144e+000,-2.29924026472319e+000

2.90406129701488e+005,-7.62623063651205e+000,-2.33098686310715e+000

2.94460048199957e+005,-7.62628246932636e+000,-2.36316649249515e+000

2.98570557291775e+005,-7.62633442690061e+000,-2.39578500848209e+000

3.02738446952187e+005,-7.62638646442088e+000,-2.42884835054152e+000

3.06964518184081e+005,-7.62643853466462e+000,-2.46236254355702e+000

3.11249583171928e+005,-7.62649058794330e+000,-2.49633369938441e+000

3.15594465437872e+005,-7.62654257204605e+000,-2.53076801844709e+000

3.19999999999997e+005,-7.62659443218465e+000,-2.56567179136256e+000

3.24467033532806e+005,-7.62664611093975e+000,-2.60105140060153e+000

3.28996424529938e+005,-7.62669754820879e+000,-2.63691332217566e+000

3.33589043469155e+005,-7.62674868115545e+000,-2.67326412735953e+000

3.38245772979638e+005,-7.62679944416065e+000,-2.71011048444067e+000

3.42967508011610e+005,-7.62684976877563e+000,-2.74745916050047e+000

3.47755156008335e+005,-7.62689958367697e+000,-2.78531702322415e+000

3.52609637080511e+005,-7.62694881462336e+000,-2.82369104273896e+000

3.57531884183106e+005,-7.62699738441503e+000,-2.86258829348088e+000

3.62522843294651e+005,-7.62704521285476e+000,-2.90201595608841e+000

3.67583473599047e+005,-7.62709221671160e+000,-2.94198131932226e+000

3.72714747669902e+005,-7.62713830968684e+000,-2.98249178201025e+000

3.77917651657445e+005,-7.62718340238233e+000,-3.02355485501752e+000

3.83193185478053e+005,-7.62722740227091e+000,-3.06517816323942e+000

3.88542363006410e+005,-7.62727021367000e+000,-3.10736944761661e+000

3.93966212270369e+005,-7.62731173771677e+000,-3.15013656717223e+000

3.99465775648511e+005,-7.62735187234624e+000,-3.19348750106910e+000

4.05042110070485e+005,-7.62739051227157e+000,-3.23743035068608e+000

4.10696287220124e+005,-7.62742754896679e+000,-3.28197334171158e+000

4.16429393741414e+005,-7.62746287065168e+000,-3.32712482625536e+000

4.22242531447321e+005,-7.62749636227890e+000,-3.37289328497545e+000

4.28136817531551e+005,-7.62752790552319e+000,-3.41928732921957e+000

4.34113384783250e+005,-7.62755737877252e+000,-3.46631570318048e+000

4.40173381804713e+005,-7.62758465712123e+000,-3.51398728606382e+000

4.46317973232124e+005,-7.62760961236444e+000,-3.56231109426767e+000

4.52548339959385e+005,-7.62763211299459e+000,-3.61129628357196e+000

4.58865679365059e+005,-7.62765202419873e+000,-3.66095215133917e+000

4.65271205542494e+005,-7.62766920785720e+000,-3.71128813872214e+000

4.71766149533147e+005,-7.62768352254335e+000,-3.76231383288089e+000

4.78351759563174e+005,-7.62769482352360e+000,-3.81403896920681e+000

4.85029301283321e+005,-7.62770296275799e+000,-3.86647343355489e+000

4.91800058012158e+005,-7.62770778890125e+000,-3.91962726447935e+000

4.98665330982714e+005,-7.62770914730312e+000,-3.97351065547936e+000

5.05626439592555e+005,-7.62770688000899e+000,-4.02813395724646e+000

5.12684721657352e+005,-7.62770082575902e+000,-4.08350767992198e+000

5.19841533667984e+005,-7.62769081998690e+000,-4.13964249535636e+000

5.27098251051240e+005,-7.62767669481700e+000,-4.19654923937682e+000

5.34456268434150e+005,-7.62765827905986e+000,-4.25423891405973e+000

5.41916999912011e+005,-7.62763539820567e+000,-4.31272269001130e+000

