Freq.,VOut,OutRef

1.00000000000000e+004,-1.97277884081456e+001,-5.07978514548022e-002

1.01395947979003e+004,-1.97277892041497e+001,-5.15068646357030e-002

1.02811382665607e+004,-1.97277900225164e+001,-5.22257710944065e-002

1.04246576084112e+004,-1.97277908638730e+001,-5.29547087617501e-002

1.05701804056138e+004,-1.97277917288651e+001,-5.36938174818343e-002

1.07177346253629e+004,-1.97277926181564e+001,-5.44432390424786e-002

1.08673486252606e+004,-1.97277935324287e+001,-5.52031172073320e-002

1.10190511587661e+004,-1.97277944723834e+001,-5.59735977338992e-002

1.11728713807222e+004,-1.97277954387410e+001,-5.67548284094328e-002

1.13288388529580e+004,-1.97277964322426e+001,-5.75469590723548e-002

1.14869835499703e+004,-1.97277974536501e+001,-5.83501416433691e-002

1.16473358646846e+004,-1.97277985037462e+001,-5.91645301566918e-002

1.18099266142953e+004,-1.97277995833365e+001,-5.99902807795654e-002

1.19747870461893e+004,-1.97278006932481e+001,-6.08275518563682e-002

1.21419488439505e+004,-1.97278018343319e+001,-6.16765039262216e-002

1.23114441334492e+004,-1.97278030074625e+001,-6.25372997568418e-002

1.24833054890161e+004,-1.97278042135390e+001,-6.34101043777523e-002

1.26575659397028e+004,-1.97278054534855e+001,-6.42950851081767e-002

1.28342589756290e+004,-1.97278067282520e+001,-6.51924115915974e-002

1.30134185544193e+004,-1.97278080388154e+001,-6.61022558214844e-002

1.31950791077289e+004,-1.97278093861798e+001,-6.70247921801452e-002

1.33792755478611e+004,-1.97278107713769e+001,-6.79601974714618e-002

1.35660432744767e+004,-1.97278121954681e+001,-6.89086509462985e-002

1.37554181813974e+004,-1.97278136595439e+001,-6.98703343455172e-002

1.39474366635040e+004,-1.97278151647252e+001,-7.08454319286092e-002

1.41421356237309e+004,-1.97278167121647e+001,-7.18341305085758e-002

1.43395524801583e+004,-1.97278183030470e+001,-7.28366194884990e-002

1.45397251732031e+004,-1.97278199385904e+001,-7.38530908920716e-002

1.47426921729110e+004,-1.97278216200462e+001,-7.48837394106304e-002

1.49484924863494e+004,-1.97278233487014e+001,-7.59287624270059e-002

1.51571656651040e+004,-1.97278251258791e+001,-7.69883600562887e-002

1.53687518128801e+004,-1.97278269529390e+001,-7.80627351864527e-002

1.55832915932100e+004,-1.97278288312784e+001,-7.91520935162715e-002

1.58008262372675e+004,-1.97278307623347e+001,-8.02566435845097e-002

1.60213975517924e+004,-1.97278327475846e+001,-8.13765968192488e-002

1.62450479271247e+004,-1.97278347885462e+001,-8.25121675729201e-002

1.64718203453514e+004,-1.97278368867797e+001,-8.36635731620961e-002

1.67017583885674e+004,-1.97278390438897e+001,-8.48310339030458e-002

1.69349062472505e+004,-1.97278412615245e+001,-8.60147731637834e-002

1.71713087287550e+004,-1.97278435413793e+001,-8.72150173922693e-002

1.74110112659224e+004,-1.97278458851959e+001,-8.84319961670664e-002

1.76540599258131e+004,-1.97278482947649e+001,-8.96659422377559e-002

1.79005014185594e+004,-1.97278507719268e+001,-9.09170915649299e-002

1.81503831063432e+004,-1.97278533185736e+001,-9.21856833646754e-002

1.84037530124975e+004,-1.97278559366496e+001,-9.34719601546945e-002

1.86606598307361e+004,-1.97278586281535e+001,-9.47761677965874e-002

1.89211529345119e+004,-1.97278613951397e+001,-9.60985555410192e-002

1.91852823865052e+004,-1.97278642397198e+001,-9.74393760722066e-002

1.94530989482457e+004,-1.97278671640636e+001,-9.87988855600235e-002

1.97246540898671e+004,-1.97278701704023e+001,-1.00177343695020e-001

1.99999999999999e+004,-1.97278732610281e+001,-1.01575013748146e-001

2.02791895958005e+004,-1.97278764382978e+001,-1.02992162609529e-001

2.05622765331213e+004,-1.97278797046330e+001,-1.04429060842117e-001

2.08493152168224e+004,-1.97278830625232e+001,-1.05885982727467e-001

2.11403608112276e+004,-1.97278865145263e+001,-1.07363206318294e-001

2.14354692507258e+004,-1.97278900632723e+001,-1.08861013482831e-001

2.17346972505211e+004,-1.97278937114631e+001,-1.10379689964552e-001

2.20381023175322e+004,-1.97278974618765e+001,-1.11919525423762e-001

2.23457427614443e+004,-1.97279013173663e+001,-1.13480813498748e-001

2.26576777059159e+004,-1.97279052808666e+001,-1.15063851849099e-001

2.29739670999406e+004,-1.97279093553917e+001,-1.16668942218038e-001

2.32946717293690e+004,-1.97279135440406e+001,-1.18296390476625e-001

2.36198532285905e+004,-1.97279178499970e+001,-1.19946506686903e-001

2.39495740923785e+004,-1.97279222765332e+001,-1.21619605153047e-001

2.42838976879009e+004,-1.97279268270125e+001,-1.23316004473003e-001

2.46228882668982e+004,-1.97279315048904e+001,-1.25036027602454e-001

2.49666109780322e+004,-1.97279363137183e+001,-1.26780001907589e-001

2.53151318794055e+004,-1.97279412571458e+001,-1.28548259222461e-001

2.56685179512580e+004,-1.97279463389231e+001,-1.30341135906325e-001

2.60268371088386e+004,-1.97279515629042e+001,-1.32158972904474e-001

2.63901582154578e+004,-1.97279569330492e+001,-1.34002115807207e-001

2.67585510957221e+004,-1.97279624534273e+001,-1.35870914909355e-001

2.71320865489533e+004,-1.97279681282199e+001,-1.37765725271257e-001

2.75108363627948e+004,-1.97279739617241e+001,-1.39686906777847e-001

2.78948733270080e+004,-1.97279799583543e+001,-1.41634824205928e-001

2.82842712474618e+004,-1.97279861226471e+001,-1.43609847281839e-001

2.86791049603164e+004,-1.97279924592636e+001,-1.45612350744936e-001

2.90794503464061e+004,-1.97279989729929e+001,-1.47642714414926e-001

2.94853843458219e+004,-1.97280056687557e+001,-1.49701323253281e-001

2.98969849726987e+004,-1.97280125516076e+001,-1.51788567430555e-001

3.03143313302078e+004,-1.97280196267430e+001,-1.53904842388751e-001

3.07375036257601e+004,-1.97280268994983e+001,-1.56050548912626e-001

3.11665831864199e+004,-1.97280343753565e+001,-1.58226093191756e-001

3.16016524745350e+004,-1.97280420599501e+001,-1.60431886893566e-001

3.20427951035848e+004,-1.97280499590659e+001,-1.62668347225911e-001

3.24900958542493e+004,-1.97280580786488e+001,-1.64935897009547e-001

3.29436406907028e+004,-1.97280664248057e+001,-1.67234964747303e-001

3.34035167771346e+004,-1.97280750038103e+001,-1.69565984694319e-001

3.38698124945009e+004,-1.97280838221070e+001,-1.71929396927671e-001

3.43426174575100e+004,-1.97280928863158e+001,-1.74325647418409e-001

3.48220225318448e+004,-1.97281022032367e+001,-1.76755188103659e-001

3.53081198516260e+004,-1.97281117798545e+001,-1.79218476959060e-001

3.58010028371187e+004,-1.97281216233436e+001,-1.81715978072173e-001

3.63007662126863e+004,-1.97281317410728e+001,-1.84248161715527e-001

3.68075060249948e+004,-1.97281421406107e+001,-1.86815504421794e-001

3.73213196614721e+004,-1.97281528297305e+001,-1.89418489056973e-001

3.78423058690237e+004,-1.97281638164157e+001,-1.92057604898353e-001

3.83705647730104e+004,-1.97281751088655e+001,-1.94733347706378e-001

3.89061978964912e+004,-1.97281867154996e+001,-1.97446219806919e-001

3.94493081797342e+004,-1.97281986449652e+001,-2.00196730160812e-001

3.99999999999998e+004,-1.97282109061418e+001,-2.02985394447340e-001

4.05583791916010e+004,-1.97282235081475e+001,-2.05812735140383e-001

4.11245530662425e+004,-1.97282364603449e+001,-2.08679281584663e-001

4.16986304336447e+004,-1.97282497723478e+001,-2.11585570076227e-001

4.22807216224550e+004,-1.97282634540270e+001,-2.14532143942444e-001

4.28709385014515e+004,-1.97282775155173e+001,-2.17519553617529e-001

4.34693945010421e+004,-1.97282919672238e+001,-2.20548356727696e-001

4.40762046350642e+004,-1.97283068198287e+001,-2.23619118167729e-001

4.46914855228886e+004,-1.97283220842986e+001,-2.26732410182956e-001

4.53153554118317e+004,-1.97283377718909e+001,-2.29888812450861e-001

4.59479341998812e+004,-1.97283538941619e+001,-2.33088912159506e-001

4.65893434587380e+004,-1.97283704629735e+001,-2.36333304091860e-001

4.72397064571810e+004,-1.97283874905013e+001,-2.39622590704751e-001

4.78991481847569e+004,-1.97284049892416e+001,-2.42957382213526e-001

4.85677953758016e+004,-1.97284229720199e+001,-2.46338296671377e-001

4.92457765337964e+004,-1.97284414519986e+001,-2.49765960053799e-001

4.99332219560642e+004,-1.97284604426851e+001,-2.53241006338430e-001

5.06302637588109e+004,-1.97284799579404e+001,-2.56764077588154e-001

5.13370359025159e+004,-1.97285000119874e+001,-2.60335824034028e-001

5.20536742176771e+004,-1.97285206194196e+001,-2.63956904156432e-001

5.27803164309155e+004,-1.97285417952098e+001,-2.67627984767213e-001

5.35171021914442e+004,-1.97285635547189e+001,-2.71349741094678e-001

5.42641730979066e+004,-1.97285859137058e+001,-2.75122856858324e-001

5.50216727255895e+004,-1.97286088883356e+001,-2.78948024359298e-001

5.57897466540159e+004,-1.97286324951899e+001,-2.82825944554520e-001

5.65685424949235e+004,-1.97286567512760e+001,-2.86757327141394e-001

5.73582099206328e+004,-1.97286816740363e+001,-2.90742890639715e-001

5.81589006928121e+004,-1.97287072813595e+001,-2.94783362466524e-001

5.89707686916437e+004,-1.97287335915891e+001,-2.98879479022498e-001

5.97939699453972e+004,-1.97287606235345e+001,-3.03031985765975e-001

6.06286626604156e+004,-1.97287883964810e+001,-3.07241637296158e-001

6.14750072515201e+004,-1.97288169302006e+001,-3.11509197427875e-001

6.23331663728396e+004,-1.97288462449627e+001,-3.15835439269376e-001

6.32033049490698e+004,-1.97288763615446e+001,-3.20221145299109e-001

6.40855902071694e+004,-1.97289073012423e+001,-3.24667107444113e-001

6.49801917084985e+004,-1.97289390858821e+001,-3.29174127149822e-001

6.58872813814055e+004,-1.97289717378312e+001,-3.33743015458840e-001

6.68070335542691e+004,-1.97290052800096e+001,-3.38374593078644e-001

6.77396249890018e+004,-1.97290397359007e+001,-3.43069690459124e-001

6.86852349150199e+004,-1.97290751295636e+001,-3.47829147856884e-001

6.96440450636895e+004,-1.97291114856442e+001,-3.52653815409306e-001

7.06162397032520e+004,-1.97291488293873e+001,-3.57544553197608e-001

7.16020056742374e+004,-1.97291871866480e+001,-3.62502231316851e-001

7.26015324253724e+004,-1.97292265839035e+001,-3.67527729939733e-001

7.36150120499896e+004,-1.97292670482656e+001,-3.72621939377305e-001

7.46426393229441e+004,-1.97293086074921e+001,-3.77785760141819e-001

7.56846117380472e+004,-1.97293512899985e+001,-3.83020103008977e-001

7.67411295460207e+004,-1.97293951248710e+001,-3.88325889069048e-001

7.78123957929823e+004,-1.97294401418778e+001,-3.93704049787239e-001

7.88986163594682e+004,-1.97294863714811e+001,-3.99155527056781e-001

7.99999999999995e+004,-1.97295338448491e+001,-4.04681273248143e-001

8.11167583832018e+004,-1.97295825938684e+001,-4.10282251258064e-001

8.22491061324848e+004,-1.97296326511551e+001,-4.15959434558259e-001

8.33972608672892e+004,-1.97296840500672e+001,-4.21713807237534e-001

8.45614432449099e+004,-1.97297368247159e+001,-4.27546364043905e-001

8.57418770029029e+004,-1.97297910099775e+001,-4.33458110422310e-001

8.69387890020841e+004,-1.97298466415043e+001,-4.39450062551846e-001

8.81524092701283e+004,-1.97299037557363e+001,-4.45523247379492e-001

8.93829710457770e+004,-1.97299623899120e+001,-4.51678702647030e-001

9.06307108236633e+004,-1.97300225820791e+001,-4.57917476922063e-001

9.18958683997622e+004,-1.97300843711050e+001,-4.64240629619871e-001

9.31786869174758e+004,-1.97301477966873e+001,-4.70649231024684e-001

9.44794129143618e+004,-1.97302128993634e+001,-4.77144362306249e-001

9.57982963695136e+004,-1.97302797205199e+001,-4.83727115535542e-001

9.71355907516031e+004,-1.97303483024023e+001,-4.90398593693081e-001

9.84915530675926e+004,-1.97304186881229e+001,-4.97159910679307e-001

9.98664439121282e+004,-1.97304909216695e+001,-5.04012191315120e-001

1.01260527517622e+005,-1.97305650479128e+001,-5.10956571342451e-001

1.02674071805032e+005,-1.97306411126138e+001,-5.17994197419902e-001

1.04107348435354e+005,-1.97307191624298e+001,-5.25126227118853e-001

1.05560632861831e+005,-1.97307992449207e+001,-5.32353828904957e-001

1.07034204382888e+005,-1.97308814085533e+001,-5.39678182130937e-001

1.08528346195813e+005,-1.97309657027068e+001,-5.47100477011040e-001

1.10043345451179e+005,-1.97310521776750e+001,-5.54621914601905e-001

1.11579493308032e+005,-1.97311408846696e+001,-5.62243706775055e-001

1.13137084989847e+005,-1.97312318758216e+001,-5.69967076186151e-001

1.14716419841265e+005,-1.97313252041822e+001,-5.77793256240163e-001

1.16317801385624e+005,-1.97314209237215e+001,-5.85723491055430e-001

1.17941537383287e+005,-1.97315190893280e+001,-5.93759035420988e-001

1.19587939890794e+005,-1.97316197568052e+001,-6.01901154749091e-001

1.21257325320831e+005,-1.97317229828671e+001,-6.10151125033098e-001

1.22950014503040e+005,-1.97318288251335e+001,-6.18510232788196e-001

1.24666332745679e+005,-1.97319373421225e+001,-6.26979775001351e-001

1.26406609898139e+005,-1.97320485932425e+001,-6.35561059071352e-001

1.28171180414339e+005,-1.97321626387816e+001,-6.44255402750327e-001

1.29960383416997e+005,-1.97322795398966e+001,-6.53064134076255e-001

1.31774562762811e+005,-1.97323993585989e+001,-6.61988591311618e-001

1.33614067108538e+005,-1.97325221577396e+001,-6.71030122873820e-001

1.35479249978003e+005,-1.97326480009922e+001,-6.80190087265640e-001

1.37370469830040e+005,-1.97327769528328e+001,-6.89469853006146e-001

1.39288090127379e+005,-1.97329090785197e+001,-6.98870798556899e-001

1.41232479406504e+005,-1.97330444440689e+001,-7.08394312251929e-001

1.43204011348474e+005,-1.97331831162286e+001,-7.18041792224935e-001

1.45203064850745e+005,-1.97333251624510e+001,-7.27814646337552e-001

1.47230024099979e+005,-1.97334706508616e+001,-7.37714292106531e-001

1.49285278645888e+005,-1.97336196502251e+001,-7.47742156639910e-001

1.51369223476094e+005,-1.97337722299107e+001,-7.57899676563126e-001

1.53482259092041e+005,-1.97339284598522e+001,-7.68188297961695e-001

1.55624791585964e+005,-1.97340884105071e+001,-7.78609476315982e-001

1.57797232718936e+005,-1.97342521528115e+001,-7.89164676447549e-001

1.59999999999999e+005,-1.97344197581333e+001,-7.99855372467505e-001

1.62233516766403e+005,-1.97345912982208e+001,-8.10683047732643e-001

1.64498212264969e+005,-1.97347668451489e+001,-8.21649194808598e-001

1.66794521734578e+005,-1.97349464712625e+001,-8.32755315438714e-001

1.69122886489819e+005,-1.97351302491155e+001,-8.44002920524900e-001

1.71483754005805e+005,-1.97353182514069e+001,-8.55393530118748e-001

1.73877578004168e+005,-1.97355105509138e+001,-8.66928673421349e-001

1.76304818540256e+005,-1.97357072204201e+001,-8.78609888798335e-001

1.78765942091554e+005,-1.97359083326420e+001,-8.90438723809803e-001

1.81261421647326e+005,-1.97361139601502e+001,-9.02416735249731e-001

1.83791736799524e+005,-1.97363241752873e+001,-9.14545489211816e-001

1.86357373834951e+005,-1.97365390500831e+001,-9.26826561163650e-001

1.88958825828723e+005,-1.97367586561647e+001,-9.39261536047026e-001

1.91596592739027e+005,-1.97369830646637e+001,-9.51852008398590e-001

1.94271181503206e+005,-1.97372123461192e+001,-9.64599582490190e-001

1.96983106135185e+005,-1.97374465703778e+001,-9.77505872497911e-001

1.99732887824256e+005,-1.97376858064891e+001,-9.90572502694818e-001

2.02521055035243e+005,-1.97379301225973e+001,-1.00380110767419e+000

2.05348143610063e+005,-1.97381795858310e+001,-1.01719333260006e+000

2.08214696870707e+005,-1.97384342621869e+001,-1.03075083349172e+000

2.11121265723661e+005,-1.97386942164125e+001,-1.04447527754034e+000

2.14068408765776e+005,-1.97389595118833e+001,-1.05836834346368e+000

2.17056692391625e+005,-1.97392302104786e+001,-1.07243172189494e+000

2.20086690902357e+005,-1.97395063724530e+001,-1.08666711581455e+000

2.23158986616063e+005,-1.97397880563055e+001,-1.10107624102062e+000

2.26274169979693e+005,-1.97400753186458e+001,-1.11566082664590e+000

2.29432839682530e+005,-1.97403682140580e+001,-1.13042261571595e+000

2.32635602771247e+005,-1.97406667949620e+001,-1.14536336575987e+000

2.35883074766574e+005,-1.97409711114729e+001,-1.16048484946612e+000

2.39175879781588e+005,-1.97412812112582e+001,-1.17578885539058e+000

2.42514650641661e+005,-1.97415971393945e+001,-1.19127718871881e+000

2.45900029006080e+005,-1.97419189382215e+001,-1.20695167208234e+000

2.49332665491357e+005,-1.97422466471967e+001,-1.22281414643040e+000

2.52813219796278e+005,-1.97425803027483e+001,-1.23886647196112e+000

2.56342360828676e+005,-1.97429199381287e+001,-1.25511052911146e+000

2.59920766833993e+005,-1.97432655832683e+001,-1.27154821960925e+000

2.63549125525621e+005,-1.97436172646295e+001,-1.28818146758448e+000

2.67228134217075e+005,-1.97439750050623e+001,-1.30501222074956e+000

2.70958499956006e+005,-1.97443388236616e+001,-1.32204245163774e+000

2.74740939660078e+005,-1.97447087356261e+001,-1.33927415891208e+000

2.78576180254757e+005,-1.97450847521204e+001,-1.35670936873675e+000

2.82464958813007e+005,-1.97454668801400e+001,-1.37435013621595e+000

2.86408022696948e+005,-1.97458551223798e+001,-1.39219854690244e+000

2.90406129701488e+005,-1.97462494771076e+001,-1.41025671836741e+000

2.94460048199957e+005,-1.97466499380412e+001,-1.42852680184191e+000

2.98570557291775e+005,-1.97470564942323e+001,-1.44701098392350e+000

3.02738446952187e+005,-1.97474691299554e+001,-1.46571148834608e+000

3.06964518184081e+005,-1.97478878246037e+001,-1.48463057781655e+000

3.11249583171928e+005,-1.97483125525922e+001,-1.50377055591772e+000

3.15594465437872e+005,-1.97487432832686e+001,-1.52313376906803e+000

3.19999999999997e+005,-1.97491799808324e+001,-1.54272260854528e+000

3.24467033532806e+005,-1.97496226042632e+001,-1.56253951256931e+000

3.28996424529938e+005,-1.97500711072586e+001,-1.58258696843918e+000

3.33589043469155e+005,-1.97505254381822e+001,-1.60286751472407e+000

3.38245772979638e+005,-1.97509855400220e+001,-1.62338374350635e+000

3.42967508011610e+005,-1.97514513503603e+001,-1.64413830267286e+000

3.47755156008335e+005,-1.97519228013559e+001,-1.66513389824698e+000

3.52609637080511e+005,-1.97523998197371e+001,-1.68637329676495e+000

3.57531884183106e+005,-1.97528823268087e+001,-1.70785932768762e+000

3.62522843294651e+005,-1.97533702384718e+001,-1.72959488584303e+000

3.67583473599047e+005,-1.97538634652565e+001,-1.75158293389883e+000

3.72714747669902e+005,-1.97543619123689e+001,-1.77382650485601e+000

3.77917651657445e+005,-1.97548654797525e+001,-1.79632870456264e+000

3.83193185478053e+005,-1.97553740621632e+001,-1.81909271423923e+000

3.88542363006410e+005,-1.97558875492593e+001,-1.84212179301202e+000

3.93966212270369e+005,-1.97564058257067e+001,-1.86541928044727e+000

3.99465775648511e+005,-1.97569287712974e+001,-1.88898859908638e+000

4.05042110070485e+005,-1.97574562610848e+001,-1.91283325696544e+000

4.10696287220124e+005,-1.97579881655318e+001,-1.93695685012657e+000

4.16429393741414e+005,-1.97585243506756e+001,-1.96136306510274e+000

4.22242531447321e+005,-1.97590646783050e+001,-1.98605568138081e+000

4.28136817531551e+005,-1.97596090061534e+001,-2.01103857382931e+000

4.34113384783250e+005,-1.97601571881055e+001,-2.03631571508924e+000

4.40173381804713e+005,-1.97607090744177e+001,-2.06189117792045e+000

4.46317973232124e+005,-1.97612645119511e+001,-2.08776913750108e+000

4.52548339959385e+005,-1.97618233444184e+001,-2.11395387366911e+000

4.58865679365059e+005,-1.97623854126424e+001,-2.14044977310723e+000

4.65271205542494e+005,-1.97629505548259e+001,-2.16726133146058e+000

4.71766149533147e+005,-1.97635186068331e+001,-2.19439315538715e+000

4.78351759563174e+005,-1.97640894024817e+001,-2.22184996453246e+000

4.85029301283321e+005,-1.97646627738426e+001,-2.24963659342900e+000

4.91800058012158e+005,-1.97652385515513e+001,-2.27775799331086e+000

4.98665330982714e+005,-1.97658165651241e+001,-2.30621923384682e+000

5.05626439592555e+005,-1.97663966432836e+001,-2.33502550478265e+000

5.12684721657352e+005,-1.97669786142891e+001,-2.36418211749466e+000

5.19841533667984e+005,-1.97675623062722e+001,-2.39369450645102e+000

5.27098251051240e+005,-1.97681475475769e+001,-2.42356823057772e+000

5.34456268434150e+005,-1.97687341671027e+001,-2.45380897452934e+000

5.41916999912011e+005,-1.97693219946494e+001,-2.48442254986562e+000

