Freq.,VOut,OutRef

1.00000000000000e+004,-2.22361654370415e+001,-3.00126422168248e-001

1.01395947979003e+004,-2.22361673944510e+001,-3.04315897513982e-001

1.02811382665607e+004,-2.22361694068707e+001,-3.08563850094354e-001

1.04246576084112e+004,-2.22361714758456e+001,-3.12871095981690e-001

1.05701804056138e+004,-2.22361736029649e+001,-3.17238462627835e-001

1.07177346253629e+004,-2.22361757898617e+001,-3.21666789027812e-001

1.08673486252606e+004,-2.22361780382152e+001,-3.26156925875381e-001

1.10190511587661e+004,-2.22361803497518e+001,-3.30709735728400e-001

1.11728713807222e+004,-2.22361827262463e+001,-3.35326093174397e-001

1.13288388529580e+004,-2.22361851695233e+001,-3.40006884995846e-001

1.14869835499703e+004,-2.22361876814586e+001,-3.44753010341854e-001

1.16473358646846e+004,-2.22361902639807e+001,-3.49565380899443e-001

1.18099266142953e+004,-2.22361929190721e+001,-3.54444921068564e-001

1.19747870461893e+004,-2.22361956487710e+001,-3.59392568138313e-001

1.21419488439505e+004,-2.22361984551729e+001,-3.64409272465639e-001

1.23114441334492e+004,-2.22362013404318e+001,-3.69495997658937e-001

1.24833054890161e+004,-2.22362043067623e+001,-3.74653720760914e-001

1.26575659397028e+004,-2.22362073564413e+001,-3.79883432435445e-001

1.28342589756290e+004,-2.22362104918093e+001,-3.85186137157901e-001

1.30134185544193e+004,-2.22362137152725e+001,-3.90562853406238e-001

1.31950791077289e+004,-2.22362170293046e+001,-3.96014613856964e-001

1.33792755478611e+004,-2.22362204364489e+001,-4.01542465579528e-001

1.35660432744767e+004,-2.22362239393196e+001,-4.07147470241688e-001

1.37554181813974e+004,-2.22362275406047e+001,-4.12830704304919e-001

1.39474366635040e+004,-2.22362312430671e+001,-4.18593259237940e-001

1.41421356237309e+004,-2.22362350495474e+001,-4.24436241720034e-001

1.43395524801583e+004,-2.22362389629660e+001,-4.30360773852650e-001

1.45397251732031e+004,-2.22362429863247e+001,-4.36367993377251e-001

1.47426921729110e+004,-2.22362471227100e+001,-4.42459053887152e-001

1.49484924863494e+004,-2.22362513752944e+001,-4.48635125053170e-001

1.51571656651040e+004,-2.22362557473397e+001,-4.54897392842737e-001

1.53687518128801e+004,-2.22362602421990e+001,-4.61247059746955e-001

1.55832915932100e+004,-2.22362648633192e+001,-4.67685345012229e-001

1.58008262372675e+004,-2.22362696142438e+001,-4.74213484870476e-001

1.60213975517924e+004,-2.22362744986160e+001,-4.80832732773952e-001

1.62450479271247e+004,-2.22362795201806e+001,-4.87544359637755e-001

1.64718203453514e+004,-2.22362846827872e+001,-4.94349654079607e-001

1.67017583885674e+004,-2.22362899903937e+001,-5.01249922664582e-001

1.69349062472505e+004,-2.22362954470686e+001,-5.08246490154618e-001

1.71713087287550e+004,-2.22363010569941e+001,-5.15340699763908e-001

1.74110112659224e+004,-2.22363068244699e+001,-5.22533913408671e-001

1.76540599258131e+004,-2.22363127539158e+001,-5.29827511971989e-001

1.79005014185594e+004,-2.22363188498754e+001,-5.37222895562879e-001

1.81503831063432e+004,-2.22363251170194e+001,-5.44721483784837e-001

1.84037530124975e+004,-2.22363315601495e+001,-5.52324716002892e-001

1.86606598307361e+004,-2.22363381842012e+001,-5.60034051621758e-001

1.89211529345119e+004,-2.22363449942488e+001,-5.67850970358803e-001

1.91852823865052e+004,-2.22363519955078e+001,-5.75776972528032e-001

1.94530989482457e+004,-2.22363591933402e+001,-5.83813579323401e-001

1.97246540898671e+004,-2.22363665932577e+001,-5.91962333108195e-001

1.99999999999999e+004,-2.22363742009259e+001,-6.00224797708578e-001

2.02791895958005e+004,-2.22363820221692e+001,-6.08602558709289e-001

2.05622765331213e+004,-2.22363900629746e+001,-6.17097223753953e-001

2.08493152168224e+004,-2.22363983294964e+001,-6.25710422851117e-001

2.11403608112276e+004,-2.22364068280610e+001,-6.34443808683090e-001

2.14354692507258e+004,-2.22364155651715e+001,-6.43299056917808e-001

2.17346972505211e+004,-2.22364245475125e+001,-6.52277866528156e-001

2.20381023175322e+004,-2.22364337819557e+001,-6.61381960110239e-001

2.23457427614443e+004,-2.22364432755641e+001,-6.70613084214468e-001

2.26576777059159e+004,-2.22364530355986e+001,-6.79973009670778e-001

2.29739670999406e+004,-2.22364630695221e+001,-6.89463531926044e-001

2.32946717293690e+004,-2.22364733850062e+001,-6.99086471383336e-001

2.36198532285905e+004,-2.22364839899366e+001,-7.08843673744764e-001

2.39495740923785e+004,-2.22364948924185e+001,-7.18737010361895e-001

2.42838976879009e+004,-2.22365061007837e+001,-7.28768378585456e-001

2.46228882668982e+004,-2.22365176235961e+001,-7.38939702126980e-001

2.49666109780322e+004,-2.22365294696581e+001,-7.49252931418727e-001

2.53151318794055e+004,-2.22365416480179e+001,-7.59710043982585e-001

2.56685179512580e+004,-2.22365541679757e+001,-7.70313044800929e-001

2.60268371088386e+004,-2.22365670390903e+001,-7.81063966696705e-001

2.63901582154578e+004,-2.22365802711873e+001,-7.91964870713077e-001

2.67585510957221e+004,-2.22365938743657e+001,-8.03017846501607e-001

2.71320865489533e+004,-2.22366078590055e+001,-8.14225012715093e-001

2.75108363627948e+004,-2.22366222357757e+001,-8.25588517405601e-001

2.78948733270080e+004,-2.22366370156418e+001,-8.37110538427347e-001

2.82842712474618e+004,-2.22366522098746e+001,-8.48793283844494e-001

2.86791049603164e+004,-2.22366678300583e+001,-8.60638992344566e-001

2.90794503464061e+004,-2.22366838880986e+001,-8.72649933659685e-001

2.94853843458219e+004,-2.22367003962325e+001,-8.84828408988634e-001

2.98969849726987e+004,-2.22367173670367e+001,-8.97176751428819e-001

3.03143313302078e+004,-2.22367348134370e+001,-9.09697326411231e-001

3.07375036257601e+004,-2.22367527487182e+001,-9.22392532142576e-001

3.11665831864199e+004,-2.22367711865337e+001,-9.35264800052312e-001

3.16016524745350e+004,-2.22367901409153e+001,-9.48316595246464e-001

3.20427951035848e+004,-2.22368096262841e+001,-9.61550416965199e-001

3.24900958542493e+004,-2.22368296574609e+001,-9.74968799049622e-001

3.29436406907028e+004,-2.22368502496770e+001,-9.88574310411032e-001

3.34035167771346e+004,-2.22368714185857e+001,-1.00236955550907e+000

3.38698124945009e+004,-2.22368931802732e+001,-1.01635717483584e+000

3.43426174575100e+004,-2.22369155512712e+001,-1.03053984540293e+000

3.48220225318448e+004,-2.22369385485684e+001,-1.04492028124001e+000

3.53081198516260e+004,-2.22369621896232e+001,-1.05950123389351e+000

3.58010028371187e+004,-2.22369864923763e+001,-1.07428549293958e+000

3.63007662126863e+004,-2.22370114752642e+001,-1.08927588649439e+000

3.68075060249948e+004,-2.22370371572318e+001,-1.10447528173922e+000

3.73213196614721e+004,-2.22370635577472e+001,-1.11988658544705e+000

3.78423058690237e+004,-2.22370906968149e+001,-1.13551274451752e+000

3.83705647730104e+004,-2.22371185949911e+001,-1.15135674651803e+000

3.89061978964912e+004,-2.22371472733981e+001,-1.16742162023366e+000

3.94493081797342e+004,-2.22371767537395e+001,-1.18371043622059e+000

3.99999999999998e+004,-2.22372070583161e+001,-1.20022630736992e+000

4.05583791916010e+004,-2.22372382100422e+001,-1.21697238947509e+000

4.11245530662425e+004,-2.22372702324615e+001,-1.23395188180962e+000

4.16986304336447e+004,-2.22373031497641e+001,-1.25116802771006e+000

4.22807216224550e+004,-2.22373369868044e+001,-1.26862411516679e+000

4.28709385014515e+004,-2.22373717691179e+001,-1.28632347742093e+000

4.34693945010421e+004,-2.22374075229405e+001,-1.30426949357059e+000

4.40762046350642e+004,-2.22374442752263e+001,-1.32246558918306e+000

4.46914855228886e+004,-2.22374820536669e+001,-1.34091523691533e+000

4.53153554118317e+004,-2.22375208867116e+001,-1.35962195714052e+000

4.59479341998812e+004,-2.22375608035866e+001,-1.37858931858398e+000

4.65893434587380e+004,-2.22376018343165e+001,-1.39782093896538e+000

4.72397064571810e+004,-2.22376440097445e+001,-1.41732048565118e+000

4.78991481847569e+004,-2.22376873615551e+001,-1.43709167630934e+000

4.85677953758016e+004,-2.22377319222953e+001,-1.45713827957864e+000

4.92457765337964e+004,-2.22377777253979e+001,-1.47746411574086e+000

4.99332219560642e+004,-2.22378248052045e+001,-1.49807305740367e+000

5.06302637588109e+004,-2.22378731969894e+001,-1.51896903018920e+000

5.13370359025159e+004,-2.22379229369842e+001,-1.54015601343378e+000

5.20536742176771e+004,-2.22379740624024e+001,-1.56163804089293e+000

5.27803164309155e+004,-2.22380266114655e+001,-1.58341920145493e+000

5.35171021914442e+004,-2.22380806234287e+001,-1.60550363986510e+000

5.42641730979066e+004,-2.22381361386080e+001,-1.62789555745509e+000

5.50216727255895e+004,-2.22381931984079e+001,-1.65059921288176e+000

5.57897466540159e+004,-2.22382518453487e+001,-1.67361892287632e+000

5.65685424949235e+004,-2.22383121230965e+001,-1.69695906299787e+000

5.73582099206328e+004,-2.22383740764913e+001,-1.72062406839939e+000

5.81589006928121e+004,-2.22384377515781e+001,-1.74461843459969e+000

5.89707686916437e+004,-2.22385031956374e+001,-1.76894671826509e+000

5.97939699453972e+004,-2.22385704572164e+001,-1.79361353799992e+000

6.06286626604156e+004,-2.22386395861615e+001,-1.81862357514380e+000

6.14750072515201e+004,-2.22387106336514e+001,-1.84398157458049e+000

6.23331663728396e+004,-2.22387836522305e+001,-1.86969234555226e+000

6.32033049490698e+004,-2.22388586958434e+001,-1.89576076248674e+000

6.40855902071694e+004,-2.22389358198699e+001,-1.92219176582901e+000

6.49801917084985e+004,-2.22390150811615e+001,-1.94899036288387e+000

6.58872813814055e+004,-2.22390965380774e+001,-1.97616162866865e+000

6.68070335542691e+004,-2.22391802505226e+001,-2.00371070677244e+000

6.77396249890018e+004,-2.22392662799859e+001,-2.03164281022488e+000

6.86852349150199e+004,-2.22393546895790e+001,-2.05996322237553e+000

6.96440450636895e+004,-2.22394455440767e+001,-2.08867729777984e+000

7.06162397032520e+004,-2.22395389099573e+001,-2.11779046309597e+000

7.16020056742374e+004,-2.22396348554445e+001,-2.14730821798982e+000

7.26015324253724e+004,-2.22397334505496e+001,-2.17723613604963e+000

7.36150120499896e+004,-2.22398347671151e+001,-2.20757986570855e+000

7.46426393229441e+004,-2.22399388788585e+001,-2.23834513117861e+000

7.56846117380472e+004,-2.22400458614174e+001,-2.26953773339066e+000

7.67411295460207e+004,-2.22401557923955e+001,-2.30116355094657e+000

7.78123957929823e+004,-2.22402687514093e+001,-2.33322854107879e+000

7.88986163594682e+004,-2.22403848201356e+001,-2.36573874061952e+000

7.99999999999995e+004,-2.22405040823603e+001,-2.39870026697926e+000

8.11167583832018e+004,-2.22406266240274e+001,-2.43211931913489e+000

8.22491061324848e+004,-2.22407525332897e+001,-2.46600217862601e+000

8.33972608672892e+004,-2.22408819005597e+001,-2.50035521056209e+000

8.45614432449099e+004,-2.22410148185619e+001,-2.53518486463768e+000

8.57418770029029e+004,-2.22411513823855e+001,-2.57049767615698e+000

8.69387890020841e+004,-2.22412916895386e+001,-2.60630026706922e+000

8.81524092701283e+004,-2.22414358400027e+001,-2.64259934701137e+000

8.93829710457770e+004,-2.22415839362883e+001,-2.67940171436223e+000

9.06307108236633e+004,-2.22417360834918e+001,-2.71671425730433e+000

9.18958683997622e+004,-2.22418923893525e+001,-2.75454395489656e+000

9.31786869174758e+004,-2.22420529643110e+001,-2.79289787815585e+000

9.44794129143618e+004,-2.22422179215685e+001,-2.83178319114750e+000

9.57982963695136e+004,-2.22423873771468e+001,-2.87120715208726e+000

9.71355907516031e+004,-2.22425614499487e+001,-2.91117711445170e+000

9.84915530675926e+004,-2.22427402618203e+001,-2.95170052809723e+000

9.98664439121282e+004,-2.22429239376130e+001,-2.99278494039176e+000

1.01260527517622e+005,-2.22431126052471e+001,-3.03443799735333e+000

1.02674071805032e+005,-2.22433063957759e+001,-3.07666744480083e+000

1.04107348435354e+005,-2.22435054434504e+001,-3.11948112951360e+000

1.05560632861831e+005,-2.22437098857850e+001,-3.16288700040109e+000

1.07034204382888e+005,-2.22439198636239e+001,-3.20689310968400e+000

1.08528346195813e+005,-2.22441355212081e+001,-3.25150761408422e+000

1.10043345451179e+005,-2.22443570062434e+001,-3.29673877602595e+000

1.11579493308032e+005,-2.22445844699686e+001,-3.34259496484790e+000

1.13137084989847e+005,-2.22448180672245e+001,-3.38908465802586e+000

1.14716419841265e+005,-2.22450579565237e+001,-3.43621644240631e+000

1.16317801385624e+005,-2.22453043001209e+001,-3.48399901545113e+000

1.17941537383287e+005,-2.22455572640840e+001,-3.53244118649342e+000

1.19587939890794e+005,-2.22458170183646e+001,-3.58155187800683e+000

1.21257325320831e+005,-2.22460837368706e+001,-3.63134012688402e+000

1.22950014503040e+005,-2.22463575975382e+001,-3.68181508572899e+000

1.24666332745679e+005,-2.22466387824043e+001,-3.73298602416235e+000

1.26406609898139e+005,-2.22469274776802e+001,-3.78486233013784e+000

1.28171180414339e+005,-2.22472238738244e+001,-3.83745351127346e+000

1.29960383416997e+005,-2.22475281656164e+001,-3.89076919619626e+000

1.31774562762811e+005,-2.22478405522309e+001,-3.94481913589960e+000

1.33614067108538e+005,-2.22481612373117e+001,-3.99961320511660e+000

1.35479249978003e+005,-2.22484904290464e+001,-4.05516140370821e+000

1.37370469830040e+005,-2.22488283402402e+001,-4.11147385806607e+000

1.39288090127379e+005,-2.22491751883914e+001,-4.16856082253256e+000

1.41232479406504e+005,-2.22495311957652e+001,-4.22643268083680e+000

1.43204011348474e+005,-2.22498965894691e+001,-4.28509994754867e+000

1.45203064850745e+005,-2.22502716015268e+001,-4.34457326955024e+000

1.47230024099979e+005,-2.22506564689537e+001,-4.40486342752651e+000

1.49285278645888e+005,-2.22510514338303e+001,-4.46598133747605e+000

1.51369223476094e+005,-2.22514567433778e+001,-4.52793805224159e+000

1.53482259092041e+005,-2.22518726500312e+001,-4.59074476306221e+000

1.55624791585964e+005,-2.22522994115143e+001,-4.65441280114824e+000

1.57797232718936e+005,-2.22527372909131e+001,-4.71895363927947e+000

1.59999999999999e+005,-2.22531865567493e+001,-4.78437889342705e+000

1.62233516766403e+005,-2.22536474830545e+001,-4.85070032440196e+000

1.64498212264969e+005,-2.22541203494424e+001,-4.91792983953014e+000

1.66794521734578e+005,-2.22546054411826e+001,-4.98607949435478e+000

1.69122886489819e+005,-2.22551030492728e+001,-5.05516149436906e+000

1.71483754005805e+005,-2.22556134705119e+001,-5.12518819677888e+000

1.73877578004168e+005,-2.22561370075718e+001,-5.19617211229788e+000

1.76304818540256e+005,-2.22566739690699e+001,-5.26812590697575e+000

1.78765942091554e+005,-2.22572246696412e+001,-5.34106240406277e+000

1.81261421647326e+005,-2.22577894300103e+001,-5.41499458590992e+000

1.83791736799524e+005,-2.22583685770635e+001,-5.48993559590801e+000

1.86357373834951e+005,-2.22589624439210e+001,-5.56589874046662e+000

1.88958825828723e+005,-2.22595713700090e+001,-5.64289749103601e+000

1.91596592739027e+005,-2.22601957011327e+001,-5.72094548617094e+000

1.94271181503206e+005,-2.22608357895492e+001,-5.80005653364226e+000

1.96983106135185e+005,-2.22614919940413e+001,-5.88024461259446e+000

1.99732887824256e+005,-2.22621646799915e+001,-5.96152387575352e+000

2.02521055035243e+005,-2.22628542194579e+001,-6.04390865168645e+000

2.05348143610063e+005,-2.22635609912502e+001,-6.12741344711410e+000

2.08214696870707e+005,-2.22642853810077e+001,-6.21205294927955e+000

2.11121265723661e+005,-2.22650277812785e+001,-6.29784202837455e+000

2.14068408765776e+005,-2.22657885916010e+001,-6.38479574002600e+000

2.17056692391625e+005,-2.22665682185873e+001,-6.47292932784301e+000

2.20086690902357e+005,-2.22673670760089e+001,-6.56225822603043e+000

2.23158986616063e+005,-2.22681855848856e+001,-6.65279806206596e+000

2.26274169979693e+005,-2.22690241735777e+001,-6.74456465944735e+000

2.29432839682530e+005,-2.22698832778814e+001,-6.83757404050768e+000

2.32635602771247e+005,-2.22707633411284e+001,-6.93184242930555e+000

2.35883074766574e+005,-2.22716648142907e+001,-7.02738625458651e+000

2.39175879781588e+005,-2.22725881560892e+001,-7.12422215282197e+000

2.42514650641661e+005,-2.22735338331090e+001,-7.22236697132499e+000

2.45900029006080e+005,-2.22745023199202e+001,-7.32183777144556e+000

2.49332665491357e+005,-2.22754940992056e+001,-7.42265183184667e+000

2.52813219796278e+005,-2.22765096618963e+001,-7.52482665186143e+000

2.56342360828676e+005,-2.22775495073136e+001,-7.62837995493508e+000

2.59920766833993e+005,-2.22786141433221e+001,-7.73332969214960e+000

2.63549125525621e+005,-2.22797040864900e+001,-7.83969404583425e+000

2.67228134217075e+005,-2.22808198622607e+001,-7.94749143326248e+000

2.70958499956006e+005,-2.22819620051350e+001,-8.05674051043374e+000

2.74740939660078e+005,-2.22831310588655e+001,-8.16746017594162e+000

2.78576180254757e+005,-2.22843275766625e+001,-8.27966957493028e+000

2.82464958813007e+005,-2.22855521214144e+001,-8.39338810313378e+000

2.86408022696948e+005,-2.22868052659225e+001,-8.50863541100247e+000

2.90406129701488e+005,-2.22880875931494e+001,-8.62543140791337e+000

2.94460048199957e+005,-2.22893996964857e+001,-8.74379626646281e+000

2.98570557291775e+005,-2.22907421800323e+001,-8.86375042683996e+000

3.02738446952187e+005,-2.22921156589007e+001,-8.98531460128126e+000

3.06964518184081e+005,-2.22935207595337e+001,-9.10850977859848e+000

3.11249583171928e+005,-2.22949581200438e+001,-9.23335722878343e+000

3.15594465437872e+005,-2.22964283905744e+001,-9.35987850768239e+000

3.19999999999997e+005,-2.22979322336820e+001,-9.48809546173586e+000

3.24467033532806e+005,-2.22994703247410e+001,-9.61803023278423e+000

3.28996424529938e+005,-2.23010433523727e+001,-9.74970526292876e+000

3.33589043469155e+005,-2.23026520188989e+001,-9.88314329944800e+000

3.38245772979638e+005,-2.23042970408210e+001,-1.00183673997618e+001

3.42967508011610e+005,-2.23059791493252e+001,-1.01554009364364e+001

3.47755156008335e+005,-2.23076990908159e+001,-1.02942676022273e+001

3.52609637080511e+005,-2.23094576274764e+001,-1.04349914151501e+001

3.57531884183106e+005,-2.23112555378591e+001,-1.05775967235732e+001

3.62522843294651e+005,-2.23130936175053e+001,-1.07221082113270e+001

3.67583473599047e+005,-2.23149726795951e+001,-1.08685509028168e+001

3.72714747669902e+005,-2.23168935556288e+001,-1.10169501681365e+001

3.77917651657445e+005,-2.23188570961397e+001,-1.11673317281711e+001

3.83193185478053e+005,-2.23208641714389e+001,-1.13197216596788e+001

3.88542363006410e+005,-2.23229156723934e+001,-1.14741464003459e+001

3.93966212270369e+005,-2.23250125112365e+001,-1.16306327538013e+001

3.99465775648511e+005,-2.23271556224116e+001,-1.17892078945843e+001

4.05042110070485e+005,-2.23293459634508e+001,-1.19498993730520e+001

4.10696287220124e+005,-2.23315845158852e+001,-1.21127351202190e+001

4.16429393741414e+005,-2.23338722861910e+001,-1.22777434525160e+001

4.22242531447321e+005,-2.23362103067686e+001,-1.24449530764587e+001

4.28136817531551e+005,-2.23385996369555e+001,-1.26143930932152e+001

4.34113384783250e+005,-2.23410413640726e+001,-1.27860930030603e+001

4.40173381804713e+005,-2.23435366045049e+001,-1.29600827097077e+001

4.46317973232124e+005,-2.23460865048139e+001,-1.31363925245068e+001

4.52548339959385e+005,-2.23486922428835e+001,-1.33150531704952e+001

4.58865679365059e+005,-2.23513550290977e+001,-1.34960957862939e+001

4.65271205542494e+005,-2.23540761075495e+001,-1.36795519298372e+001

4.71766149533147e+005,-2.23568567572812e+001,-1.38654535819242e+001

4.78351759563174e+005,-2.23596982935541e+001,-1.40538331495827e+001

4.85029301283321e+005,-2.23626020691479e+001,-1.42447234692353e+001

4.91800058012158e+005,-2.23655694756879e+001,-1.44381578096580e+001

4.98665330982714e+005,-2.23686019449999e+001,-1.46341698747210e+001

5.05626439592555e+005,-2.23717009504909e+001,-1.48327938059023e+001

5.12684721657352e+005,-2.23748680085554e+001,-1.50340641845668e+001

5.19841533667984e+005,-2.23781046800049e+001,-1.52380160339994e+001

5.27098251051240e+005,-2.23814125715208e+001,-1.54446848211870e+001

5.34456268434150e+005,-2.23847933371284e+001,-1.56541064583395e+001

5.41916999912011e+005,-2.23882486796906e+001,-1.58663173041418e+001

