Freq.,VOut,OutRef

1.00000000000000e+004,-1.20241109488460e+001,-4.65614802762385e-002

1.01395947979003e+004,-1.20241112726248e+001,-4.72114130418290e-002

1.02811382665607e+004,-1.20241116054995e+001,-4.78704167787042e-002

1.04246576084112e+004,-1.20241119477254e+001,-4.85386180379370e-002

1.05701804056138e+004,-1.20241122995648e+001,-4.92161451361049e-002

1.07177346253629e+004,-1.20241126612876e+001,-4.99031281763723e-002

1.08673486252606e+004,-1.20241130331716e+001,-5.05996990720520e-002

1.10190511587661e+004,-1.20241134155016e+001,-5.13059915791933e-002

1.11728713807222e+004,-1.20241138085707e+001,-5.20221413142408e-002

1.13288388529580e+004,-1.20241142126805e+001,-5.27482857839339e-002

1.14869835499703e+004,-1.20241146281409e+001,-5.34845644083530e-002

1.16473358646846e+004,-1.20241150552700e+001,-5.42311185541271e-002

1.18099266142953e+004,-1.20241154943955e+001,-5.49880915535559e-002

1.19747870461893e+004,-1.20241159458541e+001,-5.57556287335605e-002

1.21419488439505e+004,-1.20241164099915e+001,-5.65338774494794e-002

1.23114441334492e+004,-1.20241168871636e+001,-5.73229871060367e-002

1.24833054890161e+004,-1.20241173777360e+001,-5.81231091885095e-002

1.26575659397028e+004,-1.20241178820845e+001,-5.89343972923530e-002

1.28342589756290e+004,-1.20241184005958e+001,-5.97570071490403e-002

1.30134185544193e+004,-1.20241189336669e+001,-6.05910966612421e-002

1.31950791077289e+004,-1.20241194817061e+001,-6.14368259286849e-002

1.33792755478611e+004,-1.20241200451332e+001,-6.22943572785418e-002

1.35660432744767e+004,-1.20241206243796e+001,-6.31638552997296e-002

1.37554181813974e+004,-1.20241212198892e+001,-6.40454868677065e-002

1.39474366635040e+004,-1.20241218321177e+001,-6.49394211848009e-002

1.41421356237309e+004,-1.20241224615337e+001,-6.58458298057256e-002

1.43395524801583e+004,-1.20241231086195e+001,-6.67648866694989e-002

1.45397251732031e+004,-1.20241237738700e+001,-6.76967681403182e-002

1.47426921729110e+004,-1.20241244577941e+001,-6.86416530341096e-002

1.49484924863494e+004,-1.20241251609159e+001,-6.95997226491701e-002

1.51571656651040e+004,-1.20241258837725e+001,-7.05711608138972e-002

1.53687518128801e+004,-1.20241266269178e+001,-7.15561539043750e-002

1.55832915932100e+004,-1.20241273909195e+001,-7.25548908963992e-002

1.58008262372675e+004,-1.20241281763623e+001,-7.35675633872964e-002

1.60213975517924e+004,-1.20241289838466e+001,-7.45943656418638e-002

1.62450479271247e+004,-1.20241298139900e+001,-7.56354946217586e-002

1.64718203453514e+004,-1.20241306674270e+001,-7.66911500298130e-002

1.67017583885674e+004,-1.20241315448101e+001,-7.77615343411091e-002

1.69349062472505e+004,-1.20241324468094e+001,-7.88468528484758e-002

1.71713087287550e+004,-1.20241333741145e+001,-7.99473136920595e-002

1.74110112659224e+004,-1.20241343274336e+001,-8.10631279078664e-002

1.76540599258131e+004,-1.20241353074950e+001,-8.21945094587429e-002

1.79005014185594e+004,-1.20241363150471e+001,-8.33416752840047e-002

1.81503831063432e+004,-1.20241373508592e+001,-8.45048453325535e-002

1.84037530124975e+004,-1.20241384157220e+001,-8.56842426075704e-002

1.86606598307361e+004,-1.20241395104483e+001,-8.68800932092139e-002

1.89211529345119e+004,-1.20241406358733e+001,-8.80926263743214e-002

1.91852823865052e+004,-1.20241417928560e+001,-8.93220745197652e-002

1.94530989482457e+004,-1.20241429822785e+001,-9.05686732927833e-002

1.97246540898671e+004,-1.20241442050484e+001,-9.18326616024474e-002

1.99999999999999e+004,-1.20241454620972e+001,-9.31142816794274e-002

2.02791895958005e+004,-1.20241467543836e+001,-9.44137791080846e-002

2.05622765331213e+004,-1.20241480828922e+001,-9.57314028802477e-002

2.08493152168224e+004,-1.20241494486355e+001,-9.70674054378569e-002

2.11403608112276e+004,-1.20241508526533e+001,-9.84220427251058e-002

2.14354692507258e+004,-1.20241522960149e+001,-9.97955742306976e-002

2.17346972505211e+004,-1.20241537798192e+001,-1.01188263037965e-001

2.20381023175322e+004,-1.20241553051953e+001,-1.02600375877059e-001

2.23457427614443e+004,-1.20241568733039e+001,-1.04032183169082e-001

2.26576777059159e+004,-1.20241584853379e+001,-1.05483959080839e-001

2.29739670999406e+004,-1.20241601425227e+001,-1.06955981577029e-001

2.32946717293690e+004,-1.20241618461183e+001,-1.08448532464478e-001

2.36198532285905e+004,-1.20241635974195e+001,-1.09961897450962e-001

2.39495740923785e+004,-1.20241653977561e+001,-1.11496366200183e-001

2.42838976879009e+004,-1.20241672484960e+001,-1.13052232374997e-001

2.46228882668982e+004,-1.20241691510437e+001,-1.14629793704419e-001

2.49666109780322e+004,-1.20241711068434e+001,-1.16229352028095e-001

2.53151318794055e+004,-1.20241731173786e+001,-1.17851213360917e-001

2.56685179512580e+004,-1.20241751841738e+001,-1.19495687942604e-001

2.60268371088386e+004,-1.20241773087960e+001,-1.21163090296877e-001

2.63901582154578e+004,-1.20241794928551e+001,-1.22853739291109e-001

2.67585510957221e+004,-1.20241817380052e+001,-1.24567958194069e-001

2.71320865489533e+004,-1.20241840459462e+001,-1.26306074734138e-001

2.75108363627948e+004,-1.20241864184248e+001,-1.28068421160064e-001

2.78948733270080e+004,-1.20241888572354e+001,-1.29855334303360e-001

2.82842712474618e+004,-1.20241913642223e+001,-1.31667155634628e-001

2.86791049603164e+004,-1.20241939412799e+001,-1.33504231335193e-001

2.90794503464061e+004,-1.20241965903550e+001,-1.35366912350495e-001

2.94853843458219e+004,-1.20241993134478e+001,-1.37255554458236e-001

2.98969849726987e+004,-1.20242021126130e+001,-1.39170518336510e-001

3.03143313302078e+004,-1.20242049899621e+001,-1.41112169620969e-001

3.07375036257601e+004,-1.20242079476639e+001,-1.43080878980156e-001

3.11665831864199e+004,-1.20242109879469e+001,-1.45077022175445e-001

3.16016524745350e+004,-1.20242141131002e+001,-1.47100980133764e-001

3.20427951035848e+004,-1.20242173254757e+001,-1.49153139012675e-001

3.24900958542493e+004,-1.20242206274893e+001,-1.51233890272377e-001

3.29436406907028e+004,-1.20242240216230e+001,-1.53343630743199e-001

3.34035167771346e+004,-1.20242275104262e+001,-1.55482762701434e-001

3.38698124945009e+004,-1.20242310965179e+001,-1.57651693936488e-001

3.43426174575100e+004,-1.20242347825879e+001,-1.59850837827608e-001

3.48220225318448e+004,-1.20242385713997e+001,-1.62080613412234e-001

3.53081198516260e+004,-1.20242424657912e+001,-1.64341445468523e-001

3.58010028371187e+004,-1.20242464686777e+001,-1.66633764582662e-001

3.63007662126863e+004,-1.20242505830531e+001,-1.68958007230395e-001

3.68075060249948e+004,-1.20242548119927e+001,-1.71314615851498e-001

3.73213196614721e+004,-1.20242591586547e+001,-1.73704038928785e-001

3.78423058690237e+004,-1.20242636262822e+001,-1.76126731068891e-001

3.83705647730104e+004,-1.20242682182065e+001,-1.78583153076030e-001

3.89061978964912e+004,-1.20242729378480e+001,-1.81073772040616e-001

3.94493081797342e+004,-1.20242777887193e+001,-1.83599061414473e-001

3.99999999999998e+004,-1.20242827744274e+001,-1.86159501096356e-001

4.05583791916010e+004,-1.20242878986762e+001,-1.88755577513149e-001

4.11245530662425e+004,-1.20242931652684e+001,-1.91387783707405e-001

4.16986304336447e+004,-1.20242985781089e+001,-1.94056619417853e-001

4.22807216224550e+004,-1.20243041412067e+001,-1.96762591170980e-001

4.28709385014515e+004,-1.20243098586778e+001,-1.99506212362010e-001

4.34693945010421e+004,-1.20243157347479e+001,-2.02288003345930e-001

4.40762046350642e+004,-1.20243217737546e+001,-2.05108491529167e-001

4.46914855228886e+004,-1.20243279801515e+001,-2.07968211450511e-001

4.53153554118317e+004,-1.20243343585096e+001,-2.10867704881219e-001

4.59479341998812e+004,-1.20243409135209e+001,-2.13807520910282e-001

4.65893434587380e+004,-1.20243476500018e+001,-2.16788216038330e-001

4.72397064571810e+004,-1.20243545728951e+001,-2.19810354272598e-001

4.78991481847569e+004,-1.20243616872740e+001,-2.22874507218348e-001

4.85677953758016e+004,-1.20243689983449e+001,-2.25981254175068e-001

4.92457765337964e+004,-1.20243765114505e+001,-2.29131182234778e-001

4.99332219560642e+004,-1.20243842320737e+001,-2.32324886372722e-001

5.06302637588109e+004,-1.20243921658399e+001,-2.35562969552374e-001

5.13370359025159e+004,-1.20244003185213e+001,-2.38846042819601e-001

5.20536742176771e+004,-1.20244086960403e+001,-2.42174725401355e-001

5.27803164309155e+004,-1.20244173044726e+001,-2.45549644810599e-001

5.35171021914442e+004,-1.20244261500510e+001,-2.48971436942100e-001

5.42641730979066e+004,-1.20244352391692e+001,-2.52440746179837e-001

5.50216727255895e+004,-1.20244445783855e+001,-2.55958225494275e-001

5.57897466540159e+004,-1.20244541744262e+001,-2.59524536552833e-001

5.65685424949235e+004,-1.20244640341903e+001,-2.63140349817049e-001

5.73582099206328e+004,-1.20244741647523e+001,-2.66806344654714e-001

5.81589006928121e+004,-1.20244845733672e+001,-2.70523209442086e-001

5.89707686916437e+004,-1.20244952674736e+001,-2.74291641673347e-001

5.97939699453972e+004,-1.20245062546988e+001,-2.78112348066069e-001

6.06286626604156e+004,-1.20245175428621e+001,-2.81986044672552e-001

6.14750072515201e+004,-1.20245291399793e+001,-2.85913456988219e-001

6.23331663728396e+004,-1.20245410542669e+001,-2.89895320061896e-001

6.32033049490698e+004,-1.20245532941469e+001,-2.93932378605095e-001

6.40855902071694e+004,-1.20245658682501e+001,-2.98025387107608e-001

6.49801917084985e+004,-1.20245787854217e+001,-3.02175109947401e-001

6.58872813814055e+004,-1.20245920547247e+001,-3.06382321504275e-001

6.68070335542691e+004,-1.20246056854451e+001,-3.10647806274239e-001

6.77396249890018e+004,-1.20246196870964e+001,-3.14972358982442e-001

6.86852349150199e+004,-1.20246340694234e+001,-3.19356784702799e-001

6.96440450636895e+004,-1.20246488424081e+001,-3.23801898967520e-001

7.06162397032520e+004,-1.20246640162731e+001,-3.28308527889051e-001

7.16020056742374e+004,-1.20246796014867e+001,-3.32877508275570e-001

7.26015324253724e+004,-1.20246956087682e+001,-3.37509687746992e-001

7.36150120499896e+004,-1.20247120490913e+001,-3.42205924857341e-001

7.46426393229441e+004,-1.20247289336902e+001,-3.46967089207659e-001

7.56846117380472e+004,-1.20247462740633e+001,-3.51794061571444e-001

7.67411295460207e+004,-1.20247640819784e+001,-3.56687734011568e-001

7.78123957929823e+004,-1.20247823694770e+001,-3.61649010000970e-001

7.88986163594682e+004,-1.20248011488798e+001,-3.66678804543232e-001

7.99999999999995e+004,-1.20248204327902e+001,-3.71778044295815e-001

8.11167583832018e+004,-1.20248402341000e+001,-3.76947667689253e-001

8.22491061324848e+004,-1.20248605659935e+001,-3.82188625051072e-001

8.33972608672892e+004,-1.20248814419519e+001,-3.87501878728459e-001

8.45614432449099e+004,-1.20249028757584e+001,-3.92888403210356e-001

8.57418770029029e+004,-1.20249248815020e+001,-3.98349185250499e-001

8.69387890020841e+004,-1.20249474735822e+001,-4.03885223992873e-001

8.81524092701283e+004,-1.20249706667134e+001,-4.09497531092829e-001

8.93829710457770e+004,-1.20249944759284e+001,-4.15187130845702e-001

9.06307108236633e+004,-1.20250189165836e+001,-4.20955060304922e-001

9.18958683997622e+004,-1.20250440043619e+001,-4.26802369413158e-001

9.31786869174758e+004,-1.20250697552770e+001,-4.32730121124341e-001

9.44794129143618e+004,-1.20250961856768e+001,-4.38739391529046e-001

9.57982963695136e+004,-1.20251233122475e+001,-4.44831269978549e-001

9.71355907516031e+004,-1.20251511520159e+001,-4.51006859214765e-001

9.84915530675926e+004,-1.20251797223533e+001,-4.57267275492129e-001

9.98664439121282e+004,-1.20252090409782e+001,-4.63613648705399e-001

1.01260527517622e+005,-1.20252391259589e+001,-4.70047122515163e-001

1.02674071805032e+005,-1.20252699957155e+001,-4.76568854476387e-001

1.04107348435354e+005,-1.20253016690227e+001,-4.83180016162367e-001

1.05560632861831e+005,-1.20253341650111e+001,-4.89881793294357e-001

1.07034204382888e+005,-1.20253675031693e+001,-4.96675385865616e-001

1.08528346195813e+005,-1.20254017033439e+001,-5.03562008273179e-001

1.10043345451179e+005,-1.20254367857415e+001,-5.10542889440959e-001

1.11579493308032e+005,-1.20254727709286e+001,-5.17619272951678e-001

1.13137084989847e+005,-1.20255096798314e+001,-5.24792417173016e-001

1.14716419841265e+005,-1.20255475337354e+001,-5.32063595387550e-001

1.16317801385624e+005,-1.20255863542847e+001,-5.39434095921793e-001

1.17941537383287e+005,-1.20256261634804e+001,-5.46905222274264e-001

1.19587939890794e+005,-1.20256669836785e+001,-5.54478293248798e-001

1.21257325320831e+005,-1.20257088375873e+001,-5.62154643084400e-001

1.22950014503040e+005,-1.20257517482649e+001,-5.69935621584729e-001

1.24666332745679e+005,-1.20257957391146e+001,-5.77822594253517e-001

1.26406609898139e+005,-1.20258408338807e+001,-5.85816942427441e-001

1.28171180414339e+005,-1.20258870566436e+001,-5.93920063409320e-001

1.29960383416997e+005,-1.20259344318140e+001,-6.02133370604139e-001

1.31774562762811e+005,-1.20259829841259e+001,-6.10458293656512e-001

1.33614067108538e+005,-1.20260327386295e+001,-6.18896278589218e-001

1.35479249978003e+005,-1.20260837206827e+001,-6.27448787941706e-001

1.37370469830040e+005,-1.20261359559423e+001,-6.36117300912898e-001

1.39288090127379e+005,-1.20261894703535e+001,-6.44903313505532e-001

1.41232479406504e+005,-1.20262442901390e+001,-6.53808338671455e-001

1.43204011348474e+005,-1.20263004417873e+001,-6.62833906458366e-001

1.45203064850745e+005,-1.20263579520393e+001,-6.71981564163754e-001

1.47230024099979e+005,-1.20264168478744e+001,-6.81252876487037e-001

1.49285278645888e+005,-1.20264771564951e+001,-6.90649425686966e-001

1.51369223476094e+005,-1.20265389053104e+001,-7.00172811742749e-001

1.53482259092041e+005,-1.20266021219188e+001,-7.09824652518649e-001

1.55624791585964e+005,-1.20266668340890e+001,-7.19606583931601e-001

1.57797232718936e+005,-1.20267330697398e+001,-7.29520260126692e-001

1.59999999999999e+005,-1.20268008569190e+001,-7.39567353652494e-001

1.62233516766403e+005,-1.20268702237801e+001,-7.49749555648565e-001

1.64498212264969e+005,-1.20269411985589e+001,-7.60068576030347e-001

1.66794521734578e+005,-1.20270138095471e+001,-7.70526143688465e-001

1.69122886489819e+005,-1.20270880850659e+001,-7.81124006690236e-001

1.71483754005805e+005,-1.20271640534374e+001,-7.91863932487683e-001

1.73877578004168e+005,-1.20272417429541e+001,-8.02747708137856e-001

1.76304818540256e+005,-1.20273211818480e+001,-8.13777140525380e-001

1.78765942091554e+005,-1.20274023982571e+001,-8.24954056601091e-001

1.81261421647326e+005,-1.20274854201906e+001,-8.36280303622830e-001

1.83791736799524e+005,-1.20275702754931e+001,-8.47757749411778e-001

1.86357373834951e+005,-1.20276569918060e+001,-8.59388282617838e-001

1.88958825828723e+005,-1.20277455965285e+001,-8.71173812995851e-001

1.91596592739027e+005,-1.20278361167760e+001,-8.83116271695637e-001

1.94271181503206e+005,-1.20279285793379e+001,-8.95217611562513e-001

1.96983106135185e+005,-1.20280230106321e+001,-9.07479807455613e-001

1.99732887824256e+005,-1.20281194366603e+001,-9.19904856576188e-001

2.02521055035243e+005,-1.20282178829590e+001,-9.32494778813768e-001

2.05348143610063e+005,-1.20283183745511e+001,-9.45251617109035e-001

2.08214696870707e+005,-1.20284209358948e+001,-9.58177437831675e-001

2.11121265723661e+005,-1.20285255908313e+001,-9.71274331176285e-001

2.14068408765776e+005,-1.20286323625310e+001,-9.84544411579424e-001

2.17056692391625e+005,-1.20287412734379e+001,-9.97989818153251e-001

2.20086690902357e+005,-1.20288523452137e+001,-1.01161271514065e+000

2.23158986616063e+005,-1.20289655986789e+001,-1.02541529239231e+000

2.26274169979693e+005,-1.20290810537545e+001,-1.03939976586514e+000

2.29432839682530e+005,-1.20291987294010e+001,-1.05356837814324e+000

2.32635602771247e+005,-1.20293186435574e+001,-1.06792339898509e+000

2.35883074766574e+005,-1.20294408130787e+001,-1.08246712589126e+000

2.39175879781588e+005,-1.20295652536722e+001,-1.09720188470447e+000

2.42514650641661e+005,-1.20296919798344e+001,-1.11213003022807e+000

2.45900029006080e+005,-1.20298210047855e+001,-1.12725394687842e+000

2.49332665491357e+005,-1.20299523404051e+001,-1.14257604936144e+000

2.52813219796278e+005,-1.20300859971661e+001,-1.15809878337932e+000

2.56342360828676e+005,-1.20302219840698e+001,-1.17382462636782e+000

2.59920766833993e+005,-1.20303603085797e+001,-1.18975608826056e+000

2.63549125525621e+005,-1.20305009765566e+001,-1.20589571228776e+000

2.67228134217075e+005,-1.20306439921936e+001,-1.22224607580341e+000

2.70958499956006e+005,-1.20307893579508e+001,-1.23880979114726e+000

2.74740939660078e+005,-1.20309370744928e+001,-1.25558950653561e+000

2.78576180254757e+005,-1.20310871406253e+001,-1.27258790698638e+000

2.82464958813007e+005,-1.20312395532332e+001,-1.28980771527866e+000

2.86408022696948e+005,-1.20313943072214e+001,-1.30725169294268e+000

2.90406129701488e+005,-1.20315513954553e+001,-1.32492264128553e+000

2.94460048199957e+005,-1.20317108087050e+001,-1.34282340244707e+000

2.98570557291775e+005,-1.20318725355902e+001,-1.36095686049179e+000

3.02738446952187e+005,-1.20320365625286e+001,-1.37932594253318e+000

3.06964518184081e+005,-1.20322028736858e+001,-1.39793361988930e+000

3.11249583171928e+005,-1.20323714509291e+001,-1.41678290927233e+000

3.15594465437872e+005,-1.20325422737838e+001,-1.43587687400918e+000

3.19999999999997e+005,-1.20327153193931e+001,-1.45521862529221e+000

3.24467033532806e+005,-1.20328905624811e+001,-1.47481132346422e+000

3.28996424529938e+005,-1.20330679753207e+001,-1.49465817932693e+000

3.33589043469155e+005,-1.20332475277046e+001,-1.51476245548362e+000

3.38245772979638e+005,-1.20334291869204e+001,-1.53512746770712e+000

3.42967508011610e+005,-1.20336129177321e+001,-1.55575658633168e+000

3.47755156008335e+005,-1.20337986823634e+001,-1.57665323767456e+000

3.52609637080511e+005,-1.20339864404889e+001,-1.59782090547623e+000

3.57531884183106e+005,-1.20341761492282e+001,-1.61926313236601e+000

3.62522843294651e+005,-1.20343677631465e+001,-1.64098352134556e+000

3.67583473599047e+005,-1.20345612342601e+001,-1.66298573729197e+000

3.72714747669902e+005,-1.20347565120481e+001,-1.68527350847645e+000

3.77917651657445e+005,-1.20349535434690e+001,-1.70785062809798e+000

3.83193185478053e+005,-1.20351522729836e+001,-1.73072095582971e+000

3.88542363006410e+005,-1.20353526425839e+001,-1.75388841937556e+000

3.93966212270369e+005,-1.20355545918273e+001,-1.77735701603351e+000

3.99465775648511e+005,-1.20357580578780e+001,-1.80113081426590e+000

4.05042110070485e+005,-1.20359629755527e+001,-1.82521395527463e+000

4.10696287220124e+005,-1.20361692773738e+001,-1.84961065457493e+000

4.16429393741414e+005,-1.20363768936276e+001,-1.87432520357008e+000

4.22242531447321e+005,-1.20365857524286e+001,-1.89936197112066e+000

4.28136817531551e+005,-1.20367957797899e+001,-1.92472540511088e+000

4.34113384783250e+005,-1.20370068996983e+001,-1.95042003400395e+000

4.40173381804713e+005,-1.20372190341960e+001,-1.97645046838934e+000

4.46317973232124e+005,-1.20374321034668e+001,-2.00282140251590e+000

4.52548339959385e+005,-1.20376460259276e+001,-2.02953761581136e+000

4.58865679365059e+005,-1.20378607183249e+001,-2.05660397438474e+000

4.65271205542494e+005,-1.20380760958355e+001,-2.08402543250957e+000

4.71766149533147e+005,-1.20382920721719e+001,-2.11180703408771e+000

4.78351759563174e+005,-1.20385085596917e+001,-2.13995391408897e+000

4.85029301283321e+005,-1.20387254695101e+001,-2.16847129997015e+000

4.91800058012158e+005,-1.20389427116167e+001,-2.19736451306432e+000

4.98665330982714e+005,-1.20391601949939e+001,-2.22663896994714e+000

5.05626439592555e+005,-1.20393778277394e+001,-2.25630018377421e+000

5.12684721657352e+005,-1.20395955171898e+001,-2.28635376558935e+000

5.19841533667984e+005,-1.20398131700461e+001,-2.31680542560319e+000

5.27098251051240e+005,-1.20400306925011e+001,-2.34766097444340e+000

5.34456268434150e+005,-1.20402479903668e+001,-2.37892632437419e+000

5.41916999912011e+005,-1.20404649692033e+001,-2.41060749048176e+000

