Freq.,VOut,OutRef

1.00000000000000e+004,-2.56607183104134e+001,-3.12605882656212e-001

1.01395947979003e+004,-2.56607206926935e+001,-3.16969532398661e-001

1.02811382665607e+004,-2.56607231419235e+001,-3.21394089385352e-001

1.04246576084112e+004,-2.56607256599839e+001,-3.25880403552283e-001

1.05701804056138e+004,-2.56607282488086e+001,-3.30429336684910e-001

1.07177346253629e+004,-2.56607309103854e+001,-3.35041762587629e-001

1.08673486252606e+004,-2.56607336467577e+001,-3.39718567248499e-001

1.10190511587661e+004,-2.56607364600269e+001,-3.44460649007893e-001

1.11728713807222e+004,-2.56607393523526e+001,-3.49268918734389e-001

1.13288388529580e+004,-2.56607423259555e+001,-3.54144299994049e-001

1.14869835499703e+004,-2.56607453831186e+001,-3.59087729228522e-001

1.16473358646846e+004,-2.56607485261886e+001,-3.64100155937497e-001

1.18099266142953e+004,-2.56607517575786e+001,-3.69182542854915e-001

1.19747870461893e+004,-2.56607550797690e+001,-3.74335866136926e-001

1.21419488439505e+004,-2.56607584953100e+001,-3.79561115546532e-001

1.23114441334492e+004,-2.56607620068231e+001,-3.84859294644017e-001

1.24833054890161e+004,-2.56607656170034e+001,-3.90231420978268e-001

1.26575659397028e+004,-2.56607693286220e+001,-3.95678526279069e-001

1.28342589756290e+004,-2.56607731445273e+001,-4.01201656657979e-001

1.30134185544193e+004,-2.56607770676476e+001,-4.06801872805098e-001

1.31950791077289e+004,-2.56607811009936e+001,-4.12480250192728e-001

1.33792755478611e+004,-2.56607852476602e+001,-4.18237879281616e-001

1.35660432744767e+004,-2.56607895108292e+001,-4.24075865725724e-001

1.37554181813974e+004,-2.56607938937715e+001,-4.29995330588070e-001

1.39474366635040e+004,-2.56607983998499e+001,-4.35997410550905e-001

1.41421356237309e+004,-2.56608030325212e+001,-4.42083258133852e-001

1.43395524801583e+004,-2.56608077953395e+001,-4.48254041913042e-001

1.45397251732031e+004,-2.56608126919582e+001,-4.54510946745127e-001

1.47426921729110e+004,-2.56608177261332e+001,-4.60855173993015e-001

1.49484924863494e+004,-2.56608229017258e+001,-4.67287941752839e-001

1.51571656651040e+004,-2.56608282227051e+001,-4.73810485089264e-001

1.53687518128801e+004,-2.56608336931520e+001,-4.80424056266720e-001

1.55832915932100e+004,-2.56608393172612e+001,-4.87129924993294e-001

1.58008262372675e+004,-2.56608450993456e+001,-4.93929378655748e-001

1.60213975517924e+004,-2.56608510438380e+001,-5.00823722571231e-001

1.62450479271247e+004,-2.56608571552961e+001,-5.07814280231841e-001

1.64718203453514e+004,-2.56608634384051e+001,-5.14902393556081e-001

1.67017583885674e+004,-2.56608698979812e+001,-5.22089423146753e-001

1.69349062472505e+004,-2.56608765389756e+001,-5.29376748546871e-001

1.71713087287550e+004,-2.56608833664782e+001,-5.36765768504060e-001

1.74110112659224e+004,-2.56608903857212e+001,-5.44257901235439e-001

1.76540599258131e+004,-2.56608976020836e+001,-5.51854584696231e-001

1.79005014185594e+004,-2.56609050210945e+001,-5.59557276854782e-001

1.81503831063432e+004,-2.56609126484381e+001,-5.67367455967079e-001

1.84037530124975e+004,-2.56609204899575e+001,-5.75286620859101e-001

1.86606598307361e+004,-2.56609285516594e+001,-5.83316291210183e-001

1.89211529345119e+004,-2.56609368397184e+001,-5.91458007841656e-001

1.91852823865052e+004,-2.56609453604818e+001,-5.99713333008426e-001

1.94530989482457e+004,-2.56609541204747e+001,-6.08083850695476e-001

1.97246540898671e+004,-2.56609631264041e+001,-6.16571166918522e-001

1.99999999999999e+004,-2.56609723851652e+001,-6.25176910026057e-001

2.02791895958005e+004,-2.56609819038453e+001,-6.33902731009657e-001

2.05622765331213e+004,-2.56609916897303e+001,-6.42750303815641e-001

2.08493152168224e+004,-2.56610017503094e+001,-6.51721325660436e-001

2.11403608112276e+004,-2.56610120932813e+001,-6.60817517352579e-001

2.14354692507258e+004,-2.56610227265594e+001,-6.70040623619804e-001

2.17346972505211e+004,-2.56610336582784e+001,-6.79392413433338e-001

2.20381023175322e+004,-2.56610448968003e+001,-6.88874680346217e-001

2.23457427614443e+004,-2.56610564507202e+001,-6.98489242831100e-001

2.26576777059159e+004,-2.56610683288734e+001,-7.08237944620491e-001

2.29739670999406e+004,-2.56610805403417e+001,-7.18122655056660e-001

2.32946717293690e+004,-2.56610930944601e+001,-7.28145269443868e-001

2.36198532285905e+004,-2.56611060008245e+001,-7.38307709403427e-001

2.39495740923785e+004,-2.56611192692981e+001,-7.48611923236182e-001

2.42838976879009e+004,-2.56611329100193e+001,-7.59059886288709e-001

2.46228882668982e+004,-2.56611469334088e+001,-7.69653601325875e-001

2.49666109780322e+004,-2.56611613501783e+001,-7.80395098903711e-001

2.53151318794055e+004,-2.56611761713376e+001,-7.91286437753372e-001

2.56685179512580e+004,-2.56611914082033e+001,-8.02329705166487e-001

2.60268371088386e+004,-2.56612070724072e+001,-8.13527017385747e-001

2.63901582154578e+004,-2.56612231759051e+001,-8.24880520002159e-001

2.67585510957221e+004,-2.56612397309854e+001,-8.36392388355694e-001

2.71320865489533e+004,-2.56612567502785e+001,-8.48064827943216e-001

2.75108363627948e+004,-2.56612742467665e+001,-8.59900074828565e-001

2.78948733270080e+004,-2.56612922337921e+001,-8.71900396063559e-001

2.82842712474618e+004,-2.56613107250693e+001,-8.84068090107242e-001

2.86791049603164e+004,-2.56613297346934e+001,-8.96405487256799e-001

2.90794503464061e+004,-2.56613492771508e+001,-9.08914950081508e-001

2.94853843458219e+004,-2.56613693673310e+001,-9.21598873860624e-001

2.98969849726987e+004,-2.56613900205365e+001,-9.34459687031255e-001

3.03143313302078e+004,-2.56614112524948e+001,-9.47499851637614e-001

3.07375036257601e+004,-2.56614330793697e+001,-9.60721863789434e-001

3.11665831864199e+004,-2.56614555177734e+001,-9.74128254123037e-001

3.16016524745350e+004,-2.56614785847787e+001,-9.87721588272119e-001

3.20427951035848e+004,-2.56615022979316e+001,-1.00150446734120e+000

3.24900958542493e+004,-2.56615266752646e+001,-1.01547952838662e+000

3.29436406907028e+004,-2.56615517353089e+001,-1.02964944490472e+000

3.34035167771346e+004,-2.56615774971094e+001,-1.04401692732298e+000

3.38698124945009e+004,-2.56616039802376e+001,-1.05858472350152e+000

3.43426174575100e+004,-2.56616312048065e+001,-1.07335561923751e+000

3.48220225318448e+004,-2.56616591914851e+001,-1.08833243877697e+000

3.53081198516260e+004,-2.56616879615135e+001,-1.10351804533567e+000

3.58010028371187e+004,-2.56617175367188e+001,-1.11891534162041e+000

3.63007662126863e+004,-2.56617479395302e+001,-1.13452727036438e+000

3.68075060249948e+004,-2.56617791929959e+001,-1.15035681486331e+000

3.73213196614721e+004,-2.56618113208000e+001,-1.16640699952016e+000

3.78423058690237e+004,-2.56618443472792e+001,-1.18268089039809e+000

3.83705647730104e+004,-2.56618782974406e+001,-1.19918159577818e+000

3.89061978964912e+004,-2.56619131969799e+001,-1.21591226672390e+000

3.94493081797342e+004,-2.56619490722998e+001,-1.23287609765554e+000

3.99999999999998e+004,-2.56619859505291e+001,-1.25007632692730e+000

4.05583791916010e+004,-2.56620238595421e+001,-1.26751623741422e+000

4.11245530662425e+004,-2.56620628279788e+001,-1.28519915710642e+000

4.16986304336447e+004,-2.56621028852651e+001,-1.30312845970786e+000

4.22807216224550e+004,-2.56621440616342e+001,-1.32130756524583e+000

4.28709385014515e+004,-2.56621863881480e+001,-1.33973994068460e+000

4.34693945010421e+004,-2.56622298967190e+001,-1.35842910054876e+000

4.40762046350642e+004,-2.56622746201332e+001,-1.37737860755211e+000

4.46914855228886e+004,-2.56623205920736e+001,-1.39659207323491e+000

4.53153554118317e+004,-2.56623678471433e+001,-1.41607315860888e+000

4.59479341998812e+004,-2.56624164208906e+001,-1.43582557480871e+000

4.65893434587380e+004,-2.56624663498336e+001,-1.45585308375232e+000

4.72397064571810e+004,-2.56625176714860e+001,-1.47615949880818e+000

4.78991481847569e+004,-2.56625704243835e+001,-1.49674868546954e+000

4.85677953758016e+004,-2.56626246481102e+001,-1.51762456203827e+000

4.92457765337964e+004,-2.56626803833267e+001,-1.53879110031466e+000

4.99332219560642e+004,-2.56627376717981e+001,-1.56025232629572e+000

5.06302637588109e+004,-2.56627965564230e+001,-1.58201232088210e+000

5.13370359025159e+004,-2.56628570812630e+001,-1.60407522059088e+000

5.20536742176771e+004,-2.56629192915731e+001,-1.62644521827917e+000

5.27803164309155e+004,-2.56629832338326e+001,-1.64912656387247e+000

5.35171021914442e+004,-2.56630489557773e+001,-1.67212356510419e+000

5.42641730979066e+004,-2.56631165064316e+001,-1.69544058826089e+000

5.50216727255895e+004,-2.56631859361417e+001,-1.71908205893649e+000

5.57897466540159e+004,-2.56632572966103e+001,-1.74305246279472e+000

5.65685424949235e+004,-2.56633306409309e+001,-1.76735634633871e+000

5.73582099206328e+004,-2.56634060236237e+001,-1.79199831769137e+000

5.81589006928121e+004,-2.56634835006721e+001,-1.81698304738005e+000

5.89707686916437e+004,-2.56635631295598e+001,-1.84231526913312e+000

5.97939699453972e+004,-2.56636449693093e+001,-1.86799978068224e+000

6.06286626604156e+004,-2.56637290805207e+001,-1.89404144457389e+000

6.14750072515201e+004,-2.56638155254118e+001,-1.92044518898944e+000

6.23331663728396e+004,-2.56639043678584e+001,-1.94721600857341e+000

6.32033049490698e+004,-2.56639956734367e+001,-1.97435896526883e+000

6.40855902071694e+004,-2.56640895094653e+001,-2.00187918916264e+000

6.49801917084985e+004,-2.56641859450489e+001,-2.02978187933859e+000

6.58872813814055e+004,-2.56642850511228e+001,-2.05807230473841e+000

6.68070335542691e+004,-2.56643869004985e+001,-2.08675580503056e+000

6.77396249890018e+004,-2.56644915679093e+001,-2.11583779148982e+000

6.86852349150199e+004,-2.56645991300585e+001,-2.14532374788172e+000

6.96440450636895e+004,-2.56647096656672e+001,-2.17521923135886e+000

7.06162397032520e+004,-2.56648232555236e+001,-2.20552987336205e+000

7.16020056742374e+004,-2.56649399825334e+001,-2.23626138053293e+000

7.26015324253724e+004,-2.56650599317711e+001,-2.26741953563244e+000

7.36150120499896e+004,-2.56651831905321e+001,-2.29901019846902e+000

7.46426393229441e+004,-2.56653098483863e+001,-2.33103930683479e+000

7.56846117380472e+004,-2.56654399972322e+001,-2.36351287744929e+000

7.67411295460207e+004,-2.56655737313526e+001,-2.39643700691243e+000

7.78123957929823e+004,-2.56657111474706e+001,-2.42981787266597e+000

7.88986163594682e+004,-2.56658523448074e+001,-2.46366173396029e+000

7.99999999999995e+004,-2.56659974251407e+001,-2.49797493283451e+000

8.11167583832018e+004,-2.56661464928643e+001,-2.53276389509946e+000

8.22491061324848e+004,-2.56662996550489e+001,-2.56803513133213e+000

8.33972608672892e+004,-2.56664570215034e+001,-2.60379523787720e+000

8.45614432449099e+004,-2.56666187048382e+001,-2.64005089785683e+000

8.57418770029029e+004,-2.56667848205283e+001,-2.67680888218852e+000

8.69387890020841e+004,-2.56669554869789e+001,-2.71407605061086e+000

8.81524092701283e+004,-2.56671308255907e+001,-2.75185935271709e+000

8.93829710457770e+004,-2.56673109608272e+001,-2.79016582899795e+000

9.06307108236633e+004,-2.56674960202824e+001,-2.82900261189142e+000

9.18958683997622e+004,-2.56676861347503e+001,-2.86837692683973e+000

9.31786869174758e+004,-2.56678814382944e+001,-2.90829609335721e+000

9.44794129143618e+004,-2.56680820683187e+001,-2.94876752610316e+000

9.57982963695136e+004,-2.56682881656404e+001,-2.98979873596384e+000

9.71355907516031e+004,-2.56684998745620e+001,-3.03139733114359e+000

9.84915530675926e+004,-2.56687173429462e+001,-3.07357101826177e+000

9.98664439121282e+004,-2.56689407222898e+001,-3.11632760346022e+000

1.01260527517622e+005,-2.56691701678004e+001,-3.15967499351637e+000

1.02674071805032e+005,-2.56694058384728e+001,-3.20362119696684e+000

1.04107348435354e+005,-2.56696478971664e+001,-3.24817432523766e+000

1.05560632861831e+005,-2.56698965106841e+001,-3.29334259378269e+000

1.07034204382888e+005,-2.56701518498513e+001,-3.33913432323183e+000

1.08528346195813e+005,-2.56704140895959e+001,-3.38555794054658e+000

1.10043345451179e+005,-2.56706834090297e+001,-3.43262198018330e+000

1.11579493308032e+005,-2.56709599915292e+001,-3.48033508526761e+000

1.13137084989847e+005,-2.56712440248186e+001,-3.52870600877529e+000

1.14716419841265e+005,-2.56715357010523e+001,-3.57774361472254e+000

1.16317801385624e+005,-2.56718352168987e+001,-3.62745687936703e+000

1.17941537383287e+005,-2.56721427736239e+001,-3.67785489241612e+000

1.19587939890794e+005,-2.56724585771772e+001,-3.72894685824590e+000

1.21257325320831e+005,-2.56727828382752e+001,-3.78074209713015e+000

1.22950014503040e+005,-2.56731157724885e+001,-3.83325004647840e+000

1.24666332745679e+005,-2.56734576003266e+001,-3.88648026208600e+000

1.26406609898139e+005,-2.56738085473252e+001,-3.94044241939335e+000

1.28171180414339e+005,-2.56741688441322e+001,-3.99514631475728e+000

1.29960383416997e+005,-2.56745387265948e+001,-4.05060186673395e+000

1.31774562762811e+005,-2.56749184358466e+001,-4.10681911737410e+000

1.33614067108538e+005,-2.56753082183947e+001,-4.16380823352927e+000

1.35479249978003e+005,-2.56757083262069e+001,-4.22157950817348e+000

1.37370469830040e+005,-2.56761190167995e+001,-4.28014336173649e+000

1.39288090127379e+005,-2.56765405533236e+001,-4.33951034345315e+000

1.41232479406504e+005,-2.56769732046533e+001,-4.39969113272624e+000

1.43204011348474e+005,-2.56774172454724e+001,-4.46069654050568e+000

1.45203064850745e+005,-2.56778729563610e+001,-4.52253751068535e+000

1.47230024099979e+005,-2.56783406238825e+001,-4.58522512151509e+000

1.49285278645888e+005,-2.56788205406696e+001,-4.64877058703300e+000

1.51369223476094e+005,-2.56793130055111e+001,-4.71318525851576e+000

1.53482259092041e+005,-2.56798183234366e+001,-4.77848062595061e+000

1.55624791585964e+005,-2.56803368058023e+001,-4.84466831952682e+000

1.57797232718936e+005,-2.56808687703758e+001,-4.91176011115157e+000

1.59999999999999e+005,-2.56814145414206e+001,-4.97976791598898e+000

1.62233516766403e+005,-2.56819744497794e+001,-5.04870379402367e+000

1.64498212264969e+005,-2.56825488329583e+001,-5.11857995165239e+000

1.66794521734578e+005,-2.56831380352090e+001,-5.18940874330140e+000

1.69122886489819e+005,-2.56837424076115e+001,-5.26120267307599e+000

1.71483754005805e+005,-2.56843623081560e+001,-5.33397439643850e+000

1.73877578004168e+005,-2.56849981018242e+001,-5.40773672192098e+000

1.76304818540256e+005,-2.56856501606703e+001,-5.48250261287178e+000

1.78765942091554e+005,-2.56863188639018e+001,-5.55828518923863e+000

1.81261421647326e+005,-2.56870045979593e+001,-5.63509772938884e+000

1.83791736799524e+005,-2.56877077565972e+001,-5.71295367197189e+000

1.86357373834951e+005,-2.56884287409630e+001,-5.79186661782240e+000

1.88958825828723e+005,-2.56891679596772e+001,-5.87185033190836e+000

1.91596592739027e+005,-2.56899258289135e+001,-5.95291874532577e+000

1.94271181503206e+005,-2.56907027724788e+001,-6.03508595734125e+000

1.96983106135185e+005,-2.56914992218934e+001,-6.11836623748772e+000

1.99732887824256e+005,-2.56923156164728e+001,-6.20277402771078e+000

2.02521055035243e+005,-2.56931524034089e+001,-6.28832394457276e+000

2.05348143610063e+005,-2.56940100378536e+001,-6.37503078151435e+000

2.08214696870707e+005,-2.56948889830027e+001,-6.46290951117704e+000

2.11121265723661e+005,-2.56957897101820e+001,-6.55197528778798e+000

2.14068408765776e+005,-2.56967126989355e+001,-6.64224344961075e+000

2.17056692391625e+005,-2.56976584371150e+001,-6.73372952146483e+000

2.20086690902357e+005,-2.56986274209733e+001,-6.82644921731468e+000

2.23158986616063e+005,-2.56996201552605e+001,-6.92041844293176e+000

2.26274169979693e+005,-2.57006371533232e+001,-7.01565329863250e+000

2.29432839682530e+005,-2.57016789372082e+001,-7.11217008209369e+000

2.32635602771247e+005,-2.57027460377711e+001,-7.20998529124774e+000

2.35883074766574e+005,-2.57038389947895e+001,-7.30911562726033e+000

2.39175879781588e+005,-2.57049583570825e+001,-7.40957799759237e+000

2.42514650641661e+005,-2.57061046826359e+001,-7.51138951914824e+000

2.45900029006080e+005,-2.57072785387353e+001,-7.61456752151286e+000

2.49332665491357e+005,-2.57084805021068e+001,-7.71912955027775e+000

2.52813219796278e+005,-2.57097111590657e+001,-7.82509337045868e+000

2.56342360828676e+005,-2.57109711056752e+001,-7.93247697000792e+000

2.59920766833993e+005,-2.57122609479154e+001,-8.04129856341757e+000

2.63549125525621e+005,-2.57135813018626e+001,-8.15157659542065e+000

2.67228134217075e+005,-2.57149327938817e+001,-8.26332974478519e+000

2.70958499956006e+005,-2.57163160608301e+001,-8.37657692820707e+000

2.74740939660078e+005,-2.57177317502772e+001,-8.49133730429584e+000

2.78576180254757e+005,-2.57191805207371e+001,-8.60763027765804e+000

2.82464958813007e+005,-2.57206630419188e+001,-8.72547550307536e+000

2.86408022696948e+005,-2.57221799949921e+001,-8.84489288977660e+000

2.90406129701488e+005,-2.57237320728725e+001,-8.96590260580216e+000

2.94460048199957e+005,-2.57253199805250e+001,-9.08852508245937e+000

2.98570557291775e+005,-2.57269444352882e+001,-9.21278101886743e+000

3.02738446952187e+005,-2.57286061672197e+001,-9.33869138658641e+000

3.06964518184081e+005,-2.57303059194648e+001,-9.46627743433094e+000

3.11249583171928e+005,-2.57320444486480e+001,-9.59556069276148e+000

3.15594465437872e+005,-2.57338225252907e+001,-9.72656297935140e+000

3.19999999999997e+005,-2.57356409342537e+001,-9.85930640332382e+000

3.24467033532806e+005,-2.57375004752078e+001,-9.99381337065408e+000

3.28996424529938e+005,-2.57394019631329e+001,-1.01301065891305e+001

3.33589043469155e+005,-2.57413462288458e+001,-1.02682090734693e+001

3.38245772979638e+005,-2.57433341195594e+001,-1.04081441504744e+001

3.42967508011610e+005,-2.57453664994734e+001,-1.05499354642378e+001

3.47755156008335e+005,-2.57474442503974e+001,-1.06936069813687e+001

3.52609637080511e+005,-2.57495682724076e+001,-1.08391829962473e+001

3.57531884183106e+005,-2.57517394845389e+001,-1.09866881362903e+001

3.62522843294651e+005,-2.57539588255119e+001,-1.11361473672209e+001

3.67583473599047e+005,-2.57562272544957e+001,-1.12875859983342e+001

3.72714747669902e+005,-2.57585457519089e+001,-1.14410296877438e+001

3.77917651657445e+005,-2.57609153202575e+001,-1.15965044476029e+001

3.83193185478053e+005,-2.57633369850114e+001,-1.17540366492863e+001

3.88542363006410e+005,-2.57658117955197e+001,-1.19136530285212e+001

3.93966212270369e+005,-2.57683408259656e+001,-1.20753806904572e+001

3.99465775648511e+005,-2.57709251763604e+001,-1.22392471146588e+001

4.05042110070485e+005,-2.57735659735776e+001,-1.24052801600127e+001

4.10696287220124e+005,-2.57762643724272e+001,-1.25735080695332e+001

4.16429393741414e+005,-2.57790215567698e+001,-1.27439594750537e+001

4.22242531447321e+005,-2.57818387406708e+001,-1.29166634017911e+001

4.28136817531551e+005,-2.57847171695942e+001,-1.30916492727695e+001

4.34113384783250e+005,-2.57876581216363e+001,-1.32689469130897e+001

4.40173381804713e+005,-2.57906629087982e+001,-1.34485865540297e+001

4.46317973232124e+005,-2.57937328782971e+001,-1.36305988369660e+001

4.52548339959385e+005,-2.57968694139153e+001,-1.38150148170971e+001

4.58865679365059e+005,-2.58000739373869e+001,-1.40018659669606e+001

4.65271205542494e+005,-2.58033479098206e+001,-1.41911841797279e+001

4.71766149533147e+005,-2.58066928331581e+001,-1.43830017722641e+001

4.78351759563174e+005,-2.58101102516671e+001,-1.45773514879415e+001

4.85029301283321e+005,-2.58136017534672e+001,-1.47742664991913e+001

4.91800058012158e+005,-2.58171689720882e+001,-1.49737804097860e+001

4.98665330982714e+005,-2.58208135880592e+001,-1.51759272568356e+001

5.05626439592555e+005,-2.58245373305266e+001,-1.53807415124905e+001

5.12684721657352e+005,-2.58283419789004e+001,-1.55882580853379e+001

5.19841533667984e+005,-2.58322293645265e+001,-1.57985123214815e+001

5.27098251051240e+005,-2.58362013723832e+001,-1.60115400052961e+001

5.34456268434150e+005,-2.58402599428019e+001,-1.62273773598454e+001

5.41916999912011e+005,-2.58444070732070e+001,-1.64460610469560e+001

