Freq.,VOut,OutRef

1.00000000000000e+004,-1.94381250031190e+001,-2.64390383832774e-001

1.01395947979003e+004,-1.94381263578043e+001,-2.68081040030529e-001

1.02811382665607e+004,-1.94381277505600e+001,-2.71823211793898e-001

1.04246576084112e+004,-1.94381291824558e+001,-2.75617618079120e-001

1.05701804056138e+004,-1.94381306545909e+001,-2.79464987873804e-001

1.07177346253629e+004,-1.94381321680960e+001,-2.83366060332008e-001

1.08673486252606e+004,-1.94381337241331e+001,-2.87321584919224e-001

1.10190511587661e+004,-1.94381353238965e+001,-2.91332321555867e-001

1.11728713807222e+004,-1.94381369686148e+001,-2.95399040759253e-001

1.13288388529580e+004,-1.94381386595506e+001,-2.99522523795225e-001

1.14869835499703e+004,-1.94381403980019e+001,-3.03703562826618e-001

1.16473358646846e+004,-1.94381421853032e+001,-3.07942961063846e-001

1.18099266142953e+004,-1.94381440228266e+001,-3.12241532919644e-001

1.19747870461893e+004,-1.94381459119825e+001,-3.16600104164910e-001

1.21419488439505e+004,-1.94381478542210e+001,-3.21019512086758e-001

1.23114441334492e+004,-1.94381498510326e+001,-3.25500605649285e-001

1.24833054890161e+004,-1.94381519039502e+001,-3.30044245654339e-001

1.26575659397028e+004,-1.94381540145489e+001,-3.34651304909961e-001

1.28342589756290e+004,-1.94381561844486e+001,-3.39322668392030e-001

1.30134185544193e+004,-1.94381584153145e+001,-3.44059233418445e-001

1.31950791077289e+004,-1.94381607088583e+001,-3.48861909819215e-001

1.33792755478611e+004,-1.94381630668399e+001,-3.53731620108360e-001

1.35660432744767e+004,-1.94381654910683e+001,-3.58669299664788e-001

1.37554181813974e+004,-1.94381679834036e+001,-3.63675896906232e-001

1.39474366635040e+004,-1.94381705457576e+001,-3.68752373475327e-001

1.41421356237309e+004,-1.94381731800963e+001,-3.73899704418407e-001

1.43395524801583e+004,-1.94381758884401e+001,-3.79118878377832e-001

1.45397251732031e+004,-1.94381786728665e+001,-3.84410897776049e-001

1.47426921729110e+004,-1.94381815355111e+001,-3.89776779008619e-001

1.49484924863494e+004,-1.94381844785693e+001,-3.95217552639995e-001

1.51571656651040e+004,-1.94381875042982e+001,-4.00734263598075e-001

1.53687518128801e+004,-1.94381906150179e+001,-4.06327971376159e-001

1.55832915932100e+004,-1.94381938131134e+001,-4.11999750233796e-001

1.58008262372675e+004,-1.94381971010371e+001,-4.17750689400588e-001

1.60213975517924e+004,-1.94382004813096e+001,-4.23581893287649e-001

1.62450479271247e+004,-1.94382039565219e+001,-4.29494481696886e-001

1.64718203453514e+004,-1.94382075293382e+001,-4.35489590032837e-001

1.67017583885674e+004,-1.94382112024968e+001,-4.41568369521972e-001

1.69349062472505e+004,-1.94382149788129e+001,-4.47731987430452e-001

1.71713087287550e+004,-1.94382188611803e+001,-4.53981627288730e-001

1.74110112659224e+004,-1.94382228525743e+001,-4.60318489114667e-001

1.76540599258131e+004,-1.94382269560527e+001,-4.66743789645778e-001

1.79005014185594e+004,-1.94382311747594e+001,-4.73258762567239e-001

1.81503831063432e+004,-1.94382355119265e+001,-4.79864658749276e-001

1.84037530124975e+004,-1.94382399708757e+001,-4.86562746487268e-001

1.86606598307361e+004,-1.94382445550224e+001,-4.93354311737528e-001

1.89211529345119e+004,-1.94382492678772e+001,-5.00240658369338e-001

1.91852823865052e+004,-1.94382541130488e+001,-5.07223108408136e-001

1.94530989482457e+004,-1.94382590942470e+001,-5.14303002288617e-001

1.97246540898671e+004,-1.94382642152853e+001,-5.21481699110321e-001

1.99999999999999e+004,-1.94382694800836e+001,-5.28760576896802e-001

2.02791895958005e+004,-1.94382748926716e+001,-5.36141032854818e-001

2.05622765331213e+004,-1.94382804571914e+001,-5.43624483643463e-001

2.08493152168224e+004,-1.94382861779010e+001,-5.51212365641263e-001

2.11403608112276e+004,-1.94382920591770e+001,-5.58906135220425e-001

2.14354692507258e+004,-1.94382981055190e+001,-5.66707269020706e-001

2.17346972505211e+004,-1.94383043215512e+001,-5.74617264235293e-001

2.20381023175322e+004,-1.94383107120278e+001,-5.82637638888408e-001

2.23457427614443e+004,-1.94383172818353e+001,-5.90769932128365e-001

2.26576777059159e+004,-1.94383240359964e+001,-5.99015704517461e-001

2.29739670999406e+004,-1.94383309796745e+001,-6.07376538327572e-001

2.32946717293690e+004,-1.94383381181764e+001,-6.15854037842248e-001

2.36198532285905e+004,-1.94383454569573e+001,-6.24449829657761e-001

2.39495740923785e+004,-1.94383530016244e+001,-6.33165562993197e-001

2.42838976879009e+004,-1.94383607579414e+001,-6.42002910001494e-001

2.46228882668982e+004,-1.94383687318321e+001,-6.50963566088409e-001

2.49666109780322e+004,-1.94383769293860e+001,-6.60049250229305e-001

2.53151318794055e+004,-1.94383853568619e+001,-6.69261705297725e-001

2.56685179512580e+004,-1.94383940206930e+001,-6.78602698392563e-001

2.60268371088386e+004,-1.94384029274913e+001,-6.88074021174055e-001

2.63901582154578e+004,-1.94384120840535e+001,-6.97677490199023e-001

2.67585510957221e+004,-1.94384214973647e+001,-7.07414947267199e-001

2.71320865489533e+004,-1.94384311746049e+001,-7.17288259766068e-001

2.75108363627948e+004,-1.94384411231534e+001,-7.27299321024573e-001

2.78948733270080e+004,-1.94384513505948e+001,-7.37450050668834e-001

2.82842712474618e+004,-1.94384618647244e+001,-7.47742394985226e-001

2.86791049603164e+004,-1.94384726735544e+001,-7.58178327283541e-001

2.90794503464061e+004,-1.94384837853191e+001,-7.68759848273334e-001

2.94853843458219e+004,-1.94384952084818e+001,-7.79488986434781e-001

2.98969849726987e+004,-1.94385069517404e+001,-7.90367798404236e-001

3.03143313302078e+004,-1.94385190240343e+001,-8.01398369357529e-001

3.07375036257601e+004,-1.94385314345509e+001,-8.12582813402480e-001

3.11665831864199e+004,-1.94385441927323e+001,-8.23923273975445e-001

3.16016524745350e+004,-1.94385573082820e+001,-8.35421924243696e-001

3.20427951035848e+004,-1.94385707911727e+001,-8.47080967511016e-001

3.24900958542493e+004,-1.94385846516530e+001,-8.58902637631477e-001

3.29436406907028e+004,-1.94385989002554e+001,-8.70889199426109e-001

3.34035167771346e+004,-1.94386135478036e+001,-8.83042949107117e-001

3.38698124945009e+004,-1.94386286054207e+001,-8.95366214707003e-001

3.43426174575100e+004,-1.94386440845372e+001,-9.07861356511989e-001

3.48220225318448e+004,-1.94386599968998e+001,-9.20530767502117e-001

3.53081198516260e+004,-1.94386763545790e+001,-9.33376873799391e-001

3.58010028371187e+004,-1.94386931699789e+001,-9.46402135115958e-001

3.63007662126863e+004,-1.94387104558457e+001,-9.59609045214571e-001

3.68075060249948e+004,-1.94387282252770e+001,-9.73000132370136e-001

3.73213196614721e+004,-1.94387464917314e+001,-9.86577959840594e-001

3.78423058690237e+004,-1.94387652690381e+001,-1.00034512634164e+000

3.83705647730104e+004,-1.94387845714072e+001,-1.01430426652716e+000

3.89061978964912e+004,-1.94388044134395e+001,-1.02845805148062e+000

3.94493081797342e+004,-1.94388248101372e+001,-1.04280918920469e+000

3.99999999999998e+004,-1.94388457769150e+001,-1.05736042512496e+000

4.05583791916010e+004,-1.94388673296107e+001,-1.07211454259446e+000

4.11245530662425e+004,-1.94388894844965e+001,-1.08707436340925e+000

4.16986304336447e+004,-1.94389122582913e+001,-1.10224274832509e+000

4.22807216224550e+004,-1.94389356681717e+001,-1.11762259758634e+000

4.28709385014515e+004,-1.94389597317850e+001,-1.13321685145733e+000

4.34693945010421e+004,-1.94389844672611e+001,-1.14902849076288e+000

4.40762046350642e+004,-1.94390098932259e+001,-1.16506053743388e+000

4.46914855228886e+004,-1.94390360288140e+001,-1.18131605506147e+000

4.53153554118317e+004,-1.94390628936823e+001,-1.19779814945669e+000

4.59479341998812e+004,-1.94390905080242e+001,-1.21450996921748e+000

4.65893434587380e+004,-1.94391188925830e+001,-1.23145470630296e+000

4.72397064571810e+004,-1.94391480686674e+001,-1.24863559661466e+000

4.78991481847569e+004,-1.94391780581653e+001,-1.26605592058500e+000

4.85677953758016e+004,-1.94392088835599e+001,-1.28371900377370e+000

4.92457765337964e+004,-1.94392405679447e+001,-1.30162821746936e+000

4.99332219560642e+004,-1.94392731350399e+001,-1.31978697930094e+000

5.06302637588109e+004,-1.94393066092085e+001,-1.33819875385447e+000

5.13370359025159e+004,-1.94393410154730e+001,-1.35686705329973e+000

5.20536742176771e+004,-1.94393763795327e+001,-1.37579543802231e+000

5.27803164309155e+004,-1.94394127277814e+001,-1.39498751726348e+000

5.35171021914442e+004,-1.94394500873249e+001,-1.41444694976922e+000

5.42641730979066e+004,-1.94394884859997e+001,-1.43417744444628e+000

5.50216727255895e+004,-1.94395279523920e+001,-1.45418276102449e+000

5.57897466540159e+004,-1.94395685158564e+001,-1.47446671073001e+000

5.65685424949235e+004,-1.94396102065362e+001,-1.49503315696362e+000

5.73582099206328e+004,-1.94396530553830e+001,-1.51588601598868e+000

5.81589006928121e+004,-1.94396970941776e+001,-1.53702925762741e+000

5.89707686916437e+004,-1.94397423555511e+001,-1.55846690596297e+000

5.97939699453972e+004,-1.94397888730064e+001,-1.58020304005231e+000

6.06286626604156e+004,-1.94398366809399e+001,-1.60224179464672e+000

6.14750072515201e+004,-1.94398858146646e+001,-1.62458736091881e+000

6.23331663728396e+004,-1.94399363104325e+001,-1.64724398720079e+000

6.32033049490698e+004,-1.94399882054584e+001,-1.67021597972849e+000

6.40855902071694e+004,-1.94400415379440e+001,-1.69350770339515e+000

6.49801917084985e+004,-1.94400963471021e+001,-1.71712358251431e+000

6.58872813814055e+004,-1.94401526731819e+001,-1.74106810158938e+000

6.68070335542691e+004,-1.94402105574944e+001,-1.76534580609431e+000

6.77396249890018e+004,-1.94402700424385e+001,-1.78996130326064e+000

6.86852349150199e+004,-1.94403311715277e+001,-1.81491926287396e+000

6.96440450636895e+004,-1.94403939894172e+001,-1.84022441808110e+000

7.06162397032520e+004,-1.94404585419316e+001,-1.86588156620291e+000

7.16020056742374e+004,-1.94405248760934e+001,-1.89189556955832e+000

7.26015324253724e+004,-1.94405930401511e+001,-1.91827135629748e+000

7.36150120499896e+004,-1.94406630836098e+001,-1.94501392124064e+000

7.46426393229441e+004,-1.94407350572597e+001,-1.97212832673133e+000

7.56846117380472e+004,-1.94408090132078e+001,-1.99961970349466e+000

7.67411295460207e+004,-1.94408850049082e+001,-2.02749325150547e+000

7.78123957929823e+004,-1.94409630871942e+001,-2.05575424086694e+000

7.88986163594682e+004,-1.94410433163101e+001,-2.08440801269799e+000

7.99999999999995e+004,-1.94411257499446e+001,-2.11345998002931e+000

8.11167583832018e+004,-1.94412104472632e+001,-2.14291562870953e+000

8.22491061324848e+004,-1.94412974689434e+001,-2.17278051832021e+000

8.33972608672892e+004,-1.94413868772078e+001,-2.20306028310156e+000

8.45614432449099e+004,-1.94414787358604e+001,-2.23376063288639e+000

8.57418770029029e+004,-1.94415731103213e+001,-2.26488735404421e+000

8.69387890020841e+004,-1.94416700676638e+001,-2.29644631043492e+000

8.81524092701283e+004,-1.94417696766502e+001,-2.32844344437255e+000

8.93829710457770e+004,-1.94418720077698e+001,-2.36088477759880e+000

9.06307108236633e+004,-1.94419771332767e+001,-2.39377641226584e+000

9.18958683997622e+004,-1.94420851272278e+001,-2.42712453193031e+000

9.31786869174758e+004,-1.94421960655224e+001,-2.46093540255500e+000

9.44794129143618e+004,-1.94423100259411e+001,-2.49521537352476e+000

9.57982963695136e+004,-1.94424270881861e+001,-2.52997087866772e+000

9.71355907516031e+004,-1.94425473339217e+001,-2.56520843729016e+000

9.84915530675926e+004,-1.94426708468153e+001,-2.60093465522159e+000

9.98664439121282e+004,-1.94427977125789e+001,-2.63715622586788e+000

1.01260527517622e+005,-1.94429280190107e+001,-2.67387993127856e+000

1.02674071805032e+005,-1.94430618560384e+001,-2.71111264322124e+000

1.04107348435354e+005,-1.94431993157611e+001,-2.74886132426994e+000

1.05560632861831e+005,-1.94433404924934e+001,-2.78713302890217e+000

1.07034204382888e+005,-1.94434854828084e+001,-2.82593490460821e+000

1.08528346195813e+005,-1.94436343855823e+001,-2.86527419301225e+000

1.10043345451179e+005,-1.94437873020386e+001,-2.90515823100315e+000

1.11579493308032e+005,-1.94439443357929e+001,-2.94559445187815e+000

1.13137084989847e+005,-1.94441055928982e+001,-2.98659038649834e+000

1.14716419841265e+005,-1.94442711818901e+001,-3.02815366445594e+000

1.16317801385624e+005,-1.94444412138325e+001,-3.07029201525299e+000

1.17941537383287e+005,-1.94446158023638e+001,-3.11301326949395e+000

1.19587939890794e+005,-1.94447950637424e+001,-3.15632536009039e+000

1.21257325320831e+005,-1.94449791168937e+001,-3.20023632347742e+000

1.22950014503040e+005,-1.94451680834564e+001,-3.24475430084587e+000

1.24666332745679e+005,-1.94453620878287e+001,-3.28988753938508e+000

1.26406609898139e+005,-1.94455612572157e+001,-3.33564439354272e+000

1.28171180414339e+005,-1.94457657216753e+001,-3.38203332629581e+000

1.29960383416997e+005,-1.94459756141659e+001,-3.42906291043872e+000

1.31774562762811e+005,-1.94461910705924e+001,-3.47674182988436e+000

1.33614067108538e+005,-1.94464122298534e+001,-3.52507888098225e+000

1.35479249978003e+005,-1.94466392338879e+001,-3.57408297385182e+000

1.37370469830040e+005,-1.94468722277214e+001,-3.62376313373144e+000

1.39288090127379e+005,-1.94471113595127e+001,-3.67412850234597e+000

1.41232479406504e+005,-1.94473567806001e+001,-3.72518833928999e+000

1.43204011348474e+005,-1.94476086455473e+001,-3.77695202343081e+000

1.45203064850745e+005,-1.94478671121893e+001,-3.82942905432728e+000

1.47230024099979e+005,-1.94481323416776e+001,-3.88262905367230e+000

1.49285278645888e+005,-1.94484044985258e+001,-3.93656176675089e+000

1.51369223476094e+005,-1.94486837506541e+001,-3.99123706392147e+000

1.53482259092041e+005,-1.94489702694342e+001,-4.04666494211787e+000

1.55624791585964e+005,-1.94492642297328e+001,-4.10285552637465e+000

1.57797232718936e+005,-1.94495658099558e+001,-4.15981907137368e+000

1.59999999999999e+005,-1.94498751920911e+001,-4.21756596301627e+000

1.62233516766403e+005,-1.94501925617521e+001,-4.27610672002055e+000

1.64498212264969e+005,-1.94505181082192e+001,-4.33545199554350e+000

1.66794521734578e+005,-1.94508520244821e+001,-4.39561257883143e+000

1.69122886489819e+005,-1.94511945072816e+001,-4.45659939689783e+000

1.71483754005805e+005,-1.94515457571497e+001,-4.51842351623063e+000

1.73877578004168e+005,-1.94519059784509e+001,-4.58109614453051e+000

1.76304818540256e+005,-1.94522753794216e+001,-4.64462863248070e+000

1.78765942091554e+005,-1.94526541722104e+001,-4.70903247554891e+000

1.81261421647326e+005,-1.94530425729171e+001,-4.77431931582492e+000

1.83791736799524e+005,-1.94534408016315e+001,-4.84050094389393e+000

1.86357373834951e+005,-1.94538490824724e+001,-4.90758930074543e+000

1.88958825828723e+005,-1.94542676436260e+001,-4.97559647972309e+000

1.91596592739027e+005,-1.94546967173841e+001,-5.04453472851269e+000

1.94271181503206e+005,-1.94551365401823e+001,-5.11441645117344e+000

1.96983106135185e+005,-1.94555873526388e+001,-5.18525421021167e+000

1.99732887824256e+005,-1.94560493995925e+001,-5.25706072869949e+000

2.02521055035243e+005,-1.94565229301417e+001,-5.32984889244074e+000

2.05348143610063e+005,-1.94570081976837e+001,-5.40363175218498e+000

2.08214696870707e+005,-1.94575054599542e+001,-5.47842252589089e+000

2.11121265723661e+005,-1.94580149790682e+001,-5.55423460104255e+000

2.14068408765776e+005,-1.94585370215612e+001,-5.63108153701869e+000

2.17056692391625e+005,-1.94590718584321e+001,-5.70897706751712e+000

2.20086690902357e+005,-1.94596197651874e+001,-5.78793510303609e+000

2.23158986616063e+005,-1.94601810218867e+001,-5.86796973341563e+000

2.26274169979693e+005,-1.94607559131905e+001,-5.94909523043777e+000

2.29432839682530e+005,-1.94613447284103e+001,-6.03132605049016e+000

2.32635602771247e+005,-1.94619477615608e+001,-6.11467683729370e+000

2.35883074766574e+005,-1.94625653114152e+001,-6.19916242469507e+000

2.39175879781588e+005,-1.94631976815641e+001,-6.28479783952696e+000

2.42514650641661e+005,-1.94638451804778e+001,-6.37159830453728e+000

2.45900029006080e+005,-1.94645081215716e+001,-6.45957924138859e+000

2.49332665491357e+005,-1.94651868232779e+001,-6.54875627372835e+000

2.52813219796278e+005,-1.94658816091208e+001,-6.63914523033364e+000

2.56342360828676e+005,-1.94665928077974e+001,-6.73076214832808e+000

2.59920766833993e+005,-1.94673207532652e+001,-6.82362327647637e+000

2.63549125525621e+005,-1.94680657848350e+001,-6.91774507855271e+000

2.67228134217075e+005,-1.94688282472711e+001,-7.01314423678803e+000

2.70958499956006e+005,-1.94696084909001e+001,-7.10983765539289e+000

2.74740939660078e+005,-1.94704068717258e+001,-7.20784246416116e+000

2.78576180254757e+005,-1.94712237515552e+001,-7.30717602214904e+000

2.82464958813007e+005,-1.94720594981318e+001,-7.40785592143529e+000

2.86408022696948e+005,-1.94729144852803e+001,-7.50989999095771e+000

2.90406129701488e+005,-1.94737890930614e+001,-7.61332630042887e+000

2.94460048199957e+005,-1.94746837079382e+001,-7.71815316432937e+000

2.98570557291775e+005,-1.94755987229547e+001,-7.82439914597670e+000

3.02738446952187e+005,-1.94765345379266e+001,-7.93208306167014e+000

3.06964518184081e+005,-1.94774915596464e+001,-8.04122398491088e+000

3.11249583171928e+005,-1.94784702021020e+001,-8.15184125069256e+000

3.15594465437872e+005,-1.94794708867105e+001,-8.26395445986457e+000

3.19999999999997e+005,-1.94804940425676e+001,-8.37758348356240e+000

3.24467033532806e+005,-1.94815401067135e+001,-8.49274846770420e+000

3.28996424529938e+005,-1.94826095244155e+001,-8.60946983755089e+000

3.33589043469155e+005,-1.94837027494686e+001,-8.72776830232579e+000

3.38245772979638e+005,-1.94848202445146e+001,-8.84766485989070e+000

3.42967508011610e+005,-1.94859624813803e+001,-8.96918080147480e+000

3.47755156008335e+005,-1.94871299414354e+001,-9.09233771645276e+000

3.52609637080511e+005,-1.94883231159709e+001,-9.21715749716604e+000

3.57531884183106e+005,-1.94895425065984e+001,-9.34366234378498e+000

3.62522843294651e+005,-1.94907886256709e+001,-9.47187476920504e+000

3.67583473599047e+005,-1.94920619967268e+001,-9.60181760397196e+000

3.72714747669902e+005,-1.94933631549544e+001,-9.73351400123226e+000

3.77917651657445e+005,-1.94946926476821e+001,-9.86698744169984e+000

3.83193185478053e+005,-1.94960510348900e+001,-1.00022617386368e+001

3.88542363006410e+005,-1.94974388897470e+001,-1.01393610428381e+001

3.93966212270369e+005,-1.94988567991712e+001,-1.02783098476169e+001

3.99465775648511e+005,-1.95003053644155e+001,-1.04191329937820e+001

4.05042110070485e+005,-1.95017852016775e+001,-1.05618556746011e+001

4.10696287220124e+005,-1.95032969427349e+001,-1.07065034407433e+001

4.16429393741414e+005,-1.95048412356055e+001,-1.08531022051928e+001

4.22242531447321e+005,-1.95064187452331e+001,-1.10016782481272e+001

4.28136817531551e+005,-1.95080301541978e+001,-1.11522582217540e+001

4.34113384783250e+005,-1.95096761634520e+001,-1.13048691550955e+001

4.40173381804713e+005,-1.95113574930812e+001,-1.14595384587181e+001

4.46317973232124e+005,-1.95130748830899e+001,-1.16162939293954e+001

4.52548339959385e+005,-1.95148290942116e+001,-1.17751637547006e+001

4.58865679365059e+005,-1.95166209087441e+001,-1.19361765175185e+001

4.65271205542494e+005,-1.95184511314078e+001,-1.20993612004733e+001

4.71766149533147e+005,-1.95203205902282e+001,-1.22647471902608e+001

4.78351759563174e+005,-1.95222301374418e+001,-1.24323642818826e+001

4.85029301283321e+005,-1.95241806504237e+001,-1.26022426827724e+001

4.91800058012158e+005,-1.95261730326385e+001,-1.27744130168095e+001

4.98665330982714e+005,-1.95282082146117e+001,-1.29489063282133e+001

5.05626439592555e+005,-1.95302871549230e+001,-1.31257540853122e+001

5.12684721657352e+005,-1.95324108412186e+001,-1.33049881841808e+001

5.19841533667984e+005,-1.95345802912442e+001,-1.34866409521408e+001

5.27098251051240e+005,-1.95367965538959e+001,-1.36707451511205e+001

5.34456268434150e+005,-1.95390607102896e+001,-1.38573339808664e+001

5.41916999912011e+005,-1.95413738748474e+001,-1.40464410820040e+001

