Freq.,VOut,OutRef

1.00000000000000e+004,-1.34970836509718e+000,-1.13981770559493e-001

1.01395947979003e+004,-1.34970832876832e+000,-1.15572895861119e-001

1.02811382665607e+004,-1.34970829141786e+000,-1.17186232405526e-001

1.04246576084112e+004,-1.34970825301707e+000,-1.18822090248328e-001

1.05701804056138e+004,-1.34970821353650e+000,-1.20480783773106e-001

1.07177346253629e+004,-1.34970817294580e+000,-1.22162631751949e-001

1.08673486252606e+004,-1.34970813121362e+000,-1.23867957407970e-001

1.10190511587661e+004,-1.34970808830794e+000,-1.25597088474871e-001

1.11728713807222e+004,-1.34970804419584e+000,-1.27350357261205e-001

1.13288388529580e+004,-1.34970799884305e+000,-1.29128100716860e-001

1.14869835499703e+004,-1.34970795221515e+000,-1.30930660490487e-001

1.16473358646846e+004,-1.34970790427600e+000,-1.32758383004124e-001

1.18099266142953e+004,-1.34970785498864e+000,-1.34611619514770e-001

1.19747870461893e+004,-1.34970780431531e+000,-1.36490726181250e-001

1.21419488439505e+004,-1.34970775221694e+000,-1.38396064134884e-001

1.23114441334492e+004,-1.34970769865358e+000,-1.40327999547662e-001

1.24833054890161e+004,-1.34970764358370e+000,-1.42286903705235e-001

1.26575659397028e+004,-1.34970758696536e+000,-1.44273153071341e-001

1.28342589756290e+004,-1.34970752875463e+000,-1.46287129370612e-001

1.30134185544193e+004,-1.34970746890698e+000,-1.48329219651337e-001

1.31950791077289e+004,-1.34970740737620e+000,-1.50399816367772e-001

1.33792755478611e+004,-1.34970734411492e+000,-1.52499317451704e-001

1.35660432744767e+004,-1.34970727907459e+000,-1.54628126388452e-001

1.37554181813974e+004,-1.34970721220503e+000,-1.56786652297488e-001

1.39474366635040e+004,-1.34970714345487e+000,-1.58975310007697e-001

1.41421356237309e+004,-1.34970707277124e+000,-1.61194520138985e-001

1.43395524801583e+004,-1.34970700009949e+000,-1.63444709184359e-001

1.45397251732031e+004,-1.34970692538400e+000,-1.65726309587304e-001

1.47426921729110e+004,-1.34970684856709e+000,-1.68039759830084e-001

1.49484924863494e+004,-1.34970676958975e+000,-1.70385504514538e-001

1.51571656651040e+004,-1.34970668839098e+000,-1.72763994450211e-001

1.53687518128801e+004,-1.34970660490852e+000,-1.75175686737281e-001

1.55832915932100e+004,-1.34970651907784e+000,-1.77621044859227e-001

1.58008262372675e+004,-1.34970643083322e+000,-1.80100538765624e-001

1.60213975517924e+004,-1.34970634010643e+000,-1.82614644970397e-001

1.62450479271247e+004,-1.34970624682772e+000,-1.85163846635990e-001

1.64718203453514e+004,-1.34970615092523e+000,-1.87748633671047e-001

1.67017583885674e+004,-1.34970605232532e+000,-1.90369502820344e-001

1.69349062472505e+004,-1.34970595095179e+000,-1.93026957766256e-001

1.71713087287550e+004,-1.34970584672671e+000,-1.95721509219250e-001

1.74110112659224e+004,-1.34970573956990e+000,-1.98453675019170e-001

1.76540599258131e+004,-1.34970562939872e+000,-2.01223980235675e-001

1.79005014185594e+004,-1.34970551612841e+000,-2.04032957265905e-001

1.81503831063432e+004,-1.34970539967163e+000,-2.06881145940602e-001

1.84037530124975e+004,-1.34970527993881e+000,-2.09769093623842e-001

1.86606598307361e+004,-1.34970515683767e+000,-2.12697355321908e-001

1.89211529345119e+004,-1.34970503027348e+000,-2.15666493786842e-001

1.91852823865052e+004,-1.34970490014862e+000,-2.18677079627592e-001

1.94530989482457e+004,-1.34970476636290e+000,-2.21729691416971e-001

1.97246540898671e+004,-1.34970462881321e+000,-2.24824915804620e-001

1.99999999999999e+004,-1.34970448739368e+000,-2.27963347627766e-001

2.02791895958005e+004,-1.34970434199527e+000,-2.31145590028373e-001

2.05622765331213e+004,-1.34970419250603e+000,-2.34372254566184e-001

2.08493152168224e+004,-1.34970403881059e+000,-2.37643961338709e-001

2.11403608112276e+004,-1.34970388079069e+000,-2.40961339097898e-001

2.14354692507258e+004,-1.34970371832450e+000,-2.44325025372433e-001

2.17346972505211e+004,-1.34970355128681e+000,-2.47735666590385e-001

2.20381023175322e+004,-1.34970337954888e+000,-2.51193918202734e-001

2.23457427614443e+004,-1.34970320297825e+000,-2.54700444810323e-001

2.26576777059159e+004,-1.34970302143882e+000,-2.58255920289896e-001

2.29739670999406e+004,-1.34970283479074e+000,-2.61861027923879e-001

2.32946717293690e+004,-1.34970264289007e+000,-2.65516460533528e-001

2.36198532285905e+004,-1.34970244558867e+000,-2.69222920611102e-001

2.39495740923785e+004,-1.34970224273461e+000,-2.72981120452415e-001

2.42838976879009e+004,-1.34970203417136e+000,-2.76791782297501e-001

2.46228882668982e+004,-1.34970181973806e+000,-2.80655638467078e-001

2.49666109780322e+004,-1.34970159926931e+000,-2.84573431503740e-001

2.53151318794055e+004,-1.34970137259504e+000,-2.88545914314663e-001

2.56685179512580e+004,-1.34970113954041e+000,-2.92573850316117e-001

2.60268371088386e+004,-1.34970089992558e+000,-2.96658013580514e-001

2.63901582154578e+004,-1.34970065356564e+000,-3.00799188984465e-001

2.67585510957221e+004,-1.34970040027045e+000,-3.04998172360814e-001

2.71320865489533e+004,-1.34970013984464e+000,-3.09255770649123e-001

2.75108363627948e+004,-1.34969987208694e+000,-3.13572802054423e-001

2.78948733270080e+004,-1.34969959679097e+000,-3.17950096198963e-001

2.82842712474618e+004,-1.34969931374391e+000,-3.22388494288639e-001

2.86791049603164e+004,-1.34969902272738e+000,-3.26888849267534e-001

2.90794503464061e+004,-1.34969872351659e+000,-3.31452025986821e-001

2.94853843458219e+004,-1.34969841588047e+000,-3.36078901368492e-001

2.98969849726987e+004,-1.34969809958132e+000,-3.40770364574493e-001

3.03143313302078e+004,-1.34969777437481e+000,-3.45527317177303e-001

3.07375036257601e+004,-1.34969744000973e+000,-3.50350673333124e-001

3.11665831864199e+004,-1.34969709622768e+000,-3.55241359957562e-001

3.16016524745350e+004,-1.34969674276289e+000,-3.60200316904295e-001

3.20427951035848e+004,-1.34969637934233e+000,-3.65228497143256e-001

3.24900958542493e+004,-1.34969600568482e+000,-3.70326866948246e-001

3.29436406907028e+004,-1.34969562150158e+000,-3.75496406076857e-001

3.34035167771346e+004,-1.34969522649550e+000,-3.80738107963137e-001

3.38698124945009e+004,-1.34969482036098e+000,-3.86052979906486e-001

3.43426174575100e+004,-1.34969440278395e+000,-3.91442043264456e-001

3.48220225318448e+004,-1.34969397344129e+000,-3.96906333651268e-001

3.53081198516260e+004,-1.34969353200063e+000,-4.02446901134584e-001

3.58010028371187e+004,-1.34969307812050e+000,-4.08064810436867e-001

3.63007662126863e+004,-1.34969261144936e+000,-4.13761141143118e-001

3.68075060249948e+004,-1.34969213162603e+000,-4.19536987903292e-001

3.73213196614721e+004,-1.34969163827877e+000,-4.25393460647611e-001

3.78423058690237e+004,-1.34969113102554e+000,-4.31331684795659e-001

3.83705647730104e+004,-1.34969060947333e+000,-4.37352801474598e-001

3.89061978964912e+004,-1.34969007321790e+000,-4.43457967738287e-001

3.94493081797342e+004,-1.34968952184379e+000,-4.49648356788001e-001

3.99999999999998e+004,-1.34968895492334e+000,-4.55925158200204e-001

4.05583791916010e+004,-1.34968837201702e+000,-4.62289578152040e-001

4.11245530662425e+004,-1.34968777267272e+000,-4.68742839655204e-001

4.16986304336447e+004,-1.34968715642551e+000,-4.75286182789349e-001

4.22807216224550e+004,-1.34968652279712e+000,-4.81920864941781e-001

4.28709385014515e+004,-1.34968587129577e+000,-4.88648161046944e-001

4.34693945010421e+004,-1.34968520141565e+000,-4.95469363832569e-001

4.40762046350642e+004,-1.34968451263645e+000,-5.02385784067892e-001

4.46914855228886e+004,-1.34968380442326e+000,-5.09398750813629e-001

4.53153554118317e+004,-1.34968307622558e+000,-5.16509611680334e-001

4.59479341998812e+004,-1.34968232747761e+000,-5.23719733083009e-001

4.65893434587380e+004,-1.34968155759709e+000,-5.31030500507385e-001

4.72397064571810e+004,-1.34968076598523e+000,-5.38443318773560e-001

4.78991481847569e+004,-1.34967995202626e+000,-5.45959612305724e-001

4.85677953758016e+004,-1.34967911508674e+000,-5.53580825406240e-001

4.92457765337964e+004,-1.34967825451514e+000,-5.61308422532968e-001

4.99332219560642e+004,-1.34967736964116e+000,-5.69143888580970e-001

5.06302637588109e+004,-1.34967645977569e+000,-5.77088729164470e-001

5.13370359025159e+004,-1.34967552420958e+000,-5.85144470910332e-001

5.20536742176771e+004,-1.34967456221345e+000,-5.93312661747909e-001

5.27803164309155e+004,-1.34967357303716e+000,-6.01594871206607e-001

5.35171021914442e+004,-1.34967255590897e+000,-6.09992690718143e-001

5.42641730979066e+004,-1.34967151003512e+000,-6.18507733920989e-001

5.50216727255895e+004,-1.34967043459892e+000,-6.27141636970871e-001

5.57897466540159e+004,-1.34966932876039e+000,-6.35896058853833e-001

5.65685424949235e+004,-1.34966819165540e+000,-6.44772681705472e-001

5.73582099206328e+004,-1.34966702239507e+000,-6.53773211132276e-001

5.81589006928121e+004,-1.34966582006478e+000,-6.62899376541872e-001

5.89707686916437e+004,-1.34966458372393e+000,-6.72152931470778e-001

5.97939699453972e+004,-1.34966331240450e+000,-6.81535653924614e-001

6.06286626604156e+004,-1.34966200511097e+000,-6.91049346716608e-001

6.14750072515201e+004,-1.34966066081881e+000,-7.00695837815380e-001

6.23331663728396e+004,-1.34965927847423e+000,-7.10476980693946e-001

6.32033049490698e+004,-1.34965785699295e+000,-7.20394654686326e-001

6.40855902071694e+004,-1.34965639525941e+000,-7.30450765348158e-001

6.49801917084985e+004,-1.34965489212582e+000,-7.40647244821846e-001

6.58872813814055e+004,-1.34965334641137e+000,-7.50986052206908e-001

6.68070335542691e+004,-1.34965175690083e+000,-7.61469173937160e-001

6.77396249890018e+004,-1.34965012234415e+000,-7.72098624159245e-001

6.86852349150199e+004,-1.34964844145491e+000,-7.82876445121366e-001

6.96440450636895e+004,-1.34964671290943e+000,-7.93804707564199e-001

7.06162397032520e+004,-1.34964493534574e+000,-8.04885511117357e-001

7.16020056742374e+004,-1.34964310736234e+000,-8.16120984702384e-001

7.26015324253724e+004,-1.34964122751693e+000,-8.27513286942671e-001

7.36150120499896e+004,-1.34963929432549e+000,-8.39064606573787e-001

7.46426393229441e+004,-1.34963730626075e+000,-8.50777162867202e-001

7.56846117380472e+004,-1.34963526175115e+000,-8.62653206052557e-001

7.67411295460207e+004,-1.34963315917902e+000,-8.74695017752162e-001

7.78123957929823e+004,-1.34963099687994e+000,-8.86904911415741e-001

7.88986163594682e+004,-1.34962877314075e+000,-8.99285232765616e-001

7.99999999999995e+004,-1.34962648619836e+000,-9.11838360245400e-001

8.11167583832018e+004,-1.34962413423809e+000,-9.24566705477437e-001

8.22491061324848e+004,-1.34962171539224e+000,-9.37472713723912e-001

8.33972608672892e+004,-1.34961922773854e+000,-9.50558864355621e-001

8.45614432449099e+004,-1.34961666929830e+000,-9.63827671328002e-001

8.57418770029029e+004,-1.34961403803489e+000,-9.77281683662623e-001

8.69387890020841e+004,-1.34961133185182e+000,-9.90923485936234e-001

8.81524092701283e+004,-1.34960854859127e+000,-1.00475569877459e+000

8.93829710457770e+004,-1.34960568603167e+000,-1.01878097935747e+000

9.06307108236633e+004,-1.34960274188633e+000,-1.03300202192552e+000

9.18958683997622e+004,-1.34959971380105e+000,-1.04742155829819e+000

9.31786869174758e+004,-1.34959659935244e+000,-1.06204235839581e+000

9.44794129143618e+004,-1.34959339604527e+000,-1.07686723077313e+000

9.57982963695136e+004,-1.34959010131096e+000,-1.09189902315395e+000

9.71355907516031e+004,-1.34958671250471e+000,-1.10714062297998e+000

9.84915530675926e+004,-1.34958322690363e+000,-1.12259495796279e+000

9.98664439121282e+004,-1.34957964170403e+000,-1.13826499664523e+000

1.01260527517622e+005,-1.34957595401913e+000,-1.15415374897012e+000

1.02674071805032e+005,-1.34957216087640e+000,-1.17026426685759e+000

1.04107348435354e+005,-1.34956825921503e+000,-1.18659964478897e+000

1.05560632861831e+005,-1.34956424588310e+000,-1.20316302040124e+000

1.07034204382888e+005,-1.34956011763486e+000,-1.21995757508677e+000

1.08528346195813e+005,-1.34955587112770e+000,-1.23698653460475e+000

1.10043345451179e+005,-1.34955150291938e+000,-1.25425316969749e+000

1.11579493308032e+005,-1.34954700946477e+000,-1.27176079671864e+000

1.13137084989847e+005,-1.34954238711261e+000,-1.28951277826877e+000

1.14716419841265e+005,-1.34953763210246e+000,-1.30751252383868e+000

1.16317801385624e+005,-1.34953274056104e+000,-1.32576349046445e+000

1.17941537383287e+005,-1.34952770849887e+000,-1.34426918338883e+000

1.19587939890794e+005,-1.34952253180675e+000,-1.36303315673325e+000

1.21257325320831e+005,-1.34951720625169e+000,-1.38205901418025e+000

1.22950014503040e+005,-1.34951172747349e+000,-1.40135040966259e+000

1.24666332745679e+005,-1.34950609098047e+000,-1.42091104806480e+000

1.26406609898139e+005,-1.34950029214524e+000,-1.44074468593425e+000

1.28171180414339e+005,-1.34949432620105e+000,-1.46085513219877e+000

1.29960383416997e+005,-1.34948818823667e+000,-1.48124624890053e+000

1.31774562762811e+005,-1.34948187319242e+000,-1.50192195193373e+000

1.33614067108538e+005,-1.34947537585530e+000,-1.52288621179677e+000

1.35479249978003e+005,-1.34946869085423e+000,-1.54414305435447e+000

1.37370469830040e+005,-1.34946181265491e+000,-1.56569656160951e+000

1.39288090127379e+005,-1.34945473555509e+000,-1.58755087248515e+000

1.41232479406504e+005,-1.34944745367890e+000,-1.60971018362112e+000

1.43204011348474e+005,-1.34943996097159e+000,-1.63217875017720e+000

1.45203064850745e+005,-1.34943225119390e+000,-1.65496088665102e+000

1.47230024099979e+005,-1.34942431791617e+000,-1.67806096770589e+000

1.49285278645888e+005,-1.34941615451242e+000,-1.70148342901076e+000

1.51369223476094e+005,-1.34940775415423e+000,-1.72523276809261e+000

1.53482259092041e+005,-1.34939910980422e+000,-1.74931354519939e+000

1.55624791585964e+005,-1.34939021420960e+000,-1.77373038417712e+000

1.57797232718936e+005,-1.34938105989532e+000,-1.79848797335790e+000

1.59999999999999e+005,-1.34937163915721e+000,-1.82359106646079e+000

1.62233516766403e+005,-1.34936194405447e+000,-1.84904448350711e+000

1.64498212264969e+005,-1.34935196640276e+000,-1.87485311174506e+000

1.66794521734578e+005,-1.34934169776597e+000,-1.90102190659260e+000

1.69122886489819e+005,-1.34933112944875e+000,-1.92755589258876e+000

1.71483754005805e+005,-1.34932025248807e+000,-1.95446016436238e+000

1.73877578004168e+005,-1.34930905764508e+000,-1.98173988761185e+000

1.76304818540256e+005,-1.34929753539634e+000,-2.00940030010090e+000

1.78765942091554e+005,-1.34928567592495e+000,-2.03744671266768e+000

1.81261421647326e+005,-1.34927346911127e+000,-2.06588451024854e+000

1.83791736799524e+005,-1.34926090452381e+000,-2.09471915291531e+000

1.86357373834951e+005,-1.34924797140899e+000,-2.12395617693112e+000

1.88958825828723e+005,-1.34923465868156e+000,-2.15360119581612e+000

1.91596592739027e+005,-1.34922095491416e+000,-2.18365990143264e+000

1.94271181503206e+005,-1.34920684832662e+000,-2.21413806508513e+000

1.96983106135185e+005,-1.34919232677507e+000,-2.24504153863464e+000

1.99732887824256e+005,-1.34917737774083e+000,-2.27637625563019e+000

2.02521055035243e+005,-1.34916198831868e+000,-2.30814823245778e+000

2.05348143610063e+005,-1.34914614520510e+000,-2.34036356950327e+000

2.08214696870707e+005,-1.34912983468595e+000,-2.37302845233536e+000

2.11121265723661e+005,-1.34911304262396e+000,-2.40614915290303e+000

2.14068408765776e+005,-1.34909575444579e+000,-2.43973203075194e+000

2.17056692391625e+005,-1.34907795512872e+000,-2.47378353425797e+000

2.20086690902357e+005,-1.34905962918713e+000,-2.50831020187884e+000

2.23158986616063e+005,-1.34904076065825e+000,-2.54331866342492e+000

2.26274169979693e+005,-1.34902133308802e+000,-2.57881564134628e+000

2.29432839682530e+005,-1.34900132951615e+000,-2.61480795204098e+000

2.32635602771247e+005,-1.34898073246098e+000,-2.65130250718140e+000

2.35883074766574e+005,-1.34895952390403e+000,-2.68830631505981e+000

2.39175879781588e+005,-1.34893768527375e+000,-2.72582648195512e+000

2.42514650641661e+005,-1.34891519742937e+000,-2.76387021351716e+000

2.45900029006080e+005,-1.34889204064402e+000,-2.80244481617391e+000

2.49332665491357e+005,-1.34886819458742e+000,-2.84155769855776e+000

2.52813219796278e+005,-1.34884363830830e+000,-2.88121637295340e+000

2.56342360828676e+005,-1.34881835021614e+000,-2.92142845676748e+000

2.59920766833993e+005,-1.34879230806283e+000,-2.96220167401850e+000

2.63549125525621e+005,-1.34876548892346e+000,-3.00354385685010e+000

2.67228134217075e+005,-1.34873786917687e+000,-3.04546294706610e+000

2.70958499956006e+005,-1.34870942448568e+000,-3.08796699768887e+000

2.74740939660078e+005,-1.34868012977596e+000,-3.13106417453889e+000

2.78576180254757e+005,-1.34864995921623e+000,-3.17476275783987e+000

2.82464958813007e+005,-1.34861888619605e+000,-3.21907114384632e+000

2.86408022696948e+005,-1.34858688330416e+000,-3.26399784649514e+000

2.90406129701488e+005,-1.34855392230595e+000,-3.30955149908291e+000

2.94460048199957e+005,-1.34851997412077e+000,-3.35574085596564e+000

2.98570557291775e+005,-1.34848500879821e+000,-3.40257479428582e+000

3.02738446952187e+005,-1.34844899549422e+000,-3.45006231572456e+000

3.06964518184081e+005,-1.34841190244658e+000,-3.49821254827845e+000

3.11249583171928e+005,-1.34837369695001e+000,-3.54703474806342e+000

3.15594465437872e+005,-1.34833434533013e+000,-3.59653830114603e+000

3.19999999999997e+005,-1.34829381291758e+000,-3.64673272540050e+000

3.24467033532806e+005,-1.34825206402116e+000,-3.69762767239362e+000

3.28996424529938e+005,-1.34820906190031e+000,-3.74923292929799e+000

3.33589043469155e+005,-1.34816476873736e+000,-3.80155842083212e+000

3.38245772979638e+005,-1.34811914560871e+000,-3.85461421123085e+000

3.42967508011610e+005,-1.34807215245580e+000,-3.90841050624323e+000

3.47755156008335e+005,-1.34802374805504e+000,-3.96295765516086e+000

3.52609637080511e+005,-1.34797388998736e+000,-4.01826615287527e+000

3.57531884183106e+005,-1.34792253460708e+000,-4.07434664196624e+000

3.62522843294651e+005,-1.34786963700978e+000,-4.13120991482046e+000

3.67583473599047e+005,-1.34781515100008e+000,-4.18886691578039e+000

3.72714747669902e+005,-1.34775902905790e+000,-4.24732874332657e+000

3.77917651657445e+005,-1.34770122230452e+000,-4.30660665229055e+000

3.83193185478053e+005,-1.34764168046787e+000,-4.36671205610004e+000

3.88542363006410e+005,-1.34758035184667e+000,-4.42765652905780e+000

3.93966212270369e+005,-1.34751718327411e+000,-4.48945180865342e+000

3.99465775648511e+005,-1.34745212008039e+000,-4.55210979790930e+000

4.05042110070485e+005,-1.34738510605484e+000,-4.61564256775967e+000

4.10696287220124e+005,-1.34731608340650e+000,-4.68006235946667e+000

4.16429393741414e+005,-1.34724499272442e+000,-4.74538158706938e+000

4.22242531447321e+005,-1.34717177293651e+000,-4.81161283987062e+000

4.28136817531551e+005,-1.34709636126788e+000,-4.87876888495838e+000

4.34113384783250e+005,-1.34701869319756e+000,-4.94686266976598e+000

4.40173381804713e+005,-1.34693870241480e+000,-5.01590732466800e+000

4.46317973232124e+005,-1.34685632077381e+000,-5.08591616561545e+000

4.52548339959385e+005,-1.34677147824755e+000,-5.15690269680937e+000

4.58865679365059e+005,-1.34668410288050e+000,-5.22888061341270e+000

4.65271205542494e+005,-1.34659412073988e+000,-5.30186380430369e+000

4.71766149533147e+005,-1.34650145586593e+000,-5.37586635486832e+000

4.78351759563174e+005,-1.34640603022072e+000,-5.45090254983475e+000

4.85029301283321e+005,-1.34630776363569e+000,-5.52698687614948e+000

4.91800058012158e+005,-1.34620657375775e+000,-5.60413402589598e+000

4.98665330982714e+005,-1.34610237599407e+000,-5.68235889925606e+000

5.05626439592555e+005,-1.34599508345525e+000,-5.76167660751650e+000

5.12684721657352e+005,-1.34588460689698e+000,-5.84210247611949e+000

5.19841533667984e+005,-1.34577085466012e+000,-5.92365204775912e+000

5.27098251051240e+005,-1.34565373260932e+000,-6.00634108552346e+000

5.34456268434150e+005,-1.34553314406964e+000,-6.09018557608541e+000

5.41916999912011e+005,-1.34540898976160e+000,-6.17520173294002e+000

