Freq.,VOut,OutRef

1.00000000000000e+004,-1.79037756415431e+001,-2.79794187748451e-001

1.01395947979003e+004,-1.79037769742910e+001,-2.83699870581166e-001

1.02811382665607e+004,-1.79037783444923e+001,-2.87660070534375e-001

1.04246576084112e+004,-1.79037797531991e+001,-2.91675548461429e-001

1.05701804056138e+004,-1.79037812014929e+001,-2.95747075829745e-001

1.07177346253629e+004,-1.79037826904857e+001,-2.99875434866680e-001

1.08673486252606e+004,-1.79037842213207e+001,-3.04061418712481e-001

1.10190511587661e+004,-1.79037857951731e+001,-3.08305831570088e-001

1.11728713807222e+004,-1.79037874132513e+001,-3.12609488859069e-001

1.13288388529580e+004,-1.79037890767973e+001,-3.16973217374316e-001

1.14869835499703e+004,-1.79037907870880e+001,-3.21397855441929e-001

1.16473358646846e+004,-1.79037925454364e+001,-3.25884253078618e-001

1.18099266142953e+004,-1.79037943531921e+001,-3.30433272159525e-001

1.19747870461893e+004,-1.79037962117425e+001,-3.35045786579067e-001

1.21419488439505e+004,-1.79037981225142e+001,-3.39722682417256e-001

1.23114441334492e+004,-1.79038000869734e+001,-3.44464858115591e-001

1.24833054890161e+004,-1.79038021066280e+001,-3.49273224640780e-001

1.26575659397028e+004,-1.79038041830276e+001,-3.54148705666190e-001

1.28342589756290e+004,-1.79038063177657e+001,-3.59092237743641e-001

1.30134185544193e+004,-1.79038085124802e+001,-3.64104770486921e-001

1.31950791077289e+004,-1.79038107688550e+001,-3.69187266749903e-001

1.33792755478611e+004,-1.79038130886213e+001,-3.74340702812047e-001

1.35660432744767e+004,-1.79038154735587e+001,-3.79566068566374e-001

1.37554181813974e+004,-1.79038179254969e+001,-3.84864367705812e-001

1.39474366635040e+004,-1.79038204463167e+001,-3.90236617919579e-001

1.41421356237309e+004,-1.79038230379516e+001,-3.95683851083714e-001

1.43395524801583e+004,-1.79038257023895e+001,-4.01207113460579e-001

1.45397251732031e+004,-1.79038284416738e+001,-4.06807465897109e-001

1.47426921729110e+004,-1.79038312579054e+001,-4.12485984030095e-001

1.49484924863494e+004,-1.79038341532436e+001,-4.18243758491464e-001

1.51571656651040e+004,-1.79038371299087e+001,-4.24081895112694e-001

1.53687518128801e+004,-1.79038401901829e+001,-4.30001515141589e-001

1.55832915932100e+004,-1.79038433364125e+001,-4.36003755452772e-001

1.58008262372675e+004,-1.79038465710094e+001,-4.42089768766144e-001

1.60213975517924e+004,-1.79038498964532e+001,-4.48260723867419e-001

1.62450479271247e+004,-1.79038533152927e+001,-4.54517805829984e-001

1.64718203453514e+004,-1.79038568301483e+001,-4.60862216242444e-001

1.67017583885674e+004,-1.79038604437135e+001,-4.67295173437878e-001

1.69349062472505e+004,-1.79038641587574e+001,-4.73817912725365e-001

1.71713087287550e+004,-1.79038679781266e+001,-4.80431686625522e-001

1.74110112659224e+004,-1.79038719047474e+001,-4.87137765110793e-001

1.76540599258131e+004,-1.79038759416277e+001,-4.93937435847021e-001

1.79005014185594e+004,-1.79038800918600e+001,-5.00832004438399e-001

1.81503831063432e+004,-1.79038843586228e+001,-5.07822794678118e-001

1.84037530124975e+004,-1.79038887451840e+001,-5.14911148797014e-001

1.86606598307361e+004,-1.79038932549027e+001,-5.22098427723695e-001

1.89211529345119e+004,-1.79038978912316e+001,-5.29386011342114e-001

1.91852823865052e+004,-1.79039026577205e+001,-5.36775298751484e-001

1.94530989482457e+004,-1.79039075580182e+001,-5.44267708537739e-001

1.97246540898671e+004,-1.79039125958753e+001,-5.51864679039871e-001

1.99999999999999e+004,-1.79039177751474e+001,-5.59567668624927e-001

2.02791895958005e+004,-1.79039230997978e+001,-5.67378155966261e-001

2.05622765331213e+004,-1.79039285739005e+001,-5.75297640322204e-001

2.08493152168224e+004,-1.79039342016433e+001,-5.83327641823795e-001

2.11403608112276e+004,-1.79039399873310e+001,-5.91469701762584e-001

2.14354692507258e+004,-1.79039459353885e+001,-5.99725382883493e-001

2.17346972505211e+004,-1.79039520503643e+001,-6.08096269682536e-001

2.20381023175322e+004,-1.79039583369335e+001,-6.16583968706764e-001

2.23457427614443e+004,-1.79039647999023e+001,-6.25190108858008e-001

2.26576777059159e+004,-1.79039714442106e+001,-6.33916341705401e-001

2.29739670999406e+004,-1.79039782749360e+001,-6.42764341796218e-001

2.32946717293690e+004,-1.79039852972978e+001,-6.51735806974186e-001

2.36198532285905e+004,-1.79039925166609e+001,-6.60832458700325e-001

2.39495740923785e+004,-1.79039999385396e+001,-6.70056042381336e-001

2.42838976879009e+004,-1.79040075686018e+001,-6.79408327698260e-001

2.46228882668982e+004,-1.79040154126737e+001,-6.88891108941644e-001

2.49666109780322e+004,-1.79040234767431e+001,-6.98506205353070e-001

2.53151318794055e+004,-1.79040317669651e+001,-7.08255461467436e-001

2.56685179512580e+004,-1.79040402896660e+001,-7.18140747461791e-001

2.60268371088386e+004,-1.79040490513480e+001,-7.28163959510352e-001

2.63901582154578e+004,-1.79040580586942e+001,-7.38327020141514e-001

2.67585510957221e+004,-1.79040673185738e+001,-7.48631878601251e-001

2.71320865489533e+004,-1.79040768380468e+001,-7.59080511220694e-001

2.75108363627948e+004,-1.79040866243696e+001,-7.69674921789739e-001

2.78948733270080e+004,-1.79040966849999e+001,-7.80417141935145e-001

2.82842712474618e+004,-1.79041070276030e+001,-7.91309231501548e-001

2.86791049603164e+004,-1.79041176600567e+001,-8.02353278942250e-001

2.90794503464061e+004,-1.79041285904577e+001,-8.13551401710254e-001

2.94853843458219e+004,-1.79041398271273e+001,-8.24905746656781e-001

2.98969849726987e+004,-1.79041513786175e+001,-8.36418490436673e-001

3.03143313302078e+004,-1.79041632537176e+001,-8.48091839916190e-001

3.07375036257601e+004,-1.79041754614604e+001,-8.59928032587392e-001

3.11665831864199e+004,-1.79041880111292e+001,-8.71929336989014e-001

3.16016524745350e+004,-1.79042009122640e+001,-8.84098053130915e-001

3.20427951035848e+004,-1.79042141746692e+001,-8.96436512926473e-001

3.24900958542493e+004,-1.79042278084205e+001,-9.08947080628882e-001

3.29436406907028e+004,-1.79042418238720e+001,-9.21632153273194e-001

3.34035167771346e+004,-1.79042562316644e+001,-9.34494161125668e-001

3.38698124945009e+004,-1.79042710427323e+001,-9.47535568137882e-001

3.43426174575100e+004,-1.79042862683122e+001,-9.60758872406468e-001

3.48220225318448e+004,-1.79043019199509e+001,-9.74166606639834e-001

3.53081198516260e+004,-1.79043180095139e+001,-9.87761338630475e-001

3.58010028371187e+004,-1.79043345491936e+001,-1.00154567173395e+000

3.63007662126863e+004,-1.79043515515189e+001,-1.01552224535225e+000

3.68075060249948e+004,-1.79043690293635e+001,-1.02969373542701e+000

3.73213196614721e+004,-1.79043869959555e+001,-1.04406285493441e+000

3.78423058690237e+004,-1.79044054648873e+001,-1.05863235439130e+000

3.83705647730104e+004,-1.79044244501248e+001,-1.07340502236337e+000

3.89061978964912e+004,-1.79044439660176e+001,-1.08838368598469e+000

3.94493081797342e+004,-1.79044640273099e+001,-1.10357121147873e+000

3.99999999999998e+004,-1.79044846491499e+001,-1.11897050468983e+000

4.05583791916010e+004,-1.79045058471019e+001,-1.13458451161997e+000

4.11245530662425e+004,-1.79045276371562e+001,-1.15041621897355e+000

4.16986304336447e+004,-1.79045500357417e+001,-1.16646865470617e+000

4.22807216224550e+004,-1.79045730597363e+001,-1.18274488858538e+000

4.28709385014515e+004,-1.79045967264800e+001,-1.19924803275226e+000

4.34693945010421e+004,-1.79046210537862e+001,-1.21598124229604e+000

4.40762046350642e+004,-1.79046460599551e+001,-1.23294771583192e+000

4.46914855228886e+004,-1.79046717637859e+001,-1.25015069608895e+000

4.53153554118317e+004,-1.79046981845903e+001,-1.26759347050176e+000

4.59479341998812e+004,-1.79047253422061e+001,-1.28527937181414e+000

4.65893434587380e+004,-1.79047532570110e+001,-1.30321177868563e+000

4.72397064571810e+004,-1.79047819499363e+001,-1.32139411631047e+000

4.78991481847569e+004,-1.79048114424822e+001,-1.33982985703898e+000

4.85677953758016e+004,-1.79048417567322e+001,-1.35852252101079e+000

4.92457765337964e+004,-1.79048729153684e+001,-1.37747567679408e+000

4.99332219560642e+004,-1.79049049416873e+001,-1.39669294203242e+000

5.06302637588109e+004,-1.79049378596154e+001,-1.41617798410055e+000

5.13370359025159e+004,-1.79049716937259e+001,-1.43593452076740e+000

5.20536742176771e+004,-1.79050064692552e+001,-1.45596632086740e+000

5.27803164309155e+004,-1.79050422121204e+001,-1.47627720497945e+000

5.35171021914442e+004,-1.79050789489360e+001,-1.49687104611617e+000

5.42641730979066e+004,-1.79051167070330e+001,-1.51775177041775e+000

5.50216727255895e+004,-1.79051555144763e+001,-1.53892335785673e+000

5.57897466540159e+004,-1.79051954000839e+001,-1.56038984295145e+000

5.65685424949235e+004,-1.79052363934458e+001,-1.58215531548673e+000

5.73582099206328e+004,-1.79052785249441e+001,-1.60422392124346e+000

5.81589006928121e+004,-1.79053218257727e+001,-1.62659986273606e+000

5.89707686916437e+004,-1.79053663279576e+001,-1.64928739996180e+000

5.97939699453972e+004,-1.79054120643785e+001,-1.67229085115322e+000

6.06286626604156e+004,-1.79054590687897e+001,-1.69561459354541e+000

6.14750072515201e+004,-1.79055073758423e+001,-1.71926306414727e+000

6.23331663728396e+004,-1.79055570211061e+001,-1.74324076052588e+000

6.32033049490698e+004,-1.79056080410932e+001,-1.76755224159571e+000

6.40855902071694e+004,-1.79056604732804e+001,-1.79220212842056e+000

6.49801917084985e+004,-1.79057143561338e+001,-1.81719510502232e+000

6.58872813814055e+004,-1.79057697291326e+001,-1.84253591919962e+000

6.68070335542691e+004,-1.79058266327943e+001,-1.86822938335609e+000

6.77396249890018e+004,-1.79058851086994e+001,-1.89428037533733e+000

6.86852349150199e+004,-1.79059451995180e+001,-1.92069383927791e+000

6.96440450636895e+004,-1.79060069490355e+001,-1.94747478645709e+000

7.06162397032520e+004,-1.79060704021794e+001,-1.97462829616493e+000

7.16020056742374e+004,-1.79061356050474e+001,-2.00215951657654e+000

7.26015324253724e+004,-1.79062026049345e+001,-2.03007366563780e+000

7.36150120499896e+004,-1.79062714503617e+001,-2.05837603195942e+000

7.46426393229441e+004,-1.79063421911049e+001,-2.08707197572081e+000

7.56846117380472e+004,-1.79064148782245e+001,-2.11616692958518e+000

7.67411295460207e+004,-1.79064895640951e+001,-2.14566639962260e+000

7.78123957929823e+004,-1.79065663024362e+001,-2.17557596624361e+000

7.88986163594682e+004,-1.79066451483435e+001,-2.20590128514383e+000

7.99999999999995e+004,-1.79067261583199e+001,-2.23664808825775e+000

8.11167583832018e+004,-1.79068093903081e+001,-2.26782218472206e+000

8.22491061324848e+004,-1.79068949037229e+001,-2.29942946185098e+000

8.33972608672892e+004,-1.79069827594848e+001,-2.33147588611978e+000

8.45614432449099e+004,-1.79070730200531e+001,-2.36396750416041e+000

8.57418770029029e+004,-1.79071657494608e+001,-2.39691044376602e+000

8.69387890020841e+004,-1.79072610133484e+001,-2.43031091490697e+000

8.81524092701283e+004,-1.79073588790000e+001,-2.46417521075788e+000

8.93829710457770e+004,-1.79074594153785e+001,-2.49850970873279e+000

9.06307108236633e+004,-1.79075626931620e+001,-2.53332087153427e+000

9.18958683997622e+004,-1.79076687847804e+001,-2.56861524821146e+000

9.31786869174758e+004,-1.79077777644527e+001,-2.60439947522850e+000

9.44794129143618e+004,-1.79078897082242e+001,-2.64068027754641e+000

9.57982963695136e+004,-1.79080046940052e+001,-2.67746446971294e+000

9.71355907516031e+004,-1.79081228016091e+001,-2.71475895696529e+000

9.84915530675926e+004,-1.79082441127913e+001,-2.75257073634497e+000

9.98664439121282e+004,-1.79083687112887e+001,-2.79090689782183e+000

1.01260527517622e+005,-1.79084966828595e+001,-2.82977462543103e+000

1.02674071805032e+005,-1.79086281153231e+001,-2.86918119842173e+000

1.04107348435354e+005,-1.79087630986004e+001,-2.90913399241704e+000

1.05560632861831e+005,-1.79089017247551e+001,-2.94964048058610e+000

1.07034204382888e+005,-1.79090440880344e+001,-2.99070823482815e+000

1.08528346195813e+005,-1.79091902849104e+001,-3.03234492696962e+000

1.10043345451179e+005,-1.79093404141219e+001,-3.07455832997154e+000

1.11579493308032e+005,-1.79094945767160e+001,-3.11735631915312e+000

1.13137084989847e+005,-1.79096528760908e+001,-3.16074687342411e+000

1.14716419841265e+005,-1.79098154180368e+001,-3.20473807653389e+000

1.16317801385624e+005,-1.79099823107800e+001,-3.24933811833121e+000

1.17941537383287e+005,-1.79101536650243e+001,-3.29455529603838e+000

1.19587939890794e+005,-1.79103295939939e+001,-3.34039801553997e+000

1.21257325320831e+005,-1.79105102134762e+001,-3.38687479268504e+000

1.22950014503040e+005,-1.79106956418644e+001,-3.43399425460318e+000

1.24666332745679e+005,-1.79108860002003e+001,-3.48176514103593e+000

1.26406609898139e+005,-1.79110814122169e+001,-3.53019630568423e+000

1.28171180414339e+005,-1.79112820043809e+001,-3.57929671756879e+000

1.29960383416997e+005,-1.79114879059350e+001,-3.62907546240927e+000

1.31774562762811e+005,-1.79116992489405e+001,-3.67954174401789e+000

1.33614067108538e+005,-1.79119161683190e+001,-3.73070488571025e+000

1.35479249978003e+005,-1.79121388018945e+001,-3.78257433173350e+000

1.37370469830040e+005,-1.79123672904344e+001,-3.83515964871262e+000

1.39288090127379e+005,-1.79126017776914e+001,-3.88847052711423e+000

1.41232479406504e+005,-1.79128424104437e+001,-3.94251678273032e+000

1.43204011348474e+005,-1.79130893385355e+001,-3.99730835818006e+000

1.45203064850745e+005,-1.79133427149175e+001,-4.05285532443345e+000

1.47230024099979e+005,-1.79136026956854e+001,-4.10916788235523e+000

1.49285278645888e+005,-1.79138694401198e+001,-4.16625636426914e+000

1.51369223476094e+005,-1.79141431107238e+001,-4.22413123554738e+000

1.53482259092041e+005,-1.79144238732615e+001,-4.28280309622016e+000

1.55624791585964e+005,-1.79147118967944e+001,-4.34228268261179e+000

1.57797232718936e+005,-1.79150073537185e+001,-4.40258086900033e+000

1.59999999999999e+005,-1.79153104198000e+001,-4.46370866930389e+000

1.62233516766403e+005,-1.79156212742101e+001,-4.52567723879367e+000

1.64498212264969e+005,-1.79159400995599e+001,-4.58849787583487e+000

1.66794521734578e+005,-1.79162670819336e+001,-4.65218202365754e+000

1.69122886489819e+005,-1.79166024109217e+001,-4.71674127215632e+000

1.71483754005805e+005,-1.79169462796534e+001,-4.78218735972277e+000

1.73877578004168e+005,-1.79172988848273e+001,-4.84853217511049e+000

1.76304818540256e+005,-1.79176604267430e+001,-4.91578775933371e+000

1.78765942091554e+005,-1.79180311093306e+001,-4.98396630760111e+000

1.81261421647326e+005,-1.79184111401800e+001,-5.05308017128773e+000

1.83791736799524e+005,-1.79188007305700e+001,-5.12314185994383e+000

1.86357373834951e+005,-1.79192000954957e+001,-5.19416404334442e+000

1.88958825828723e+005,-1.79196094536966e+001,-5.26615955357947e+000

1.91596592739027e+005,-1.79200290276838e+001,-5.33914138718781e+000

1.94271181503206e+005,-1.79204590437658e+001,-5.41312270733461e+000

1.96983106135185e+005,-1.79208997320758e+001,-5.48811684603680e+000

1.99732887824256e+005,-1.79213513265974e+001,-5.56413730643446e+000

2.02521055035243e+005,-1.79218140651906e+001,-5.64119776511419e+000

2.05348143610063e+005,-1.79222881896183e+001,-5.71931207448157e+000

2.08214696870707e+005,-1.79227739455726e+001,-5.79849426518903e+000

2.11121265723661e+005,-1.79232715827013e+001,-5.87875854861867e+000

2.14068408765776e+005,-1.79237813546353e+001,-5.96011931942105e+000

2.17056692391625e+005,-1.79243035190175e+001,-6.04259115811309e+000

2.20086690902357e+005,-1.79248383375307e+001,-6.12618883373906e+000

2.23158986616063e+005,-1.79253860759290e+001,-6.21092730659018e+000

2.26274169979693e+005,-1.79259470040695e+001,-6.29682173099301e+000

2.29432839682530e+005,-1.79265213959459e+001,-6.38388745816081e+000

2.32635602771247e+005,-1.79271095297247e+001,-6.47214003911494e+000

2.35883074766574e+005,-1.79277116877835e+001,-6.56159522767550e+000

2.39175879781588e+005,-1.79283281567524e+001,-6.65226898352383e+000

2.42514650641661e+005,-1.79289592275582e+001,-6.74417747533860e+000

2.45900029006080e+005,-1.79296051954728e+001,-6.83733708400529e+000

2.49332665491357e+005,-1.79302663601655e+001,-6.93176440590413e+000

2.52813219796278e+005,-1.79309430257592e+001,-7.02747625627449e+000

2.56342360828676e+005,-1.79316355008928e+001,-7.12448967265845e+000

2.59920766833993e+005,-1.79323440987876e+001,-7.22282191842539e+000

2.63549125525621e+005,-1.79330691373216e+001,-7.32249048637693e+000

2.67228134217075e+005,-1.79338109391083e+001,-7.42351310243462e+000

2.70958499956006e+005,-1.79345698315845e+001,-7.52590772941044e+000

2.74740939660078e+005,-1.79353461471045e+001,-7.62969257086173e+000

2.78576180254757e+005,-1.79361402230437e+001,-7.73488607502781e+000

2.82464958813007e+005,-1.79369524019103e+001,-7.84150693885357e+000

2.86408022696948e+005,-1.79377830314672e+001,-7.94957411209472e+000

2.90406129701488e+005,-1.79386324648644e+001,-8.05910680150843e+000

2.94460048199957e+005,-1.79395010607816e+001,-8.17012447512675e+000

2.98570557291775e+005,-1.79403891835834e+001,-8.28264686661179e+000

3.02738446952187e+005,-1.79412972034864e+001,-8.39669397969458e+000

3.06964518184081e+005,-1.79422254967392e+001,-8.51228609269177e+000

3.11249583171928e+005,-1.79431744458169e+001,-8.62944376310281e+000

3.15594465437872e+005,-1.79441444396299e+001,-8.74818783228312e+000

3.19999999999997e+005,-1.79451358737473e+001,-8.86853943019234e+000

3.24467033532806e+005,-1.79461491506376e+001,-8.99051998021409e+000

3.28996424529938e+005,-1.79471846799245e+001,-9.11415120404672e+000

3.33589043469155e+005,-1.79482428786618e+001,-9.23945512665827e+000

3.38245772979638e+005,-1.79493241716254e+001,-9.36645408130633e+000

3.42967508011610e+005,-1.79504289916235e+001,-9.49517071461586e+000

3.47755156008335e+005,-1.79515577798281e+001,-9.62562799171243e+000

3.52609637080511e+005,-1.79527109861246e+001,-9.75784920140682e+000

3.57531884183106e+005,-1.79538890694833e+001,-9.89185796142488e+000

3.62522843294651e+005,-1.79550924983513e+001,-1.00276782236795e+001

3.67583473599047e+005,-1.79563217510672e+001,-1.01653342795774e+001

3.72714747669902e+005,-1.79575773162969e+001,-1.03048507653579e+001

3.77917651657445e+005,-1.79588596934929e+001,-1.04462526674545e+001

3.83193185478053e+005,-1.79601693933769e+001,-1.05895653278766e+001

3.88542363006410e+005,-1.79615069384450e+001,-1.07348144496023e+001

3.93966212270369e+005,-1.79628728634978e+001,-1.08820261019786e+001

3.99465775648511e+005,-1.79642677161940e+001,-1.10312267261187e+001

4.05042110070485e+005,-1.79656920576282e+001,-1.11824431402941e+001

4.10696287220124e+005,-1.79671464629344e+001,-1.13357025453097e+001

4.16429393741414e+005,-1.79686315219122e+001,-1.14910325298591e+001

4.22242531447321e+005,-1.79701478396794e+001,-1.16484610758501e+001

4.28136817531551e+005,-1.79716960373479e+001,-1.18080165636938e+001

4.34113384783250e+005,-1.79732767527253e+001,-1.19697277775513e+001

4.40173381804713e+005,-1.79748906410397e+001,-1.21336239105288e+001

4.46317973232124e+005,-1.79765383756901e+001,-1.22997345698153e+001

4.52548339959385e+005,-1.79782206490192e+001,-1.24680897817550e+001

4.58865679365059e+005,-1.79799381731113e+001,-1.26387199968471e+001

4.65271205542494e+005,-1.79816916806121e+001,-1.28116560946667e+001

4.71766149533147e+005,-1.79834819255724e+001,-1.29869293886995e+001

4.78351759563174e+005,-1.79853096843136e+001,-1.31645716310835e+001

4.85029301283321e+005,-1.79871757563145e+001,-1.33446150172511e+001

4.91800058012158e+005,-1.79890809651204e+001,-1.35270921904653e+001

4.98665330982714e+005,-1.79910261592716e+001,-1.37120362462454e+001

5.05626439592555e+005,-1.79930122132524e+001,-1.38994807366722e+001

5.12684721657352e+005,-1.79950400284591e+001,-1.40894596745732e+001

5.19841533667984e+005,-1.79971105341859e+001,-1.42820075375768e+001

5.27098251051240e+005,-1.79992246886290e+001,-1.44771592720337e+001

5.34456268434150e+005,-1.80013834799070e+001,-1.46749502968006e+001

5.41916999912011e+005,-1.80035879270975e+001,-1.48754165068793e+001

