Freq.,VOut,OutRef

1.00000000000000e+004,-1.26133619842779e+001,-1.20907208079395e-001

1.01395947979003e+004,-1.26133622986619e+001,-1.22594969112800e-001

1.02811382665607e+004,-1.26133626218777e+001,-1.24306288684232e-001

1.04246576084112e+004,-1.26133629541732e+001,-1.26041495586838e-001

1.05701804056138e+004,-1.26133632958033e+001,-1.27800923197843e-001

1.07177346253629e+004,-1.26133636470299e+001,-1.29584909546430e-001

1.08673486252606e+004,-1.26133640081224e+001,-1.31393797376600e-001

1.10190511587661e+004,-1.26133643793577e+001,-1.33227934213765e-001

1.11728713807222e+004,-1.26133647610205e+001,-1.35087672430733e-001

1.13288388529580e+004,-1.26133651534031e+001,-1.36973369316393e-001

1.14869835499703e+004,-1.26133655568068e+001,-1.38885387140510e-001

1.16473358646846e+004,-1.26133659715407e+001,-1.40824093227620e-001

1.18099266142953e+004,-1.26133663979224e+001,-1.42789860027034e-001

1.19747870461893e+004,-1.26133668362789e+001,-1.44783065180057e-001

1.21419488439505e+004,-1.26133672869464e+001,-1.46804091595567e-001

1.23114441334492e+004,-1.26133677502697e+001,-1.48853327525356e-001

1.24833054890161e+004,-1.26133682266043e+001,-1.50931166631992e-001

1.26575659397028e+004,-1.26133687163149e+001,-1.53038008071051e-001

1.28342589756290e+004,-1.26133692197767e+001,-1.55174256562569e-001

1.30134185544193e+004,-1.26133697373757e+001,-1.57340322470674e-001

1.31950791077289e+004,-1.26133702695078e+001,-1.59536621884341e-001

1.33792755478611e+004,-1.26133708165809e+001,-1.61763576692059e-001

1.35660432744767e+004,-1.26133713790139e+001,-1.64021614665363e-001

1.37554181813974e+004,-1.26133719572375e+001,-1.66311169541182e-001

1.39474366635040e+004,-1.26133725516942e+001,-1.68632681104877e-001

1.41421356237309e+004,-1.26133731628392e+001,-1.70986595271487e-001

1.43395524801583e+004,-1.26133737911405e+001,-1.73373364173336e-001

1.45397251732031e+004,-1.26133744370787e+001,-1.75793446248400e-001

1.47426921729110e+004,-1.26133751011481e+001,-1.78247306324585e-001

1.49484924863494e+004,-1.26133757838568e+001,-1.80735415709199e-001

1.51571656651040e+004,-1.26133764857274e+001,-1.83258252279286e-001

1.53687518128801e+004,-1.26133772072965e+001,-1.85816300574736e-001

1.55832915932100e+004,-1.26133779491161e+001,-1.88410051887832e-001

1.58008262372675e+004,-1.26133787117536e+001,-1.91040004360357e-001

1.60213975517924e+004,-1.26133794957918e+001,-1.93706663077459e-001

1.62450479271247e+004,-1.26133803018306e+001,-1.96410540160078e-001

1.64718203453514e+004,-1.26133811304856e+001,-1.99152154871283e-001

1.67017583885674e+004,-1.26133819823903e+001,-2.01932033707697e-001

1.69349062472505e+004,-1.26133828581959e+001,-2.04750710502651e-001

1.71713087287550e+004,-1.26133837585711e+001,-2.07608726530977e-001

1.74110112659224e+004,-1.26133846842040e+001,-2.10506630605182e-001

1.76540599258131e+004,-1.26133856358014e+001,-2.13444979189170e-001

1.79005014185594e+004,-1.26133866140899e+001,-2.16424336496621e-001

1.81503831063432e+004,-1.26133876198165e+001,-2.19445274603074e-001

1.84037530124975e+004,-1.26133886537487e+001,-2.22508373553773e-001

1.86606598307361e+004,-1.26133897166757e+001,-2.25614221472772e-001

1.89211529345119e+004,-1.26133908094083e+001,-2.28763414678024e-001

1.91852823865052e+004,-1.26133919327802e+001,-2.31956557792564e-001

1.94530989482457e+004,-1.26133930876481e+001,-2.35194263860294e-001

1.97246540898671e+004,-1.26133942748925e+001,-2.38477154463066e-001

1.99999999999999e+004,-1.26133954954185e+001,-2.41805859839293e-001

2.02791895958005e+004,-1.26133967501563e+001,-2.45181019002331e-001

2.05622765331213e+004,-1.26133980400619e+001,-2.48603279864038e-001

2.08493152168224e+004,-1.26133993661181e+001,-2.52073299356012e-001

2.11403608112276e+004,-1.26134007293344e+001,-2.55591743558703e-001

2.14354692507258e+004,-1.26134021307488e+001,-2.59159287821456e-001

2.17346972505211e+004,-1.26134035714281e+001,-2.62776616895690e-001

2.20381023175322e+004,-1.26134050524684e+001,-2.66444425065156e-001

2.23457427614443e+004,-1.26134065749963e+001,-2.70163416274681e-001

2.26576777059159e+004,-1.26134081401698e+001,-2.73934304266457e-001

2.29739670999406e+004,-1.26134097491787e+001,-2.77757812713573e-001

2.32946717293690e+004,-1.26134114032458e+001,-2.81634675360939e-001

2.36198532285905e+004,-1.26134131036280e+001,-2.85565636157416e-001

2.39495740923785e+004,-1.26134148516165e+001,-2.89551449407507e-001

2.42838976879009e+004,-1.26134166485387e+001,-2.93592879902222e-001

2.46228882668982e+004,-1.26134184957583e+001,-2.97690703073840e-001

2.49666109780322e+004,-1.26134203946766e+001,-3.01845705138811e-001

2.53151318794055e+004,-1.26134223467342e+001,-3.06058683243568e-001

2.56685179512580e+004,-1.26134243534107e+001,-3.10330445622723e-001

2.60268371088386e+004,-1.26134264162269e+001,-3.14661811745824e-001

2.63901582154578e+004,-1.26134285367456e+001,-3.19053612473144e-001

2.67585510957221e+004,-1.26134307165723e+001,-3.23506690215897e-001

2.71320865489533e+004,-1.26134329573571e+001,-3.28021899091798e-001

2.75108363627948e+004,-1.26134352607950e+001,-3.32600105090182e-001

2.78948733270080e+004,-1.26134376286280e+001,-3.37242186231203e-001

2.82842712474618e+004,-1.26134400626461e+001,-3.41949032732946e-001

2.86791049603164e+004,-1.26134425646878e+001,-3.46721547182344e-001

2.90794503464061e+004,-1.26134451366428e+001,-3.51560644700124e-001

2.94853843458219e+004,-1.26134477804524e+001,-3.56467253116436e-001

2.98969849726987e+004,-1.26134504981105e+001,-3.61442313147022e-001

3.03143313302078e+004,-1.26134532916666e+001,-3.66486778564073e-001

3.07375036257601e+004,-1.26134561632255e+001,-3.71601616383038e-001

3.11665831864199e+004,-1.26134591149498e+001,-3.76787807039534e-001

3.16016524745350e+004,-1.26134621490614e+001,-3.82046344574442e-001

3.20427951035848e+004,-1.26134652678426e+001,-3.87378236820280e-001

3.24900958542493e+004,-1.26134684736379e+001,-3.92784505592910e-001

3.29436406907028e+004,-1.26134717688559e+001,-3.98266186878787e-001

3.34035167771346e+004,-1.26134751559706e+001,-4.03824331032750e-001

3.38698124945009e+004,-1.26134786375236e+001,-4.09460002971151e-001

3.43426174575100e+004,-1.26134822161251e+001,-4.15174282375451e-001

3.48220225318448e+004,-1.26134858944565e+001,-4.20968263889819e-001

3.53081198516260e+004,-1.26134896752718e+001,-4.26843057326955e-001

3.58010028371187e+004,-1.26134935613997e+001,-4.32799787877384e-001

3.63007662126863e+004,-1.26134975557455e+001,-4.38839596315929e-001

3.68075060249948e+004,-1.26135016612927e+001,-4.44963639217232e-001

3.73213196614721e+004,-1.26135058811060e+001,-4.51173089167142e-001

3.78423058690237e+004,-1.26135102183320e+001,-4.57469134987091e-001

3.83705647730104e+004,-1.26135146762028e+001,-4.63852981947403e-001

3.89061978964912e+004,-1.26135192580370e+001,-4.70325851998599e-001

3.94493081797342e+004,-1.26135239672424e+001,-4.76888983992891e-001

3.99999999999998e+004,-1.26135288073186e+001,-4.83543633915002e-001

4.05583791916010e+004,-1.26135337818588e+001,-4.90291075115917e-001

4.11245530662425e+004,-1.26135388945522e+001,-4.97132598548441e-001

4.16986304336447e+004,-1.26135441491867e+001,-5.04069513004455e-001

4.22807216224550e+004,-1.26135495496516e+001,-5.11103145356657e-001

4.28709385014515e+004,-1.26135550999395e+001,-5.18234840804202e-001

4.34693945010421e+004,-1.26135608041492e+001,-5.25465963120511e-001

4.40762046350642e+004,-1.26135666664886e+001,-5.32797894904250e-001

4.46914855228886e+004,-1.26135726912772e+001,-5.40232037831058e-001

4.53153554118317e+004,-1.26135788829485e+001,-5.47769812915502e-001

4.59479341998812e+004,-1.26135852460534e+001,-5.55412660767687e-001

4.65893434587380e+004,-1.26135917852632e+001,-5.63162041857591e-001

4.72397064571810e+004,-1.26135985053715e+001,-5.71019436784983e-001

4.78991481847569e+004,-1.26136054112983e+001,-5.78986346546530e-001

4.85677953758016e+004,-1.26136125080928e+001,-5.87064292811766e-001

4.92457765337964e+004,-1.26136198009358e+001,-5.95254818200036e-001

4.99332219560642e+004,-1.26136272951439e+001,-6.03559486559882e-001

5.06302637588109e+004,-1.26136349961720e+001,-6.11979883255271e-001

5.13370359025159e+004,-1.26136429096170e+001,-6.20517615451789e-001

5.20536742176771e+004,-1.26136510412209e+001,-6.29174312407628e-001

5.27803164309155e+004,-1.26136593968744e+001,-6.37951625769561e-001

5.35171021914442e+004,-1.26136679826201e+001,-6.46851229870439e-001

5.42641730979066e+004,-1.26136768046564e+001,-6.55874822031910e-001

5.50216727255895e+004,-1.26136858693408e+001,-6.65024122868596e-001

5.57897466540159e+004,-1.26136951831937e+001,-6.74300876598454e-001

5.65685424949235e+004,-1.26137047529021e+001,-6.83706851355350e-001

5.73582099206328e+004,-1.26137145853230e+001,-6.93243839507838e-001

5.81589006928121e+004,-1.26137246874880e+001,-7.02913657975730e-001

5.89707686916437e+004,-1.26137350666064e+001,-7.12718148558403e-001

5.97939699453972e+004,-1.26137457300696e+001,-7.22659178260174e-001

6.06286626604156e+004,-1.26137566854547e+001,-7.32738639625271e-001

6.14750072515201e+004,-1.26137679405289e+001,-7.42958451070705e-001

6.23331663728396e+004,-1.26137795032536e+001,-7.53320557228755e-001

6.32033049490698e+004,-1.26137913817881e+001,-7.63826929289295e-001

6.40855902071694e+004,-1.26138035844940e+001,-7.74479565349503e-001

6.49801917084985e+004,-1.26138161199399e+001,-7.85280490763579e-001

6.58872813814055e+004,-1.26138289969047e+001,-7.96231758501085e-001

6.68070335542691e+004,-1.26138422243828e+001,-8.07335449504990e-001

6.77396249890018e+004,-1.26138558115879e+001,-8.18593673058631e-001

6.86852349150199e+004,-1.26138697679575e+001,-8.30008567151381e-001

6.96440450636895e+004,-1.26138841031577e+001,-8.41582298852326e-001

7.06162397032520e+004,-1.26138988270865e+001,-8.53317064689293e-001

7.16020056742374e+004,-1.26139139498799e+001,-8.65215091026033e-001

7.26015324253724e+004,-1.26139294819148e+001,-8.77278634451268e-001

7.36150120499896e+004,-1.26139454338143e+001,-8.89509982166313e-001

7.46426393229441e+004,-1.26139618164522e+001,-9.01911452380666e-001

7.56846117380472e+004,-1.26139786409571e+001,-9.14485394709014e-001

7.67411295460207e+004,-1.26139959187170e+001,-9.27234190575692e-001

7.78123957929823e+004,-1.26140136613840e+001,-9.40160253621602e-001

7.88986163594682e+004,-1.26140318808784e+001,-9.53266030115118e-001

7.99999999999995e+004,-1.26140505893933e+001,-9.66553999370793e-001

8.11167583832018e+004,-1.26140697993991e+001,-9.80026674168585e-001

8.22491061324848e+004,-1.26140895236474e+001,-9.93686601179936e-001

8.33972608672892e+004,-1.26141097751757e+001,-1.00753636139865e+000

8.45614432449099e+004,-1.26141305673116e+001,-1.02157857057496e+000

8.57418770029029e+004,-1.26141519136768e+001,-1.03581587965616e+000

8.69387890020841e+004,-1.26141738281912e+001,-1.05025097523091e+000

8.81524092701283e+004,-1.26141963250769e+001,-1.06488657997724e+000

8.93829710457770e+004,-1.26142194188619e+001,-1.07972545311979e+000

9.06307108236633e+004,-1.26142431243846e+001,-1.09477039088497e+000

9.18958683997622e+004,-1.26142674567962e+001,-1.11002422696851e+000

9.31786869174758e+004,-1.26142924315652e+001,-1.12548983300272e+000

9.44794129143618e+004,-1.26143180644806e+001,-1.14117011902985e+000

9.57982963695136e+004,-1.26143443716544e+001,-1.15706803398392e+000

9.71355907516031e+004,-1.26143713695252e+001,-1.17318656617294e+000

9.84915530675926e+004,-1.26143990748609e+001,-1.18952874376932e+000

9.98664439121282e+004,-1.26144275047609e+001,-1.20609763530477e+000

1.01260527517622e+005,-1.26144566766586e+001,-1.22289635017103e+000

1.02674071805032e+005,-1.26144866083234e+001,-1.23992803912603e+000

1.04107348435354e+005,-1.26145173178627e+001,-1.25719589480341e+000

1.05560632861831e+005,-1.26145488237228e+001,-1.27470315223210e+000

1.07034204382888e+005,-1.26145811446902e+001,-1.29245308935758e+000

1.08528346195813e+005,-1.26146142998929e+001,-1.31044902757044e+000

1.10043345451179e+005,-1.26146483088000e+001,-1.32869433224145e+000

1.11579493308032e+005,-1.26146831912221e+001,-1.34719241326132e+000

1.13137084989847e+005,-1.26147189673107e+001,-1.36594672558907e+000

1.14716419841265e+005,-1.26147556575575e+001,-1.38496076980268e+000

1.16317801385624e+005,-1.26147932827930e+001,-1.40423809265966e+000

1.17941537383287e+005,-1.26148318641845e+001,-1.42378228766272e+000

1.19587939890794e+005,-1.26148714232335e+001,-1.44359699563295e+000

1.21257325320831e+005,-1.26149119817733e+001,-1.46368590528795e+000

1.22950014503040e+005,-1.26149535619648e+001,-1.48405275382991e+000

1.24666332745679e+005,-1.26149961862926e+001,-1.50470132753696e+000

1.26406609898139e+005,-1.26150398775601e+001,-1.52563546236670e+000

1.28171180414339e+005,-1.26150846588837e+001,-1.54685904456350e+000

1.29960383416997e+005,-1.26151305536867e+001,-1.56837601127488e+000

1.31774562762811e+005,-1.26151775856923e+001,-1.59019035117650e+000

1.33614067108538e+005,-1.26152257789151e+001,-1.61230610510452e+000

1.35479249978003e+005,-1.26152751576531e+001,-1.63472736669774e+000

1.37370469830040e+005,-1.26153257464775e+001,-1.65745828304665e+000

1.39288090127379e+005,-1.26153775702223e+001,-1.68050305535358e+000

1.41232479406504e+005,-1.26154306539728e+001,-1.70386593960116e+000

1.43204011348474e+005,-1.26154850230534e+001,-1.72755124723061e+000

1.45203064850745e+005,-1.26155407030130e+001,-1.75156334583136e+000

1.47230024099979e+005,-1.26155977196115e+001,-1.77590665983888e+000

1.49285278645888e+005,-1.26156560988036e+001,-1.80058567124476e+000

1.51369223476094e+005,-1.26157158667212e+001,-1.82560492031955e+000

1.53482259092041e+005,-1.26157770496565e+001,-1.85096900634366e+000

1.55624791585964e+005,-1.26158396740415e+001,-1.87668258835427e+000

1.57797232718936e+005,-1.26159037664277e+001,-1.90275038590150e+000

1.59999999999999e+005,-1.26159693534646e+001,-1.92917717982080e+000

1.62233516766403e+005,-1.26160364618754e+001,-1.95596781301666e+000

1.64498212264969e+005,-1.26161051184329e+001,-1.98312719126205e+000

1.66794521734578e+005,-1.26161753499335e+001,-2.01066028401112e+000

1.69122886489819e+005,-1.26162471831689e+001,-2.03857212522959e+000

1.71483754005805e+005,-1.26163206448975e+001,-2.06686781423859e+000

1.73877578004168e+005,-1.26163957618134e+001,-2.09555251657718e+000

1.76304818540256e+005,-1.26164725605147e+001,-2.12463146488121e+000

1.78765942091554e+005,-1.26165510674692e+001,-2.15410995978050e+000

1.81261421647326e+005,-1.26166313089793e+001,-2.18399337081509e+000

1.83791736799524e+005,-1.26167133111451e+001,-2.21428713737103e+000

1.86357373834951e+005,-1.26167970998256e+001,-2.24499676963593e+000

1.88958825828723e+005,-1.26168827005985e+001,-2.27612784957633e+000

1.91596592739027e+005,-1.26169701387184e+001,-2.30768603193750e+000

1.94271181503206e+005,-1.26170594390734e+001,-2.33967704526521e+000

1.96983106135185e+005,-1.26171506261397e+001,-2.37210669295095e+000

1.99732887824256e+005,-1.26172437239346e+001,-2.40498085430467e+000

2.02521055035243e+005,-1.26173387559687e+001,-2.43830548564885e+000

2.05348143610063e+005,-1.26174357451953e+001,-2.47208662144305e+000

2.08214696870707e+005,-1.26175347139588e+001,-2.50633037543413e+000

2.11121265723661e+005,-1.26176356839420e+001,-2.54104294183498e+000

2.14068408765776e+005,-1.26177386761111e+001,-2.57623059653375e+000

2.17056692391625e+005,-1.26178437106595e+001,-2.61189969833343e+000

2.20086690902357e+005,-1.26179508069506e+001,-2.64805669022233e+000

2.23158986616063e+005,-1.26180599834586e+001,-2.68470810067820e+000

2.26274169979693e+005,-1.26181712577087e+001,-2.72186054500525e+000

2.29432839682530e+005,-1.26182846462156e+001,-2.75952072670729e+000

2.32635602771247e+005,-1.26184001644209e+001,-2.79769543889519e+000

2.35883074766574e+005,-1.26185178266304e+001,-2.83639156573148e+000

2.39175879781588e+005,-1.26186376459488e+001,-2.87561608391369e+000

2.42514650641661e+005,-1.26187596342153e+001,-2.91537606419625e+000

2.45900029006080e+005,-1.26188838019379e+001,-2.95567867295064e+000

2.49332665491357e+005,-1.26190101582268e+001,-2.99653117376906e+000

2.52813219796278e+005,-1.26191387107278e+001,-3.03794092910781e+000

2.56342360828676e+005,-1.26192694655557e+001,-3.07991540197465e+000

2.59920766833993e+005,-1.26194024272276e+001,-3.12246215765742e+000

2.63549125525621e+005,-1.26195375985954e+001,-3.16558886550097e+000

2.67228134217075e+005,-1.26196749807801e+001,-3.20930330072375e+000

2.70958499956006e+005,-1.26198145731054e+001,-3.25361334628618e+000

2.74740939660078e+005,-1.26199563730328e+001,-3.29852699480001e+000

2.78576180254757e+005,-1.26201003760968e+001,-3.34405235048809e+000

2.82464958813007e+005,-1.26202465758419e+001,-3.39019763119054e+000

2.86408022696948e+005,-1.26203949637609e+001,-3.43697117041879e+000

2.90406129701488e+005,-1.26205455292340e+001,-3.48438141945732e+000

2.94460048199957e+005,-1.26206982594710e+001,-3.53243694951601e+000

2.98570557291775e+005,-1.26208531394540e+001,-3.58114645392754e+000

3.02738446952187e+005,-1.26210101518840e+001,-3.63051875039736e+000

3.06964518184081e+005,-1.26211692771284e+001,-3.68056278329994e+000

3.11249583171928e+005,-1.26213304931727e+001,-3.73128762602379e+000

3.15594465437872e+005,-1.26214937755741e+001,-3.78270248336583e+000

3.19999999999997e+005,-1.26216590974193e+001,-3.83481669397191e+000

3.24467033532806e+005,-1.26218264292849e+001,-3.88763973282683e+000

3.28996424529938e+005,-1.26219957392020e+001,-3.94118121378970e+000

3.33589043469155e+005,-1.26221669926250e+001,-3.99545089217578e+000

3.38245772979638e+005,-1.26223401524038e+001,-4.05045866738332e+000

3.42967508011610e+005,-1.26225151787616e+001,-4.10621458556584e+000

3.47755156008335e+005,-1.26226920292757e+001,-4.16272884234593e+000

3.52609637080511e+005,-1.26228706588650e+001,-4.22001178557311e+000

3.57531884183106e+005,-1.26230510197806e+001,-4.27807391812094e+000

3.62522843294651e+005,-1.26232330616031e+001,-4.33692590072470e+000

3.67583473599047e+005,-1.26234167312441e+001,-4.39657855485603e+000

3.72714747669902e+005,-1.26236019729543e+001,-4.45704286563524e+000

3.77917651657445e+005,-1.26237887283356e+001,-4.51832998477795e+000

3.83193185478053e+005,-1.26239769363605e+001,-4.58045123357376e+000

3.88542363006410e+005,-1.26241665333959e+001,-4.64341810589801e+000

3.93966212270369e+005,-1.26243574532339e+001,-4.70724227125217e+000

3.99465775648511e+005,-1.26245496271272e+001,-4.77193557783127e+000

4.05042110070485e+005,-1.26247429838314e+001,-4.83751005561824e+000

4.10696287220124e+005,-1.26249374496524e+001,-4.90397791950011e+000

4.16429393741414e+005,-1.26251329484997e+001,-4.97135157240887e+000

4.22242531447321e+005,-1.26253294019459e+001,-5.03964360847832e+000

4.28136817531551e+005,-1.26255267292910e+001,-5.10886681622304e+000

4.34113384783250e+005,-1.26257248476325e+001,-5.17903418172909e+000

4.40173381804713e+005,-1.26259236719415e+001,-5.25015889186298e+000

4.46317973232124e+005,-1.26261231151424e+001,-5.32225433748882e+000

4.52548339959385e+005,-1.26263230881991e+001,-5.39533411670001e+000

4.58865679365059e+005,-1.26265235002051e+001,-5.46941203805747e+000

4.65271205542494e+005,-1.26267242584779e+001,-5.54450212383494e+000

4.71766149533147e+005,-1.26269252686583e+001,-5.62061861327365e+000

4.78351759563174e+005,-1.26271264348124e+001,-5.69777596583695e+000

4.85029301283321e+005,-1.26273276595387e+001,-5.77598886447285e+000

4.91800058012158e+005,-1.26275288440769e+001,-5.85527221887649e+000

4.98665330982714e+005,-1.26277298884202e+001,-5.93564116875651e+000

5.05626439592555e+005,-1.26279306914304e+001,-6.01711108710010e+000

5.12684721657352e+005,-1.26281311509540e+001,-6.09969758344172e+000

5.19841533667984e+005,-1.26283311639415e+001,-6.18341650712970e+000

5.27098251051240e+005,-1.26285306265662e+001,-6.26828395059517e+000

5.34456268434150e+005,-1.26287294343449e+001,-6.35431625262077e+000

5.41916999912011e+005,-1.26289274822591e+001,-6.44153000161037e+000

