Freq.,VOut,OutRef

1.00000000000000e+004,-1.77504060109460e+001,-1.17884097783837e-001

1.01395947979003e+004,-1.77504066664922e+001,-1.19529627824919e-001

1.02811382665607e+004,-1.77504073404567e+001,-1.21198125611209e-001

1.04246576084112e+004,-1.77504080333567e+001,-1.22889911632362e-001

1.05701804056138e+004,-1.77504087457238e+001,-1.24605310848607e-001

1.07177346253629e+004,-1.77504094781046e+001,-1.26344652748990e-001

1.08673486252606e+004,-1.77504102310609e+001,-1.28108271417321e-001

1.10190511587661e+004,-1.77504110051705e+001,-1.29896505593373e-001

1.11728713807222e+004,-1.77504118010270e+001,-1.31709698741286e-001

1.13288388529580e+004,-1.77504126192408e+001,-1.33548199113160e-001

1.14869835499703e+004,-1.77504134604398e+001,-1.35412359811515e-001

1.16473358646846e+004,-1.77504143252690e+001,-1.37302538866111e-001

1.18099266142953e+004,-1.77504152143916e+001,-1.39219099294317e-001

1.19747870461893e+004,-1.77504161284894e+001,-1.41162409174141e-001

1.21419488439505e+004,-1.77504170682636e+001,-1.43132841712044e-001

1.23114441334492e+004,-1.77504180344345e+001,-1.45130775316786e-001

1.24833054890161e+004,-1.77504190277429e+001,-1.47156593672016e-001

1.26575659397028e+004,-1.77504200489503e+001,-1.49210685806972e-001

1.28342589756290e+004,-1.77504210988397e+001,-1.51293446169198e-001

1.30134185544193e+004,-1.77504221782156e+001,-1.53405274707949e-001

1.31950791077289e+004,-1.77504232879054e+001,-1.55546576940623e-001

1.33792755478611e+004,-1.77504244287597e+001,-1.57717764036194e-001

1.35660432744767e+004,-1.77504256016525e+001,-1.59919252892282e-001

1.37554181813974e+004,-1.77504268074825e+001,-1.62151466214434e-001

1.39474366635040e+004,-1.77504280471739e+001,-1.64414832594337e-001

1.41421356237309e+004,-1.77504293216763e+001,-1.66709786595770e-001

1.43395524801583e+004,-1.77504306319657e+001,-1.69036768837052e-001

1.45397251732031e+004,-1.77504319790461e+001,-1.71396226069037e-001

1.47426921729110e+004,-1.77504333639490e+001,-1.73788611267489e-001

1.49484924863494e+004,-1.77504347877351e+001,-1.76214383714724e-001

1.51571656651040e+004,-1.77504362514944e+001,-1.78674009089724e-001

1.53687518128801e+004,-1.77504377563477e+001,-1.81167959555490e-001

1.55832915932100e+004,-1.77504393034469e+001,-1.83696713848389e-001

1.58008262372675e+004,-1.77504408939765e+001,-1.86260757368981e-001

1.60213975517924e+004,-1.77504425291534e+001,-1.88860582277397e-001

1.62450479271247e+004,-1.77504442102292e+001,-1.91496687581966e-001

1.64718203453514e+004,-1.77504459384901e+001,-1.94169579238361e-001

1.67017583885674e+004,-1.77504477152582e+001,-1.96879770244144e-001

1.69349062472505e+004,-1.77504495418928e+001,-1.99627780734304e-001

1.71713087287550e+004,-1.77504514197910e+001,-2.02414138082326e-001

1.74110112659224e+004,-1.77504533503888e+001,-2.05239377000161e-001

1.76540599258131e+004,-1.77504553351623e+001,-2.08104039639314e-001

1.79005014185594e+004,-1.77504573756289e+001,-2.11008675692839e-001

1.81503831063432e+004,-1.77504594733482e+001,-2.13953842500243e-001

1.84037530124975e+004,-1.77504616299237e+001,-2.16940105151321e-001

1.86606598307361e+004,-1.77504638470029e+001,-2.19968036598158e-001

1.89211529345119e+004,-1.77504661262800e+001,-2.23038217757039e-001

1.91852823865052e+004,-1.77504684694957e+001,-2.26151237624241e-001

1.94530989482457e+004,-1.77504708784398e+001,-2.29307693382332e-001

1.97246540898671e+004,-1.77504733549518e+001,-2.32508190515910e-001

1.99999999999999e+004,-1.77504759009222e+001,-2.35753342927667e-001

2.02791895958005e+004,-1.77504785182944e+001,-2.39043773049919e-001

2.05622765331213e+004,-1.77504812090656e+001,-2.42380111966652e-001

2.08493152168224e+004,-1.77504839752890e+001,-2.45762999527924e-001

2.11403608112276e+004,-1.77504868190749e+001,-2.49193084474188e-001

2.14354692507258e+004,-1.77504897425917e+001,-2.52671024558816e-001

2.17346972505211e+004,-1.77504927480688e+001,-2.56197486669165e-001

2.20381023175322e+004,-1.77504958377972e+001,-2.59773146953438e-001

2.23457427614443e+004,-1.77504990141315e+001,-2.63398690949902e-001

2.26576777059159e+004,-1.77505022794921e+001,-2.67074813711761e-001

2.29739670999406e+004,-1.77505056363661e+001,-2.70802219942247e-001

2.32946717293690e+004,-1.77505090873102e+001,-2.74581624123204e-001

2.36198532285905e+004,-1.77505126349515e+001,-2.78413750652459e-001

2.39495740923785e+004,-1.77505162819903e+001,-2.82299333977018e-001

2.42838976879009e+004,-1.77505200312017e+001,-2.86239118732557e-001

2.46228882668982e+004,-1.77505238854378e+001,-2.90233859881846e-001

2.49666109780322e+004,-1.77505278476296e+001,-2.94284322856662e-001

2.53151318794055e+004,-1.77505319207893e+001,-2.98391283701579e-001

2.56685179512580e+004,-1.77505361080124e+001,-3.02555529218269e-001

2.60268371088386e+004,-1.77505404124804e+001,-3.06777857111494e-001

2.63901582154578e+004,-1.77505448374626e+001,-3.11059076139053e-001

2.67585510957221e+004,-1.77505493863183e+001,-3.15400006265807e-001

2.71320865489533e+004,-1.77505540625004e+001,-3.19801478808959e-001

2.75108363627948e+004,-1.77505588695566e+001,-3.24264336600569e-001

2.78948733270080e+004,-1.77505638111325e+001,-3.28789434140158e-001

2.82842712474618e+004,-1.77505688909747e+001,-3.33377637753389e-001

2.86791049603164e+004,-1.77505741129329e+001,-3.38029825754872e-001

2.90794503464061e+004,-1.77505794809629e+001,-3.42746888610433e-001

2.94853843458219e+004,-1.77505849991294e+001,-3.47529729101750e-001

2.98969849726987e+004,-1.77505906716092e+001,-3.52379262493262e-001

3.03143313302078e+004,-1.77505965026939e+001,-3.57296416702626e-001

3.07375036257601e+004,-1.77506024967928e+001,-3.62282132471906e-001

3.11665831864199e+004,-1.77506086584372e+001,-3.67337363538654e-001

3.16016524745350e+004,-1.77506149922820e+001,-3.72463076815912e-001

3.20427951035848e+004,-1.77506215031102e+001,-3.77660252568024e-001

3.24900958542493e+004,-1.77506281958360e+001,-3.82929884589824e-001

3.29436406907028e+004,-1.77506350755083e+001,-3.88272980392292e-001

3.34035167771346e+004,-1.77506421473140e+001,-3.93690561385168e-001

3.38698124945009e+004,-1.77506494165824e+001,-3.99183663063133e-001

3.43426174575100e+004,-1.77506568887879e+001,-4.04753335199944e-001

3.48220225318448e+004,-1.77506645695553e+001,-4.10400642033816e-001

3.53081198516260e+004,-1.77506724646621e+001,-4.16126662467801e-001

3.58010028371187e+004,-1.77506805800441e+001,-4.21932490262080e-001

3.63007662126863e+004,-1.77506889217984e+001,-4.27819234235981e-001

3.68075060249948e+004,-1.77506974961884e+001,-4.33788018466547e-001

3.73213196614721e+004,-1.77507063096476e+001,-4.39839982496467e-001

3.78423058690237e+004,-1.77507153687849e+001,-4.45976281535642e-001

3.83705647730104e+004,-1.77507246803879e+001,-4.52198086675250e-001

3.89061978964912e+004,-1.77507342514291e+001,-4.58506585094959e-001

3.94493081797342e+004,-1.77507440890695e+001,-4.64902980279048e-001

3.99999999999998e+004,-1.77507542006640e+001,-4.71388492233497e-001

4.05583791916010e+004,-1.77507645937663e+001,-4.77964357703960e-001

4.11245530662425e+004,-1.77507752761344e+001,-4.84631830397580e-001

4.16986304336447e+004,-1.77507862557355e+001,-4.91392181208067e-001

4.22807216224550e+004,-1.77507975407513e+001,-4.98246698442401e-001

4.28709385014515e+004,-1.77508091395840e+001,-5.05196688050563e-001

4.34693945010421e+004,-1.77508210608613e+001,-5.12243473858452e-001

4.40762046350642e+004,-1.77508333134431e+001,-5.19388397800884e-001

4.46914855228886e+004,-1.77508459064264e+001,-5.26632820162497e-001

4.53153554118317e+004,-1.77508588491517e+001,-5.33978119816054e-001

4.59479341998812e+004,-1.77508721512096e+001,-5.41425694465793e-001

4.65893434587380e+004,-1.77508858224465e+001,-5.48976960895280e-001

4.72397064571810e+004,-1.77508998729713e+001,-5.56633355213299e-001

4.78991481847569e+004,-1.77509143131620e+001,-5.64396333107993e-001

4.85677953758016e+004,-1.77509291536726e+001,-5.72267370100039e-001

4.92457765337964e+004,-1.77509444054394e+001,-5.80247961799452e-001

4.99332219560642e+004,-1.77509600796887e+001,-5.88339624166828e-001

5.06302637588109e+004,-1.77509761879434e+001,-5.96543893776025e-001

5.13370359025159e+004,-1.77509927420308e+001,-6.04862328077090e-001

5.20536742176771e+004,-1.77510097540896e+001,-6.13296505670562e-001

5.27803164309155e+004,-1.77510272365779e+001,-6.21848026572172e-001

5.35171021914442e+004,-1.77510452022806e+001,-6.30518512492345e-001

5.42641730979066e+004,-1.77510636643174e+001,-6.39309607111603e-001

5.50216727255895e+004,-1.77510826361514e+001,-6.48222976359978e-001

5.57897466540159e+004,-1.77511021315964e+001,-6.57260308700651e-001

5.65685424949235e+004,-1.77511221648259e+001,-6.66423315416531e-001

5.73582099206328e+004,-1.77511427503813e+001,-6.75713730898712e-001

5.81589006928121e+004,-1.77511639031813e+001,-6.85133312936814e-001

5.89707686916437e+004,-1.77511856385295e+001,-6.94683843016198e-001

5.97939699453972e+004,-1.77512079721246e+001,-7.04367126613498e-001

6.06286626604156e+004,-1.77512309200685e+001,-7.14184993499139e-001

6.14750072515201e+004,-1.77512544988765e+001,-7.24139298039187e-001

6.23331663728396e+004,-1.77512787254863e+001,-7.34231919502621e-001

6.32033049490698e+004,-1.77513036172676e+001,-7.44464762369754e-001

6.40855902071694e+004,-1.77513291920319e+001,-7.54839756646491e-001

6.49801917084985e+004,-1.77513554680424e+001,-7.65358858177945e-001

6.58872813814055e+004,-1.77513824640242e+001,-7.76024048966602e-001

6.68070335542691e+004,-1.77514101991741e+001,-7.86837337494508e-001

6.77396249890018e+004,-1.77514386931714e+001,-7.97800759046890e-001

6.86852349150199e+004,-1.77514679661880e+001,-8.08916376038742e-001

6.96440450636895e+004,-1.77514980388991e+001,-8.20186278344882e-001

7.06162397032520e+004,-1.77515289324940e+001,-8.31612583632870e-001

7.16020056742374e+004,-1.77515606686867e+001,-8.43197437698804e-001

7.26015324253724e+004,-1.77515932697273e+001,-8.54943014805793e-001

7.36150120499896e+004,-1.77516267584127e+001,-8.66851518025045e-001

7.46426393229441e+004,-1.77516611580978e+001,-8.78925179581199e-001

7.56846117380472e+004,-1.77516964927070e+001,-8.91166261198218e-001

7.67411295460207e+004,-1.77517327867454e+001,-9.03577054450693e-001

7.78123957929823e+004,-1.77517700653102e+001,-9.16159881116313e-001

7.88986163594682e+004,-1.77518083541025e+001,-9.28917093531472e-001

7.99999999999995e+004,-1.77518476794386e+001,-9.41851074950617e-001

8.11167583832018e+004,-1.77518880682616e+001,-9.54964239906343e-001

8.22491061324848e+004,-1.77519295481536e+001,-9.68259034575393e-001

8.33972608672892e+004,-1.77519721473466e+001,-9.81737937144946e-001

8.45614432449099e+004,-1.77520158947351e+001,-9.95403458182045e-001

8.57418770029029e+004,-1.77520608198871e+001,-1.00925814100756e+000

8.69387890020841e+004,-1.77521069530563e+001,-1.02330456207040e+000

8.81524092701283e+004,-1.77521543251938e+001,-1.03754533132703e+000

8.93829710457770e+004,-1.77522029679593e+001,-1.05198309262217e+000

9.06307108236633e+004,-1.77522529137332e+001,-1.06662052407255e+000

9.18958683997622e+004,-1.77523041956280e+001,-1.08146033845414e+000

9.31786869174758e+004,-1.77523568474993e+001,-1.09650528359126e+000

9.44794129143618e+004,-1.77524109039579e+001,-1.11175814274989e+000

9.57982963695136e+004,-1.77524664003802e+001,-1.12722173503183e+000

9.71355907516031e+004,-1.77525233729196e+001,-1.14289891577304e+000

9.84915530675926e+004,-1.77525818585172e+001,-1.15879257694642e+000

9.98664439121282e+004,-1.77526418949123e+001,-1.17490564756328e+000

1.01260527517622e+005,-1.77527035206530e+001,-1.19124109408171e+000

1.02674071805032e+005,-1.77527667751060e+001,-1.20780192081571e+000

1.04107348435354e+005,-1.77528316984663e+001,-1.22459117034977e+000

1.05560632861831e+005,-1.77528983317670e+001,-1.24161192395202e+000

1.07034204382888e+005,-1.77529667168881e+001,-1.25886730199661e+000

1.08528346195813e+005,-1.77530368965652e+001,-1.27636046438351e+000

1.10043345451179e+005,-1.77531089143978e+001,-1.29409461096577e+000

1.11579493308032e+005,-1.77531828148569e+001,-1.31207298197791e+000

1.13137084989847e+005,-1.77532586432925e+001,-1.33029885846796e+000

1.14716419841265e+005,-1.77533364459401e+001,-1.34877556273489e+000

1.16317801385624e+005,-1.77534162699268e+001,-1.36750645876735e+000

1.17941537383287e+005,-1.77534981632767e+001,-1.38649495268813e+000

1.19587939890794e+005,-1.77535821749162e+001,-1.40574449320057e+000

1.21257325320831e+005,-1.77536683546770e+001,-1.42525857204238e+000

1.22950014503040e+005,-1.77537567533005e+001,-1.44504072443965e+000

1.24666332745679e+005,-1.77538474224396e+001,-1.46509452956932e+000

1.26406609898139e+005,-1.77539404146605e+001,-1.48542361102293e+000

1.28171180414339e+005,-1.77540357834430e+001,-1.50603163727902e+000

1.29960383416997e+005,-1.77541335831809e+001,-1.52692232217730e+000

1.31774562762811e+005,-1.77542338691797e+001,-1.54809942540019e+000

1.33614067108538e+005,-1.77543366976552e+001,-1.56956675296007e+000

1.35479249978003e+005,-1.77544421257287e+001,-1.59132815769282e+000

1.37370469830040e+005,-1.77545502114235e+001,-1.61338753975600e+000

1.39288090127379e+005,-1.77546610136577e+001,-1.63574884713724e+000

1.41232479406504e+005,-1.77547745922375e+001,-1.65841607616736e+000

1.43204011348474e+005,-1.77548910078484e+001,-1.68139327204003e+000

1.45203064850745e+005,-1.77550103220448e+001,-1.70468452934500e+000

1.47230024099979e+005,-1.77551325972385e+001,-1.72829399260341e+000

1.49285278645888e+005,-1.77552578966854e+001,-1.75222585681588e+000

1.51369223476094e+005,-1.77553862844707e+001,-1.77648436802125e+000

1.53482259092041e+005,-1.77555178254926e+001,-1.80107382386206e+000

1.55624791585964e+005,-1.77556525854437e+001,-1.82599857416473e+000

1.57797232718936e+005,-1.77557906307913e+001,-1.85126302152866e+000

1.59999999999999e+005,-1.77559320287554e+001,-1.87687162192987e+000

1.62233516766403e+005,-1.77560768472854e+001,-1.90282888533516e+000

1.64498212264969e+005,-1.77562251550339e+001,-1.92913937633336e+000

1.66794521734578e+005,-1.77563770213295e+001,-1.95580771477808e+000

1.69122886489819e+005,-1.77565325161471e+001,-1.98283857644837e+000

1.71483754005805e+005,-1.77566917100759e+001,-2.01023669372486e+000

1.73877578004168e+005,-1.77568546742860e+001,-2.03800685628422e+000

1.76304818540256e+005,-1.77570214804923e+001,-2.06615391181007e+000

1.78765942091554e+005,-1.77571922009164e+001,-2.09468276672620e+000

1.81261421647326e+005,-1.77573669082464e+001,-2.12359838694770e+000

1.83791736799524e+005,-1.77575456755944e+001,-2.15290579865685e+000

1.86357373834951e+005,-1.77577285764519e+001,-2.18261008909772e+000

1.88958825828723e+005,-1.77579156846426e+001,-2.21271640739978e+000

1.91596592739027e+005,-1.77581070742738e+001,-2.24322996542318e+000

1.94271181503206e+005,-1.77583028196850e+001,-2.27415603863162e+000

1.96983106135185e+005,-1.77585029953942e+001,-2.30549996699446e+000

1.99732887824256e+005,-1.77587076760426e+001,-2.33726715591694e+000

2.02521055035243e+005,-1.77589169363370e+001,-2.36946307720109e+000

2.05348143610063e+005,-1.77591308509897e+001,-2.40209327004043e+000

2.08214696870707e+005,-1.77593494946576e+001,-2.43516334204598e+000

2.11121265723661e+005,-1.77595729418778e+001,-2.46867897030948e+000

2.14068408765776e+005,-1.77598012670028e+001,-2.50264590250172e+000

2.17056692391625e+005,-1.77600345441333e+001,-2.53706995801057e+000

2.20086690902357e+005,-1.77602728470494e+001,-2.57195702911766e+000

2.23158986616063e+005,-1.77605162491407e+001,-2.60731308221594e+000

2.26274169979693e+005,-1.77607648233349e+001,-2.64314415907195e+000

2.29432839682530e+005,-1.77610186420249e+001,-2.67945637812977e+000

2.32635602771247e+005,-1.77612777769958e+001,-2.71625593586400e+000

2.35883074766574e+005,-1.77615422993501e+001,-2.75354910817628e+000

2.39175879781588e+005,-1.77618122794331e+001,-2.79134225184442e+000

2.42514650641661e+005,-1.77620877867577e+001,-2.82964180601961e+000

2.45900029006080e+005,-1.77623688899289e+001,-2.86845429377607e+000

2.49332665491357e+005,-1.77626556565687e+001,-2.90778632371345e+000

2.52813219796278e+005,-1.77629481532417e+001,-2.94764459161413e+000

2.56342360828676e+005,-1.77632464453805e+001,-2.98803588215574e+000

2.59920766833993e+005,-1.77635505972135e+001,-3.02896707068116e+000

2.63549125525621e+005,-1.77638606716927e+001,-3.07044512502485e+000

2.67228134217075e+005,-1.77641767304245e+001,-3.11247710740015e+000

2.70958499956006e+005,-1.77644988336015e+001,-3.15507017634501e+000

2.74740939660078e+005,-1.77648270399373e+001,-3.19823158872866e+000

2.78576180254757e+005,-1.77651614066043e+001,-3.24196870181868e+000

2.82464958813007e+005,-1.77655019891743e+001,-3.28628897541159e+000

2.86408022696948e+005,-1.77658488415631e+001,-3.33119997402339e+000

2.90406129701488e+005,-1.77662020159791e+001,-3.37670936914395e+000

2.94460048199957e+005,-1.77665615628764e+001,-3.42282494155258e+000

2.98570557291775e+005,-1.77669275309129e+001,-3.46955458369744e+000

3.02738446952187e+005,-1.77672999669139e+001,-3.51690630213412e+000

3.06964518184081e+005,-1.77676789158415e+001,-3.56488822002888e+000

3.11249583171928e+005,-1.77680644207702e+001,-3.61350857972143e+000

3.15594465437872e+005,-1.77684565228700e+001,-3.66277574534540e+000

3.19999999999997e+005,-1.77688552613957e+001,-3.71269820551257e+000

3.24467033532806e+005,-1.77692606736848e+001,-3.76328457604944e+000

3.28996424529938e+005,-1.77696727951632e+001,-3.81454360279439e+000

3.33589043469155e+005,-1.77700916593596e+001,-3.86648416444625e+000

3.38245772979638e+005,-1.77705172979291e+001,-3.91911527546663e+000

3.42967508011610e+005,-1.77709497406860e+001,-3.97244608903390e+000

3.47755156008335e+005,-1.77713890156466e+001,-4.02648590004269e+000

3.52609637080511e+005,-1.77718351490826e+001,-4.08124414815170e+000

3.57531884183106e+005,-1.77722881655845e+001,-4.13673042087319e+000

3.62522843294651e+005,-1.77727480881365e+001,-4.19295445670332e+000

3.67583473599047e+005,-1.77732149382026e+001,-4.24992614828815e+000

3.72714747669902e+005,-1.77736887358243e+001,-4.30765554562555e+000

3.77917651657445e+005,-1.77741694997299e+001,-4.36615285929592e+000

3.83193185478053e+005,-1.77746572474560e+001,-4.42542846372097e+000

3.88542363006410e+005,-1.77751519954816e+001,-4.48549290044473e+000

3.93966212270369e+005,-1.77756537593744e+001,-4.54635688143484e+000

3.99465775648511e+005,-1.77761625539492e+001,-4.60803129239963e+000

4.05042110070485e+005,-1.77766783934396e+001,-4.67052719611603e+000

4.10696287220124e+005,-1.77772012916819e+001,-4.73385583576571e+000

4.16429393741414e+005,-1.77777312623118e+001,-4.79802863827580e+000

4.22242531447321e+005,-1.77782683189738e+001,-4.86305721765705e+000

4.28136817531551e+005,-1.77788124755427e+001,-4.92895337834022e+000

4.34113384783250e+005,-1.77793637463576e+001,-4.99572911850210e+000

4.40173381804713e+005,-1.77799221464685e+001,-5.06339663338027e+000

4.46317973232124e+005,-1.77804876918938e+001,-5.13196831857161e+000

4.52548339959385e+005,-1.77810603998906e+001,-5.20145677331024e+000

4.58865679365059e+005,-1.77816402892354e+001,-5.27187480372366e+000

4.65271205542494e+005,-1.77822273805163e+001,-5.34323542605974e+000

4.71766149533147e+005,-1.77828216964355e+001,-5.41555186988502e+000

4.78351759563174e+005,-1.77834232621221e+001,-5.48883758124961e+000

4.85029301283321e+005,-1.77840321054543e+001,-5.56310622581521e+000

4.91800058012158e+005,-1.77846482573912e+001,-5.63837169194546e+000

4.98665330982714e+005,-1.77852717523127e+001,-5.71464809375395e+000

5.05626439592555e+005,-1.77859026283678e+001,-5.79194977411049e+000

5.12684721657352e+005,-1.77865409278301e+001,-5.87029130760103e+000

5.19841533667984e+005,-1.77871866974608e+001,-5.94968750344216e+000

5.27098251051240e+005,-1.77878399888773e+001,-6.03015340834748e+000

5.34456268434150e+005,-1.77885008589274e+001,-6.11170430934604e+000

5.41916999912011e+005,-1.77891693700694e+001,-6.19435573655086e+000

