Freq.,VOut,OutRef

1.00000000000000e+004,-1.73716090621580e+001,-1.74945282511662e-001

1.01395947979003e+004,-1.73716098464330e+001,-1.77387354211865e-001

1.02811382665607e+004,-1.73716106527450e+001,-1.79863512846208e-001

1.04246576084112e+004,-1.73716114817130e+001,-1.82374234117638e-001

1.05701804056138e+004,-1.73716123339729e+001,-1.84920000365641e-001

1.07177346253629e+004,-1.73716132101792e+001,-1.87501300654703e-001

1.08673486252606e+004,-1.73716141110041e+001,-1.90118630872046e-001

1.10190511587661e+004,-1.73716150371390e+001,-1.92772493820818e-001

1.11728713807222e+004,-1.73716159892943e+001,-1.95463399317316e-001

1.13288388529580e+004,-1.73716169682009e+001,-1.98191864284522e-001

1.14869835499703e+004,-1.73716179746097e+001,-2.00958412857713e-001

1.16473358646846e+004,-1.73716190092927e+001,-2.03763576479785e-001

1.18099266142953e+004,-1.73716200730440e+001,-2.06607894003679e-001

1.19747870461893e+004,-1.73716211666795e+001,-2.09491911797543e-001

1.21419488439505e+004,-1.73716222910381e+001,-2.12416183847805e-001

1.23114441334492e+004,-1.73716234469822e+001,-2.15381271865586e-001

1.24833054890161e+004,-1.73716246353985e+001,-2.18387745392375e-001

1.26575659397028e+004,-1.73716258571982e+001,-2.21436181913526e-001

1.28342589756290e+004,-1.73716271133184e+001,-2.24527166963750e-001

1.30134185544193e+004,-1.73716284047225e+001,-2.27661294240110e-001

1.31950791077289e+004,-1.73716297324005e+001,-2.30839165719018e-001

1.33792755478611e+004,-1.73716310973704e+001,-2.34061391767779e-001

1.35660432744767e+004,-1.73716325006790e+001,-2.37328591259831e-001

1.37554181813974e+004,-1.73716339434014e+001,-2.40641391700691e-001

1.39474366635040e+004,-1.73716354266442e+001,-2.44000429337491e-001

1.41421356237309e+004,-1.73716369515439e+001,-2.47406349288856e-001

1.43395524801583e+004,-1.73716385192693e+001,-2.50859805663496e-001

1.45397251732031e+004,-1.73716401310218e+001,-2.54361461687080e-001

1.47426921729110e+004,-1.73716417880364e+001,-2.57911989828738e-001

1.49484924863494e+004,-1.73716434915829e+001,-2.61512071927810e-001

1.51571656651040e+004,-1.73716452429663e+001,-2.65162399326952e-001

1.53687518128801e+004,-1.73716470435284e+001,-2.68863673000775e-001

1.55832915932100e+004,-1.73716488946484e+001,-2.72616603692959e-001

1.58008262372675e+004,-1.73716507977439e+001,-2.76421912049312e-001

1.60213975517924e+004,-1.73716527542726e+001,-2.80280328755334e-001

1.62450479271247e+004,-1.73716547657326e+001,-2.84192594677747e-001

1.64718203453514e+004,-1.73716568336640e+001,-2.88159461002431e-001

1.67017583885674e+004,-1.73716589596499e+001,-2.92181689381503e-001

1.69349062472505e+004,-1.73716611453180e+001,-2.96260052074186e-001

1.71713087287550e+004,-1.73716633923408e+001,-3.00395332098648e-001

1.74110112659224e+004,-1.73716657024382e+001,-3.04588323375996e-001

1.76540599258131e+004,-1.73716680773780e+001,-3.08839830885516e-001

1.79005014185594e+004,-1.73716705189770e+001,-3.13150670817387e-001

1.81503831063432e+004,-1.73716730291031e+001,-3.17521670725805e-001

1.84037530124975e+004,-1.73716756096765e+001,-3.21953669687204e-001

1.86606598307361e+004,-1.73716782626704e+001,-3.26447518463042e-001

1.89211529345119e+004,-1.73716809901138e+001,-3.31004079656181e-001

1.91852823865052e+004,-1.73716837940919e+001,-3.35624227879736e-001

1.94530989482457e+004,-1.73716866767481e+001,-3.40308849919968e-001

1.97246540898671e+004,-1.73716896402859e+001,-3.45058844906094e-001

1.99999999999999e+004,-1.73716926869697e+001,-3.49875124483076e-001

2.02791895958005e+004,-1.73716958191277e+001,-3.54758612979513e-001

2.05622765331213e+004,-1.73716990391524e+001,-3.59710247589475e-001

2.08493152168224e+004,-1.73717023495035e+001,-3.64730978544104e-001

2.11403608112276e+004,-1.73717057527087e+001,-3.69821769297695e-001

2.14354692507258e+004,-1.73717092513666e+001,-3.74983596706017e-001

2.17346972505211e+004,-1.73717128481479e+001,-3.80217451212659e-001

2.20381023175322e+004,-1.73717165457978e+001,-3.85524337038080e-001

2.23457427614443e+004,-1.73717203471378e+001,-3.90905272368499e-001

2.26576777059159e+004,-1.73717242550680e+001,-3.96361289548381e-001

2.29739670999406e+004,-1.73717282725691e+001,-4.01893435276862e-001

2.32946717293690e+004,-1.73717324027047e+001,-4.07502770805217e-001

2.36198532285905e+004,-1.73717366486237e+001,-4.13190372137267e-001

2.39495740923785e+004,-1.73717410135622e+001,-4.18957330233295e-001

2.42838976879009e+004,-1.73717455008467e+001,-4.24804751215031e-001

2.46228882668982e+004,-1.73717501138957e+001,-4.30733756576501e-001

2.49666109780322e+004,-1.73717548562228e+001,-4.36745483393227e-001

2.53151318794055e+004,-1.73717597314390e+001,-4.42841084538327e-001

2.56685179512580e+004,-1.73717647432556e+001,-4.49021728900170e-001

2.60268371088386e+004,-1.73717698954868e+001,-4.55288601600547e-001

2.63901582154578e+004,-1.73717751920524e+001,-4.61642904221226e-001

2.67585510957221e+004,-1.73717806369812e+001,-4.68085855025363e-001

2.71320865489533e+004,-1.73717862344133e+001,-4.74618689191331e-001

2.75108363627948e+004,-1.73717919886034e+001,-4.81242659042792e-001

2.78948733270080e+004,-1.73717979039242e+001,-4.87959034283982e-001

2.82842712474618e+004,-1.73718039848692e+001,-4.94769102238719e-001

2.86791049603164e+004,-1.73718102360565e+001,-5.01674168089520e-001

2.90794503464061e+004,-1.73718166622313e+001,-5.08675555127813e-001

2.94853843458219e+004,-1.73718232682702e+001,-5.15774604995983e-001

2.98969849726987e+004,-1.73718300591844e+001,-5.22972677942782e-001

3.03143313302078e+004,-1.73718370401238e+001,-5.30271153074271e-001

3.07375036257601e+004,-1.73718442163798e+001,-5.37671428615025e-001

3.11665831864199e+004,-1.73718515933899e+001,-5.45174922168626e-001

3.16016524745350e+004,-1.73718591767416e+001,-5.52783070980525e-001

3.20427951035848e+004,-1.73718669721760e+001,-5.60497332208379e-001

3.24900958542493e+004,-1.73718749855925e+001,-5.68319183192267e-001

3.29436406907028e+004,-1.73718832230527e+001,-5.76250121730248e-001

3.34035167771346e+004,-1.73718916907846e+001,-5.84291666358182e-001

3.38698124945009e+004,-1.73719003951877e+001,-5.92445356629780e-001

3.43426174575100e+004,-1.73719093428370e+001,-6.00712753405141e-001

3.48220225318448e+004,-1.73719185404877e+001,-6.09095439139019e-001

3.53081198516260e+004,-1.73719279950807e+001,-6.17595018173685e-001

3.58010028371187e+004,-1.73719377137467e+001,-6.26213117038406e-001

3.63007662126863e+004,-1.73719477038116e+001,-6.34951384748063e-001

3.68075060249948e+004,-1.73719579728021e+001,-6.43811493109037e-001

3.73213196614721e+004,-1.73719685284504e+001,-6.52795137027871e-001

3.78423058690237e+004,-1.73719793786997e+001,-6.61904034824701e-001

3.83705647730104e+004,-1.73719905317106e+001,-6.71139928548184e-001

3.89061978964912e+004,-1.73720019958656e+001,-6.80504584298339e-001

3.94493081797342e+004,-1.73720137797760e+001,-6.89999792548951e-001

3.99999999999998e+004,-1.73720258922874e+001,-6.99627368477885e-001

4.05583791916010e+004,-1.73720383424859e+001,-7.09389152300939e-001

4.11245530662425e+004,-1.73720511397047e+001,-7.19287009605305e-001

4.16986304336447e+004,-1.73720642935301e+001,-7.29322831695606e-001

4.22807216224550e+004,-1.73720778138085e+001,-7.39498535935742e-001

4.28709385014515e+004,-1.73720917106532e+001,-7.49816066100529e-001

4.34693945010421e+004,-1.73721059944510e+001,-7.60277392729297e-001

4.40762046350642e+004,-1.73721206758694e+001,-7.70884513485845e-001

4.46914855228886e+004,-1.73721357658642e+001,-7.81639453518526e-001

4.53153554118317e+004,-1.73721512756865e+001,-7.92544265830777e-001

4.59479341998812e+004,-1.73721672168907e+001,-8.03601031650939e-001

4.65893434587380e+004,-1.73721836013419e+001,-8.14811860809444e-001

4.72397064571810e+004,-1.73722004412241e+001,-8.26178892120482e-001

4.78991481847569e+004,-1.73722177490484e+001,-8.37704293766167e-001

4.85677953758016e+004,-1.73722355376612e+001,-8.49390263687635e-001

4.92457765337964e+004,-1.73722538202527e+001,-8.61239029980976e-001

4.99332219560642e+004,-1.73722726103659e+001,-8.73252851294154e-001

5.06302637588109e+004,-1.73722919219048e+001,-8.85434017234566e-001

5.13370359025159e+004,-1.73723117691444e+001,-8.97784848775974e-001

5.20536742176771e+004,-1.73723321667395e+001,-9.10307698673606e-001

5.27803164309155e+004,-1.73723531297340e+001,-9.23004951882870e-001

5.35171021914442e+004,-1.73723746735712e+001,-9.35879025982800e-001

5.42641730979066e+004,-1.73723968141030e+001,-9.48932371605765e-001

5.50216727255895e+004,-1.73724195676006e+001,-9.62167472869848e-001

5.57897466540159e+004,-1.73724429507646e+001,-9.75586847818877e-001

5.65685424949235e+004,-1.73724669807354e+001,-9.89193048864496e-001

5.73582099206328e+004,-1.73724916751041e+001,-1.00298866323749e+000

5.81589006928121e+004,-1.73725170519233e+001,-1.01697631343937e+000

5.89707686916437e+004,-1.73725431297188e+001,-1.03115865770245e+000

5.97939699453972e+004,-1.73725699275000e+001,-1.04553839045425e+000

6.06286626604156e+004,-1.73725974647726e+001,-1.06011824278722e+000

6.14750072515201e+004,-1.73726257615497e+001,-1.07490098293189e+000

6.23331663728396e+004,-1.73726548383640e+001,-1.08988941673958e+000

6.32033049490698e+004,-1.73726847162802e+001,-1.10508638816474e+000

6.40855902071694e+004,-1.73727154169077e+001,-1.12049477975720e+000

6.49801917084985e+004,-1.73727469624127e+001,-1.13611751315805e+000

6.58872813814055e+004,-1.73727793755318e+001,-1.15195754960055e+000

6.68070335542691e+004,-1.73728126795845e+001,-1.16801789041719e+000

6.77396249890018e+004,-1.73728468984872e+001,-1.18430157755159e+000

6.86852349150199e+004,-1.73728820567666e+001,-1.20081169407630e+000

6.96440450636895e+004,-1.73729181795731e+001,-1.21755136471677e+000

7.06162397032520e+004,-1.73729552926953e+001,-1.23452375637837e+000

7.16020056742374e+004,-1.73729934225742e+001,-1.25173207868241e+000

7.26015324253724e+004,-1.73730325963173e+001,-1.26917958450439e+000

7.36150120499896e+004,-1.73730728417137e+001,-1.28686957052065e+000

7.46426393229441e+004,-1.73731141872485e+001,-1.30480537775935e+000

7.56846117380472e+004,-1.73731566621182e+001,-1.32299039215664e+000

7.67411295460207e+004,-1.73732002962457e+001,-1.34142804511879e+000

7.78123957929823e+004,-1.73732451202958e+001,-1.36012181409195e+000

7.88986163594682e+004,-1.73732911656909e+001,-1.37907522313448e+000

7.99999999999995e+004,-1.73733384646266e+001,-1.39829184349744e+000

8.11167583832018e+004,-1.73733870500876e+001,-1.41777529420953e+000

8.22491061324848e+004,-1.73734369558641e+001,-1.43752924266912e+000

8.33972608672892e+004,-1.73734882165676e+001,-1.45755740524066e+000

8.45614432449099e+004,-1.73735408676477e+001,-1.47786354785821e+000

8.57418770029029e+004,-1.73735949454082e+001,-1.49845148663525e+000

8.69387890020841e+004,-1.73736504870240e+001,-1.51932508847807e+000

8.81524092701283e+004,-1.73737075305576e+001,-1.54048827170814e+000

8.93829710457770e+004,-1.73737661149763e+001,-1.56194500668835e+000

9.06307108236633e+004,-1.73738262801683e+001,-1.58369931645674e+000

9.18958683997622e+004,-1.73738880669605e+001,-1.60575527736615e+000

9.31786869174758e+004,-1.73739515171349e+001,-1.62811701972843e+000

9.44794129143618e+004,-1.73740166734458e+001,-1.65078872846750e+000

9.57982963695136e+004,-1.73740835796368e+001,-1.67377464377716e+000

9.71355907516031e+004,-1.73741522804577e+001,-1.69707906178584e+000

9.84915530675926e+004,-1.73742228216816e+001,-1.72070633522515e+000

9.98664439121282e+004,-1.73742952501215e+001,-1.74466087411189e+000

1.01260527517622e+005,-1.73743696136475e+001,-1.76894714642753e+000

1.02674071805032e+005,-1.73744459612033e+001,-1.79356967881107e+000

1.04107348435354e+005,-1.73745243428227e+001,-1.81853305725659e+000

1.05560632861831e+005,-1.73746048096462e+001,-1.84384192781647e+000

1.07034204382888e+005,-1.73746874139371e+001,-1.86950099731412e+000

1.08528346195813e+005,-1.73747722090974e+001,-1.89551503406114e+000

1.10043345451179e+005,-1.73748592496839e+001,-1.92188886858300e+000

1.11579493308032e+005,-1.73749485914235e+001,-1.94862739435245e+000

1.13137084989847e+005,-1.73750402912282e+001,-1.97573556853040e+000

1.14716419841265e+005,-1.73751344072101e+001,-2.00321841271271e+000

1.16317801385624e+005,-1.73752309986958e+001,-2.03108101368768e+000

1.17941537383287e+005,-1.73753301262405e+001,-2.05932852419856e+000

1.19587939890794e+005,-1.73754318516413e+001,-2.08796616371710e+000

1.21257325320831e+005,-1.73755362379505e+001,-2.11699921922334e+000

1.22950014503040e+005,-1.73756433494877e+001,-2.14643304599516e+000

1.24666332745679e+005,-1.73757532518522e+001,-2.17627306840746e+000

1.26406609898139e+005,-1.73758660119338e+001,-2.20652478073818e+000

1.28171180414339e+005,-1.73759816979238e+001,-2.23719374798597e+000

1.29960383416997e+005,-1.73761003793245e+001,-2.26828560669749e+000

1.31774562762811e+005,-1.73762221269582e+001,-2.29980606580429e+000

1.33614067108538e+005,-1.73763470129759e+001,-2.33176090746949e+000

1.35479249978003e+005,-1.73764751108644e+001,-2.36415598794735e+000

1.37370469830040e+005,-1.73766064954526e+001,-2.39699723845177e+000

1.39288090127379e+005,-1.73767412429174e+001,-2.43029066603900e+000

1.41232479406504e+005,-1.73768794307877e+001,-2.46404235450025e+000

1.43204011348474e+005,-1.73770211379480e+001,-2.49825846526880e+000

1.45203064850745e+005,-1.73771664446408e+001,-2.53294523833945e+000

1.47230024099979e+005,-1.73773154324674e+001,-2.56810899320226e+000

1.49285278645888e+005,-1.73774681843878e+001,-2.60375612978951e+000

1.51369223476094e+005,-1.73776247847195e+001,-2.63989312943913e+000

1.53482259092041e+005,-1.73777853191346e+001,-2.67652655587405e+000

1.55624791585964e+005,-1.73779498746555e+001,-2.71366305619558e+000

1.57797232718936e+005,-1.73781185396497e+001,-2.75130936189694e+000

1.59999999999999e+005,-1.73782914038226e+001,-2.78947228989268e+000

1.62233516766403e+005,-1.73784685582089e+001,-2.82815874356774e+000

1.64498212264969e+005,-1.73786500951628e+001,-2.86737571384498e+000

1.66794521734578e+005,-1.73788361083462e+001,-2.90713028027582e+000

1.69122886489819e+005,-1.73790266927156e+001,-2.94742961214904e+000

1.71483754005805e+005,-1.73792219445069e+001,-2.98828096962463e+000

1.73877578004168e+005,-1.73794219612193e+001,-3.02969170488954e+000

1.76304818540256e+005,-1.73796268415967e+001,-3.07166926333972e+000

1.78765942091554e+005,-1.73798366856080e+001,-3.11422118478509e+000

1.81261421647326e+005,-1.73800515944254e+001,-3.15735510468464e+000

1.83791736799524e+005,-1.73802716704010e+001,-3.20107875540749e+000

1.86357373834951e+005,-1.73804970170418e+001,-3.24539996752408e+000

1.88958825828723e+005,-1.73807277389829e+001,-3.29032667112761e+000

1.91596592739027e+005,-1.73809639419594e+001,-3.33586689718766e+000

1.94271181503206e+005,-1.73812057327759e+001,-3.38202877893798e+000

1.96983106135185e+005,-1.73814532192753e+001,-3.42882055329736e+000

1.99732887824256e+005,-1.73817065103050e+001,-3.47625056232871e+000

2.02521055035243e+005,-1.73819657156831e+001,-3.52432725473398e+000

2.05348143610063e+005,-1.73822309461617e+001,-3.57305918738993e+000

2.08214696870707e+005,-1.73825023133895e+001,-3.62245502692395e+000

2.11121265723661e+005,-1.73827799298735e+001,-3.67252355133227e+000

2.14068408765776e+005,-1.73830639089386e+001,-3.72327365164235e+000

2.17056692391625e+005,-1.73833543646879e+001,-3.77471433362055e+000

2.20086690902357e+005,-1.73836514119599e+001,-3.82685471952769e+000

2.23158986616063e+005,-1.73839551662868e+001,-3.87970404992242e+000

2.26274169979693e+005,-1.73842657438516e+001,-3.93327168551615e+000

2.29432839682530e+005,-1.73845832614448e+001,-3.98756710907907e+000

2.32635602771247e+005,-1.73849078364213e+001,-4.04259992740053e+000

2.35883074766574e+005,-1.73852395866566e+001,-4.09837987330456e+000

2.39175879781588e+005,-1.73855786305044e+001,-4.15491680772123e+000

2.42514650641661e+005,-1.73859250867540e+001,-4.21222072181917e+000

2.45900029006080e+005,-1.73862790745888e+001,-4.27030173919391e+000

2.49332665491357e+005,-1.73866407135461e+001,-4.32917011812083e+000

2.52813219796278e+005,-1.73870101234778e+001,-4.38883625386909e+000

2.56342360828676e+005,-1.73873874245136e+001,-4.44931068108033e+000

2.59920766833993e+005,-1.73877727370260e+001,-4.51060407621180e+000

2.63549125525621e+005,-1.73881661815978e+001,-4.57272726004558e+000

2.67228134217075e+005,-1.73885678789920e+001,-4.63569120026709e+000

2.70958499956006e+005,-1.73889779501264e+001,-4.69950701410905e+000

2.74740939660078e+005,-1.73893965160499e+001,-4.76418597106586e+000

2.78576180254757e+005,-1.73898236979248e+001,-4.82973949567874e+000

2.82464958813007e+005,-1.73902596170123e+001,-4.89617917038910e+000

2.86408022696948e+005,-1.73907043946640e+001,-4.96351673846336e+000

2.90406129701488e+005,-1.73911581523180e+001,-5.03176410698940e+000

2.94460048199957e+005,-1.73916210115018e+001,-5.10093334994290e+000

2.98570557291775e+005,-1.73920930938412e+001,-5.17103671132406e+000

3.02738446952187e+005,-1.73925745210764e+001,-5.24208660836678e+000

3.06964518184081e+005,-1.73930654150850e+001,-5.31409563481554e+000

3.11249583171928e+005,-1.73935658979141e+001,-5.38707656427263e+000

3.15594465437872e+005,-1.73940760918199e+001,-5.46104235361394e+000

3.19999999999997e+005,-1.73945961193165e+001,-5.53600614647168e+000

3.24467033532806e+005,-1.73951261032345e+001,-5.61198127678190e+000

3.28996424529938e+005,-1.73956661667896e+001,-5.68898127239884e+000

3.33589043469155e+005,-1.73962164336615e+001,-5.76701985876939e+000

3.38245772979638e+005,-1.73967770280834e+001,-5.84611096266984e+000

3.42967508011610e+005,-1.73973480749445e+001,-5.92626871599916e+000

3.47755156008335e+005,-1.73979296999022e+001,-6.00750745963038e+000

3.52609637080511e+005,-1.73985220295087e+001,-6.08984174731362e+000

3.57531884183106e+005,-1.73991251913492e+001,-6.17328634963017e+000

3.62522843294651e+005,-1.73997393141936e+001,-6.25785625799350e+000

3.67583473599047e+005,-1.74003645281621e+001,-6.34356668869521e+000

3.72714747669902e+005,-1.74010009649039e+001,-6.43043308699088e+000

3.77917651657445e+005,-1.74016487577910e+001,-6.51847113122313e+000

3.83193185478053e+005,-1.74023080421263e+001,-6.60769673697834e+000

3.88542363006410e+005,-1.74029789553657e+001,-6.69812606127293e+000

3.93966212270369e+005,-1.74036616373562e+001,-6.78977550676373e+000

3.99465775648511e+005,-1.74043562305885e+001,-6.88266172598139e+000

4.05042110070485e+005,-1.74050628804651e+001,-6.97680162558006e+000

4.10696287220124e+005,-1.74057817355832e+001,-7.07221237059966e+000

4.16429393741414e+005,-1.74065129480342e+001,-7.16891138873593e+000

4.22242531447321e+005,-1.74072566737172e+001,-7.26691637461687e+000

4.28136817531551e+005,-1.74080130726686e+001,-7.36624529407587e+000

4.34113384783250e+005,-1.74087823094068e+001,-7.46691638842220e+000

4.40173381804713e+005,-1.74095645532921e+001,-7.56894817870201e+000

4.46317973232124e+005,-1.74103599789011e+001,-7.67235946994601e+000

4.52548339959385e+005,-1.74111687664166e+001,-7.77716935540008e+000

4.58865679365059e+005,-1.74119911020312e+001,-7.88339722073359e+000

4.65271205542494e+005,-1.74128271783651e+001,-7.99106274822426e+000

4.71766149533147e+005,-1.74136771948985e+001,-8.10018592091282e+000

4.78351759563174e+005,-1.74145413584162e+001,-8.21078702672516e+000

4.85029301283321e+005,-1.74154198834661e+001,-8.32288666255918e+000

4.91800058012158e+005,-1.74163129928298e+001,-8.43650573833297e+000

4.98665330982714e+005,-1.74172209180054e+001,-8.55166548099051e+000

5.05626439592555e+005,-1.74181438997018e+001,-8.66838743846357e+000

5.12684721657352e+005,-1.74190821883442e+001,-8.78669348358700e+000

5.19841533667984e+005,-1.74200360445894e+001,-8.90660581796473e+000

5.27098251051240e+005,-1.74210057398521e+001,-9.02814697578662e+000

5.34456268434150e+005,-1.74219915568394e+001,-9.15133982759152e+000

5.41916999912011e+005,-1.74229937900946e+001,-9.27620758397945e+000

