Freq.,VOut,OutRef

1.00000000000000e+004,-9.56674640640220e+000,-1.14585516573069e-001

1.01395947979003e+004,-9.56674668167464e+000,-1.16185026362051e-001

1.02811382665607e+004,-9.56674696467867e+000,-1.17806862590176e-001

1.04246576084112e+004,-9.56674725563119e+000,-1.19451336843095e-001

1.05701804056138e+004,-9.56674755475524e+000,-1.21118765052457e-001

1.07177346253629e+004,-9.56674786227988e+000,-1.22809467557790e-001

1.08673486252606e+004,-9.56674817844116e+000,-1.24523769163336e-001

1.10190511587661e+004,-9.56674850348096e+000,-1.26261999208070e-001

1.11728713807222e+004,-9.56674883764860e+000,-1.28024491620825e-001

1.13288388529580e+004,-9.56674918119997e+000,-1.29811584989412e-001

1.14869835499703e+004,-9.56674953439836e+000,-1.31623622623297e-001

1.16473358646846e+004,-9.56674989751428e+000,-1.33460952619829e-001

1.18099266142953e+004,-9.56675027082576e+000,-1.35323927931689e-001

1.19747870461893e+004,-9.56675065461899e+000,-1.37212906431306e-001

1.21419488439505e+004,-9.56675104918754e+000,-1.39128250985325e-001

1.23114441334492e+004,-9.56675145483387e+000,-1.41070329516286e-001

1.24833054890161e+004,-9.56675187186809e+000,-1.43039515082535e-001

1.26575659397028e+004,-9.56675230060977e+000,-1.45036185938539e-001

1.28342589756290e+004,-9.56675274138702e+000,-1.47060725616364e-001

1.30134185544193e+004,-9.56675319453716e+000,-1.49113522995100e-001

1.31950791077289e+004,-9.56675366040692e+000,-1.51194972375479e-001

1.33792755478611e+004,-9.56675413935278e+000,-1.53305473555346e-001

1.35660432744767e+004,-9.56675463174125e+000,-1.55445431906477e-001

1.37554181813974e+004,-9.56675513794882e+000,-1.57615258452757e-001

1.39474366635040e+004,-9.56675565836271e+000,-1.59815369947084e-001

1.41421356237309e+004,-9.56675619338083e+000,-1.62046188952717e-001

1.43395524801583e+004,-9.56675674341225e+000,-1.64308143922675e-001

1.45397251732031e+004,-9.56675730887765e+000,-1.66601669280899e-001

1.47426921729110e+004,-9.56675789020909e+000,-1.68927205508876e-001

1.49484924863494e+004,-9.56675848785064e+000,-1.71285199227711e-001

1.51571656651040e+004,-9.56675910225923e+000,-1.73676103280020e-001

1.53687518128801e+004,-9.56675973390419e+000,-1.76100376821525e-001

1.55832915932100e+004,-9.56676038326815e+000,-1.78558485405792e-001

1.58008262372675e+004,-9.56676105084659e+000,-1.81050901076884e-001

1.60213975517924e+004,-9.56676173714970e+000,-1.83578102451801e-001

1.62450479271247e+004,-9.56676244270107e+000,-1.86140574821272e-001

1.64718203453514e+004,-9.56676316803944e+000,-1.88738810233919e-001

1.67017583885674e+004,-9.56676391371813e+000,-1.91373307596517e-001

1.69349062472505e+004,-9.56676468030620e+000,-1.94044572764517e-001

1.71713087287550e+004,-9.56676546838835e+000,-1.96753118641013e-001

1.74110112659224e+004,-9.56676627856561e+000,-1.99499465274321e-001

1.76540599258131e+004,-9.56676711145559e+000,-2.02284139956536e-001

1.79005014185594e+004,-9.56676796769330e+000,-2.05107677323530e-001

1.81503831063432e+004,-9.56676884793109e+000,-2.07970619458644e-001

1.84037530124975e+004,-9.56676975283981e+000,-2.10873515992303e-001

1.86606598307361e+004,-9.56677068310845e+000,-2.13816924212606e-001

1.89211529345119e+004,-9.56677163944556e+000,-2.16801409164258e-001

1.91852823865052e+004,-9.56677262257926e+000,-2.19827543760674e-001

1.94530989482457e+004,-9.56677363325770e+000,-2.22895908892875e-001

1.97246540898671e+004,-9.56677467224997e+000,-2.26007093537532e-001

1.99999999999999e+004,-9.56677574034612e+000,-2.29161694872546e-001

2.02791895958005e+004,-9.56677683835865e+000,-2.32360318385230e-001

2.05622765331213e+004,-9.56677796712198e+000,-2.35603577993535e-001

2.08493152168224e+004,-9.56677912749423e+000,-2.38892096156459e-001

2.11403608112276e+004,-9.56678032035660e+000,-2.42226503999130e-001

2.14354692507258e+004,-9.56678154661512e+000,-2.45607441426128e-001

2.17346972505211e+004,-9.56678280720068e+000,-2.49035557246592e-001

2.20381023175322e+004,-9.56678410307014e+000,-2.52511509295013e-001

2.23457427614443e+004,-9.56678543520629e+000,-2.56035964559849e-001

2.26576777059159e+004,-9.56678680461955e+000,-2.59609599305009e-001

2.29739670999406e+004,-9.56678821234799e+000,-2.63233099201154e-001

2.32946717293690e+004,-9.56678965945836e+000,-2.66907159454502e-001

2.36198532285905e+004,-9.56679114704649e+000,-2.70632484940778e-001

2.39495740923785e+004,-9.56679267623897e+000,-2.74409790332439e-001

2.42838976879009e+004,-9.56679424819295e+000,-2.78239800241598e-001

2.46228882668982e+004,-9.56679586409765e+000,-2.82123249350644e-001

2.49666109780322e+004,-9.56679752517473e+000,-2.86060882556479e-001

2.53151318794055e+004,-9.56679923267966e+000,-2.90053455106291e-001

2.56685179512580e+004,-9.56680098790223e+000,-2.94101732743716e-001

2.60268371088386e+004,-9.56680279216771e+000,-2.98206491851488e-001

2.63901582154578e+004,-9.56680464683777e+000,-3.02368519597276e-001

2.67585510957221e+004,-9.56680655331101e+000,-3.06588614086578e-001

2.71320865489533e+004,-9.56680851302495e+000,-3.10867584505186e-001

2.75108363627948e+004,-9.56681052745571e+000,-3.15206251280800e-001

2.78948733270080e+004,-9.56681259812036e+000,-3.19605446228996e-001

2.82842712474618e+004,-9.56681472657704e+000,-3.24066012716253e-001

2.86791049603164e+004,-9.56681691442662e+000,-3.28588805813523e-001

2.90794503464061e+004,-9.56681916331353e+000,-3.33174692460563e-001

2.94853843458219e+004,-9.56682147492687e+000,-3.37824551627601e-001

2.98969849726987e+004,-9.56682385100199e+000,-3.42539274478112e-001

3.03143313302078e+004,-9.56682629332129e+000,-3.47319764539213e-001

3.07375036257601e+004,-9.56682880371539e+000,-3.52166937870047e-001

3.11665831864199e+004,-9.56683138406502e+000,-3.57081723230759e-001

3.16016524745350e+004,-9.56683403630145e+000,-3.62065062260647e-001

3.20427951035848e+004,-9.56683676240854e+000,-3.67117909650911e-001

3.24900958542493e+004,-9.56683956442380e+000,-3.72241233323299e-001

3.29436406907028e+004,-9.56684244443956e+000,-3.77436014614252e-001

3.34035167771346e+004,-9.56684540460499e+000,-3.82703248452212e-001

3.38698124945009e+004,-9.56684844712690e+000,-3.88043943548828e-001

3.43426174575100e+004,-9.56685157427165e+000,-3.93459122583374e-001

3.48220225318448e+004,-9.56685478836645e+000,-3.98949822394313e-001

3.53081198516260e+004,-9.56685809180121e+000,-4.04517094171632e-001

3.58010028371187e+004,-9.56686148702975e+000,-4.10162003652318e-001

3.63007662126863e+004,-9.56686497657172e+000,-4.15885631318372e-001

3.68075060249948e+004,-9.56686856301408e+000,-4.21689072597697e-001

3.73213196614721e+004,-9.56687224901291e+000,-4.27573438065696e-001

3.78423058690237e+004,-9.56687603729511e+000,-4.33539853652093e-001

3.83705647730104e+004,-9.56687993066033e+000,-4.39589460847485e-001

3.89061978964912e+004,-9.56688393198245e+000,-4.45723416916604e-001

3.94493081797342e+004,-9.56688804421169e+000,-4.51942895110012e-001

3.99999999999998e+004,-9.56689227037641e+000,-4.58249084881087e-001

4.05583791916010e+004,-9.56689661358515e+000,-4.64643192104421e-001

4.11245530662425e+004,-9.56690107702846e+000,-4.71126439298355e-001

4.16986304336447e+004,-9.56690566398090e+000,-4.77700065849076e-001

4.22807216224550e+004,-9.56691037780326e+000,-4.84365328237881e-001

4.28709385014515e+004,-9.56691522194443e+000,-4.91123500272562e-001

4.34693945010421e+004,-9.56692019994379e+000,-4.97975873318165e-001

4.40762046350642e+004,-9.56692531543311e+000,-5.04923756535600e-001

4.46914855228886e+004,-9.56693057213890e+000,-5.11968477119357e-001

4.53153554118317e+004,-9.56693597388479e+000,-5.19111380538446e-001

4.59479341998812e+004,-9.56694152459337e+000,-5.26353830784612e-001

4.65893434587380e+004,-9.56694722828919e+000,-5.33697210616091e-001

4.72397064571810e+004,-9.56695308910053e+000,-5.41142921811618e-001

4.78991481847569e+004,-9.56695911126209e+000,-5.48692385423963e-001

4.85677953758016e+004,-9.56696529911758e+000,-5.56347042035092e-001

4.92457765337964e+004,-9.56697165712200e+000,-5.64108352018825e-001

4.99332219560642e+004,-9.56697818984392e+000,-5.71977795805021e-001

5.06302637588109e+004,-9.56698490196886e+000,-5.79956874142101e-001

5.13370359025159e+004,-9.56699179830107e+000,-5.88047108370941e-001

5.20536742176771e+004,-9.56699888376644e+000,-5.96250040697261e-001

5.27803164309155e+004,-9.56700616341560e+000,-6.04567234465127e-001

5.35171021914442e+004,-9.56701364242591e+000,-6.13000274440884e-001

5.42641730979066e+004,-9.56702132610490e+000,-6.21550767092151e-001

5.50216727255895e+004,-9.56702921989242e+000,-6.30220340878174e-001

5.57897466540159e+004,-9.56703732936422e+000,-6.39010646534177e-001

5.65685424949235e+004,-9.56704566023385e+000,-6.47923357371067e-001

5.73582099206328e+004,-9.56705421835654e+000,-6.56960169565196e-001

5.81589006928121e+004,-9.56706300973135e+000,-6.66122802463301e-001

5.89707686916437e+004,-9.56707204050433e+000,-6.75412998884252e-001

5.97939699453972e+004,-9.56708131697173e+000,-6.84832525424342e-001

6.06286626604156e+004,-9.56709084558257e+000,-6.94383172770774e-001

6.14750072515201e+004,-9.56710063294183e+000,-7.04066756013082e-001

6.23331663728396e+004,-9.56711068581347e+000,-7.13885114962152e-001

6.32033049490698e+004,-9.56712101112338e+000,-7.23840114470639e-001

6.40855902071694e+004,-9.56713161596240e+000,-7.33933644758130e-001

6.49801917084985e+004,-9.56714250758941e+000,-7.44167621739040e-001

6.58872813814055e+004,-9.56715369343437e+000,-7.54543987355049e-001

6.68070335542691e+004,-9.56716518110109e+000,-7.65064709911369e-001

6.77396249890018e+004,-9.56717697837056e+000,-7.75731784415312e-001

6.86852349150199e+004,-9.56718909320376e+000,-7.86547232920466e-001

6.96440450636895e+004,-9.56720153374481e+000,-7.97513104871913e-001

7.06162397032520e+004,-9.56721430832362e+000,-8.08631477459700e-001

7.16020056742374e+004,-9.56722742545921e+000,-8.19904455970722e-001

7.26015324253724e+004,-9.56724089386215e+000,-8.31334174149716e-001

7.36150120499896e+004,-9.56725472243791e+000,-8.42922794558512e-001

7.46426393229441e+004,-9.56726892028903e+000,-8.54672508946196e-001

7.56846117380472e+004,-9.56728349671848e+000,-8.66585538614813e-001

7.67411295460207e+004,-9.56729846123190e+000,-8.78664134796514e-001

7.78123957929823e+004,-9.56731382354030e+000,-8.90910579030739e-001

7.88986163594682e+004,-9.56732959356263e+000,-9.03327183545440e-001

7.99999999999995e+004,-9.56734578142813e+000,-9.15916291643498e-001

8.11167583832018e+004,-9.56736239747849e+000,-9.28680278094022e-001

8.22491061324848e+004,-9.56737945227039e+000,-9.41621549523579e-001

8.33972608672892e+004,-9.56739695657711e+000,-9.54742544817542e-001

8.45614432449099e+004,-9.56741492139068e+000,-9.68045735520431e-001

8.57418770029029e+004,-9.56743335792367e+000,-9.81533626242956e-001

8.69387890020841e+004,-9.56745227761066e+000,-9.95208755073034e-001

8.81524092701283e+004,-9.56747169210978e+000,-1.00907369398917e+000

8.93829710457770e+004,-9.56749161330355e+000,-1.02313104928322e+000

9.06307108236633e+004,-9.56751205330042e+000,-1.03738346197933e+000

9.18958683997622e+004,-9.56753302443516e+000,-1.05183360826470e+000

9.31786869174758e+004,-9.56755453926936e+000,-1.06648419992150e+000

9.44794129143618e+004,-9.56757661059183e+000,-1.08133798476290e+000

9.57982963695136e+004,-9.56759925141850e+000,-1.09639774707417e+000

9.71355907516031e+004,-9.56762247499198e+000,-1.11166630805916e+000

9.84915530675926e+004,-9.56764629478100e+000,-1.12714652628973e+000

9.98664439121282e+004,-9.56767072447938e+000,-1.14284129816067e+000

1.01260527517622e+005,-9.56769577800432e+000,-1.15875355835099e+000

1.02674071805032e+005,-9.56772146949511e+000,-1.17488628028592e+000

1.04107348435354e+005,-9.56774781331035e+000,-1.19124247660828e+000

1.05560632861831e+005,-9.56777482402578e+000,-1.20782519965070e+000

1.07034204382888e+005,-9.56780251643059e+000,-1.22463754191721e+000

1.08528346195813e+005,-9.56783090552421e+000,-1.24168263656528e+000

1.10043345451179e+005,-9.56786000651181e+000,-1.25896365789745e+000

1.11579493308032e+005,-9.56788983479955e+000,-1.27648382185485e+000

1.13137084989847e+005,-9.56792040598934e+000,-1.29424638651791e+000

1.14716419841265e+005,-9.56795173587273e+000,-1.31225465261187e+000

1.16317801385624e+005,-9.56798384042408e+000,-1.33051196401964e+000

1.17941537383287e+005,-9.56801673579348e+000,-1.34902170829687e+000

1.19587939890794e+005,-9.56805043829839e+000,-1.36778731719711e+000

1.21257325320831e+005,-9.56808496441469e+000,-1.38681226720085e+000

1.22950014503040e+005,-9.56812033076715e+000,-1.40610008005020e+000

1.24666332745679e+005,-9.56815655411864e+000,-1.42565432329243e+000

1.26406609898139e+005,-9.56819365135869e+000,-1.44547861082822e+000

1.28171180414339e+005,-9.56823163949121e+000,-1.46557660346630e+000

1.29960383416997e+005,-9.56827053562072e+000,-1.48595200948863e+000

1.31774562762811e+005,-9.56831035693836e+000,-1.50660858521746e+000

1.33614067108538e+005,-9.56835112070581e+000,-1.52755013559607e+000

1.35479249978003e+005,-9.56839284423919e+000,-1.54878051477190e+000

1.37370469830040e+005,-9.56843554489075e+000,-1.57030362669157e+000

1.39288090127379e+005,-9.56847924003011e+000,-1.59212342570304e+000

1.41232479406504e+005,-9.56852394702390e+000,-1.61424391716523e+000

1.43204011348474e+005,-9.56856968321408e+000,-1.63666915806939e+000

1.45203064850745e+005,-9.56861646589480e+000,-1.65940325766881e+000

1.47230024099979e+005,-9.56866431228841e+000,-1.68245037811592e+000

1.49285278645888e+005,-9.56871323951908e+000,-1.70581473511445e+000

1.51369223476094e+005,-9.56876326458561e+000,-1.72950059857910e+000

1.53482259092041e+005,-9.56881440433263e+000,-1.75351229330575e+000

1.55624791585964e+005,-9.56886667541975e+000,-1.77785419965595e+000

1.57797232718936e+005,-9.56892009428940e+000,-1.80253075425202e+000

1.59999999999999e+005,-9.56897467713281e+000,-1.82754645068459e+000

1.62233516766403e+005,-9.56903043985438e+000,-1.85290584023403e+000

1.64498212264969e+005,-9.56908739803409e+000,-1.87861353260537e+000

1.66794521734578e+005,-9.56914556688800e+000,-1.90467419667779e+000

1.69122886489819e+005,-9.56920496122690e+000,-1.93109256127012e+000

1.71483754005805e+005,-9.56926559541336e+000,-1.95787341591921e+000

1.73877578004168e+005,-9.56932748331610e+000,-1.98502161167879e+000

1.76304818540256e+005,-9.56939063826289e+000,-2.01254206193211e+000

1.78765942091554e+005,-9.56945507299117e+000,-2.04043974322517e+000

1.81261421647326e+005,-9.56952079959670e+000,-2.06871969611615e+000

1.83791736799524e+005,-9.56958782947991e+000,-2.09738702604668e+000

1.86357373834951e+005,-9.56965617329019e+000,-2.12644690423253e+000

1.88958825828723e+005,-9.56972584086801e+000,-2.15590456857562e+000

1.91596592739027e+005,-9.56979684118504e+000,-2.18576532459745e+000

1.94271181503206e+005,-9.56986918228144e+000,-2.21603454639941e+000

1.96983106135185e+005,-9.56994287120191e+000,-2.24671767764057e+000

1.99732887824256e+005,-9.57001791392853e+000,-2.27782023254788e+000

2.02521055035243e+005,-9.57009431531221e+000,-2.30934779694691e+000

2.05348143610063e+005,-9.57017207900128e+000,-2.34130602932336e+000

2.08214696870707e+005,-9.57025120736854e+000,-2.37370066191012e+000

2.11121265723661e+005,-9.57033170143539e+000,-2.40653750180650e+000

2.14068408765776e+005,-9.57041356079471e+000,-2.43982243212491e+000

2.17056692391625e+005,-9.57049678353082e+000,-2.47356141317106e+000

2.20086690902357e+005,-9.57058136613798e+000,-2.50776048365660e+000

2.23158986616063e+005,-9.57066730343663e+000,-2.54242576194462e+000

2.26274169979693e+005,-9.57075458848784e+000,-2.57756344733028e+000

2.29432839682530e+005,-9.57084321250566e+000,-2.61317982135913e+000

2.32635602771247e+005,-9.57093316476814e+000,-2.64928124917931e+000

2.35883074766574e+005,-9.57102443252622e+000,-2.68587418093549e+000

2.39175879781588e+005,-9.57111700091131e+000,-2.72296515320025e+000

2.42514650641661e+005,-9.57121085284146e+000,-2.76056079044539e+000

2.45900029006080e+005,-9.57130596892579e+000,-2.79866780655794e+000

2.49332665491357e+005,-9.57140232736832e+000,-2.83729300639430e+000

2.52813219796278e+005,-9.57149990387018e+000,-2.87644328738175e+000

2.56342360828676e+005,-9.57159867153137e+000,-2.91612564116252e+000

2.59920766833993e+005,-9.57169860075122e+000,-2.95634715528460e+000

2.63549125525621e+005,-9.57179965912878e+000,-2.99711501493797e+000

2.67228134217075e+005,-9.57190181136279e+000,-3.03843650473772e+000

2.70958499956006e+005,-9.57200501915080e+000,-3.08031901055838e+000

2.74740939660078e+005,-9.57210924108926e+000,-3.12277002141134e+000

2.78576180254757e+005,-9.57221443257283e+000,-3.16579713137824e+000

2.82464958813007e+005,-9.57232054569497e+000,-3.20940804158751e+000

2.86408022696948e+005,-9.57242752914834e+000,-3.25361056224776e+000

2.90406129701488e+005,-9.57253532812693e+000,-3.29841261472639e+000

2.94460048199957e+005,-9.57264388422831e+000,-3.34382223368325e+000

2.98570557291775e+005,-9.57275313535813e+000,-3.38984756925322e+000

3.02738446952187e+005,-9.57286301563549e+000,-3.43649688928074e+000

3.06964518184081e+005,-9.57297345530046e+000,-3.48377858160623e+000

3.11249583171928e+005,-9.57308438062373e+000,-3.53170115640157e+000

3.15594465437872e+005,-9.57319571381809e+000,-3.58027324855968e+000

3.19999999999997e+005,-9.57330737295295e+000,-3.62950362013157e+000

3.24467033532806e+005,-9.57341927187137e+000,-3.67940116281450e+000

3.28996424529938e+005,-9.57353132011006e+000,-3.72997490048957e+000

3.33589043469155e+005,-9.57364342282279e+000,-3.78123399180734e+000

3.38245772979638e+005,-9.57375548070689e+000,-3.83318773282206e+000

3.42967508011610e+005,-9.57386738993377e+000,-3.88584555967143e+000

3.47755156008335e+005,-9.57397904208312e+000,-3.93921705130201e+000

3.52609637080511e+005,-9.57409032408084e+000,-3.99331193224041e+000

3.57531884183106e+005,-9.57420111814192e+000,-4.04814007540457e+000

3.62522843294651e+005,-9.57431130171667e+000,-4.10371150495999e+000

3.67583473599047e+005,-9.57442074744213e+000,-4.16003639921274e+000

3.72714747669902e+005,-9.57452932309785e+000,-4.21712509354259e+000

3.77917651657445e+005,-9.57463689156613e+000,-4.27498808337220e+000

3.83193185478053e+005,-9.57474331079750e+000,-4.33363602716999e+000

3.88542363006410e+005,-9.57484843378014e+000,-4.39307974948766e+000

3.93966212270369e+005,-9.57495210851518e+000,-4.45333024402652e+000

3.99465775648511e+005,-9.57505417799575e+000,-4.51439867673417e+000

4.05042110070485e+005,-9.57515448019148e+000,-4.57629638892679e+000

4.10696287220124e+005,-9.57525284803728e+000,-4.63903490043685e+000

4.16429393741414e+005,-9.57534910942690e+000,-4.70262591278344e+000

4.22242531447321e+005,-9.57544308721089e+000,-4.76708131236262e+000

4.28136817531551e+005,-9.57553459919884e+000,-4.83241317365700e+000

4.34113384783250e+005,-9.57562345816569e+000,-4.89863376246199e+000

4.40173381804713e+005,-9.57570947186214e+000,-4.96575553912540e+000

4.46317973232124e+005,-9.57579244302819e+000,-5.03379116180234e+000

4.52548339959385e+005,-9.57587216941083e+000,-5.10275348971832e+000

4.58865679365059e+005,-9.57594844378399e+000,-5.17265558644420e+000

4.65271205542494e+005,-9.57602105397168e+000,-5.24351072317751e+000

4.71766149533147e+005,-9.57608978287316e+000,-5.31533238203113e+000

4.78351759563174e+005,-9.57615440849059e+000,-5.38813425932626e+000

4.85029301283321e+005,-9.57621470395755e+000,-5.46193026889061e+000

4.91800058012158e+005,-9.57627043756896e+000,-5.53673454535987e+000

4.98665330982714e+005,-9.57632137281177e+000,-5.61256144748025e+000

5.05626439592555e+005,-9.57636726839564e+000,-5.68942556141484e+000

5.12684721657352e+005,-9.57640787828309e+000,-5.76734170405109e+000

5.19841533667984e+005,-9.57644295171919e+000,-5.84632492631009e+000

5.27098251051240e+005,-9.57647223325952e+000,-5.92639051645748e+000

5.34456268434150e+005,-9.57649546279625e+000,-6.00755400341724e+000

5.41916999912011e+005,-9.57651237558190e+000,-6.08983116008824e+000

