Freq.,VOut,OutRef

1.00000000000000e+004,-1.67826331464869e+001,-1.64010413160043e-001

1.01395947979003e+004,-1.67826342973746e+001,-1.66299786437680e-001

1.02811382665607e+004,-1.67826354805974e+001,-1.68621112794526e-001

1.04246576084112e+004,-1.67826366970629e+001,-1.70974838051383e-001

1.05701804056138e+004,-1.67826379477048e+001,-1.73361414240568e-001

1.07177346253629e+004,-1.67826392334824e+001,-1.75781299697181e-001

1.08673486252606e+004,-1.67826405553820e+001,-1.78234959141966e-001

1.10190511587661e+004,-1.67826419144179e+001,-1.80722863773101e-001

1.11728713807222e+004,-1.67826433116322e+001,-1.83245491355329e-001

1.13288388529580e+004,-1.67826447480970e+001,-1.85803326307586e-001

1.14869835499703e+004,-1.67826462249138e+001,-1.88396859803468e-001

1.16473358646846e+004,-1.67826477432152e+001,-1.91026589857592e-001

1.18099266142953e+004,-1.67826493041656e+001,-1.93693021421762e-001

1.19747870461893e+004,-1.67826509089619e+001,-1.96396666486093e-001

1.21419488439505e+004,-1.67826525588348e+001,-1.99138044169433e-001

1.23114441334492e+004,-1.67826542550490e+001,-2.01917680824738e-001

1.24833054890161e+004,-1.67826559989049e+001,-2.04736110136061e-001

1.26575659397028e+004,-1.67826577917395e+001,-2.07593873219649e-001

1.28342589756290e+004,-1.67826596349269e+001,-2.10491518729587e-001

1.30134185544193e+004,-1.67826615298798e+001,-2.13429602959713e-001

1.31950791077289e+004,-1.67826634780507e+001,-2.16408689950542e-001

1.33792755478611e+004,-1.67826654809323e+001,-2.19429351598569e-001

1.35660432744767e+004,-1.67826675400595e+001,-2.22492167760370e-001

1.37554181813974e+004,-1.67826696570099e+001,-2.25597726368659e-001

1.39474366635040e+004,-1.67826718334052e+001,-2.28746623540070e-001

1.41421356237309e+004,-1.67826740709128e+001,-2.31939463688695e-001

1.43395524801583e+004,-1.67826763712465e+001,-2.35176859642443e-001

1.45397251732031e+004,-1.67826787361682e+001,-2.38459432758462e-001

1.47426921729110e+004,-1.67826811674887e+001,-2.41787813043689e-001

1.49484924863494e+004,-1.67826836670700e+001,-2.45162639268890e-001

1.51571656651040e+004,-1.67826862368256e+001,-2.48584559096141e-001

1.53687518128801e+004,-1.67826888787230e+001,-2.52054229197245e-001

1.55832915932100e+004,-1.67826915947843e+001,-2.55572315381588e-001

1.58008262372675e+004,-1.67826943870884e+001,-2.59139492718102e-001

1.60213975517924e+004,-1.67826972577721e+001,-2.62756445668156e-001

1.62450479271247e+004,-1.67827002090321e+001,-2.66423868210891e-001

1.64718203453514e+004,-1.67827032431260e+001,-2.70142463979675e-001

1.67017583885674e+004,-1.67827063623751e+001,-2.73912946388867e-001

1.69349062472505e+004,-1.67827095691649e+001,-2.77736038774287e-001

1.71713087287550e+004,-1.67827128659480e+001,-2.81612474526306e-001

1.74110112659224e+004,-1.67827162552452e+001,-2.85542997231380e-001

1.76540599258131e+004,-1.67827197396478e+001,-2.89528360809482e-001

1.79005014185594e+004,-1.67827233218189e+001,-2.93569329661466e-001

1.81503831063432e+004,-1.67827270044966e+001,-2.97666678806583e-001

1.84037530124975e+004,-1.67827307904949e+001,-3.01821194033749e-001

1.86606598307361e+004,-1.67827346827066e+001,-3.06033672048214e-001

1.89211529345119e+004,-1.67827386841045e+001,-3.10304920622344e-001

1.91852823865052e+004,-1.67827427977451e+001,-3.14635758745244e-001

1.94530989482457e+004,-1.67827470267694e+001,-3.19027016780978e-001

1.97246540898671e+004,-1.67827513744060e+001,-3.23479536621632e-001

1.99999999999999e+004,-1.67827558439738e+001,-3.27994171846373e-001

2.02791895958005e+004,-1.67827604388837e+001,-3.32571787882933e-001

2.05622765331213e+004,-1.67827651626417e+001,-3.37213262168607e-001

2.08493152168224e+004,-1.67827700188511e+001,-3.41919484316653e-001

2.11403608112276e+004,-1.67827750112158e+001,-3.46691356281780e-001

2.14354692507258e+004,-1.67827801435427e+001,-3.51529792528156e-001

2.17346972505211e+004,-1.67827854197440e+001,-3.56435720205282e-001

2.20381023175322e+004,-1.67827908438411e+001,-3.61410079316174e-001

2.23457427614443e+004,-1.67827964199670e+001,-3.66453822895582e-001

2.26576777059159e+004,-1.67828021523695e+001,-3.71567917188186e-001

2.29739670999406e+004,-1.67828080454142e+001,-3.76753341830234e-001

2.32946717293690e+004,-1.67828141035882e+001,-3.82011090027935e-001

2.36198532285905e+004,-1.67828203315025e+001,-3.87342168749040e-001

2.39495740923785e+004,-1.67828267338964e+001,-3.92747598904587e-001

2.42838976879009e+004,-1.67828333156405e+001,-3.98228415542093e-001

2.46228882668982e+004,-1.67828400817403e+001,-4.03785668036859e-001

2.49666109780322e+004,-1.67828470373401e+001,-4.09420420288635e-001

2.53151318794055e+004,-1.67828541877263e+001,-4.15133750916638e-001

2.56685179512580e+004,-1.67828615383318e+001,-4.20926753461223e-001

2.60268371088386e+004,-1.67828690947399e+001,-4.26800536585868e-001

2.63901582154578e+004,-1.67828768626882e+001,-4.32756224282234e-001

2.67585510957221e+004,-1.67828848480725e+001,-4.38794956079338e-001

2.71320865489533e+004,-1.67828930569522e+001,-4.44917887250528e-001

2.75108363627948e+004,-1.67829014955532e+001,-4.51126189031397e-001

2.78948733270080e+004,-1.67829101702738e+001,-4.57421048831565e-001

2.82842712474618e+004,-1.67829190876883e+001,-4.63803670455369e-001

2.86791049603164e+004,-1.67829282545527e+001,-4.70275274322141e-001

2.90794503464061e+004,-1.67829376778087e+001,-4.76837097690490e-001

2.94853843458219e+004,-1.67829473645893e+001,-4.83490394885916e-001

2.98969849726987e+004,-1.67829573222240e+001,-4.90236437528940e-001

3.03143313302078e+004,-1.67829675582434e+001,-4.97076514769339e-001

3.07375036257601e+004,-1.67829780803854e+001,-5.04011933520837e-001

3.11665831864199e+004,-1.67829888966004e+001,-5.11044018697915e-001

3.16016524745350e+004,-1.67830000150568e+001,-5.18174113461286e-001

3.20427951035848e+004,-1.67830114441475e+001,-5.25403579455962e-001

3.24900958542493e+004,-1.67830231924948e+001,-5.32733797065110e-001

3.29436406907028e+004,-1.67830352689578e+001,-5.40166165653748e-001

3.34035167771346e+004,-1.67830476826376e+001,-5.47702103828216e-001

3.38698124945009e+004,-1.67830604428846e+001,-5.55343049687115e-001

3.43426174575100e+004,-1.67830735593041e+001,-5.63090461085027e-001

3.48220225318448e+004,-1.67830870417643e+001,-5.70945815890862e-001

3.53081198516260e+004,-1.67831009004025e+001,-5.78910612256547e-001

3.58010028371187e+004,-1.67831151456321e+001,-5.86986368884923e-001

3.63007662126863e+004,-1.67831297881501e+001,-5.95174625301215e-001

3.68075060249948e+004,-1.67831448389448e+001,-6.03476942128607e-001

3.73213196614721e+004,-1.67831603093031e+001,-6.11894901365496e-001

3.78423058690237e+004,-1.67831762108182e+001,-6.20430106668830e-001

3.83705647730104e+004,-1.67831925553984e+001,-6.29084183636782e-001

3.89061978964912e+004,-1.67832093552740e+001,-6.37858780099431e-001

3.94493081797342e+004,-1.67832266230072e+001,-6.46755566406719e-001

3.99999999999998e+004,-1.67832443714994e+001,-6.55776235727032e-001

4.05583791916010e+004,-1.67832626140008e+001,-6.64922504340643e-001

4.11245530662425e+004,-1.67832813641190e+001,-6.74196111945600e-001

4.16986304336447e+004,-1.67833006358285e+001,-6.83598821959228e-001

4.22807216224550e+004,-1.67833204434800e+001,-6.93132421827686e-001

4.28709385014515e+004,-1.67833408018100e+001,-7.02798723335818e-001

4.34693945010421e+004,-1.67833617259506e+001,-7.12599562924270e-001

4.40762046350642e+004,-1.67833832314400e+001,-7.22536802005790e-001

4.46914855228886e+004,-1.67834053342323e+001,-7.32612327287266e-001

4.53153554118317e+004,-1.67834280507081e+001,-7.42828051096538e-001

4.59479341998812e+004,-1.67834513976858e+001,-7.53185911707117e-001

4.65893434587380e+004,-1.67834753924321e+001,-7.63687873674318e-001

4.72397064571810e+004,-1.67835000526732e+001,-7.74335928167804e-001

4.78991481847569e+004,-1.67835253966069e+001,-7.85132093310947e-001

4.85677953758016e+004,-1.67835514429136e+001,-7.96078414524856e-001

4.92457765337964e+004,-1.67835782107689e+001,-8.07176964871975e-001

4.99332219560642e+004,-1.67836057198552e+001,-8.18429845406133e-001

5.06302637588109e+004,-1.67836339903751e+001,-8.29839185525310e-001

5.13370359025159e+004,-1.67836630430631e+001,-8.41407143327547e-001

5.20536742176771e+004,-1.67836928991994e+001,-8.53135905971235e-001

5.27803164309155e+004,-1.67837235806228e+001,-8.65027690037003e-001

5.35171021914442e+004,-1.67837551097444e+001,-8.77084741894844e-001

5.42641730979066e+004,-1.67837875095611e+001,-8.89309338074151e-001

5.50216727255895e+004,-1.67838208036700e+001,-9.01703785637068e-001

5.57897466540159e+004,-1.67838550162824e+001,-9.14270422555025e-001

5.65685424949235e+004,-1.67838901722387e+001,-9.27011618088009e-001

5.73582099206328e+004,-1.67839262970230e+001,-9.39929773170371e-001

5.81589006928121e+004,-1.67839634167783e+001,-9.53027320795082e-001

5.89707686916437e+004,-1.67840015583216e+001,-9.66306726406615e-001

5.97939699453972e+004,-1.67840407491604e+001,-9.79770488291634e-001

6.06286626604156e+004,-1.67840810175072e+001,-9.93421137978789e-001

6.14750072515201e+004,-1.67841223922971e+001,-1.00726124063655e+000

6.23331663728396e+004,-1.67841649032032e+001,-1.02129339547773e+000

6.32033049490698e+004,-1.67842085806539e+001,-1.03552023616619e+000

6.40855902071694e+004,-1.67842534558491e+001,-1.04994443122644e+000

6.49801917084985e+004,-1.67842995607784e+001,-1.06456868445611e+000

6.58872813814055e+004,-1.67843469282375e+001,-1.07939573534335e+000

6.68070335542691e+004,-1.67843955918465e+001,-1.09442835948438e+000

6.77396249890018e+004,-1.67844455860677e+001,-1.10966936900752e+000

6.86852349150199e+004,-1.67844969462233e+001,-1.12512161299709e+000

6.96440450636895e+004,-1.67845497085143e+001,-1.14078797792291e+000

7.06162397032520e+004,-1.67846039100387e+001,-1.15667138806988e+000

7.16020056742374e+004,-1.67846595888104e+001,-1.17277480597415e+000

7.26015324253724e+004,-1.67847167837778e+001,-1.18910123285802e+000

7.36150120499896e+004,-1.67847755348435e+001,-1.20565370907156e+000

7.46426393229441e+004,-1.67848358828831e+001,-1.22243531453380e+000

7.56846117380472e+004,-1.67848978697649e+001,-1.23944916917895e+000

7.67411295460207e+004,-1.67849615383692e+001,-1.25669843340297e+000

7.78123957929823e+004,-1.67850269326086e+001,-1.27418630851555e+000

7.88986163594682e+004,-1.67850940974469e+001,-1.29191603719248e+000

7.99999999999995e+004,-1.67851630789199e+001,-1.30989090393113e+000

8.11167583832018e+004,-1.67852339241548e+001,-1.32811423550851e+000

8.22491061324848e+004,-1.67853066813906e+001,-1.34658940144282e+000

8.33972608672892e+004,-1.67853813999980e+001,-1.36531981445382e+000

8.45614432449099e+004,-1.67854581304992e+001,-1.38430893093068e+000

8.57418770029029e+004,-1.67855369245884e+001,-1.40356025139831e+000

8.69387890020841e+004,-1.67856178351515e+001,-1.42307732098619e+000

8.81524092701283e+004,-1.67857009162864e+001,-1.44286372990125e+000

8.93829710457770e+004,-1.67857862233221e+001,-1.46292311390179e+000

9.06307108236633e+004,-1.67858738128391e+001,-1.48325915477307e+000

9.18958683997622e+004,-1.67859637426885e+001,-1.50387558080614e+000

9.31786869174758e+004,-1.67860560720114e+001,-1.52477616727713e+000

9.44794129143618e+004,-1.67861508612580e+001,-1.54596473693085e+000

9.57982963695136e+004,-1.67862481722061e+001,-1.56744516046383e+000

9.71355907516031e+004,-1.67863480679800e+001,-1.58922135701135e+000

9.84915530675926e+004,-1.67864506130678e+001,-1.61129729463545e+000

9.98664439121282e+004,-1.67865558733400e+001,-1.63367699081546e+000

1.01260527517622e+005,-1.67866639160656e+001,-1.65636451293986e+000

1.02674071805032e+005,-1.67867748099295e+001,-1.67936397880177e+000

1.04107348435354e+005,-1.67868886250481e+001,-1.70267955709383e+000

1.05560632861831e+005,-1.67870054329849e+001,-1.72631546790788e+000

1.07034204382888e+005,-1.67871253067651e+001,-1.75027598323573e+000

1.08528346195813e+005,-1.67872483208896e+001,-1.77456542747199e+000

1.10043345451179e+005,-1.67873745513479e+001,-1.79918817791952e+000

1.11579493308032e+005,-1.67875040756307e+001,-1.82414866529702e+000

1.13137084989847e+005,-1.67876369727405e+001,-1.84945137425048e+000

1.14716419841265e+005,-1.67877733232026e+001,-1.87510084386538e+000

1.16317801385624e+005,-1.67879132090736e+001,-1.90110166818373e+000

1.17941537383287e+005,-1.67880567139493e+001,-1.92745849672224e+000

1.19587939890794e+005,-1.67882039229719e+001,-1.95417603499573e+000

1.21257325320831e+005,-1.67883549228344e+001,-1.98125904504326e+000

1.22950014503040e+005,-1.67885098017853e+001,-2.00871234595769e+000

1.24666332745679e+005,-1.67886686496300e+001,-2.03654081441988e+000

1.26406609898139e+005,-1.67888315577322e+001,-2.06474938523725e+000

1.28171180414339e+005,-1.67889986190124e+001,-2.09334305188711e+000

1.29960383416997e+005,-1.67891699279451e+001,-2.12232686706538e+000

1.31774562762811e+005,-1.67893455805540e+001,-2.15170594324046e+000

1.33614067108538e+005,-1.67895256744053e+001,-2.18148545321398e+000

1.35479249978003e+005,-1.67897103085988e+001,-2.21167063068723e+000

1.37370469830040e+005,-1.67898995837563e+001,-2.24226677083634e+000

1.39288090127379e+005,-1.67900936020089e+001,-2.27327923089353e+000

1.41232479406504e+005,-1.67902924669801e+001,-2.30471343073832e+000

1.43204011348474e+005,-1.67904962837684e+001,-2.33657485349612e+000

1.45203064850745e+005,-1.67907051589256e+001,-2.36886904614998e+000

1.47230024099979e+005,-1.67909192004331e+001,-2.40160162015885e+000

1.49285278645888e+005,-1.67911385176752e+001,-2.43477825209191e+000

1.51369223476094e+005,-1.67913632214094e+001,-2.46840468427172e+000

1.53482259092041e+005,-1.67915934237338e+001,-2.50248672543398e+000

1.55624791585964e+005,-1.67918292380513e+001,-2.53703025139915e+000

1.57797232718936e+005,-1.67920707790301e+001,-2.57204120576319e+000

1.59999999999999e+005,-1.67923181625614e+001,-2.60752560060190e+000

1.62233516766403e+005,-1.67925715057137e+001,-2.64348951719569e+000

1.64498212264969e+005,-1.67928309266825e+001,-2.67993910677413e+000

1.66794521734578e+005,-1.67930965447378e+001,-2.71688059127945e+000

1.69122886489819e+005,-1.67933684801669e+001,-2.75432026415469e+000

1.71483754005805e+005,-1.67936468542138e+001,-2.79226449115544e+000

1.73877578004168e+005,-1.67939317890145e+001,-2.83071971118631e+000

1.76304818540256e+005,-1.67942234075285e+001,-2.86969243716542e+000

1.78765942091554e+005,-1.67945218334668e+001,-2.90918925691932e+000

1.81261421647326e+005,-1.67948271912147e+001,-2.94921683410661e+000

1.83791736799524e+005,-1.67951396057516e+001,-2.98978190917698e+000

1.86357373834951e+005,-1.67954592025667e+001,-3.03089130036280e+000

1.88958825828723e+005,-1.67957861075701e+001,-3.07255190471080e+000

1.91596592739027e+005,-1.67961204469997e+001,-3.11477069915021e+000

1.94271181503206e+005,-1.67964623473253e+001,-3.15755474160485e+000

1.96983106135185e+005,-1.67968119351469e+001,-3.20091117214692e+000

1.99732887824256e+005,-1.67971693370908e+001,-3.24484721419809e+000

2.02521055035243e+005,-1.67975346797006e+001,-3.28937017577949e+000

2.05348143610063e+005,-1.67979080893247e+001,-3.33448745081249e+000

2.08214696870707e+005,-1.67982896920008e+001,-3.38020652047145e+000

2.11121265723661e+005,-1.67986796133356e+001,-3.42653495459621e+000

2.14068408765776e+005,-1.67990779783829e+001,-3.47348041315912e+000

2.17056692391625e+005,-1.67994849115162e+001,-3.52105064779689e+000

2.20086690902357e+005,-1.67999005363006e+001,-3.56925350340410e+000

2.23158986616063e+005,-1.68003249753605e+001,-3.61809691979497e+000

2.26274169979693e+005,-1.68007583502453e+001,-3.66758893343305e+000

2.29432839682530e+005,-1.68012007812927e+001,-3.71773767923380e+000

2.32635602771247e+005,-1.68016523874902e+001,-3.76855139244167e+000

2.35883074766574e+005,-1.68021132863354e+001,-3.82003841058337e+000

2.39175879781588e+005,-1.68025835936941e+001,-3.87220717550249e+000

2.42514650641661e+005,-1.68030634236589e+001,-3.92506623547427e+000

2.45900029006080e+005,-1.68035528884065e+001,-3.97862424740633e+000

2.49332665491357e+005,-1.68040520980554e+001,-4.03288997912638e+000

2.52813219796278e+005,-1.68045611605243e+001,-4.08787231175742e+000

2.56342360828676e+005,-1.68050801813917e+001,-4.14358024218568e+000

2.59920766833993e+005,-1.68056092637564e+001,-4.20002288562132e+000

2.63549125525621e+005,-1.68061485081018e+001,-4.25720947825297e+000

2.67228134217075e+005,-1.68066980121615e+001,-4.31514938000040e+000

2.70958499956006e+005,-1.68072578707891e+001,-4.37385207736373e+000

2.74740939660078e+005,-1.68078281758324e+001,-4.43332718637222e+000

2.78576180254757e+005,-1.68084090160121e+001,-4.49358445563399e+000

2.82464958813007e+005,-1.68090004768058e+001,-4.55463376948508e+000

2.86408022696948e+005,-1.68096026403395e+001,-4.61648515124104e+000

2.90406129701488e+005,-1.68102155852846e+001,-4.67914876655022e+000

2.94460048199957e+005,-1.68108393867637e+001,-4.74263492684795e+000

2.98570557291775e+005,-1.68114741162653e+001,-4.80695409291192e+000

3.02738446952187e+005,-1.68121198415668e+001,-4.87211687851882e+000

3.06964518184081e+005,-1.68127766266687e+001,-4.93813405420002e+000

3.11249583171928e+005,-1.68134445317400e+001,-5.00501655109408e+000

3.15594465437872e+005,-1.68141236130742e+001,-5.07277546489864e+000

3.19999999999997e+005,-1.68148139230593e+001,-5.14142205991370e+000

3.24467033532806e+005,-1.68155155101610e+001,-5.21096777317749e+000

3.28996424529938e+005,-1.68162284189193e+001,-5.28142421869290e+000

3.33589043469155e+005,-1.68169526899615e+001,-5.35280319173762e+000

3.38245772979638e+005,-1.68176883600298e+001,-5.42511667325779e+000

3.42967508011610e+005,-1.68184354620264e+001,-5.49837683433978e+000

3.47755156008335e+005,-1.68191940250752e+001,-5.57259604075557e+000

3.52609637080511e+005,-1.68199640746017e+001,-5.64778685757752e+000

3.57531884183106e+005,-1.68207456324318e+001,-5.72396205385811e+000

3.62522843294651e+005,-1.68215387169088e+001,-5.80113460736799e+000

3.67583473599047e+005,-1.68223433430314e+001,-5.87931770938694e+000

3.72714747669902e+005,-1.68231595226107e+001,-5.95852476954303e+000

3.77917651657445e+005,-1.68239872644490e+001,-6.03876942069196e+000

3.83193185478053e+005,-1.68248265745382e+001,-6.12006552383095e+000

3.88542363006410e+005,-1.68256774562814e+001,-6.20242717304132e+000

3.93966212270369e+005,-1.68265399107342e+001,-6.28586870045001e+000

3.99465775648511e+005,-1.68274139368691e+001,-6.37040468120649e+000

4.05042110070485e+005,-1.68282995318613e+001,-6.45604993846464e+000

4.10696287220124e+005,-1.68291966913962e+001,-6.54281954836466e+000

4.16429393741414e+005,-1.68301054099995e+001,-6.63072884500604e+000

4.22242531447321e+005,-1.68310256813878e+001,-6.71979342540426e+000

4.28136817531551e+005,-1.68319574988423e+001,-6.81002915442526e+000

4.34113384783250e+005,-1.68329008556021e+001,-6.90145216968837e+000

4.40173381804713e+005,-1.68338557452798e+001,-6.99407888643157e+000

4.46317973232124e+005,-1.68348221622967e+001,-7.08792600233174e+000

4.52548339959385e+005,-1.68358001023382e+001,-7.18301050227332e+000

4.58865679365059e+005,-1.68367895628280e+001,-7.27934966305789e+000

4.65271205542494e+005,-1.68377905434221e+001,-7.37696105804873e+000

4.71766149533147e+005,-1.68388030465190e+001,-7.47586256174509e+000

4.78351759563174e+005,-1.68398270777889e+001,-7.57607235427874e+000

4.85029301283321e+005,-1.68408626467171e+001,-7.67760892582844e+000

4.91800058012158e+005,-1.68419097671644e+001,-7.78049108094833e+000

4.98665330982714e+005,-1.68429684579405e+001,-7.88473794280320e+000

5.05626439592555e+005,-1.68440387433912e+001,-7.99036895731059e+000

5.12684721657352e+005,-1.68451206539978e+001,-8.09740389718117e+000

5.19841533667984e+005,-1.68462142269876e+001,-8.20586286585948e+000

5.27098251051240e+005,-1.68473195069534e+001,-8.31576630135991e+000

5.34456268434150e+005,-1.68484365464833e+001,-8.42713497999663e+000

5.41916999912011e+005,-1.68495654067964e+001,-8.53999002000634e+000

