Freq.,VOut,OutRef

1.00000000000000e+004,-2.46908565357515e+001,-4.55353540112114e-001

1.01395947979003e+004,-2.46908602368878e+001,-4.61709845098237e-001

1.02811382665607e+004,-2.46908640420519e+001,-4.68154872578691e-001

1.04246576084112e+004,-2.46908679541670e+001,-4.74689860724985e-001

1.05701804056138e+004,-2.46908719762381e+001,-4.81316064978362e-001

1.07177346253629e+004,-2.46908761113554e+001,-4.88034758287706e-001

1.08673486252606e+004,-2.46908803626948e+001,-4.94847231358717e-001

1.10190511587661e+004,-2.46908847335222e+001,-5.01754792896229e-001

1.11728713807222e+004,-2.46908892271951e+001,-5.08758769855405e-001

1.13288388529580e+004,-2.46908938471649e+001,-5.15860507698777e-001

1.14869835499703e+004,-2.46908985969803e+001,-5.23061370650943e-001

1.16473358646846e+004,-2.46909034802894e+001,-5.30362741961241e-001

1.18099266142953e+004,-2.46909085008430e+001,-5.37766024166138e-001

1.19747870461893e+004,-2.46909136624969e+001,-5.45272639361884e-001

1.21419488439505e+004,-2.46909189692154e+001,-5.52884029470986e-001

1.23114441334492e+004,-2.46909244250739e+001,-5.60601656524700e-001

1.24833054890161e+004,-2.46909300342626e+001,-5.68427002935179e-001

1.26575659397028e+004,-2.46909358010888e+001,-5.76361571785967e-001

1.28342589756290e+004,-2.46909417299810e+001,-5.84406887115514e-001

1.30134185544193e+004,-2.46909478254921e+001,-5.92564494208798e-001

1.31950791077289e+004,-2.46909540923027e+001,-6.00835959893956e-001

1.33792755478611e+004,-2.46909605352247e+001,-6.09222872841815e-001

1.35660432744767e+004,-2.46909671592051e+001,-6.17726843868221e-001

1.37554181813974e+004,-2.46909739693298e+001,-6.26349506242656e-001

1.39474366635040e+004,-2.46909809708275e+001,-6.35092516000735e-001

1.41421356237309e+004,-2.46909881690735e+001,-6.43957552259678e-001

1.43395524801583e+004,-2.46909955695939e+001,-6.52946317540430e-001

1.45397251732031e+004,-2.46910031780700e+001,-6.62060538090395e-001

1.47426921729110e+004,-2.46910110003425e+001,-6.71301964214972e-001

1.49484924863494e+004,-2.46910190424159e+001,-6.80672370612362e-001

1.51571656651040e+004,-2.46910273104632e+001,-6.90173556708958e-001

1.53687518128801e+004,-2.46910358108306e+001,-6.99807347007301e-001

1.55832915932100e+004,-2.46910445500424e+001,-7.09575591429344e-001

1.58008262372675e+004,-2.46910535348056e+001,-7.19480165673716e-001

1.60213975517924e+004,-2.46910627720158e+001,-7.29522971570619e-001

1.62450479271247e+004,-2.46910722687616e+001,-7.39705937445321e-001

1.64718203453514e+004,-2.46910820323306e+001,-7.50031018485489e-001

1.67017583885674e+004,-2.46910920702148e+001,-7.60500197115100e-001

1.69349062472505e+004,-2.46911023901161e+001,-7.71115483369955e-001

1.71713087287550e+004,-2.46911129999525e+001,-7.81878915283017e-001

1.74110112659224e+004,-2.46911239078640e+001,-7.92792559269903e-001

1.76540599258131e+004,-2.46911351222189e+001,-8.03858510524504e-001

1.79005014185594e+004,-2.46911466516199e+001,-8.15078893417184e-001

1.81503831063432e+004,-2.46911585049109e+001,-8.26455861898593e-001

1.84037530124975e+004,-2.46911706911838e+001,-8.37991599909656e-001

1.86606598307361e+004,-2.46911832197850e+001,-8.49688321797870e-001

1.89211529345119e+004,-2.46911961003233e+001,-8.61548272736459e-001

1.91852823865052e+004,-2.46912093426764e+001,-8.73573729152887e-001

1.94530989482457e+004,-2.46912229569988e+001,-8.85766999159824e-001

1.97246540898671e+004,-2.46912369537297e+001,-8.98130422995735e-001

1.99999999999999e+004,-2.46912513436004e+001,-9.10666373467722e-001

2.02791895958005e+004,-2.46912661376432e+001,-9.23377256401530e-001

2.05622765331213e+004,-2.46912813471989e+001,-9.36265511099905e-001

2.08493152168224e+004,-2.46912969839264e+001,-9.49333610803621e-001

2.11403608112276e+004,-2.46913130598107e+001,-9.62584063161614e-001

2.14354692507258e+004,-2.46913295871726e+001,-9.76019410705805e-001

2.17346972505211e+004,-2.46913465786777e+001,-9.89642231332704e-001

2.20381023175322e+004,-2.46913640473460e+001,-1.00345513879309e+000

2.23457427614443e+004,-2.46913820065623e+001,-1.01746078318473e+000

2.26576777059159e+004,-2.46914004700856e+001,-1.03166185145561e+000

2.29739670999406e+004,-2.46914194520602e+001,-1.04606106791111e+000

2.32946717293690e+004,-2.46914389670258e+001,-1.06066119473116e+000

2.36198532285905e+004,-2.46914590299292e+001,-1.07546503248952e+000

2.39495740923785e+004,-2.46914796561349e+001,-1.09047542068518e+000

2.42838976879009e+004,-2.46915008614374e+001,-1.10569523827675e+000

2.46228882668982e+004,-2.46915226620726e+001,-1.12112740422845e+000

2.49666109780322e+004,-2.46915450747305e+001,-1.13677487805758e+000

2.53151318794055e+004,-2.46915681165676e+001,-1.15264066039471e+000

2.56685179512580e+004,-2.46915918052198e+001,-1.16872779354839e+000

2.60268371088386e+004,-2.46916161588161e+001,-1.18503936207867e+000

2.63901582154578e+004,-2.46916411959916e+001,-1.20157849337731e+000

2.67585510957221e+004,-2.46916669359022e+001,-1.21834835825614e+000

2.71320865489533e+004,-2.46916933982391e+001,-1.23535217154312e+000

2.75108363627948e+004,-2.46917206032428e+001,-1.25259319268695e+000

2.78948733270080e+004,-2.46917485717195e+001,-1.27007472636907e+000

2.82842712474618e+004,-2.46917773250556e+001,-1.28780012312362e+000

2.86791049603164e+004,-2.46918068852348e+001,-1.30577277996555e+000

2.90794503464061e+004,-2.46918372748540e+001,-1.32399614102842e+000

2.94853843458219e+004,-2.46918685171405e+001,-1.34247369820814e+000

2.98969849726987e+004,-2.46919006359697e+001,-1.36120899181717e+000

3.03143313302078e+004,-2.46919336558823e+001,-1.38020561124685e+000

3.07375036257601e+004,-2.46919676021035e+001,-1.39946719563755e+000

3.11665831864199e+004,-2.46920025005614e+001,-1.41899743455911e+000

3.16016524745350e+004,-2.46920383779069e+001,-1.43880006869774e+000

3.20427951035848e+004,-2.46920752615328e+001,-1.45887889055547e+000

3.24900958542493e+004,-2.46921131795952e+001,-1.47923774515532e+000

3.29436406907028e+004,-2.46921521610343e+001,-1.49988053075682e+000

3.34035167771346e+004,-2.46921922355954e+001,-1.52081119958153e+000

3.38698124945009e+004,-2.46922334338522e+001,-1.54203375854688e+000

3.43426174575100e+004,-2.46922757872284e+001,-1.56355227001082e+000

3.48220225318448e+004,-2.46923193280220e+001,-1.58537085252353e+000

3.53081198516260e+004,-2.46923640894290e+001,-1.60749368159126e+000

3.58010028371187e+004,-2.46924101055681e+001,-1.62992499044975e+000

3.63007662126863e+004,-2.46924574115060e+001,-1.65266907084596e+000

3.68075060249948e+004,-2.46925060432836e+001,-1.67573027383031e+000

3.73213196614721e+004,-2.46925560379423e+001,-1.69911301056035e+000

3.78423058690237e+004,-2.46926074335523e+001,-1.72282175311315e+000

3.83705647730104e+004,-2.46926602692397e+001,-1.74686103530847e+000

3.89061978964912e+004,-2.46927145852161e+001,-1.77123545354209e+000

3.94493081797342e+004,-2.46927704228082e+001,-1.79594966762973e+000

3.99999999999998e+004,-2.46928278244884e+001,-1.82100840166154e+000

4.05583791916010e+004,-2.46928868339054e+001,-1.84641644486840e+000

4.11245530662425e+004,-2.46929474959173e+001,-1.87217865249637e+000

4.16986304336447e+004,-2.46930098566238e+001,-1.89829994669414e+000

4.22807216224550e+004,-2.46930739634006e+001,-1.92478531741126e+000

4.28709385014515e+004,-2.46931398649336e+001,-1.95163982330665e+000

4.34693945010421e+004,-2.46932076112548e+001,-1.97886859266955e+000

4.40762046350642e+004,-2.46932772537792e+001,-2.00647682434904e+000

4.46914855228886e+004,-2.46933488453417e+001,-2.03446978869906e+000

4.53153554118317e+004,-2.46934224402361e+001,-2.06285282853049e+000

4.59479341998812e+004,-2.46934980942545e+001,-2.09163136007893e+000

4.65893434587380e+004,-2.46935758647277e+001,-2.12081087398038e+000

4.72397064571810e+004,-2.46936558105671e+001,-2.15039693626168e+000

4.78991481847569e+004,-2.46937379923070e+001,-2.18039518934027e+000

4.85677953758016e+004,-2.46938224721490e+001,-2.21081135303830e+000

4.92457765337964e+004,-2.46939093140061e+001,-2.24165122560683e+000

4.99332219560642e+004,-2.46939985835496e+001,-2.27292068476343e+000

5.06302637588109e+004,-2.46940903482558e+001,-2.30462568874009e+000

5.13370359025159e+004,-2.46941846774546e+001,-2.33677227734691e+000

5.20536742176771e+004,-2.46942816423796e+001,-2.36936657304377e+000

5.27803164309155e+004,-2.46943813162184e+001,-2.40241478202756e+000

5.35171021914442e+004,-2.46944837741655e+001,-2.43592319533096e+000

5.42641730979066e+004,-2.46945890934755e+001,-2.46989818993400e+000

5.50216727255895e+004,-2.46946973535183e+001,-2.50434622988734e+000

5.57897466540159e+004,-2.46948086358354e+001,-2.53927386744986e+000

5.65685424949235e+004,-2.46949230241974e+001,-2.57468774423773e+000

5.73582099206328e+004,-2.46950406046636e+001,-2.61059459238695e+000

5.81589006928121e+004,-2.46951614656423e+001,-2.64700123572885e+000

5.89707686916437e+004,-2.46952856979534e+001,-2.68391459097833e+000

5.97939699453972e+004,-2.46954133948918e+001,-2.72134166893563e+000

6.06286626604156e+004,-2.46955446522928e+001,-2.75928957569993e+000

6.14750072515201e+004,-2.46956795685989e+001,-2.79776551389867e+000

6.23331663728396e+004,-2.46958182449289e+001,-2.83677678392706e+000

6.32033049490698e+004,-2.46959607851471e+001,-2.87633078520309e+000

6.40855902071694e+004,-2.46961072959363e+001,-2.91643501743452e+000

6.49801917084985e+004,-2.46962578868708e+001,-2.95709708190038e+000

6.58872813814055e+004,-2.46964126704922e+001,-2.99832468274492e+000

6.68070335542691e+004,-2.46965717623864e+001,-3.04012562828542e+000

6.77396249890018e+004,-2.46967352812628e+001,-3.08250783233343e+000

6.86852349150199e+004,-2.46969033490355e+001,-3.12547931552912e+000

6.96440450636895e+004,-2.46970760909059e+001,-3.16904820669001e+000

7.06162397032520e+004,-2.46972536354480e+001,-3.21322274417218e+000

7.16020056742374e+004,-2.46974361146945e+001,-3.25801127724586e+000

7.26015324253724e+004,-2.46976236642266e+001,-3.30342226748425e+000

7.36150120499896e+004,-2.46978164232642e+001,-3.34946429016593e+000

7.46426393229441e+004,-2.46980145347596e+001,-3.39614603569063e+000

7.56846117380472e+004,-2.46982181454921e+001,-3.44347631100915e+000

7.67411295460207e+004,-2.46984274061658e+001,-3.49146404106595e+000

7.78123957929823e+004,-2.46986424715088e+001,-3.54011827025663e+000

7.88986163594682e+004,-2.46988635003755e+001,-3.58944816389772e+000

7.99999999999995e+004,-2.46990906558501e+001,-3.63946300971084e+000

8.11167583832018e+004,-2.46993241053537e+001,-3.69017221931917e+000

8.22491061324848e+004,-2.46995640207524e+001,-3.74158532975986e+000

8.33972608672892e+004,-2.46998105784692e+001,-3.79371200500710e+000

8.45614432449099e+004,-2.47000639595970e+001,-3.84656203751021e+000

8.57418770029029e+004,-2.47003243500149e+001,-3.90014534974547e+000

8.69387890020841e+004,-2.47005919405068e+001,-3.95447199578018e+000

8.81524092701283e+004,-2.47008669268827e+001,-4.00955216285081e+000

8.93829710457770e+004,-2.47011495101021e+001,-4.06539617295457e+000

9.06307108236633e+004,-2.47014398964002e+001,-4.12201448445359e+000

9.18958683997622e+004,-2.47017382974173e+001,-4.17941769369308e+000

9.31786869174758e+004,-2.47020449303300e+001,-4.23761653663259e+000

9.44794129143618e+004,-2.47023600179856e+001,-4.29662189048994e+000

9.57982963695136e+004,-2.47026837890395e+001,-4.35644477539833e+000

9.71355907516031e+004,-2.47030164780945e+001,-4.41709635607723e+000

9.84915530675926e+004,-2.47033583258436e+001,-4.47858794351549e+000

9.98664439121282e+004,-2.47037095792160e+001,-4.54093099666757e+000

1.01260527517622e+005,-2.47040704915246e+001,-4.60413712416326e+000

1.02674071805032e+005,-2.47044413226178e+001,-4.66821808602963e+000

1.04107348435354e+005,-2.47048223390336e+001,-4.73318579542606e+000

1.05560632861831e+005,-2.47052138141566e+001,-4.79905232039197e+000

1.07034204382888e+005,-2.47056160283779e+001,-4.86582988560810e+000

1.08528346195813e+005,-2.47060292692586e+001,-4.93353087416917e+000

1.10043345451179e+005,-2.47064538316958e+001,-5.00216782937042e+000

1.11579493308032e+005,-2.47068900180917e+001,-5.07175345650640e+000

1.13137084989847e+005,-2.47073381385259e+001,-5.14230062468271e+000

1.14716419841265e+005,-2.47077985109308e+001,-5.21382236864011e+000

1.16317801385624e+005,-2.47082714612702e+001,-5.28633189059190e+000

1.17941537383287e+005,-2.47087573237208e+001,-5.35984256207363e+000

1.19587939890794e+005,-2.47092564408573e+001,-5.43436792580575e+000

1.21257325320831e+005,-2.47097691638400e+001,-5.50992169756913e+000

1.22950014503040e+005,-2.47102958526067e+001,-5.58651776809359e+000

1.24666332745679e+005,-2.47108368760667e+001,-5.66417020495920e+000

1.26406609898139e+005,-2.47113926122986e+001,-5.74289325451110e+000

1.28171180414339e+005,-2.47119634487517e+001,-5.82270134378714e+000

1.29960383416997e+005,-2.47125497824501e+001,-5.90360908245893e+000

1.31774562762811e+005,-2.47131520202003e+001,-5.98563126478682e+000

1.33614067108538e+005,-2.47137705788026e+001,-6.06878287158805e+000

1.35479249978003e+005,-2.47144058852650e+001,-6.15307907221920e+000

1.37370469830040e+005,-2.47150583770218e+001,-6.23853522657232e+000

1.39288090127379e+005,-2.47157285021539e+001,-6.32516688708676e+000

1.41232479406504e+005,-2.47164167196143e+001,-6.41298980077356e+000

1.43204011348474e+005,-2.47171234994559e+001,-6.50201991125665e+000

1.45203064850745e+005,-2.47178493230632e+001,-6.59227336082936e+000

1.47230024099979e+005,-2.47185946833878e+001,-6.68376649252529e+000

1.49285278645888e+005,-2.47193600851871e+001,-6.77651585220722e+000

1.51369223476094e+005,-2.47201460452669e+001,-6.87053819067069e+000

1.53482259092041e+005,-2.47209530927273e+001,-6.96585046576736e+000

1.55624791585964e+005,-2.47217817692132e+001,-7.06246984454286e+000

1.57797232718936e+005,-2.47226326291673e+001,-7.16041370539589e+000

1.59999999999999e+005,-2.47235062400884e+001,-7.25969964025394e+000

1.62233516766403e+005,-2.47244031827925e+001,-7.36034545677008e+000

1.64498212264969e+005,-2.47253240516783e+001,-7.46236918053918e+000

1.66794521734578e+005,-2.47262694549971e+001,-7.56578905733506e+000

1.69122886489819e+005,-2.47272400151263e+001,-7.67062355536975e+000

1.71483754005805e+005,-2.47282363688478e+001,-7.77689136757507e+000

1.73877578004168e+005,-2.47292591676304e+001,-7.88461141390765e+000

1.76304818540256e+005,-2.47303090779169e+001,-7.99380284367785e+000

1.78765942091554e+005,-2.47313867814159e+001,-8.10448503790433e+000

1.81261421647326e+005,-2.47324929753984e+001,-8.21667761169461e+000

1.83791736799524e+005,-2.47336283729994e+001,-8.33040041665277e+000

1.86357373834951e+005,-2.47347937035249e+001,-8.44567354331507e+000

1.88958825828723e+005,-2.47359897127638e+001,-8.56251732361440e+000

1.91596592739027e+005,-2.47372171633061e+001,-8.68095233337603e+000

1.94271181503206e+005,-2.47384768348665e+001,-8.80099939484349e+000

1.96983106135185e+005,-2.47397695246142e+001,-8.92267957923708e+000

1.99732887824256e+005,-2.47410960475092e+001,-9.04601420934590e+000

2.02521055035243e+005,-2.47424572366453e+001,-9.17102486215394e+000

2.05348143610063e+005,-2.47438539436001e+001,-9.29773337150284e+000

2.08214696870707e+005,-2.47452870387922e+001,-9.42616183078877e+000

2.11121265723661e+005,-2.47467574118469e+001,-9.55633259569894e+000

2.14068408765776e+005,-2.47482659719688e+001,-9.68826828698612e+000

2.17056692391625e+005,-2.47498136483244e+001,-9.82199179328126e+000

2.20086690902357e+005,-2.47514013904327e+001,-9.95752627394749e+000

2.23158986616063e+005,-2.47530301685660e+001,-1.00948951619744e+001

2.26274169979693e+005,-2.47547009741606e+001,-1.02341221669140e+001

2.29432839682530e+005,-2.47564148202376e+001,-1.03752312778581e+001

2.32635602771247e+005,-2.47581727418362e+001,-1.05182467664590e+001

2.35883074766574e+005,-2.47599757964572e+001,-1.06631931899920e+001

2.39175879781588e+005,-2.47618250645204e+001,-1.08100953944612e+001

2.42514650641661e+005,-2.47637216498342e+001,-1.09589785177473e+001

2.45900029006080e+005,-2.47656666800797e+001,-1.11098679927983e+001

2.49332665491357e+005,-2.47676613073086e+001,-1.12627895508620e+001

2.52813219796278e+005,-2.47697067084577e+001,-1.14177692247585e+001

2.56342360828676e+005,-2.47718040858782e+001,-1.15748333521949e+001

2.59920766833993e+005,-2.47739546678830e+001,-1.17340085791158e+001

2.63549125525621e+005,-2.47761597093116e+001,-1.18953218630934e+001

2.67228134217075e+005,-2.47784204921134e+001,-1.20588004767512e+001

2.70958499956006e+005,-2.47807383259512e+001,-1.22244720112209e+001

2.74740939660078e+005,-2.47831145488250e+001,-1.23923643796293e+001

2.78576180254757e+005,-2.47855505277173e+001,-1.25625058206125e+001

2.82464958813007e+005,-2.47880476592612e+001,-1.27349249018530e+001

2.86408022696948e+005,-2.47906073704317e+001,-1.29096505236365e+001

2.90406129701488e+005,-2.47932311192618e+001,-1.30867119224233e+001

2.94460048199957e+005,-2.47959203955835e+001,-1.32661386744304e+001

2.98570557291775e+005,-2.47986767217963e+001,-1.34479606992176e+001

3.02738446952187e+005,-2.48015016536625e+001,-1.36322082632723e+001

3.06964518184081e+005,-2.48043967811308e+001,-1.38189119835857e+001

3.11249583171928e+005,-2.48073637291903e+001,-1.40081028312155e+001

3.15594465437872e+005,-2.48104041587539e+001,-1.41998121348236e+001

3.19999999999997e+005,-2.48135197675741e+001,-1.43940715841841e+001

3.24467033532806e+005,-2.48167122911901e+001,-1.45909132336512e+001

3.28996424529938e+005,-2.48199835039092e+001,-1.47903695055764e+001

3.33589043469155e+005,-2.48233352198212e+001,-1.49924731936675e+001

3.38245772979638e+005,-2.48267692938483e+001,-1.51972574662764e+001

3.42967508011610e+005,-2.48302876228304e+001,-1.54047558696043e+001

3.47755156008335e+005,-2.48338921466465e+001,-1.56150023308156e+001

3.52609637080511e+005,-2.48375848493730e+001,-1.58280311610420e+001

3.57531884183106e+005,-2.48413677604793e+001,-1.60438770582704e+001

3.62522843294651e+005,-2.48452429560614e+001,-1.62625751100949e+001

3.67583473599047e+005,-2.48492125601136e+001,-1.64841607963230e+001

3.72714747669902e+005,-2.48532787458379e+001,-1.67086699914184e+001

3.77917651657445e+005,-2.48574437369934e+001,-1.69361389667663e+001

3.83193185478053e+005,-2.48617098092823e+001,-1.71666043927450e+001

3.88542363006410e+005,-2.48660792917763e+001,-1.74001033405876e+001

3.93966212270369e+005,-2.48705545683799e+001,-1.76366732840170e+001

3.99465775648511e+005,-2.48751380793318e+001,-1.78763521006374e+001

4.05042110070485e+005,-2.48798323227443e+001,-1.81191780730644e+001

4.10696287220124e+005,-2.48846398561788e+001,-1.83651898897769e+001

4.16429393741414e+005,-2.48895632982573e+001,-1.86144266456715e+001

4.22242531447321e+005,-2.48946053303094e+001,-1.88669278423028e+001

4.28136817531551e+005,-2.48997686980525e+001,-1.91227333877912e+001

4.34113384783250e+005,-2.49050562133051e+001,-1.93818835963779e+001

4.40173381804713e+005,-2.49104707557311e+001,-1.96444191876130e+001

4.46317973232124e+005,-2.49160152746138e+001,-1.99103812851536e+001

4.52548339959385e+005,-2.49216927906578e+001,-2.01798114151577e+001

4.58865679365059e+005,-2.49275063978160e+001,-2.04527515042544e+001

4.65271205542494e+005,-2.49334592651419e+001,-2.07292438770725e+001

4.71766149533147e+005,-2.49395546386618e+001,-2.10093312533110e+001

4.78351759563174e+005,-2.49457958432665e+001,-2.12930567443346e+001

4.85029301283321e+005,-2.49521862846204e+001,-2.15804638492763e+001

4.91800058012158e+005,-2.49587294510822e+001,-2.18715964506340e+001

4.98665330982714e+005,-2.49654289156385e+001,-2.21664988093420e+001

5.05626439592555e+005,-2.49722883378426e+001,-2.24652155593060e+001

5.12684721657352e+005,-2.49793114657596e+001,-2.27677917013852e+001

5.19841533667984e+005,-2.49865021379107e+001,-2.30742725968106e+001

5.27098251051240e+005,-2.49938642852156e+001,-2.33847039600225e+001

5.34456268434150e+005,-2.50014019329281e+001,-2.36991318509224e+001

5.41916999912011e+005,-2.50091192025610e+001,-2.40176026665215e+001

