Freq.,VOut,OutRef

1.00000000000000e+004,-1.94188924781512e+001,-6.80870058114983e-002

1.01395947979003e+004,-1.94188935536298e+001,-6.90373327784868e-002

1.02811382665607e+004,-1.94188946593222e+001,-7.00009202036559e-002

1.04246576084112e+004,-1.94188957960767e+001,-7.09779529586984e-002

1.05701804056138e+004,-1.94188969647652e+001,-7.19686184849083e-002

1.07177346253629e+004,-1.94188981662843e+001,-7.29731068289322e-002

1.08673486252606e+004,-1.94188994015553e+001,-7.39916106820831e-002

1.10190511587661e+004,-1.94189006715259e+001,-7.50243254097976e-002

1.11728713807222e+004,-1.94189019771693e+001,-7.60714490990552e-002

1.13288388529580e+004,-1.94189033194873e+001,-7.71331825831039e-002

1.14869835499703e+004,-1.94189046995089e+001,-7.82097294900970e-002

1.16473358646846e+004,-1.94189061182921e+001,-7.93012962752661e-002

1.18099266142953e+004,-1.94189075769246e+001,-8.04080922626289e-002

1.19747870461893e+004,-1.94189090765250e+001,-8.15303296809645e-002

1.21419488439505e+004,-1.94189106182419e+001,-8.26682237130099e-002

1.23114441334492e+004,-1.94189122032577e+001,-8.38219925213041e-002

1.24833054890161e+004,-1.94189138327864e+001,-8.49918573048221e-002

1.26575659397028e+004,-1.94189155080775e+001,-8.61780423245589e-002

1.28342589756290e+004,-1.94189172304144e+001,-8.73807749604296e-002

1.30134185544193e+004,-1.94189190011164e+001,-8.86002857488064e-002

1.31950791077289e+004,-1.94189208215406e+001,-8.98368084164960e-002

1.33792755478611e+004,-1.94189226930809e+001,-9.10905799421786e-002

1.35660432744767e+004,-1.94189246171711e+001,-9.23618405859108e-002

1.37554181813974e+004,-1.94189265952849e+001,-9.36508339386730e-002

1.39474366635040e+004,-1.94189286289369e+001,-9.49578069726759e-002

1.41421356237309e+004,-1.94189307196846e+001,-9.62830100791577e-002

1.43395524801583e+004,-1.94189328691282e+001,-9.76266971253638e-002

1.45397251732031e+004,-1.94189350789136e+001,-9.89891254895414e-002

1.47426921729110e+004,-1.94189373507323e+001,-1.00370556118973e-001

1.49484924863494e+004,-1.94189396863227e+001,-1.01771253575971e-001

1.51571656651040e+004,-1.94189420874722e+001,-1.03191486085741e-001

1.53687518128801e+004,-1.94189445560181e+001,-1.04631525585159e-001

1.55832915932100e+004,-1.94189470938491e+001,-1.06091647776216e-001

1.58008262372675e+004,-1.94189497029062e+001,-1.07572132176267e-001

1.60213975517924e+004,-1.94189523851851e+001,-1.09073262169418e-001

1.62450479271247e+004,-1.94189551427371e+001,-1.10595325058106e-001

1.64718203453514e+004,-1.94189579776702e+001,-1.12138612120178e-001

1.67017583885674e+004,-1.94189608921523e+001,-1.13703418655536e-001

1.69349062472505e+004,-1.94189638884107e+001,-1.15290044049642e-001

1.71713087287550e+004,-1.94189669687356e+001,-1.16898791820344e-001

1.74110112659224e+004,-1.94189701354807e+001,-1.18529969679990e-001

1.76540599258131e+004,-1.94189733910651e+001,-1.20183889589482e-001

1.79005014185594e+004,-1.94189767379760e+001,-1.21860867814220e-001

1.81503831063432e+004,-1.94189801787692e+001,-1.23561224986710e-001

1.84037530124975e+004,-1.94189837160722e+001,-1.25285286157961e-001

1.86606598307361e+004,-1.94189873525855e+001,-1.27033380865652e-001

1.89211529345119e+004,-1.94189910910847e+001,-1.28805843188209e-001

1.91852823865052e+004,-1.94189949344227e+001,-1.30603011808834e-001

1.94530989482457e+004,-1.94189988855323e+001,-1.32425230072565e-001

1.97246540898671e+004,-1.94190029474270e+001,-1.34272846057128e-001

1.99999999999999e+004,-1.94190071232047e+001,-1.36146212629177e-001

2.02791895958005e+004,-1.94190114160494e+001,-1.38045687510513e-001

2.05622765331213e+004,-1.94190158292335e+001,-1.39971633342804e-001

2.08493152168224e+004,-1.94190203661202e+001,-1.41924417755180e-001

2.11403608112276e+004,-1.94190250301664e+001,-1.43904413425273e-001

2.14354692507258e+004,-1.94190298249250e+001,-1.45911998152777e-001

2.17346972505211e+004,-1.94190347540471e+001,-1.47947554923430e-001

2.20381023175322e+004,-1.94190398212856e+001,-1.50011471978706e-001

2.23457427614443e+004,-1.94190450304974e+001,-1.52104142885820e-001

2.26576777059159e+004,-1.94190503856460e+001,-1.54225966607507e-001

2.29739670999406e+004,-1.94190558908053e+001,-1.56377347572908e-001

2.32946717293690e+004,-1.94190615501616e+001,-1.58558695752157e-001

2.36198532285905e+004,-1.94190673680174e+001,-1.60770426725203e-001

2.39495740923785e+004,-1.94190733487944e+001,-1.63012961757174e-001

2.42838976879009e+004,-1.94190794970360e+001,-1.65286727876778e-001

2.46228882668982e+004,-1.94190858174123e+001,-1.67592157943656e-001

2.49666109780322e+004,-1.94190923147218e+001,-1.69929690731391e-001

2.53151318794055e+004,-1.94190989938956e+001,-1.72299771002424e-001

2.56685179512580e+004,-1.94191058600013e+001,-1.74702849585010e-001

2.60268371088386e+004,-1.94191129182465e+001,-1.77139383450748e-001

2.63901582154578e+004,-1.94191201739816e+001,-1.79609835801910e-001

2.67585510957221e+004,-1.94191276327057e+001,-1.82114676138878e-001

2.71320865489533e+004,-1.94191353000687e+001,-1.84654380353366e-001

2.75108363627948e+004,-1.94191431818765e+001,-1.87229430803995e-001

2.78948733270080e+004,-1.94191512840946e+001,-1.89840316402143e-001

2.82842712474618e+004,-1.94191596128529e+001,-1.92487532692250e-001

2.86791049603164e+004,-1.94191681744493e+001,-1.95171581943725e-001

2.90794503464061e+004,-1.94191769753554e+001,-1.97892973227192e-001

2.94853843458219e+004,-1.94191860222202e+001,-2.00652222509084e-001

2.98969849726987e+004,-1.94191953218752e+001,-2.03449852732763e-001

3.03143313302078e+004,-1.94192048813393e+001,-2.06286393911260e-001

3.07375036257601e+004,-1.94192147078237e+001,-2.09162383213438e-001

3.11665831864199e+004,-1.94192248087369e+001,-2.12078365055961e-001

3.16016524745350e+004,-1.94192351916904e+001,-2.15034891191818e-001

3.20427951035848e+004,-1.94192458645037e+001,-2.18032520802908e-001

3.24900958542493e+004,-1.94192568352098e+001,-2.21071820593310e-001

3.29436406907028e+004,-1.94192681120614e+001,-2.24153364879919e-001

3.34035167771346e+004,-1.94192797035358e+001,-2.27277735688873e-001

3.38698124945009e+004,-1.94192916183413e+001,-2.30445522850891e-001

3.43426174575100e+004,-1.94193038654241e+001,-2.33657324091904e-001

3.48220225318448e+004,-1.94193164539726e+001,-2.36913745138033e-001

3.53081198516260e+004,-1.94193293934259e+001,-2.40215399802271e-001

3.58010028371187e+004,-1.94193426934786e+001,-2.43562910093644e-001

3.63007662126863e+004,-1.94193563640888e+001,-2.46956906305053e-001

3.68075060249948e+004,-1.94193704154841e+001,-2.50398027121647e-001

3.73213196614721e+004,-1.94193848581690e+001,-2.53886919715470e-001

3.78423058690237e+004,-1.94193997029320e+001,-2.57424239849117e-001

3.83705647730104e+004,-1.94194149608530e+001,-2.61010651976704e-001

3.89061978964912e+004,-1.94194306433108e+001,-2.64646829344053e-001

3.94493081797342e+004,-1.94194467619905e+001,-2.68333454096368e-001

3.99999999999998e+004,-1.94194633288919e+001,-2.72071217376598e-001

4.05583791916010e+004,-1.94194803563373e+001,-2.75860819432886e-001

4.11245530662425e+004,-1.94194978569795e+001,-2.79702969723934e-001

4.16986304336447e+004,-1.94195158438107e+001,-2.83598387020485e-001

4.22807216224550e+004,-1.94195343301708e+001,-2.87547799515771e-001

4.28709385014515e+004,-1.94195533297560e+001,-2.91551944930240e-001

4.34693945010421e+004,-1.94195728566283e+001,-2.95611570617557e-001

4.40762046350642e+004,-1.94195929252246e+001,-2.99727433672210e-001

4.46914855228886e+004,-1.94196135503654e+001,-3.03900301039800e-001

4.53153554118317e+004,-1.94196347472655e+001,-3.08130949622775e-001

4.59479341998812e+004,-1.94196565315428e+001,-3.12420166389025e-001

4.65893434587380e+004,-1.94196789192288e+001,-3.16768748483212e-001

4.72397064571810e+004,-1.94197019267787e+001,-3.21177503333755e-001

4.78991481847569e+004,-1.94197255710819e+001,-3.25647248763293e-001

4.85677953758016e+004,-1.94197498694727e+001,-3.30178813096543e-001

4.92457765337964e+004,-1.94197748397406e+001,-3.34773035274452e-001

4.99332219560642e+004,-1.94198005001418e+001,-3.39430764960266e-001

5.06302637588109e+004,-1.94198268694109e+001,-3.44152862649236e-001

5.13370359025159e+004,-1.94198539667712e+001,-3.48940199782679e-001

5.20536742176771e+004,-1.94198818119475e+001,-3.53793658854157e-001

5.27803164309155e+004,-1.94199104251773e+001,-3.58714133521573e-001

5.35171021914442e+004,-1.94199398272236e+001,-3.63702528714112e-001

5.42641730979066e+004,-1.94199700393864e+001,-3.68759760746254e-001

5.50216727255895e+004,-1.94200010835162e+001,-3.73886757422791e-001

5.57897466540159e+004,-1.94200329820259e+001,-3.79084458149680e-001

5.65685424949235e+004,-1.94200657579046e+001,-3.84353814041997e-001

5.73582099206328e+004,-1.94200994347300e+001,-3.89695788033536e-001

5.81589006928121e+004,-1.94201340366827e+001,-3.95111354979893e-001

5.89707686916437e+004,-1.94201695885589e+001,-4.00601501772024e-001

5.97939699453972e+004,-1.94202061157851e+001,-4.06167227434768e-001

6.06286626604156e+004,-1.94202436444314e+001,-4.11809543238872e-001

6.14750072515201e+004,-1.94202822012263e+001,-4.17529472800638e-001

6.23331663728396e+004,-1.94203218135710e+001,-4.23328052187168e-001

6.32033049490698e+004,-1.94203625095537e+001,-4.29206330018343e-001

6.40855902071694e+004,-1.94204043179646e+001,-4.35165367570499e-001

6.49801917084985e+004,-1.94204472683114e+001,-4.41206238871117e-001

6.58872813814055e+004,-1.94204913908333e+001,-4.47330030802589e-001

6.68070335542691e+004,-1.94205367165174e+001,-4.53537843197603e-001

6.77396249890018e+004,-1.94205832771137e+001,-4.59830788932537e-001

6.86852349150199e+004,-1.94206311051508e+001,-4.66209994025725e-001

6.96440450636895e+004,-1.94206802339515e+001,-4.72676597726158e-001

7.06162397032520e+004,-1.94207306976489e+001,-4.79231752605075e-001

7.16020056742374e+004,-1.94207825312023e+001,-4.85876624644698e-001

7.26015324253724e+004,-1.94208357704132e+001,-4.92612393324239e-001

7.36150120499896e+004,-1.94208904519416e+001,-4.99440251703411e-001

7.46426393229441e+004,-1.94209466133218e+001,-5.06361406506214e-001

7.56846117380472e+004,-1.94210042929796e+001,-5.13377078195913e-001

7.67411295460207e+004,-1.94210635302477e+001,-5.20488501056227e-001

7.78123957929823e+004,-1.94211243653822e+001,-5.27696923263461e-001

7.88986163594682e+004,-1.94211868395796e+001,-5.35003606956039e-001

7.99999999999995e+004,-1.94212509949920e+001,-5.42409828306869e-001

8.11167583832018e+004,-1.94213168747444e+001,-5.49916877583162e-001

8.22491061324848e+004,-1.94213845229499e+001,-5.57526059212628e-001

8.33972608672892e+004,-1.94214539847264e+001,-5.65238691839619e-001

8.45614432449099e+004,-1.94215253062124e+001,-5.73056108381407e-001

8.57418770029029e+004,-1.94215985345826e+001,-5.80979656078185e-001

8.69387890020841e+004,-1.94216737180633e+001,-5.89010696542754e-001

8.81524092701283e+004,-1.94217509059480e+001,-5.97150605803176e-001

8.93829710457770e+004,-1.94218301486127e+001,-6.05400774340932e-001

9.06307108236633e+004,-1.94219114975297e+001,-6.13762607131962e-001

9.18958683997622e+004,-1.94219950052830e+001,-6.22237523671548e-001

9.31786869174758e+004,-1.94220807255815e+001,-6.30826958007410e-001

9.44794129143618e+004,-1.94221687132733e+001,-6.39532358757786e-001

9.57982963695136e+004,-1.94222590243582e+001,-6.48355189133384e-001

9.71355907516031e+004,-1.94223517160004e+001,-6.57296926948028e-001

9.84915530675926e+004,-1.94224468465406e+001,-6.66359064630594e-001

9.98664439121282e+004,-1.94225444755069e+001,-6.75543109225423e-001

1.01260527517622e+005,-1.94226446636262e+001,-6.84850582394100e-001

1.02674071805032e+005,-1.94227474728331e+001,-6.94283020409434e-001

1.04107348435354e+005,-1.94228529662795e+001,-7.03841974142855e-001

1.05560632861831e+005,-1.94229612083427e+001,-7.13529009049396e-001

1.07034204382888e+005,-1.94230722646323e+001,-7.23345705148266e-001

1.08528346195813e+005,-1.94231862019966e+001,-7.33293656993571e-001

1.10043345451179e+005,-1.94233030885277e+001,-7.43374473644542e-001

1.11579493308032e+005,-1.94234229935649e+001,-7.53589778629978e-001

1.13137084989847e+005,-1.94235459876979e+001,-7.63941209904837e-001

1.14716419841265e+005,-1.94236721427675e+001,-7.74430419804856e-001

1.16317801385624e+005,-1.94238015318657e+001,-7.85059074994818e-001

1.17941537383287e+005,-1.94239342293339e+001,-7.95828856411235e-001

1.19587939890794e+005,-1.94240703107595e+001,-8.06741459203467e-001

1.21257325320831e+005,-1.94242098529710e+001,-8.17798592664145e-001

1.22950014503040e+005,-1.94243529340310e+001,-8.29001980162416e-001

1.24666332745679e+005,-1.94244996332274e+001,-8.40353359068348e-001

1.26406609898139e+005,-1.94246500310626e+001,-8.51854480673106e-001

1.28171180414339e+005,-1.94248042092406e+001,-8.63507110108964e-001

1.29960383416997e+005,-1.94249622506517e+001,-8.75313026262349e-001

1.31774562762811e+005,-1.94251242393556e+001,-8.87274021684199e-001

1.33614067108538e+005,-1.94252902605600e+001,-8.99391902501998e-001

1.35479249978003e+005,-1.94254604005998e+001,-9.11668488321576e-001

1.37370469830040e+005,-1.94256347469103e+001,-9.24105612135344e-001

1.39288090127379e+005,-1.94258133880003e+001,-9.36705120223417e-001

1.41232479406504e+005,-1.94259964134202e+001,-9.49468872057504e-001

1.43204011348474e+005,-1.94261839137283e+001,-9.62398740202137e-001

1.45203064850745e+005,-1.94263759804536e+001,-9.75496610219727e-001

1.47230024099979e+005,-1.94265727060549e+001,-9.88764380572199e-001

1.49285278645888e+005,-1.94267741838772e+001,-1.00220396253033e+000

1.51369223476094e+005,-1.94269805081036e+001,-1.01581728008199e+000

1.53482259092041e+005,-1.94271917737046e+001,-1.02960626984600e+000

1.55624791585964e+005,-1.94274080763824e+001,-1.04357288099070e+000

1.57797232718936e+005,-1.94276295125129e+001,-1.05771907515680e+000

1.59999999999999e+005,-1.94278561790814e+001,-1.07204682639183e+000

1.62233516766403e+005,-1.94280881736164e+001,-1.08655812108735e+000

1.64498212264969e+005,-1.94283255941180e+001,-1.10125495792990e+000

1.66794521734578e+005,-1.94285685389818e+001,-1.11613934785932e+000

1.69122886489819e+005,-1.94288171069190e+001,-1.13121331404356e+000

1.71483754005805e+005,-1.94290713968714e+001,-1.14647889186365e+000

1.73877578004168e+005,-1.94293315079218e+001,-1.16193812891645e+000

1.76304818540256e+005,-1.94295975392002e+001,-1.17759308503244e+000

1.78765942091554e+005,-1.94298695897847e+001,-1.19344583231407e+000

1.81261421647326e+005,-1.94301477585977e+001,-1.20949845519426e+000

1.83791736799524e+005,-1.94304321442968e+001,-1.22575305051699e+000

1.86357373834951e+005,-1.94307228451616e+001,-1.24221172764292e+000

1.88958825828723e+005,-1.94310199589753e+001,-1.25887660858015e+000

1.91596592739027e+005,-1.94313235829002e+001,-1.27574982814752e+000

1.94271181503206e+005,-1.94316338133500e+001,-1.29283353416246e+000

1.96983106135185e+005,-1.94319507458559e+001,-1.31012988766809e+000

1.99732887824256e+005,-1.94322744749281e+001,-1.32764106319275e+000

2.02521055035243e+005,-1.94326050939127e+001,-1.34536924904688e+000

2.05348143610063e+005,-1.94329426948435e+001,-1.36331664766221e+000

2.08214696870707e+005,-1.94332873682892e+001,-1.38148547597237e+000

2.11121265723661e+005,-1.94336392031964e+001,-1.39987796583815e+000

2.14068408765776e+005,-1.94339982867271e+001,-1.41849636452316e+000

2.17056692391625e+005,-1.94343647040937e+001,-1.43734293521696e+000

2.20086690902357e+005,-1.94347385383878e+001,-1.45641995761332e+000

2.23158986616063e+005,-1.94351198704072e+001,-1.47572972854341e+000

2.26274169979693e+005,-1.94355087784777e+001,-1.49527456266688e+000

2.29432839682530e+005,-1.94359053382726e+001,-1.51505679322585e+000

2.32635602771247e+005,-1.94363096226285e+001,-1.53507877285985e+000

2.35883074766574e+005,-1.94367217013590e+001,-1.55534287448756e+000

2.39175879781588e+005,-1.94371416410652e+001,-1.57585149226008e+000

2.42514650641661e+005,-1.94375695049452e+001,-1.59660704257990e+000

2.45900029006080e+005,-1.94380053526017e+001,-1.61761196519865e+000

2.49332665491357e+005,-1.94384492398481e+001,-1.63886872438642e+000

2.52813219796278e+005,-1.94389012185146e+001,-1.66037981018150e+000

2.56342360828676e+005,-1.94393613362542e+001,-1.68214773971887e+000

2.59920766833993e+005,-1.94398296363486e+001,-1.70417505864070e+000

2.63549125525621e+005,-1.94403061575158e+001,-1.72646434259107e+000

2.67228134217075e+005,-1.94407909337189e+001,-1.74901819879316e+000

2.70958499956006e+005,-1.94412839939777e+001,-1.77183926771755e+000

2.74740939660078e+005,-1.94417853621827e+001,-1.79493022483154e+000

2.78576180254757e+005,-1.94422950569129e+001,-1.81829378244417e+000

2.82464958813007e+005,-1.94428130912584e+001,-1.84193269163405e+000

2.86408022696948e+005,-1.94433394726473e+001,-1.86584974427047e+000

2.90406129701488e+005,-1.94438742026793e+001,-1.89004777512255e+000

2.94460048199957e+005,-1.94444172769649e+001,-1.91452966405766e+000

2.98570557291775e+005,-1.94449686849732e+001,-1.93929833832904e+000

3.02738446952187e+005,-1.94455284098865e+001,-1.96435677495207e+000

3.06964518184081e+005,-1.94460964284654e+001,-1.98970800316456e+000

3.11249583171928e+005,-1.94466727109223e+001,-2.01535510697591e+000

3.15594465437872e+005,-1.94472572208065e+001,-2.04130122779610e+000

3.19999999999997e+005,-1.94478499149001e+001,-2.06754956714798e+000

3.24467033532806e+005,-1.94484507431261e+001,-2.09410338945657e+000

3.28996424529938e+005,-1.94490596484705e+001,-2.12096602491307e+000

3.33589043469155e+005,-1.94496765669162e+001,-2.14814087241250e+000

3.38245772979638e+005,-1.94503014273934e+001,-2.17563140255611e+000

3.42967508011610e+005,-1.94509341517439e+001,-2.20344116072010e+000

3.47755156008335e+005,-1.94515746547020e+001,-2.23157377018169e+000

3.52609637080511e+005,-1.94522228438912e+001,-2.26003293529907e+000

3.57531884183106e+005,-1.94528786198392e+001,-2.28882244474071e+000

3.62522843294651e+005,-1.94535418760092e+001,-2.31794617475646e+000

3.67583473599047e+005,-1.94542124988510e+001,-2.34740809248574e+000

3.72714747669902e+005,-1.94548903678688e+001,-2.37721225929674e+000

3.77917651657445e+005,-1.94555753557106e+001,-2.40736283414848e+000

3.83193185478053e+005,-1.94562673282746e+001,-2.43786407696951e+000

3.88542363006410e+005,-1.94569661448367e+001,-2.46872035204733e+000

3.93966212270369e+005,-1.94576716581976e+001,-2.49993613141818e+000

3.99465775648511e+005,-1.94583837148498e+001,-2.53151599825463e+000

4.05042110070485e+005,-1.94591021551643e+001,-2.56346465023718e+000

4.10696287220124e+005,-1.94598268135979e+001,-2.59578690290647e+000

4.16429393741414e+005,-1.94605575189200e+001,-2.62848769298777e+000

4.22242531447321e+005,-1.94612940944592e+001,-2.66157208167743e+000

4.28136817531551e+005,-1.94620363583686e+001,-2.69504525788823e+000

4.34113384783250e+005,-1.94627841239115e+001,-2.72891254143858e+000

4.40173381804713e+005,-1.94635371997641e+001,-2.76317938618692e+000

4.46317973232124e+005,-1.94642953903370e+001,-2.79785138309686e+000

4.52548339959385e+005,-1.94650584961136e+001,-2.83293426322814e+000

4.58865679365059e+005,-1.94658263140055e+001,-2.86843390064837e+000

4.65271205542494e+005,-1.94665986377233e+001,-2.90435631525619e+000

4.71766149533147e+005,-1.94673752581625e+001,-2.94070767551069e+000

4.78351759563174e+005,-1.94681559638034e+001,-2.97749430106159e+000

4.85029301283321e+005,-1.94689405411237e+001,-3.01472266527332e+000

4.91800058012158e+005,-1.94697287750234e+001,-3.05239939764072e+000

4.98665330982714e+005,-1.94705204492600e+001,-3.09053128608807e+000

5.05626439592555e+005,-1.94713153468935e+001,-3.12912527915097e+000

5.12684721657352e+005,-1.94721132507397e+001,-3.16818848803614e+000

5.19841533667984e+005,-1.94729139438304e+001,-3.20772818855502e+000

5.27098251051240e+005,-1.94737172098796e+001,-3.24775182293235e+000

5.34456268434150e+005,-1.94745228337537e+001,-3.28826700148515e+000

5.41916999912011e+005,-1.94753306019452e+001,-3.32928150417210e+000

