Freq.,VOut,OutRef

1.00000000000000e+004,-3.01889591014010e+001,-3.48313447075121e-001

1.01395947979003e+004,-3.01889617516452e+001,-3.53175566370660e-001

1.02811382665607e+004,-3.01889644763757e+001,-3.58105551732663e-001

1.04246576084112e+004,-3.01889672776850e+001,-3.63104350257810e-001

1.05701804056138e+004,-3.01889701577250e+001,-3.68172922249366e-001

1.07177346253629e+004,-3.01889731187077e+001,-3.73312241404921e-001

1.08673486252606e+004,-3.01889761629071e+001,-3.78523295001844e-001

1.10190511587661e+004,-3.01889792926611e+001,-3.83807084084891e-001

1.11728713807222e+004,-3.01889825103734e+001,-3.89164623660219e-001

1.13288388529580e+004,-3.01889858185150e+001,-3.94596942886981e-001

1.14869835499703e+004,-3.01889892196265e+001,-4.00105085276400e-001

1.16473358646846e+004,-3.01889927163193e+001,-4.05690108890876e-001

1.18099266142953e+004,-3.01889963112790e+001,-4.11353086544938e-001

1.19747870461893e+004,-3.01890000072656e+001,-4.17095106014235e-001

1.21419488439505e+004,-3.01890038071172e+001,-4.22917270238901e-001

1.23114441334492e+004,-3.01890077137512e+001,-4.28820697538367e-001

1.24833054890161e+004,-3.01890117301674e+001,-4.34806521822437e-001

1.26575659397028e+004,-3.01890158594491e+001,-4.40875892810641e-001

1.28342589756290e+004,-3.01890201047666e+001,-4.47029976250215e-001

1.30134185544193e+004,-3.01890244693791e+001,-4.53269954139276e-001

1.31950791077289e+004,-3.01890289566370e+001,-4.59597024952774e-001

1.33792755478611e+004,-3.01890335699851e+001,-4.66012403872968e-001

1.35660432744767e+004,-3.01890383129644e+001,-4.72517323019766e-001

1.37554181813974e+004,-3.01890431892156e+001,-4.79113031685967e-001

1.39474366635040e+004,-3.01890482024815e+001,-4.85800796577109e-001

1.41421356237309e+004,-3.01890533566098e+001,-4.92581902053664e-001

1.43395524801583e+004,-3.01890586555559e+001,-4.99457650375418e-001

1.45397251732031e+004,-3.01890641033867e+001,-5.06429361948697e-001

1.47426921729110e+004,-3.01890697042826e+001,-5.13498375582141e-001

1.49484924863494e+004,-3.01890754625416e+001,-5.20666048738729e-001

1.51571656651040e+004,-3.01890813825821e+001,-5.27933757795893e-001

1.53687518128801e+004,-3.01890874689464e+001,-5.35302898309038e-001

1.55832915932100e+004,-3.01890937263041e+001,-5.42774885276776e-001

1.58008262372675e+004,-3.01891001594560e+001,-5.50351153409734e-001

1.60213975517924e+004,-3.01891067733370e+001,-5.58033157406991e-001

1.62450479271247e+004,-3.01891135730207e+001,-5.65822372230772e-001

1.64718203453514e+004,-3.01891205637229e+001,-5.73720293387647e-001

1.67017583885674e+004,-3.01891277508054e+001,-5.81728437215699e-001

1.69349062472505e+004,-3.01891351397805e+001,-5.89848341169836e-001

1.71713087287550e+004,-3.01891427363148e+001,-5.98081564117770e-001

1.74110112659224e+004,-3.01891505462337e+001,-6.06429686635253e-001

1.76540599258131e+004,-3.01891585755258e+001,-6.14894311306729e-001

1.79005014185594e+004,-3.01891668303476e+001,-6.23477063031199e-001

1.81503831063432e+004,-3.01891753170279e+001,-6.32179589329802e-001

1.84037530124975e+004,-3.01891840420728e+001,-6.41003560660533e-001

1.86606598307361e+004,-3.01891930121708e+001,-6.49950670735600e-001

1.89211529345119e+004,-3.01892022341973e+001,-6.59022636842999e-001

1.91852823865052e+004,-3.01892117152207e+001,-6.68221200171244e-001

1.94530989482457e+004,-3.01892214625068e+001,-6.77548126143636e-001

1.97246540898671e+004,-3.01892314835252e+001,-6.87005204750075e-001

1.99999999999999e+004,-3.01892417859545e+001,-6.96594250888338e-001

2.02791895958005e+004,-3.01892523776879e+001,-7.06317104708186e-001

2.05622765331213e+004,-3.01892632668399e+001,-7.16175631960311e-001

2.08493152168224e+004,-3.01892744617518e+001,-7.26171724350232e-001

2.11403608112276e+004,-3.01892859709982e+001,-7.36307299896477e-001

2.14354692507258e+004,-3.01892978033936e+001,-7.46584303294580e-001

2.17346972505211e+004,-3.01893099679994e+001,-7.57004706283493e-001

2.20381023175322e+004,-3.01893224741297e+001,-7.67570508022250e-001

2.23457427614443e+004,-3.01893353313596e+001,-7.78283735464567e-001

2.26576777059159e+004,-3.01893485495316e+001,-7.89146443744431e-001

2.29739670999406e+004,-3.01893621387633e+001,-8.00160716564089e-001

2.32946717293690e+004,-3.01893761094553e+001,-8.11328666587758e-001

2.36198532285905e+004,-3.01893904722986e+001,-8.22652435840064e-001

2.39495740923785e+004,-3.01894052382828e+001,-8.34134196111682e-001

2.42838976879009e+004,-3.01894204187047e+001,-8.45776149367373e-001

2.46228882668982e+004,-3.01894360251764e+001,-8.57580528163510e-001

2.49666109780322e+004,-3.01894520696344e+001,-8.69549596065781e-001

2.53151318794055e+004,-3.01894685643482e+001,-8.81685648080014e-001

2.56685179512580e+004,-3.01894855219301e+001,-8.93991011079100e-001

2.60268371088386e+004,-3.01895029553439e+001,-9.06468044245397e-001

2.63901582154578e+004,-3.01895208779155e+001,-9.19119139510957e-001

2.67585510957221e+004,-3.01895393033421e+001,-9.31946722010495e-001

2.71320865489533e+004,-3.01895582457035e+001,-9.44953250533005e-001

2.75108363627948e+004,-3.01895777194714e+001,-9.58141217986828e-001

2.78948733270080e+004,-3.01895977395211e+001,-9.71513151865734e-001

2.82842712474618e+004,-3.01896183211428e+001,-9.85071614722261e-001

2.86791049603164e+004,-3.01896394800522e+001,-9.98819204648389e-001

2.90794503464061e+004,-3.01896612324031e+001,-1.01275855576234e+000

2.94853843458219e+004,-3.01896835947989e+001,-1.02689233870164e+000

2.98969849726987e+004,-3.01897065843055e+001,-1.04122326112010e+000

3.03143313302078e+004,-3.01897302184635e+001,-1.05575406819605e+000

3.07375036257601e+004,-3.01897545153016e+001,-1.07048754314450e+000

3.11665831864199e+004,-3.01897794933502e+001,-1.08542650773415e+000

3.16016524745350e+004,-3.01898051716548e+001,-1.10057382281580e+000

3.20427951035848e+004,-3.01898315697904e+001,-1.11593238885318e+000

3.24900958542493e+004,-3.01898587078760e+001,-1.13150514646298e+000

3.29436406907028e+004,-3.01898866065895e+001,-1.14729507696209e+000

3.34035167771346e+004,-3.01899152871832e+001,-1.16330520291997e+000

3.38698124945009e+004,-3.01899447714993e+001,-1.17953858872024e+000

3.43426174575100e+004,-3.01899750819861e+001,-1.19599834112897e+000

3.48220225318448e+004,-3.01900062417151e+001,-1.21268760986806e+000

3.53081198516260e+004,-3.01900382743970e+001,-1.22960958820009e+000

3.58010028371187e+004,-3.01900712044005e+001,-1.24676751351661e+000

3.63007662126863e+004,-3.01901050567691e+001,-1.26416466793686e+000

3.68075060249948e+004,-3.01901398572402e+001,-1.28180437891154e+000

3.73213196614721e+004,-3.01901756322637e+001,-1.29969001983669e+000

3.78423058690237e+004,-3.01902124090219e+001,-1.31782501067363e+000

3.83705647730104e+004,-3.01902502154489e+001,-1.33621281857738e+000

3.89061978964912e+004,-3.01902890802510e+001,-1.35485695853365e+000

3.94493081797342e+004,-3.01903290329283e+001,-1.37376099400077e+000

3.99999999999998e+004,-3.01903701037958e+001,-1.39292853756479e+000

4.05583791916010e+004,-3.01904123240057e+001,-1.41236325159689e+000

4.11245530662425e+004,-3.01904557255697e+001,-1.43206884892502e+000

4.16986304336447e+004,-3.01905003413828e+001,-1.45204909350722e+000

4.22807216224550e+004,-3.01905462052469e+001,-1.47230780112003e+000

4.28709385014515e+004,-3.01905933518953e+001,-1.49284884004927e+000

4.34693945010421e+004,-3.01906418170180e+001,-1.51367613179431e+000

4.40762046350642e+004,-3.01906916372872e+001,-1.53479365177638e+000

4.46914855228886e+004,-3.01907428503841e+001,-1.55620543006023e+000

4.53153554118317e+004,-3.01907954950257e+001,-1.57791555207940e+000

4.59479341998812e+004,-3.01908496109928e+001,-1.59992815937538e+000

4.65893434587380e+004,-3.01909052391584e+001,-1.62224745034151e+000

4.72397064571810e+004,-3.01909624215173e+001,-1.64487768097728e+000

4.78991481847569e+004,-3.01910212012157e+001,-1.66782316565353e+000

4.85677953758016e+004,-3.01910816225819e+001,-1.69108827788309e+000

4.92457765337964e+004,-3.01911437311584e+001,-1.71467745110210e+000

4.99332219560642e+004,-3.01912075737338e+001,-1.73859517946306e+000

5.06302637588109e+004,-3.01912731983757e+001,-1.76284601863237e+000

5.13370359025159e+004,-3.01913406544655e+001,-1.78743458660076e+000

5.20536742176771e+004,-3.01914099927323e+001,-1.81236556450178e+000

5.27803164309155e+004,-3.01914812652892e+001,-1.83764369743999e+000

5.35171021914442e+004,-3.01915545256695e+001,-1.86327379532853e+000

5.42641730979066e+004,-3.01916298288644e+001,-1.88926073373590e+000

5.50216727255895e+004,-3.01917072313613e+001,-1.91560945474284e+000

5.57897466540159e+004,-3.01917867911830e+001,-1.94232496780883e+000

5.65685424949235e+004,-3.01918685679284e+001,-1.96941235064832e+000

5.73582099206328e+004,-3.01919526228131e+001,-1.99687675011604e+000

5.81589006928121e+004,-3.01920390187122e+001,-2.02472338310301e+000

5.89707686916437e+004,-3.01921278202034e+001,-2.05295753744219e+000

5.97939699453972e+004,-3.01922190936113e+001,-2.08158457282345e+000

6.06286626604156e+004,-3.01923129070525e+001,-2.11060992171978e+000

6.14750072515201e+004,-3.01924093304826e+001,-2.14003909032086e+000

6.23331663728396e+004,-3.01925084357431e+001,-2.16987765948092e+000

6.32033049490698e+004,-3.01926102966107e+001,-2.20013128567208e+000

6.40855902071694e+004,-3.01927149888463e+001,-2.23080570195091e+000

6.49801917084985e+004,-3.01928225902468e+001,-2.26190671893405e+000

6.58872813814055e+004,-3.01929331806965e+001,-2.29344022578367e+000

6.68070335542691e+004,-3.01930468422208e+001,-2.32541219120397e+000

6.77396249890018e+004,-3.01931636590403e+001,-2.35782866444723e+000

6.86852349150199e+004,-3.01932837176273e+001,-2.39069577633085e+000

6.96440450636895e+004,-3.01934071067619e+001,-2.42401974026318e+000

7.06162397032520e+004,-3.01935339175911e+001,-2.45780685328147e+000

7.16020056742374e+004,-3.01936642436877e+001,-2.49206349709907e+000

7.26015324253724e+004,-3.01937981811118e+001,-2.52679613916329e+000

7.36150120499896e+004,-3.01939358284725e+001,-2.56201133372316e+000

7.46426393229441e+004,-3.01940772869917e+001,-2.59771572290871e+000

7.56846117380472e+004,-3.01942226605690e+001,-2.63391603781918e+000

7.67411295460207e+004,-3.01943720558483e+001,-2.67061909962187e+000

7.78123957929823e+004,-3.01945255822850e+001,-2.70783182066382e+000

7.88986163594682e+004,-3.01946833522158e+001,-2.74556120558907e+000

7.99999999999995e+004,-3.01948454809286e+001,-2.78381435247121e+000

8.11167583832018e+004,-3.01950120867353e+001,-2.82259845395368e+000

8.22491061324848e+004,-3.01951832910445e+001,-2.86192079840109e+000

8.33972608672892e+004,-3.01953592184375e+001,-2.90178877106033e+000

8.45614432449099e+004,-3.01955399967441e+001,-2.94220985523401e+000

8.57418770029029e+004,-3.01957257571208e+001,-2.98319163346191e+000

8.69387890020841e+004,-3.01959166341306e+001,-3.02474178871439e+000

8.81524092701283e+004,-3.01961127658240e+001,-3.06686810559605e+000

8.93829710457770e+004,-3.01963142938214e+001,-3.10957847155974e+000

9.06307108236633e+004,-3.01965213633982e+001,-3.15288087812953e+000

9.18958683997622e+004,-3.01967341235696e+001,-3.19678342213758e+000

9.31786869174758e+004,-3.01969527271788e+001,-3.24129430696753e+000

9.44794129143618e+004,-3.01971773309855e+001,-3.28642184381151e+000

9.57982963695136e+004,-3.01974080957571e+001,-3.33217445293512e+000

9.71355907516031e+004,-3.01976451863604e+001,-3.37856066495503e+000

9.84915530675926e+004,-3.01978887718559e+001,-3.42558912212557e+000

9.98664439121282e+004,-3.01981390255932e+001,-3.47326857963668e+000

1.01260527517622e+005,-3.01983961253078e+001,-3.52160790692224e+000

1.02674071805032e+005,-3.01986602532204e+001,-3.57061608897829e+000

1.04107348435354e+005,-3.01989315961369e+001,-3.62030222769423e+000

1.05560632861831e+005,-3.01992103455506e+001,-3.67067554319083e+000

1.07034204382888e+005,-3.01994966977460e+001,-3.72174537517316e+000

1.08528346195813e+005,-3.01997908539037e+001,-3.77352118429147e+000

1.10043345451179e+005,-3.02000930202079e+001,-3.82601255351409e+000

1.11579493308032e+005,-3.02004034079542e+001,-3.87922918951206e+000

1.13137084989847e+005,-3.02007222336607e+001,-3.93318092405290e+000

1.14716419841265e+005,-3.02010497191789e+001,-3.98787771540817e+000

1.16317801385624e+005,-3.02013860918078e+001,-4.04332964976971e+000

1.17941537383287e+005,-3.02017315844084e+001,-4.09954694268050e+000

1.19587939890794e+005,-3.02020864355208e+001,-4.15653994047388e+000

1.21257325320831e+005,-3.02024508894815e+001,-4.21431912172805e+000

1.22950014503040e+005,-3.02028251965442e+001,-4.27289509873014e+000

1.24666332745679e+005,-3.02032096130004e+001,-4.33227861895398e+000

1.26406609898139e+005,-3.02036044013023e+001,-4.39248056655035e+000

1.28171180414339e+005,-3.02040098301874e+001,-4.45351196384953e+000

1.29960383416997e+005,-3.02044261748040e+001,-4.51538397287827e+000

1.31774562762811e+005,-3.02048537168391e+001,-4.57810789688940e+000

1.33614067108538e+005,-3.02052927446469e+001,-4.64169518190583e+000

1.35479249978003e+005,-3.02057435533793e+001,-4.70615741827889e+000

1.37370469830040e+005,-3.02062064451176e+001,-4.77150634226149e+000

1.39288090127379e+005,-3.02066817290058e+001,-4.83775383759715e+000

1.41232479406504e+005,-3.02071697213857e+001,-4.90491193712375e+000

1.43204011348474e+005,-3.02076707459326e+001,-4.97299282439473e+000

1.45203064850745e+005,-3.02081851337931e+001,-5.04200883531732e+000

1.47230024099979e+005,-3.02087132237242e+001,-5.11197245980749e+000

1.49285278645888e+005,-3.02092553622337e+001,-5.18289634346433e+000

1.51369223476094e+005,-3.02098119037222e+001,-5.25479328926313e+000

1.53482259092041e+005,-3.02103832106263e+001,-5.32767625926820e+000

1.55624791585964e+005,-3.02109696535635e+001,-5.40155837636678e+000

1.57797232718936e+005,-3.02115716114785e+001,-5.47645292602467e+000

1.59999999999999e+005,-3.02121894717909e+001,-5.55237335806348e+000

1.62233516766403e+005,-3.02128236305443e+001,-5.62933328846306e+000

1.64498212264969e+005,-3.02134744925574e+001,-5.70734650118687e+000

1.66794521734578e+005,-3.02141424715765e+001,-5.78642695003493e+000

1.69122886489819e+005,-3.02148279904289e+001,-5.86658876052128e+000

1.71483754005805e+005,-3.02155314811794e+001,-5.94784623178241e+000

1.73877578004168e+005,-3.02162533852873e+001,-6.03021383851241e+000

1.76304818540256e+005,-3.02169941537662e+001,-6.11370623293043e+000

1.78765942091554e+005,-3.02177542473448e+001,-6.19833824677978e+000

1.81261421647326e+005,-3.02185341366306e+001,-6.28412489336054e+000

1.83791736799524e+005,-3.02193343022756e+001,-6.37108136959706e+000

1.86357373834951e+005,-3.02201552351437e+001,-6.45922305814204e+000

1.88958825828723e+005,-3.02209974364811e+001,-6.54856552951878e+000

1.91596592739027e+005,-3.02218614180897e+001,-6.63912454430286e+000

1.94271181503206e+005,-3.02227477025020e+001,-6.73091605534582e+000

1.96983106135185e+005,-3.02236568231608e+001,-6.82395621004084e+000

1.99732887824256e+005,-3.02245893246003e+001,-6.91826135263420e+000

2.02521055035243e+005,-3.02255457626324e+001,-7.01384802658263e+000

2.05348143610063e+005,-3.02265267045354e+001,-7.11073297695863e+000

2.08214696870707e+005,-3.02275327292476e+001,-7.20893315290695e+000

2.11121265723661e+005,-3.02285644275649e+001,-7.30846571015141e+000

2.14068408765776e+005,-3.02296224023435e+001,-7.40934801355616e+000

2.17056692391625e+005,-3.02307072687071e+001,-7.51159763974218e+000

2.20086690902357e+005,-3.02318196542605e+001,-7.61523237975957e+000

2.23158986616063e+005,-3.02329601993080e+001,-7.72027024182056e+000

2.26274169979693e+005,-3.02341295570797e+001,-7.82672945409042e+000

2.29432839682530e+005,-3.02353283939630e+001,-7.93462846754236e+000

2.32635602771247e+005,-3.02365573897430e+001,-8.04398595887348e+000

2.35883074766574e+005,-3.02378172378503e+001,-8.15482083348748e+000

2.39175879781588e+005,-3.02391086456172e+001,-8.26715222854174e+000

2.42514650641661e+005,-3.02404323345433e+001,-8.38099951606238e+000

2.45900029006080e+005,-3.02417890405715e+001,-8.49638230612664e+000

2.49332665491357e+005,-3.02431795143735e+001,-8.61332045011464e+000

2.52813219796278e+005,-3.02446045216478e+001,-8.73183404403083e+000

2.56342360828676e+005,-3.02460648434286e+001,-8.85194343189501e+000

2.59920766833993e+005,-3.02475612764088e+001,-8.97366920920366e+000

2.63549125525621e+005,-3.02490946332756e+001,-9.09703222646187e+000

2.67228134217075e+005,-3.02506657430611e+001,-9.22205359278532e+000

2.70958499956006e+005,-3.02522754515088e+001,-9.34875467957101e+000

2.74740939660078e+005,-3.02539246214552e+001,-9.47715712423764e+000

2.78576180254757e+005,-3.02556141332306e+001,-9.60728283403266e+000

2.82464958813007e+005,-3.02573448850758e+001,-9.73915398990579e+000

2.86408022696948e+005,-3.02591177935804e+001,-9.87279305044651e+000

2.90406129701488e+005,-3.02609337941396e+001,-1.00082227558835e+001

2.94460048199957e+005,-3.02627938414332e+001,-1.01454661321430e+001

2.98570557291775e+005,-3.02646989099269e+001,-1.02845464949641e+001

3.02738446952187e+005,-3.02666499943964e+001,-1.04254874540656e+001

3.06964518184081e+005,-3.02686481104767e+001,-1.05683129173625e+001

3.11249583171928e+005,-3.02706942952363e+001,-1.07130470952263e+001

3.15594465437872e+005,-3.02727896077783e+001,-1.08597145047849e+001

3.19999999999997e+005,-3.02749351298690e+001,-1.10083399742560e+001

3.24467033532806e+005,-3.02771319665954e+001,-1.11589486473088e+001

3.28996424529938e+005,-3.02793812470518e+001,-1.13115659874473e+001

3.33589043469155e+005,-3.02816841250577e+001,-1.14662177824080e+001

3.38245772979638e+005,-3.02840417799071e+001,-1.16229301485650e+001

3.42967508011610e+005,-3.02864554171504e+001,-1.17817295353336e+001

3.47755156008335e+005,-3.02889262694100e+001,-1.19426427295655e+001

3.52609637080511e+005,-3.02914555972301e+001,-1.21056968599239e+001

3.57531884183106e+005,-3.02940446899620e+001,-1.22709194012327e+001

3.62522843294651e+005,-3.02966948666847e+001,-1.24383381787852e+001

3.67583473599047e+005,-3.02994074771634e+001,-1.26079813726062e+001

3.72714747669902e+005,-3.03021839028439e+001,-1.27798775216529e+001

3.77917651657445e+005,-3.03050255578860e+001,-1.29540555279449e+001

3.83193185478053e+005,-3.03079338902348e+001,-1.31305446606125e+001

3.88542363006410e+005,-3.03109103827309e+001,-1.33093745598466e+001

3.93966212270369e+005,-3.03139565542596e+001,-1.34905752407437e+001

3.99465775648511e+005,-3.03170739609395e+001,-1.36741770970271e+001

4.05042110070485e+005,-3.03202641973508e+001,-1.38602109046352e+001

4.10696287220124e+005,-3.03235288978027e+001,-1.40487078251606e+001

4.16429393741414e+005,-3.03268697376407e+001,-1.42396994091277e+001

4.22242531447321e+005,-3.03302884345927e+001,-1.44332175990936e+001

4.28136817531551e+005,-3.03337867501546e+001,-1.46292947325589e+001

4.34113384783250e+005,-3.03373664910140e+001,-1.48279635446734e+001

4.40173381804713e+005,-3.03410295105126e+001,-1.50292571707230e+001

4.46317973232124e+005,-3.03447777101452e+001,-1.52332091483821e+001

4.52548339959385e+005,-3.03486130410964e+001,-1.54398534197184e+001

4.58865679365059e+005,-3.03525375058127e+001,-1.56492243329350e+001

4.65271205542494e+005,-3.03565531596095e+001,-1.58613566438356e+001

4.71766149533147e+005,-3.03606621123120e+001,-1.60762855169978e+001

4.78351759563174e+005,-3.03648665299288e+001,-1.62940465266425e+001

4.85029301283321e+005,-3.03691686363574e+001,-1.65146756571845e+001

4.91800058012158e+005,-3.03735707151184e+001,-1.67382093034496e+001

4.98665330982714e+005,-3.03780751111198e+001,-1.69646842705468e+001

5.05626439592555e+005,-3.03826842324467e+001,-1.71941377733837e+001

5.12684721657352e+005,-3.03874005521773e+001,-1.74266074358083e+001

5.19841533667984e+005,-3.03922266102214e+001,-1.76621312893707e+001

5.27098251051240e+005,-3.03971650151810e+001,-1.79007477716889e+001

5.34456268434150e+005,-3.04022184462302e+001,-1.81424957244086e+001

5.41916999912011e+005,-3.04073896550128e+001,-1.83874143907484e+001

