Freq.,VOut,OutRef

1.00000000000000e+004,-1.29667377114036e+001,-1.73227794196039e-001

1.01395947979003e+004,-1.29667381890578e+001,-1.75645904197959e-001

1.02811382665607e+004,-1.29667386801307e+001,-1.78097767215213e-001

1.04246576084112e+004,-1.29667391849991e+001,-1.80583854314343e-001

1.05701804056138e+004,-1.29667397040502e+001,-1.83104643134445e-001

1.07177346253629e+004,-1.29667402376820e+001,-1.85660617974942e-001

1.08673486252606e+004,-1.29667407863038e+001,-1.88252269893763e-001

1.10190511587661e+004,-1.29667413503364e+001,-1.90880096795044e-001

1.11728713807222e+004,-1.29667419302122e+001,-1.93544603531831e-001

1.13288388529580e+004,-1.29667425263757e+001,-1.96246301996823e-001

1.14869835499703e+004,-1.29667431392844e+001,-1.98985711221441e-001

1.16473358646846e+004,-1.29667437694079e+001,-2.01763357479328e-001

1.18099266142953e+004,-1.29667444172291e+001,-2.04579774383319e-001

1.19747870461893e+004,-1.29667450832449e+001,-2.07435502986336e-001

1.21419488439505e+004,-1.29667457679655e+001,-2.10331091890555e-001

1.23114441334492e+004,-1.29667464719158e+001,-2.13267097346474e-001

1.24833054890161e+004,-1.29667471956352e+001,-2.16244083363892e-001

1.26575659397028e+004,-1.29667479396784e+001,-2.19262621816259e-001

1.28342589756290e+004,-1.29667487046151e+001,-2.22323292554711e-001

1.30134185544193e+004,-1.29667494910318e+001,-2.25426683511770e-001

1.31950791077289e+004,-1.29667502995307e+001,-2.28573390823080e-001

1.33792755478611e+004,-1.29667511307310e+001,-2.31764018934371e-001

1.35660432744767e+004,-1.29667519852695e+001,-2.34999180719340e-001

1.37554181813974e+004,-1.29667528638003e+001,-2.38279497598219e-001

1.39474366635040e+004,-1.29667537669965e+001,-2.41605599653375e-001

1.41421356237309e+004,-1.29667546955493e+001,-2.44978125754757e-001

1.43395524801583e+004,-1.29667556501698e+001,-2.48397723676480e-001

1.45397251732031e+004,-1.29667566315885e+001,-2.51865050225636e-001

1.47426921729110e+004,-1.29667576405566e+001,-2.55380771363754e-001

1.49484924863494e+004,-1.29667586778462e+001,-2.58945562337785e-001

1.51571656651040e+004,-1.29667597442512e+001,-2.62560107804675e-001

1.53687518128801e+004,-1.29667608405872e+001,-2.66225101968618e-001

1.55832915932100e+004,-1.29667619676929e+001,-2.69941248706556e-001

1.58008262372675e+004,-1.29667631264306e+001,-2.73709261706764e-001

1.60213975517924e+004,-1.29667643176862e+001,-2.77529864605887e-001

1.62450479271247e+004,-1.29667655423707e+001,-2.81403791124262e-001

1.64718203453514e+004,-1.29667668014203e+001,-2.85331785207483e-001

1.67017583885674e+004,-1.29667680957974e+001,-2.89314601168894e-001

1.69349062472505e+004,-1.29667694264913e+001,-2.93353003832223e-001

1.71713087287550e+004,-1.29667707945189e+001,-2.97447768678815e-001

1.74110112659224e+004,-1.29667722009253e+001,-3.01599681994621e-001

1.76540599258131e+004,-1.29667736467848e+001,-3.05809541020954e-001

1.79005014185594e+004,-1.29667751332019e+001,-3.10078154105624e-001

1.81503831063432e+004,-1.29667766613112e+001,-3.14406340858381e-001

1.84037530124975e+004,-1.29667782322798e+001,-3.18794932304858e-001

1.86606598307361e+004,-1.29667798473066e+001,-3.23244771048279e-001

1.89211529345119e+004,-1.29667815076241e+001,-3.27756711427032e-001

1.91852823865052e+004,-1.29667832144993e+001,-3.32331619677573e-001

1.94530989482457e+004,-1.29667849692341e+001,-3.36970374102445e-001

1.97246540898671e+004,-1.29667867731668e+001,-3.41673865233947e-001

1.99999999999999e+004,-1.29667886276729e+001,-3.46442996005736e-001

2.02791895958005e+004,-1.29667905341661e+001,-3.51278681923564e-001

2.05622765331213e+004,-1.29667924940995e+001,-3.56181851239750e-001

2.08493152168224e+004,-1.29667945089665e+001,-3.61153445129343e-001

2.11403608112276e+004,-1.29667965803019e+001,-3.66194417870437e-001

2.14354692507258e+004,-1.29667987096832e+001,-3.71305737024839e-001

2.17346972505211e+004,-1.29668008987316e+001,-3.76488383620707e-001

2.20381023175322e+004,-1.29668031491132e+001,-3.81743352340429e-001

2.23457427614443e+004,-1.29668054625408e+001,-3.87071651707748e-001

2.26576777059159e+004,-1.29668078407738e+001,-3.92474304282958e-001

2.29739670999406e+004,-1.29668102856211e+001,-3.97952346852725e-001

2.32946717293690e+004,-1.29668127989415e+001,-4.03506830627634e-001

2.36198532285905e+004,-1.29668153826450e+001,-4.09138821444007e-001

2.39495740923785e+004,-1.29668180386948e+001,-4.14849399963740e-001

2.42838976879009e+004,-1.29668207691083e+001,-4.20639661878582e-001

2.46228882668982e+004,-1.29668235759586e+001,-4.26510718119399e-001

2.49666109780322e+004,-1.29668264613761e+001,-4.32463695066376e-001

2.53151318794055e+004,-1.29668294275499e+001,-4.38499734761389e-001

2.56685179512580e+004,-1.29668324767300e+001,-4.44619995122747e-001

2.60268371088386e+004,-1.29668356112281e+001,-4.50825650167266e-001

2.63901582154578e+004,-1.29668388334196e+001,-4.57117890229982e-001

2.67585510957221e+004,-1.29668421457457e+001,-4.63497922189586e-001

2.71320865489533e+004,-1.29668455507146e+001,-4.69966969696404e-001

2.75108363627948e+004,-1.29668490509035e+001,-4.76526273403316e-001

2.78948733270080e+004,-1.29668526489608e+001,-4.83177091199213e-001

2.82842712474618e+004,-1.29668563476075e+001,-4.89920698447176e-001

2.86791049603164e+004,-1.29668601496395e+001,-4.96758388224486e-001

2.90794503464061e+004,-1.29668640579292e+001,-5.03691471565782e-001

2.94853843458219e+004,-1.29668680754283e+001,-5.10721277710353e-001

2.98969849726987e+004,-1.29668722051691e+001,-5.17849154352131e-001

3.03143313302078e+004,-1.29668764502670e+001,-5.25076467892127e-001

3.07375036257601e+004,-1.29668808139230e+001,-5.32404603696724e-001

3.11665831864199e+004,-1.29668852994255e+001,-5.39834966357354e-001

3.16016524745350e+004,-1.29668899101528e+001,-5.47368979953212e-001

3.20427951035848e+004,-1.29668946495755e+001,-5.55008088319787e-001

3.24900958542493e+004,-1.29668995212591e+001,-5.62753755318870e-001

3.29436406907028e+004,-1.29669045288662e+001,-5.70607465112170e-001

3.34035167771346e+004,-1.29669096761593e+001,-5.78570722440201e-001

3.38698124945009e+004,-1.29669149670034e+001,-5.86645052902336e-001

3.43426174575100e+004,-1.29669204053685e+001,-5.94832003243975e-001

3.48220225318448e+004,-1.29669259953326e+001,-6.03133141643297e-001

3.53081198516260e+004,-1.29669317410844e+001,-6.11550058006203e-001

3.58010028371187e+004,-1.29669376469264e+001,-6.20084364260182e-001

3.63007662126863e+004,-1.29669437172773e+001,-6.28737694656763e-001

3.68075060249948e+004,-1.29669499566758e+001,-6.37511706074635e-001

3.73213196614721e+004,-1.29669563697829e+001,-6.46408078329780e-001

3.78423058690237e+004,-1.29669629613861e+001,-6.55428514483663e-001

3.83705647730104e+004,-1.29669697364016e+001,-6.64574741164161e-001

3.89061978964912e+004,-1.29669766998781e+001,-6.73848508882201e-001

3.94493081797342e+004,-1.29669838570002e+001,-6.83251592359656e-001

3.99999999999998e+004,-1.29669912130921e+001,-6.92785790853497e-001

4.05583791916010e+004,-1.29669987736206e+001,-7.02452928493890e-001

4.11245530662425e+004,-1.29670065441993e+001,-7.12254854616439e-001

4.16986304336447e+004,-1.29670145305919e+001,-7.22193444106598e-001

4.22807216224550e+004,-1.29670227387163e+001,-7.32270597744921e-001

4.28709385014515e+004,-1.29670311746482e+001,-7.42488242556576e-001

4.34693945010421e+004,-1.29670398446254e+001,-7.52848332166250e-001

4.40762046350642e+004,-1.29670487550518e+001,-7.63352847156933e-001

4.46914855228886e+004,-1.29670579125013e+001,-7.74003795433250e-001

4.53153554118317e+004,-1.29670673237220e+001,-7.84803212592167e-001

4.59479341998812e+004,-1.29670769956411e+001,-7.95753162291680e-001

4.65893434587380e+004,-1.29670869353686e+001,-8.06855736630939e-001

4.72397064571810e+004,-1.29670971502023e+001,-8.18113056532108e-001

4.78991481847569e+004,-1.29671076476320e+001,-8.29527272127371e-001

4.85677953758016e+004,-1.29671184353448e+001,-8.41100563149066e-001

4.92457765337964e+004,-1.29671295212289e+001,-8.52835139328787e-001

4.99332219560642e+004,-1.29671409133795e+001,-8.64733240796549e-001

5.06302637588109e+004,-1.29671526201031e+001,-8.76797138488951e-001

5.13370359025159e+004,-1.29671646499228e+001,-8.89029134559512e-001

5.20536742176771e+004,-1.29671770115834e+001,-9.01431562794934e-001

5.27803164309155e+004,-1.29671897140567e+001,-9.14006789037586e-001

5.35171021914442e+004,-1.29672027665467e+001,-9.26757211611452e-001

5.42641730979066e+004,-1.29672161784953e+001,-9.39685261753989e-001

5.50216727255895e+004,-1.29672299595874e+001,-9.52793404052832e-001

5.57897466540159e+004,-1.29672441197570e+001,-9.66084136888199e-001

5.65685424949235e+004,-1.29672586691927e+001,-9.79559992880781e-001

5.73582099206328e+004,-1.29672736183433e+001,-9.93223539343791e-001

5.81589006928121e+004,-1.29672889779240e+001,-1.00707737874309e+000

5.89707686916437e+004,-1.29673047589221e+001,-1.02112414915799e+000

5.97939699453972e+004,-1.29673209726035e+001,-1.03536652475236e+000

6.06286626604156e+004,-1.29673376305185e+001,-1.04980721624929e+000

6.14750072515201e+004,-1.29673547445079e+001,-1.06444897141034e+000

6.23331663728396e+004,-1.29673723267098e+001,-1.07929457552234e+000

6.32033049490698e+004,-1.29673903895658e+001,-1.09434685188784e+000

6.40855902071694e+004,-1.29674089458272e+001,-1.10960866232429e+000

6.49801917084985e+004,-1.29674280085617e+001,-1.12508290766432e+000

6.58872813814055e+004,-1.29674475911605e+001,-1.14077252826588e+000

6.68070335542691e+004,-1.29674677073444e+001,-1.15668050452682e+000

6.77396249890018e+004,-1.29674883711704e+001,-1.17280985740592e+000

6.86852349150199e+004,-1.29675095970395e+001,-1.18916364894644e+000

6.96440450636895e+004,-1.29675313997022e+001,-1.20574498281278e+000

7.06162397032520e+004,-1.29675537942667e+001,-1.22255700482402e+000

7.16020056742374e+004,-1.29675767962049e+001,-1.23960290350181e+000

7.26015324253724e+004,-1.29676004213599e+001,-1.25688591061977e+000

7.36150120499896e+004,-1.29676246859526e+001,-1.27440930175885e+000

7.46426393229441e+004,-1.29676496065895e+001,-1.29217639687077e+000

7.56846117380472e+004,-1.29676752002688e+001,-1.31019056084887e+000

7.67411295460207e+004,-1.29677014843880e+001,-1.32845520409980e+000

7.78123957929823e+004,-1.29677284767508e+001,-1.34697378312766e+000

7.88986163594682e+004,-1.29677561955743e+001,-1.36574980112202e+000

7.99999999999995e+004,-1.29677846594958e+001,-1.38478680854988e+000

8.11167583832018e+004,-1.29678138875796e+001,-1.40408840375942e+000

8.22491061324848e+004,-1.29678438993247e+001,-1.42365823358541e+000

8.33972608672892e+004,-1.29678747146706e+001,-1.44349999396413e+000

8.45614432449099e+004,-1.29679063540049e+001,-1.46361743055240e+000

8.57418770029029e+004,-1.29679388381697e+001,-1.48401433935742e+000

8.69387890020841e+004,-1.29679721884680e+001,-1.50469456736869e+000

8.81524092701283e+004,-1.29680064266707e+001,-1.52566201319923e+000

8.93829710457770e+004,-1.29680415750225e+001,-1.54692062773368e+000

9.06307108236633e+004,-1.29680776562480e+001,-1.56847441478278e+000

9.18958683997622e+004,-1.29681146935583e+001,-1.59032743174507e+000

9.31786869174758e+004,-1.29681527106562e+001,-1.61248379027501e+000

9.44794129143618e+004,-1.29681917317422e+001,-1.63494765695937e+000

9.57982963695136e+004,-1.29682317815196e+001,-1.65772325400136e+000

9.71355907516031e+004,-1.29682728851999e+001,-1.68081485990818e+000

9.84915530675926e+004,-1.29683150685072e+001,-1.70422681019263e+000

9.98664439121282e+004,-1.29683583576831e+001,-1.72796349807529e+000

1.01260527517622e+005,-1.29684027794911e+001,-1.75202937519917e+000

1.02674071805032e+005,-1.29684483612194e+001,-1.77642895235058e+000

1.04107348435354e+005,-1.29684951306856e+001,-1.80116680018643e+000

1.05560632861831e+005,-1.29685431162389e+001,-1.82624754997185e+000

1.07034204382888e+005,-1.29685923467625e+001,-1.85167589432502e+000

1.08528346195813e+005,-1.29686428516765e+001,-1.87745658796796e+000

1.10043345451179e+005,-1.29686946609385e+001,-1.90359444849106e+000

1.11579493308032e+005,-1.29687478050452e+001,-1.93009435711932e+000

1.13137084989847e+005,-1.29688023150325e+001,-1.95696125949348e+000

1.14716419841265e+005,-1.29688582224752e+001,-1.98420016645577e+000

1.16317801385624e+005,-1.29689155594861e+001,-2.01181615484680e+000

1.17941537383287e+005,-1.29689743587145e+001,-2.03981436831146e+000

1.19587939890794e+005,-1.29690346533434e+001,-2.06820001811347e+000

1.21257325320831e+005,-1.29690964770866e+001,-2.09697838396059e+000

1.22950014503040e+005,-1.29691598641846e+001,-2.12615481483917e+000

1.24666332745679e+005,-1.29692248493992e+001,-2.15573472985946e+000

1.26406609898139e+005,-1.29692914680082e+001,-2.18572361911110e+000

1.28171180414339e+005,-1.29693597557979e+001,-2.21612704452915e+000

1.29960383416997e+005,-1.29694297490555e+001,-2.24695064077160e+000

1.31774562762811e+005,-1.29695014845598e+001,-2.27820011610847e+000

1.33614067108538e+005,-1.29695749995710e+001,-2.30988125332259e+000

1.35479249978003e+005,-1.29696503318193e+001,-2.34199991062205e+000

1.37370469830040e+005,-1.29697275194923e+001,-2.37456202256589e+000

1.39288090127379e+005,-1.29698066012207e+001,-2.40757360100220e+000

1.41232479406504e+005,-1.29698876160631e+001,-2.44104073602148e+000

1.43204011348474e+005,-1.29699706034891e+001,-2.47496959692100e+000

1.45203064850745e+005,-1.29700556033612e+001,-2.50936643318514e+000

1.47230024099979e+005,-1.29701426559145e+001,-2.54423757548257e+000

1.49285278645888e+005,-1.29702318017355e+001,-2.57958943667548e+000

1.51369223476094e+005,-1.29703230817391e+001,-2.61542851284687e+000

1.53482259092041e+005,-1.29704165371435e+001,-2.65176138434530e+000

1.55624791585964e+005,-1.29705122094435e+001,-2.68859471684585e+000

1.57797232718936e+005,-1.29706101403824e+001,-2.72593526242933e+000

1.59999999999999e+005,-1.29707103719216e+001,-2.76378986068076e+000

1.62233516766403e+005,-1.29708129462078e+001,-2.80216543980807e+000

1.64498212264969e+005,-1.29709179055395e+001,-2.84106901778014e+000

1.66794521734578e+005,-1.29710252923302e+001,-2.88050770348658e+000

1.69122886489819e+005,-1.29711351490701e+001,-2.92048869792034e+000

1.71483754005805e+005,-1.29712475182856e+001,-2.96101929538192e+000

1.73877578004168e+005,-1.29713624424967e+001,-3.00210688470999e+000

1.76304818540256e+005,-1.29714799641720e+001,-3.04375895053496e+000

1.78765942091554e+005,-1.29716001256816e+001,-3.08598307455881e+000

1.81261421647326e+005,-1.29717229692477e+001,-3.12878693686420e+000

1.83791736799524e+005,-1.29718485368928e+001,-3.17217831724978e+000

1.86357373834951e+005,-1.29719768703859e+001,-3.21616509659524e+000

1.88958825828723e+005,-1.29721080111858e+001,-3.26075525825884e+000

1.91596592739027e+005,-1.29722420003828e+001,-3.30595688950344e+000

1.94271181503206e+005,-1.29723788786375e+001,-3.35177818296042e+000

1.96983106135185e+005,-1.29725186861172e+001,-3.39822743812327e+000

1.99732887824256e+005,-1.29726614624308e+001,-3.44531306288085e+000

2.02521055035243e+005,-1.29728072465604e+001,-3.49304357508479e+000

2.05348143610063e+005,-1.29729560767911e+001,-3.54142760415899e+000

2.08214696870707e+005,-1.29731079906390e+001,-3.59047389274548e+000

2.11121265723661e+005,-1.29732630247759e+001,-3.64019129839446e+000

2.14068408765776e+005,-1.29734212149533e+001,-3.69058879529633e+000

2.17056692391625e+005,-1.29735825959233e+001,-3.74167547605809e+000

2.20086690902357e+005,-1.29737472013580e+001,-3.79346055352679e+000

2.23158986616063e+005,-1.29739150637669e+001,-3.84595336265829e+000

2.26274169979693e+005,-1.29740862144128e+001,-3.89916336243836e+000

2.29432839682530e+005,-1.29742606832259e+001,-3.95310013785125e+000

2.32635602771247e+005,-1.29744384987162e+001,-4.00777340190171e+000

2.35883074766574e+005,-1.29746196878852e+001,-4.06319299769171e+000

2.39175879781588e+005,-1.29748042761357e+001,-4.11936890054990e+000

2.42514650641661e+005,-1.29749922871810e+001,-4.17631122021940e+000

2.45900029006080e+005,-1.29751837429534e+001,-4.23403020310359e+000

2.49332665491357e+005,-1.29753786635118e+001,-4.29253623457028e+000

2.52813219796278e+005,-1.29755770669489e+001,-4.35183984131785e+000

2.56342360828676e+005,-1.29757789692986e+001,-4.41195169380243e+000

2.59920766833993e+005,-1.29759843844433e+001,-4.47288260872982e+000

2.63549125525621e+005,-1.29761933240215e+001,-4.53464355161019e+000

2.67228134217075e+005,-1.29764057973361e+001,-4.59724563937990e+000

2.70958499956006e+005,-1.29766218112633e+001,-4.66070014308955e+000

2.74740939660078e+005,-1.29768413701636e+001,-4.72501849065974e+000

2.78576180254757e+005,-1.29770644757932e+001,-4.79021226970471e+000

2.82464958813007e+005,-1.29772911272182e+001,-4.85629323042627e+000

2.86408022696948e+005,-1.29775213207303e+001,-4.92327328857614e+000

2.90406129701488e+005,-1.29777550497656e+001,-4.99116452848981e+000

2.94460048199957e+005,-1.29779923048257e+001,-5.05997920619090e+000

2.98570557291775e+005,-1.29782330734025e+001,-5.12972975256534e+000

3.02738446952187e+005,-1.29784773399061e+001,-5.20042877660812e+000

3.06964518184081e+005,-1.29787250855977e+001,-5.27208906873895e+000

3.11249583171928e+005,-1.29789762885252e+001,-5.34472360419085e+000

3.15594465437872e+005,-1.29792309234651e+001,-5.41834554646694e+000

3.19999999999997e+005,-1.29794889618684e+001,-5.49296825086842e+000

3.24467033532806e+005,-1.29797503718121e+001,-5.56860526809115e+000

3.28996424529938e+005,-1.29800151179572e+001,-5.64527034788936e+000

3.33589043469155e+005,-1.29802831615117e+001,-5.72297744280783e+000

3.38245772979638e+005,-1.29805544602010e+001,-5.80174071197979e+000

3.42967508011610e+005,-1.29808289682445e+001,-5.88157452498788e+000

3.47755156008335e+005,-1.29811066363397e+001,-5.96249346578967e+000

3.52609637080511e+005,-1.29813874116538e+001,-6.04451233670332e+000

3.57531884183106e+005,-1.29816712378221e+001,-6.12764616245292e+000

3.62522843294651e+005,-1.29819580549555e+001,-6.21191019427146e+000

3.67583473599047e+005,-1.29822477996557e+001,-6.29731991405783e+000

3.72714747669902e+005,-1.29825404050384e+001,-6.38389103858792e+000

3.77917651657445e+005,-1.29828358007658e+001,-6.47163952377507e+000

3.83193185478053e+005,-1.29831339130875e+001,-6.56058156897951e+000

3.88542363006410e+005,-1.29834346648901e+001,-6.65073362136113e+000

3.93966212270369e+005,-1.29837379757558e+001,-6.74211238027786e+000

3.99465775648511e+005,-1.29840437620305e+001,-6.83473480172008e+000

4.05042110070485e+005,-1.29843519369000e+001,-6.92861810278484e+000

4.10696287220124e+005,-1.29846624104766e+001,-7.02377976618306e+000

4.16429393741414e+005,-1.29849750898928e+001,-7.12023754477794e+000

4.22242531447321e+005,-1.29852898794057e+001,-7.21800946615117e+000

4.28136817531551e+005,-1.29856066805090e+001,-7.31711383719625e+000

4.34113384783250e+005,-1.29859253920543e+001,-7.41756924873230e+000

4.40173381804713e+005,-1.29862459103796e+001,-7.51939458014029e+000

4.46317973232124e+005,-1.29865681294478e+001,-7.62260900401376e+000

4.52548339959385e+005,-1.29868919409909e+001,-7.72723199082753e+000

4.58865679365059e+005,-1.29872172346640e+001,-7.83328331361568e+000

4.65271205542494e+005,-1.29875438982039e+001,-7.94078305266283e+000

4.71766149533147e+005,-1.29878718175969e+001,-8.04975160020039e+000

4.78351759563174e+005,-1.29882008772516e+001,-8.16020966511210e+000

4.85029301283321e+005,-1.29885309601777e+001,-8.27217827764133e+000

4.91800058012158e+005,-1.29888619481706e+001,-8.38567879410405e+000

4.98665330982714e+005,-1.29891937220007e+001,-8.50073290160231e+000

5.05626439592555e+005,-1.29895261616070e+001,-8.61736262273875e+000

5.12684721657352e+005,-1.29898591462948e+001,-8.73559032033249e+000

5.19841533667984e+005,-1.29901925549364e+001,-8.85543870213419e+000

5.27098251051240e+005,-1.29905262661747e+001,-8.97693082554111e+000

5.34456268434150e+005,-1.29908601586285e+001,-9.10009010231330e+000

5.41916999912011e+005,-1.29911941111001e+001,-9.22494030328937e+000

