Freq.,VOut,OutRef

1.00000000000000e+004,-2.09192538249014e+001,-3.52133656304701e-001

1.01395947979003e+004,-2.09192561093652e+001,-3.57049114555253e-001

1.02811382665607e+004,-2.09192584580329e+001,-3.62033183915614e-001

1.04246576084112e+004,-2.09192608727082e+001,-3.67086821901393e-001

1.05701804056138e+004,-2.09192633552455e+001,-3.72210999383845e-001

1.07177346253629e+004,-2.09192659075514e+001,-3.77406700774994e-001

1.08673486252606e+004,-2.09192685315859e+001,-3.82674924216356e-001

1.10190511587661e+004,-2.09192712293641e+001,-3.88016681770132e-001

1.11728713807222e+004,-2.09192740029575e+001,-3.93432999615904e-001

1.13288388529580e+004,-2.09192768544961e+001,-3.98924918241361e-001

1.14869835499703e+004,-2.09192797861693e+001,-4.04493492646829e-001

1.16473358646846e+004,-2.09192828002280e+001,-4.10139792544739e-001

1.18099266142953e+004,-2.09192858989865e+001,-4.15864902564042e-001

1.19747870461893e+004,-2.09192890848240e+001,-4.21669922459144e-001

1.21419488439505e+004,-2.09192923601863e+001,-4.27555967319099e-001

1.23114441334492e+004,-2.09192957275880e+001,-4.33524167783310e-001

1.24833054890161e+004,-2.09192991896141e+001,-4.39575670253983e-001

1.26575659397028e+004,-2.09193027489224e+001,-4.45711637118719e-001

1.28342589756290e+004,-2.09193064082448e+001,-4.51933246972202e-001

1.30134185544193e+004,-2.09193101703905e+001,-4.58241694839951e-001

1.31950791077289e+004,-2.09193140382469e+001,-4.64638192408720e-001

1.33792755478611e+004,-2.09193180147828e+001,-4.71123968256762e-001

1.35660432744767e+004,-2.09193221030501e+001,-4.77700268090785e-001

1.37554181813974e+004,-2.09193263061862e+001,-4.84368354981262e-001

1.39474366635040e+004,-2.09193306274168e+001,-4.91129509606124e-001

1.41421356237309e+004,-2.09193350700579e+001,-4.97985030493004e-001

1.43395524801583e+004,-2.09193396375184e+001,-5.04936234271587e-001

1.45397251732031e+004,-2.09193443333030e+001,-5.11984455918872e-001

1.47426921729110e+004,-2.09193491610144e+001,-5.19131049020996e-001

1.49484924863494e+004,-2.09193541243565e+001,-5.26377386026138e-001

1.51571656651040e+004,-2.09193592271371e+001,-5.33724858509095e-001

1.53687518128801e+004,-2.09193644732706e+001,-5.41174877437850e-001

1.55832915932100e+004,-2.09193698667812e+001,-5.48728873439090e-001

1.58008262372675e+004,-2.09193754118058e+001,-5.56388297076288e-001

1.60213975517924e+004,-2.09193811125973e+001,-5.64154619121685e-001

1.62450479271247e+004,-2.09193869735280e+001,-5.72029330839826e-001

1.64718203453514e+004,-2.09193929990921e+001,-5.80013944271168e-001

1.67017583885674e+004,-2.09193991939105e+001,-5.88109992519913e-001

1.69349062472505e+004,-2.09194055627331e+001,-5.96319030045192e-001

1.71713087287550e+004,-2.09194121104428e+001,-6.04642632960954e-001

1.74110112659224e+004,-2.09194188420596e+001,-6.13082399331572e-001

1.76540599258131e+004,-2.09194257627439e+001,-6.21639949479688e-001

1.79005014185594e+004,-2.09194328778006e+001,-6.30316926293160e-001

1.81503831063432e+004,-2.09194401926831e+001,-6.39114995538650e-001

1.84037530124975e+004,-2.09194477129976e+001,-6.48035846177434e-001

1.86606598307361e+004,-2.09194554445073e+001,-6.57081190687894e-001

1.89211529345119e+004,-2.09194633931365e+001,-6.66252765391156e-001

1.91852823865052e+004,-2.09194715649756e+001,-6.75552330780065e-001

1.94530989482457e+004,-2.09194799662852e+001,-6.84981671856032e-001

1.97246540898671e+004,-2.09194886035011e+001,-6.94542598465534e-001

1.99999999999999e+004,-2.09194974832394e+001,-7.04236945647073e-001

2.02791895958005e+004,-2.09195066123009e+001,-7.14066573976643e-001

2.05622765331213e+004,-2.09195159976769e+001,-7.24033369923034e-001

2.08493152168224e+004,-2.09195256465542e+001,-7.34139246204971e-001

2.11403608112276e+004,-2.09195355663204e+001,-7.44386142155183e-001

2.14354692507258e+004,-2.09195457645697e+001,-7.54776024086136e-001

2.17346972505211e+004,-2.09195562491088e+001,-7.65310885664105e-001

2.20381023175322e+004,-2.09195670279621e+001,-7.75992748288305e-001

2.23457427614443e+004,-2.09195781093787e+001,-7.86823661471190e-001

2.26576777059159e+004,-2.09195895018381e+001,-7.97805703227333e-001

2.29739670999406e+004,-2.09196012140563e+001,-8.08940980469563e-001

2.32946717293690e+004,-2.09196132549932e+001,-8.20231629403551e-001

2.36198532285905e+004,-2.09196256338586e+001,-8.31679815933733e-001

2.39495740923785e+004,-2.09196383601196e+001,-8.43287736074008e-001

2.42838976879009e+004,-2.09196514435073e+001,-8.55057616360016e-001

2.46228882668982e+004,-2.09196648940248e+001,-8.66991714272140e-001

2.49666109780322e+004,-2.09196787219539e+001,-8.79092318659819e-001

2.53151318794055e+004,-2.09196929378634e+001,-8.91361750175029e-001

2.56685179512580e+004,-2.09197075526169e+001,-9.03802361708711e-001

2.60268371088386e+004,-2.09197225773808e+001,-9.16416538835179e-001

2.63901582154578e+004,-2.09197380236328e+001,-9.29206700260412e-001

2.67585510957221e+004,-2.09197539031706e+001,-9.42175298279243e-001

2.71320865489533e+004,-2.09197702281206e+001,-9.55324819234932e-001

2.75108363627948e+004,-2.09197870109470e+001,-9.68657783988210e-001

2.78948733270080e+004,-2.09198042644610e+001,-9.82176748390575e-001

2.82842712474618e+004,-2.09198220018307e+001,-9.95884303763708e-001

2.86791049603164e+004,-2.09198402365905e+001,-1.00978307738826e+000

2.90794503464061e+004,-2.09198589826516e+001,-1.02387573299380e+000

2.94853843458219e+004,-2.09198782543123e+001,-1.03816497125969e+000

2.98969849726987e+004,-2.09198980662681e+001,-1.05265353032231e+000

3.03143313302078e+004,-2.09199184336236e+001,-1.06734418628504e+000

3.07375036257601e+004,-2.09199393719029e+001,-1.08223975373944e+000

3.11665831864199e+004,-2.09199608970615e+001,-1.09734308629152e+000

3.16016524745350e+004,-2.09199830254981e+001,-1.11265707709384e+000

3.20427951035848e+004,-2.09200057740668e+001,-1.12818465938635e+000

3.24900958542493e+004,-2.09200291600893e+001,-1.14392880704351e+000

3.29436406907028e+004,-2.09200532013681e+001,-1.15989253512800e+000

3.34035167771346e+004,-2.09200779161996e+001,-1.17607890045206e+000

3.38698124945009e+004,-2.09201033233870e+001,-1.19249100214805e+000

3.43426174575100e+004,-2.09201294422553e+001,-1.20913198224118e+000

3.48220225318448e+004,-2.09201562926643e+001,-1.22600502623630e+000

3.53081198516260e+004,-2.09201838950242e+001,-1.24311336370762e+000

3.58010028371187e+004,-2.09202122703099e+001,-1.26046026889638e+000

3.63007662126863e+004,-2.09202414400768e+001,-1.27804906131916e+000

3.68075060249948e+004,-2.09202714264763e+001,-1.29588310638039e+000

3.73213196614721e+004,-2.09203022522725e+001,-1.31396581599499e+000

3.78423058690237e+004,-2.09203339408580e+001,-1.33230064921880e+000

3.83705647730104e+004,-2.09203665162719e+001,-1.35089111288501e+000

3.89061978964912e+004,-2.09204000032168e+001,-1.36974076225107e+000

3.94493081797342e+004,-2.09204344270765e+001,-1.38885320165293e+000

3.99999999999998e+004,-2.09204698139352e+001,-1.40823208516681e+000

4.05583791916010e+004,-2.09205061905958e+001,-1.42788111728078e+000

4.11245530662425e+004,-2.09205435845996e+001,-1.44780405357249e+000

4.16986304336447e+004,-2.09205820242459e+001,-1.46800470139911e+000

4.22807216224550e+004,-2.09206215386128e+001,-1.48848692059053e+000

4.28709385014515e+004,-2.09206621575780e+001,-1.50925462415652e+000

4.34693945010421e+004,-2.09207039118401e+001,-1.53031177899915e+000

4.40762046350642e+004,-2.09207468329408e+001,-1.55166240663641e+000

4.46914855228886e+004,-2.09207909532876e+001,-1.57331058393159e+000

4.53153554118317e+004,-2.09208363061766e+001,-1.59526044383437e+000

4.59479341998812e+004,-2.09208829258166e+001,-1.61751617613159e+000

4.65893434587380e+004,-2.09209308473533e+001,-1.64008202820304e+000

4.72397064571810e+004,-2.09209801068943e+001,-1.66296230579064e+000

4.78991481847569e+004,-2.09210307415346e+001,-1.68616137377578e+000

4.85677953758016e+004,-2.09210827893829e+001,-1.70968365696381e+000

4.92457765337964e+004,-2.09211362895885e+001,-1.73353364088158e+000

4.99332219560642e+004,-2.09211912823688e+001,-1.75771587258127e+000

5.06302637588109e+004,-2.09212478090377e+001,-1.78223496145578e+000

5.13370359025159e+004,-2.09213059120340e+001,-1.80709558006356e+000

5.20536742176771e+004,-2.09213656349516e+001,-1.83230246496132e+000

5.27803164309155e+004,-2.09214270225699e+001,-1.85786041754973e+000

5.35171021914442e+004,-2.09214901208842e+001,-1.88377430492597e+000

5.42641730979066e+004,-2.09215549771384e+001,-1.91004906074796e+000

5.50216727255895e+004,-2.09216216398570e+001,-1.93668968610751e+000

5.57897466540159e+004,-2.09216901588787e+001,-1.96370125041573e+000

5.65685424949235e+004,-2.09217605853909e+001,-1.99108889229472e+000

5.73582099206328e+004,-2.09218329719641e+001,-2.01885782048348e+000

5.81589006928121e+004,-2.09219073725883e+001,-2.04701331475167e+000

5.89707686916437e+004,-2.09219838427095e+001,-2.07556072682369e+000

5.97939699453972e+004,-2.09220624392670e+001,-2.10450548131543e+000

6.06286626604156e+004,-2.09221432207323e+001,-2.13385307667792e+000

6.14750072515201e+004,-2.09222262471480e+001,-2.16360908615488e+000

6.23331663728396e+004,-2.09223115801683e+001,-2.19377915874817e+000

6.32033049490698e+004,-2.09223992830997e+001,-2.22436902019626e+000

6.40855902071694e+004,-2.09224894209437e+001,-2.25538447396093e+000

6.49801917084985e+004,-2.09225820604394e+001,-2.28683140222626e+000

6.58872813814055e+004,-2.09226772701076e+001,-2.31871576690826e+000

6.68070335542691e+004,-2.09227751202956e+001,-2.35104361067496e+000

6.77396249890018e+004,-2.09228756832234e+001,-2.38382105797744e+000

6.86852349150199e+004,-2.09229790330307e+001,-2.41705431609087e+000

6.96440450636895e+004,-2.09230852458247e+001,-2.45074967616877e+000

7.06162397032520e+004,-2.09231943997291e+001,-2.48491351430697e+000

7.16020056742374e+004,-2.09233065749344e+001,-2.51955229261650e+000

7.26015324253724e+004,-2.09234218537490e+001,-2.55467256031176e+000

7.36150120499896e+004,-2.09235403206511e+001,-2.59028095480679e+000

7.46426393229441e+004,-2.09236620623426e+001,-2.62638420282341e+000

7.56846117380472e+004,-2.09237871678030e+001,-2.66298912151044e+000

7.67411295460207e+004,-2.09239157283452e+001,-2.70010261957515e+000

7.78123957929823e+004,-2.09240478376720e+001,-2.73773169842435e+000

7.88986163594682e+004,-2.09241835919341e+001,-2.77588345331815e+000

7.99999999999995e+004,-2.09243230897889e+001,-2.81456507453411e+000

8.11167583832018e+004,-2.09244664324605e+001,-2.85378384854313e+000

8.22491061324848e+004,-2.09246137238013e+001,-2.89354715919733e+000

8.33972608672892e+004,-2.09247650703541e+001,-2.93386248892720e+000

8.45614432449099e+004,-2.09249205814159e+001,-2.97473741995372e+000

8.57418770029029e+004,-2.09250803691027e+001,-3.01617963550843e+000

8.69387890020841e+004,-2.09252445484153e+001,-3.05819692106732e+000

8.81524092701283e+004,-2.09254132373069e+001,-3.10079716559513e+000

8.93829710457770e+004,-2.09255865567513e+001,-3.14398836280160e+000

9.06307108236633e+004,-2.09257646308123e+001,-3.18777861241044e+000

9.18958683997622e+004,-2.09259475867149e+001,-3.23217612143702e+000

9.31786869174758e+004,-2.09261355549171e+001,-3.27718920548114e+000

9.44794129143618e+004,-2.09263286691833e+001,-3.32282629002982e+000

9.57982963695136e+004,-2.09265270666587e+001,-3.36909591177181e+000

9.71355907516031e+004,-2.09267308879449e+001,-3.41600671992461e+000

9.84915530675926e+004,-2.09269402771769e+001,-3.46356747757357e+000

9.98664439121282e+004,-2.09271553821012e+001,-3.51178706302165e+000

1.01260527517622e+005,-2.09273763541547e+001,-3.56067447115340e+000

1.02674071805032e+005,-2.09276033485458e+001,-3.61023881480880e+000

1.04107348435354e+005,-2.09278365243354e+001,-3.66048932617201e+000

1.05560632861831e+005,-2.09280760445202e+001,-3.71143535816906e+000

1.07034204382888e+005,-2.09283220761164e+001,-3.76308638588155e+000

1.08528346195813e+005,-2.09285747902449e+001,-3.81545200797079e+000

1.10043345451179e+005,-2.09288343622174e+001,-3.86854194811498e+000

1.11579493308032e+005,-2.09291009716242e+001,-3.92236605645953e+000

1.13137084989847e+005,-2.09293748024220e+001,-3.97693431108068e+000

1.14716419841265e+005,-2.09296560430239e+001,-4.03225681946251e+000

1.16317801385624e+005,-2.09299448863901e+001,-4.08834381998525e+000

1.17941537383287e+005,-2.09302415301192e+001,-4.14520568343083e+000

1.19587939890794e+005,-2.09305461765411e+001,-4.20285291449893e+000

1.21257325320831e+005,-2.09308590328104e+001,-4.26129615333964e+000

1.22950014503040e+005,-2.09311803110017e+001,-4.32054617709817e+000

1.24666332745679e+005,-2.09315102282043e+001,-4.38061390147670e+000

1.26406609898139e+005,-2.09318490066196e+001,-4.44151038230935e+000

1.28171180414339e+005,-2.09321968736578e+001,-4.50324681715351e+000

1.29960383416997e+005,-2.09325540620365e+001,-4.56583454689660e+000

1.31774562762811e+005,-2.09329208098802e+001,-4.62928505737880e+000

1.33614067108538e+005,-2.09332973608195e+001,-4.69360998103320e+000

1.35479249978003e+005,-2.09336839640926e+001,-4.75882109854192e+000

1.37370469830040e+005,-2.09340808746460e+001,-4.82493034051079e+000

1.39288090127379e+005,-2.09344883532377e+001,-4.89194978916191e+000

1.41232479406504e+005,-2.09349066665394e+001,-4.95989168004462e+000

1.43204011348474e+005,-2.09353360872404e+001,-5.02876840376633e+000

1.45203064850745e+005,-2.09357768941520e+001,-5.09859250774335e+000

1.47230024099979e+005,-2.09362293723123e+001,-5.16937669797258e+000

1.49285278645888e+005,-2.09366938130919e+001,-5.24113384082450e+000

1.51369223476094e+005,-2.09371705142999e+001,-5.31387696485851e+000

1.53482259092041e+005,-2.09376597802908e+001,-5.38761926266282e+000

1.55624791585964e+005,-2.09381619220718e+001,-5.46237409271598e+000

1.57797232718936e+005,-2.09386772574109e+001,-5.53815498127667e+000

1.59999999999999e+005,-2.09392061109452e+001,-5.61497562429722e+000

1.62233516766403e+005,-2.09397488142899e+001,-5.69284988936568e+000

1.64498212264969e+005,-2.09403057061485e+001,-5.77179181767596e+000

1.66794521734578e+005,-2.09408771324225e+001,-5.85181562602763e+000

1.69122886489819e+005,-2.09414634463228e+001,-5.93293570885724e+000

1.71483754005805e+005,-2.09420650084810e+001,-6.01516664030025e+000

1.73877578004168e+005,-2.09426821870622e+001,-6.09852317628822e+000

1.76304818540256e+005,-2.09433153578776e+001,-6.18302025668059e+000

1.78765942091554e+005,-2.09439649044987e+001,-6.26867300743192e+000

1.81261421647326e+005,-2.09446312183725e+001,-6.35549674279846e+000

1.83791736799524e+005,-2.09453146989368e+001,-6.44350696758388e+000

1.86357373834951e+005,-2.09460157537377e+001,-6.53271937942608e+000

1.88958825828723e+005,-2.09467347985476e+001,-6.62314987112704e+000

1.91596592739027e+005,-2.09474722574850e+001,-6.71481453302761e+000

1.94271181503206e+005,-2.09482285631356e+001,-6.80772965542861e+000

1.96983106135185e+005,-2.09490041566750e+001,-6.90191173106035e+000

1.99732887824256e+005,-2.09497994879934e+001,-6.99737745760191e+000

2.02521055035243e+005,-2.09506150158228e+001,-7.09414374025340e+000

2.05348143610063e+005,-2.09514512078659e+001,-7.19222769436126e+000

2.08214696870707e+005,-2.09523085409279e+001,-7.29164664809968e+000

2.11121265723661e+005,-2.09531875010509e+001,-7.39241814521049e+000

2.14068408765776e+005,-2.09540885836522e+001,-7.49455994780220e+000

2.17056692391625e+005,-2.09550122936653e+001,-7.59809003921042e+000

2.20086690902357e+005,-2.09559591456850e+001,-7.70302662692326e+000

2.23158986616063e+005,-2.09569296641168e+001,-7.80938814557059e+000

2.26274169979693e+005,-2.09579243833314e+001,-7.91719325998164e+000

2.29432839682530e+005,-2.09589438478236e+001,-8.02646086831141e+000

2.32635602771247e+005,-2.09599886123770e+001,-8.13721010523850e+000

2.35883074766574e+005,-2.09610592422352e+001,-8.24946034523406e+000

2.39175879781588e+005,-2.09621563132790e+001,-8.36323120590651e+000

2.42514650641661e+005,-2.09632804122113e+001,-8.47854255142050e+000

2.45900029006080e+005,-2.09644321367498e+001,-8.59541449599319e+000

2.49332665491357e+005,-2.09656120958278e+001,-8.71386740746838e+000

2.52813219796278e+005,-2.09668209098041e+001,-8.83392191096987e+000

2.56342360828676e+005,-2.09680592106832e+001,-8.95559889263444e+000

2.59920766833993e+005,-2.09693276423457e+001,-9.07891950342517e+000

2.63549125525621e+005,-2.09706268607900e+001,-9.20390516302620e+000

2.67228134217075e+005,-2.09719575343859e+001,-9.33057756381816e+000

2.70958499956006e+005,-2.09733203441418e+001,-9.45895867493432e+000

2.74740939660078e+005,-2.09747159839847e+001,-9.58907074639877e+000

2.78576180254757e+005,-2.09761451610557e+001,-9.72093631334281e+000

2.82464958813007e+005,-2.09776085960204e+001,-9.85457820030237e+000

2.86408022696948e+005,-2.09791070233962e+001,-9.99001952559145e+000

2.90406129701488e+005,-2.09806411918965e+001,-1.01272837057536e+001

2.94460048199957e+005,-2.09822118647942e+001,-1.02663944600860e+001

2.98570557291775e+005,-2.09838198203029e+001,-1.04073758152368e+001

3.02738446952187e+005,-2.09854658519803e+001,-1.05502521098703e+001

3.06964518184081e+005,-2.09871507691510e+001,-1.06950479993993e+001

3.11249583171928e+005,-2.09888753973535e+001,-1.08417884607777e+001

3.15594465437872e+005,-2.09906405788087e+001,-1.09904987973543e+001

3.19999999999997e+005,-2.09924471729139e+001,-1.11412046437767e+001

3.24467033532806e+005,-2.09942960567613e+001,-1.12939319709462e+001

3.28996424529938e+005,-2.09961881256831e+001,-1.14487070910153e+001

3.33589043469155e+005,-2.09981242938238e+001,-1.16055566624214e+001

3.38245772979638e+005,-2.10001054947400e+001,-1.17645076949525e+001

3.42967508011610e+005,-2.10021326820300e+001,-1.19255875548353e+001

3.47755156008335e+005,-2.10042068299922e+001,-1.20888239698412e+001

3.52609637080511e+005,-2.10063289343156e+001,-1.22542450343984e+001

3.57531884183106e+005,-2.10085000128000e+001,-1.24218792147072e+001

3.62522843294651e+005,-2.10107211061097e+001,-1.25917553538433e+001

3.67583473599047e+005,-2.10129932785595e+001,-1.27639026768453e+001

3.72714747669902e+005,-2.10153176189338e+001,-1.29383507957731e+001

3.77917651657445e+005,-2.10176952413409e+001,-1.31151297147290e+001

3.83193185478053e+005,-2.10201272861000e+001,-1.32942698348307e+001

3.88542363006410e+005,-2.10226149206646e+001,-1.34758019591240e+001

3.93966212270369e+005,-2.10251593405803e+001,-1.36597572974251e+001

3.99465775648511e+005,-2.10277617704784e+001,-1.38461674710819e+001

4.05042110070485e+005,-2.10304234651047e+001,-1.40350645176400e+001

4.10696287220124e+005,-2.10331457103845e+001,-1.42264808954026e+001

4.16429393741414e+005,-2.10359298245227e+001,-1.44204494878737e+001

4.22242531447321e+005,-2.10387771591396e+001,-1.46170036080682e+001

4.28136817531551e+005,-2.10416891004422e+001,-1.48161770026797e+001

4.34113384783250e+005,-2.10446670704299e+001,-1.50180038560925e+001

4.40173381804713e+005,-2.10477125281353e+001,-1.52225187942231e+001

4.46317973232124e+005,-2.10508269708987e+001,-1.54297568881818e+001

4.52548339959385e+005,-2.10540119356759e+001,-1.56397536577375e+001

4.58865679365059e+005,-2.10572690003786e+001,-1.58525450745771e+001

4.65271205542494e+005,-2.10605997852467e+001,-1.60681675653442e+001

4.71766149533147e+005,-2.10640059542517e+001,-1.62866580144451e+001

4.78351759563174e+005,-2.10674892165290e+001,-1.65080537666103e+001

4.85029301283321e+005,-2.10710513278398e+001,-1.67323926291996e+001

4.91800058012158e+005,-2.10746940920601e+001,-1.69597128742384e+001

4.98665330982714e+005,-2.10784193626955e+001,-1.71900532401730e+001

5.05626439592555e+005,-2.10822290444211e+001,-1.74234529333365e+001

5.12684721657352e+005,-2.10861250946445e+001,-1.76599516291106e+001

5.19841533667984e+005,-2.10901095250904e+001,-1.78995894727757e+001

5.27098251051240e+005,-2.10941844034051e+001,-1.81424070800381e+001

5.34456268434150e+005,-2.10983518547793e+001,-1.83884455372243e+001

5.41916999912011e+005,-2.11026140635877e+001,-1.86377464011344e+001

