Freq.,VOut,OutRef

1.00000000000000e+004,-1.27297417629093e+001,-1.06375696807793e-001

1.01395947979003e+004,-1.27297425410662e+001,-1.07860547418525e-001

1.02811382665607e+004,-1.27297433410839e+001,-1.09366121577724e-001

1.04246576084112e+004,-1.27297441635758e+001,-1.10892708398669e-001

1.05701804056138e+004,-1.27297450091727e+001,-1.12440601022280e-001

1.07177346253629e+004,-1.27297458785233e+001,-1.14010096671567e-001

1.08673486252606e+004,-1.27297467722944e+001,-1.15601496712771e-001

1.10190511587661e+004,-1.27297476911710e+001,-1.17215106710565e-001

1.11728713807222e+004,-1.27297486358582e+001,-1.18851236483951e-001

1.13288388529580e+004,-1.27297496070798e+001,-1.20510200170511e-001

1.14869835499703e+004,-1.27297506055807e+001,-1.22192316281438e-001

1.16473358646846e+004,-1.27297516321266e+001,-1.23897907762945e-001

1.18099266142953e+004,-1.27297526875039e+001,-1.25627302063552e-001

1.19747870461893e+004,-1.27297537725218e+001,-1.27380831186543e-001

1.21419488439505e+004,-1.27297548880121e+001,-1.29158831760298e-001

1.23114441334492e+004,-1.27297560348291e+001,-1.30961645103338e-001

1.24833054890161e+004,-1.27297572138523e+001,-1.32789617280919e-001

1.26575659397028e+004,-1.27297584259847e+001,-1.34643099180489e-001

1.28342589756290e+004,-1.27297596721551e+001,-1.36522446572513e-001

1.30134185544193e+004,-1.27297609533180e+001,-1.38428020181015e-001

1.31950791077289e+004,-1.27297622704552e+001,-1.40360185748692e-001

1.33792755478611e+004,-1.27297636245752e+001,-1.42319314110231e-001

1.35660432744767e+004,-1.27297650167151e+001,-1.44305781261684e-001

1.37554181813974e+004,-1.27297664479409e+001,-1.46319968430255e-001

1.39474366635040e+004,-1.27297679193487e+001,-1.48362262146546e-001

1.41421356237309e+004,-1.27297694320648e+001,-1.50433054320389e-001

1.43395524801583e+004,-1.27297709872474e+001,-1.52532742313031e-001

1.45397251732031e+004,-1.27297725860867e+001,-1.54661729013814e-001

1.47426921729110e+004,-1.27297742298064e+001,-1.56820422915700e-001

1.49484924863494e+004,-1.27297759196642e+001,-1.59009238191955e-001

1.51571656651040e+004,-1.27297776569534e+001,-1.61228594774726e-001

1.53687518128801e+004,-1.27297794430026e+001,-1.63478918438468e-001

1.55832915932100e+004,-1.27297812791786e+001,-1.65760640871846e-001

1.58008262372675e+004,-1.27297831668852e+001,-1.68074199769609e-001

1.60213975517924e+004,-1.27297851075661e+001,-1.70420038907956e-001

1.62450479271247e+004,-1.27297871027051e+001,-1.72798608231628e-001

1.64718203453514e+004,-1.27297891538278e+001,-1.75210363935076e-001

1.67017583885674e+004,-1.27297912625013e+001,-1.77655768556646e-001

1.69349062472505e+004,-1.27297934303376e+001,-1.80135291055936e-001

1.71713087287550e+004,-1.27297956589932e+001,-1.82649406907720e-001

1.74110112659224e+004,-1.27297979501703e+001,-1.85198598194092e-001

1.76540599258131e+004,-1.27298003056192e+001,-1.87783353687585e-001

1.79005014185594e+004,-1.27298027271389e+001,-1.90404168948483e-001

1.81503831063432e+004,-1.27298052165784e+001,-1.93061546417798e-001

1.84037530124975e+004,-1.27298077758378e+001,-1.95755995511249e-001

1.86606598307361e+004,-1.27298104068706e+001,-1.98488032713451e-001

1.89211529345119e+004,-1.27298131116848e+001,-2.01258181674720e-001

1.91852823865052e+004,-1.27298158923436e+001,-2.04066973314476e-001

1.94530989482457e+004,-1.27298187509685e+001,-2.06914945911920e-001

1.97246540898671e+004,-1.27298216897392e+001,-2.09802645215103e-001

1.99999999999999e+004,-1.27298247108964e+001,-2.12730624539806e-001

2.02791895958005e+004,-1.27298278167429e+001,-2.15699444871545e-001

2.05622765331213e+004,-1.27298310096460e+001,-2.18709674971064e-001

2.08493152168224e+004,-1.27298342920379e+001,-2.21761891485568e-001

2.11403608112276e+004,-1.27298376664190e+001,-2.24856679047673e-001

2.14354692507258e+004,-1.27298411353588e+001,-2.27994630390974e-001

2.17346972505211e+004,-1.27298447014983e+001,-2.31176346458150e-001

2.20381023175322e+004,-1.27298483675517e+001,-2.34402436513520e-001

2.23457427614443e+004,-1.27298521363082e+001,-2.37673518255811e-001

2.26576777059159e+004,-1.27298560106345e+001,-2.40990217933409e-001

2.29739670999406e+004,-1.27298599934768e+001,-2.44353170459816e-001

2.32946717293690e+004,-1.27298640878630e+001,-2.47763019531029e-001

2.36198532285905e+004,-1.27298682969043e+001,-2.51220417748354e-001

2.39495740923785e+004,-1.27298726237984e+001,-2.54726026734592e-001

2.42838976879009e+004,-1.27298770718315e+001,-2.58280517258593e-001

2.46228882668982e+004,-1.27298816443803e+001,-2.61884569359017e-001

2.49666109780322e+004,-1.27298863449152e+001,-2.65538872469633e-001

2.53151318794055e+004,-1.27298911770019e+001,-2.69244125547026e-001

2.56685179512580e+004,-1.27298961443050e+001,-2.73001037198584e-001

2.60268371088386e+004,-1.27299012505902e+001,-2.76810325811187e-001

2.63901582154578e+004,-1.27299064997268e+001,-2.80672719686480e-001

2.67585510957221e+004,-1.27299118956906e+001,-2.84588957173042e-001

2.71320865489533e+004,-1.27299174425672e+001,-2.88559786800474e-001

2.75108363627948e+004,-1.27299231445548e+001,-2.92585967415807e-001

2.78948733270080e+004,-1.27299290059665e+001,-2.96668268326329e-001

2.82842712474618e+004,-1.27299350312346e+001,-3.00807469434731e-001

2.86791049603164e+004,-1.27299412249128e+001,-3.05004361384109e-001

2.90794503464061e+004,-1.27299475916800e+001,-3.09259745701744e-001

2.94853843458219e+004,-1.27299541363433e+001,-3.13574434942236e-001

2.98969849726987e+004,-1.27299608638418e+001,-3.17949252838568e-001

3.03143313302078e+004,-1.27299677792498e+001,-3.22385034447289e-001

3.07375036257601e+004,-1.27299748877808e+001,-3.26882626301564e-001

3.11665831864199e+004,-1.27299821947905e+001,-3.31442886565275e-001

3.16016524745350e+004,-1.27299897057812e+001,-3.36066685183085e-001

3.20427951035848e+004,-1.27299974264059e+001,-3.40754904040040e-001

3.24900958542493e+004,-1.27300053624710e+001,-3.45508437122135e-001

3.29436406907028e+004,-1.27300135199421e+001,-3.50328190669100e-001

3.34035167771346e+004,-1.27300219049469e+001,-3.55215083343314e-001

3.38698124945009e+004,-1.27300305237801e+001,-3.60170046390022e-001

3.43426174575100e+004,-1.27300393829074e+001,-3.65194023804214e-001

3.48220225318448e+004,-1.27300484889702e+001,-3.70287972498381e-001

3.53081198516260e+004,-1.27300578487904e+001,-3.75452862471085e-001

3.58010028371187e+004,-1.27300674693746e+001,-3.80689676979428e-001

3.63007662126863e+004,-1.27300773579194e+001,-3.85999412711137e-001

3.68075060249948e+004,-1.27300875218161e+001,-3.91383079962239e-001

3.73213196614721e+004,-1.27300979686555e+001,-3.96841702812545e-001

3.78423058690237e+004,-1.27301087062337e+001,-4.02376319305242e-001

3.83705647730104e+004,-1.27301197425571e+001,-4.07987981627098e-001

3.89061978964912e+004,-1.27301310858473e+001,-4.13677756295025e-001

3.94493081797342e+004,-1.27301427445474e+001,-4.19446724338541e-001

3.99999999999998e+004,-1.27301547273273e+001,-4.25295981486098e-001

4.05583791916010e+004,-1.27301670430895e+001,-4.31226638357775e-001

4.11245530662425e+004,-1.27301797009751e+001,-4.37239820653800e-001

4.16986304336447e+004,-1.27301927103695e+001,-4.43336669348437e-001

4.22807216224550e+004,-1.27302060809094e+001,-4.49518340885471e-001

4.28709385014515e+004,-1.27302198224881e+001,-4.55786007374943e-001

4.34693945010421e+004,-1.27302339452627e+001,-4.62140856793601e-001

4.40762046350642e+004,-1.27302484596605e+001,-4.68584093184681e-001

4.46914855228886e+004,-1.27302633763855e+001,-4.75116936862170e-001

4.53153554118317e+004,-1.27302787064258e+001,-4.81740624614461e-001

4.59479341998812e+004,-1.27302944610597e+001,-4.88456409915988e-001

4.65893434587380e+004,-1.27303106518641e+001,-4.95265563130577e-001

4.72397064571810e+004,-1.27303272907208e+001,-5.02169371727123e-001

4.78991481847569e+004,-1.27303443898244e+001,-5.09169140491630e-001

4.85677953758016e+004,-1.27303619616900e+001,-5.16266191740853e-001

4.92457765337964e+004,-1.27303800191607e+001,-5.23461865543405e-001

4.99332219560642e+004,-1.27303985754154e+001,-5.30757519935320e-001

5.06302637588109e+004,-1.27304176439774e+001,-5.38154531142474e-001

5.13370359025159e+004,-1.27304372387222e+001,-5.45654293803993e-001

5.20536742176771e+004,-1.27304573738857e+001,-5.53258221198167e-001

5.27803164309155e+004,-1.27304780640735e+001,-5.60967745466771e-001

5.35171021914442e+004,-1.27304993242686e+001,-5.68784317847284e-001

5.42641730979066e+004,-1.27305211698405e+001,-5.76709408901709e-001

5.50216727255895e+004,-1.27305436165548e+001,-5.84744508749638e-001

5.57897466540159e+004,-1.27305666805815e+001,-5.92891127301928e-001

5.65685424949235e+004,-1.27305903785048e+001,-6.01150794498718e-001

5.73582099206328e+004,-1.27306147273320e+001,-6.09525060547094e-001

5.81589006928121e+004,-1.27306397445037e+001,-6.18015496159788e-001

5.89707686916437e+004,-1.27306654479030e+001,-6.26623692797838e-001

5.97939699453972e+004,-1.27306918558653e+001,-6.35351262915557e-001

6.06286626604156e+004,-1.27307189871888e+001,-6.44199840201613e-001

6.14750072515201e+004,-1.27307468611443e+001,-6.53171079829274e-001

6.23331663728396e+004,-1.27307754974850e+001,-6.62266658703809e-001

6.32033049490698e+004,-1.27308049164577e+001,-6.71488275712714e-001

6.40855902071694e+004,-1.27308351388129e+001,-6.80837651975622e-001

6.49801917084985e+004,-1.27308661858150e+001,-6.90316531099912e-001

6.58872813814055e+004,-1.27308980792538e+001,-6.99926679433901e-001

6.68070335542691e+004,-1.27309308414547e+001,-7.09669886322356e-001

6.77396249890018e+004,-1.27309644952900e+001,-7.19547964365313e-001

6.86852349150199e+004,-1.27309990641896e+001,-7.29562749676756e-001

6.96440450636895e+004,-1.27310345721522e+001,-7.39716102142675e-001

7.06162397032520e+004,-1.27310710437568e+001,-7.50009905684727e-001

7.16020056742374e+004,-1.27311085041732e+001,-7.60446068522342e-001

7.26015324253724e+004,-1.27311469791740e+001,-7.71026523435283e-001

7.36150120499896e+004,-1.27311864951457e+001,-7.81753228030113e-001

7.46426393229441e+004,-1.27312270790995e+001,-7.92628165006006e-001

7.56846117380472e+004,-1.27312687586835e+001,-8.03653342420107e-001

7.67411295460207e+004,-1.27313115621938e+001,-8.14830793957499e-001

7.78123957929823e+004,-1.27313555185852e+001,-8.26162579199084e-001

7.88986163594682e+004,-1.27314006574836e+001,-8.37650783891630e-001

7.99999999999995e+004,-1.27314470091964e+001,-8.49297520218275e-001

8.11167583832018e+004,-1.27314946047242e+001,-8.61104927069457e-001

8.22491061324848e+004,-1.27315434757716e+001,-8.73075170316222e-001

8.33972608672892e+004,-1.27315936547583e+001,-8.85210443081393e-001

8.45614432449099e+004,-1.27316451748304e+001,-8.97512966013460e-001

8.57418770029029e+004,-1.27316980698702e+001,-9.09984987561113e-001

8.69387890020841e+004,-1.27317523745079e+001,-9.22628784247027e-001

8.81524092701283e+004,-1.27318081241308e+001,-9.35446660942373e-001

8.93829710457770e+004,-1.27318653548943e+001,-9.48440951142410e-001

9.06307108236633e+004,-1.27319241037316e+001,-9.61614017241727e-001

9.18958683997622e+004,-1.27319844083626e+001,-9.74968250811101e-001

9.31786869174758e+004,-1.27320463073040e+001,-9.88506072872603e-001

9.44794129143618e+004,-1.27321098398775e+001,-1.00222993417645e+000

9.57982963695136e+004,-1.27321750462188e+001,-1.01614231547800e+000

9.71355907516031e+004,-1.27322419672853e+001,-1.03024572781438e+000

9.84915530675926e+004,-1.27323106448637e+001,-1.04454271278100e+000

9.98664439121282e+004,-1.27323811215770e+001,-1.05903584281024e+000

1.01260527517622e+005,-1.27324534408912e+001,-1.07372772144716e+000

1.02674071805032e+005,-1.27325276471209e+001,-1.08862098362858e+000

1.04107348435354e+005,-1.27326037854349e+001,-1.10371829595904e+000

1.05560632861831e+005,-1.27326819018601e+001,-1.11902235699104e+000

1.07034204382888e+005,-1.27327620432856e+001,-1.13453589750216e+000

1.08528346195813e+005,-1.27328442574657e+001,-1.15026168077179e+000

1.10043345451179e+005,-1.27329285930216e+001,-1.16620250286343e+000

1.11579493308032e+005,-1.27330150994430e+001,-1.18236119290156e+000

1.13137084989847e+005,-1.27331038270877e+001,-1.19874061335154e+000

1.14716419841265e+005,-1.27331948271809e+001,-1.21534366030055e+000

1.16317801385624e+005,-1.27332881518131e+001,-1.23217326373788e+000

1.17941537383287e+005,-1.27333838539368e+001,-1.24923238783733e+000

1.19587939890794e+005,-1.27334819873620e+001,-1.26652403124018e+000

1.21257325320831e+005,-1.27335826067503e+001,-1.28405122733792e+000

1.22950014503040e+005,-1.27336857676077e+001,-1.30181704455828e+000

1.24666332745679e+005,-1.27337915262753e+001,-1.31982458665341e+000

1.26406609898139e+005,-1.27338999399197e+001,-1.33807699298591e+000

1.28171180414339e+005,-1.27340110665204e+001,-1.35657743882163e+000

1.29960383416997e+005,-1.27341249648564e+001,-1.37532913562101e+000

1.31774562762811e+005,-1.27342416944902e+001,-1.39433533133766e+000

1.33614067108538e+005,-1.27343613157509e+001,-1.41359931071381e+000

1.35479249978003e+005,-1.27344838897140e+001,-1.43312439558541e+000

1.37370469830040e+005,-1.27346094781801e+001,-1.45291394518716e+000

1.39288090127379e+005,-1.27347381436514e+001,-1.47297135646324e+000

1.41232479406504e+005,-1.27348699493053e+001,-1.49330006438181e+000

1.43204011348474e+005,-1.27350049589658e+001,-1.51390354225818e+000

1.45203064850745e+005,-1.27351432370731e+001,-1.53478530207916e+000

1.47230024099979e+005,-1.27352848486499e+001,-1.55594889483749e+000

1.49285278645888e+005,-1.27354298592650e+001,-1.57739791087245e+000

1.51369223476094e+005,-1.27355783349947e+001,-1.59913598021919e+000

1.53482259092041e+005,-1.27357303423810e+001,-1.62116677296527e+000

1.55624791585964e+005,-1.27358859483872e+001,-1.64349399961750e+000

1.57797232718936e+005,-1.27360452203498e+001,-1.66612141148023e+000

1.59999999999999e+005,-1.27362082259276e+001,-1.68905280104486e+000

1.62233516766403e+005,-1.27363750330485e+001,-1.71229200238916e+000

1.64498212264969e+005,-1.27365457098511e+001,-1.73584289159416e+000

1.66794521734578e+005,-1.27367203246247e+001,-1.75970938717219e+000

1.69122886489819e+005,-1.27368989457449e+001,-1.78389545051179e+000

1.71483754005805e+005,-1.27370816416059e+001,-1.80840508634074e+000

1.73877578004168e+005,-1.27372684805495e+001,-1.83324234320485e+000

1.76304818540256e+005,-1.27374595307897e+001,-1.85841131396807e+000

1.78765942091554e+005,-1.27376548603344e+001,-1.88391613633307e+000

1.81261421647326e+005,-1.27378545369031e+001,-1.90976099338359e+000

1.83791736799524e+005,-1.27380586278401e+001,-1.93595011415164e+000

1.86357373834951e+005,-1.27382672000251e+001,-1.96248777420936e+000

1.88958825828723e+005,-1.27384803197791e+001,-1.98937829628878e+000

1.91596592739027e+005,-1.27386980527662e+001,-2.01662605092920e+000

1.94271181503206e+005,-1.27389204638925e+001,-2.04423545715707e+000

1.96983106135185e+005,-1.27391476172004e+001,-2.07221098319475e+000

1.99732887824256e+005,-1.27393795757591e+001,-2.10055714720835e+000

2.02521055035243e+005,-1.27396164015514e+001,-2.12927851808725e+000

2.05348143610063e+005,-1.27398581553574e+001,-2.15837971626360e+000

2.08214696870707e+005,-1.27401048966329e+001,-2.18786541457241e+000

2.11121265723661e+005,-1.27403566833859e+001,-2.21774033915206e+000

2.14068408765776e+005,-1.27406135720490e+001,-2.24800927039016e+000

2.17056692391625e+005,-1.27408756173476e+001,-2.27867704391538e+000

2.20086690902357e+005,-1.27411428721665e+001,-2.30974855163639e+000

2.23158986616063e+005,-1.27414153874116e+001,-2.34122874283274e+000

2.26274169979693e+005,-1.27416932118703e+001,-2.37312262529771e+000

2.29432839682530e+005,-1.27419763920680e+001,-2.40543526653363e+000

2.32635602771247e+005,-1.27422649721229e+001,-2.43817179500783e+000

2.35883074766574e+005,-1.27425589935978e+001,-2.47133740146305e+000

2.39175879781588e+005,-1.27428584953509e+001,-2.50493734029150e+000

2.42514650641661e+005,-1.27431635133839e+001,-2.53897693096908e+000

2.45900029006080e+005,-1.27434740806893e+001,-2.57346155955735e+000

2.49332665491357e+005,-1.27437902270963e+001,-2.60839668026798e+000

2.52813219796278e+005,-1.27441119791166e+001,-2.64378781709787e+000

2.56342360828676e+005,-1.27444393597891e+001,-2.67964056553448e+000

2.59920766833993e+005,-1.27447723885250e+001,-2.71596059433032e+000

2.63549125525621e+005,-1.27451110809539e+001,-2.75275364735171e+000

2.67228134217075e+005,-1.27454554487697e+001,-2.79002554550240e+000

2.70958499956006e+005,-1.27458054995792e+001,-2.82778218872022e+000

2.74740939660078e+005,-1.27461612367516e+001,-2.86602955805280e+000

2.78576180254757e+005,-1.27465226592713e+001,-2.90477371780746e+000

2.82464958813007e+005,-1.27468897615926e+001,-2.94402081778220e+000

2.86408022696948e+005,-1.27472625334989e+001,-2.98377709557185e+000

2.90406129701488e+005,-1.27476409599647e+001,-3.02404887895608e+000

2.94460048199957e+005,-1.27480250210242e+001,-3.06484258836125e+000

2.98570557291775e+005,-1.27484146916424e+001,-3.10616473940675e+000

3.02738446952187e+005,-1.27488099415946e+001,-3.14802194552331e+000

3.06964518184081e+005,-1.27492107353500e+001,-3.19042092065229e+000

3.11249583171928e+005,-1.27496170319640e+001,-3.23336848201951e+000

3.15594465437872e+005,-1.27500287849770e+001,-3.27687155298520e+000

3.19999999999997e+005,-1.27504459423215e+001,-3.32093716596533e+000

3.24467033532806e+005,-1.27508684462382e+001,-3.36557246542651e+000

3.28996424529938e+005,-1.27512962332013e+001,-3.41078471095001e+000

3.33589043469155e+005,-1.27517292338532e+001,-3.45658128036167e+000

3.38245772979638e+005,-1.27521673729504e+001,-3.50296967292759e+000

3.42967508011610e+005,-1.27526105693197e+001,-3.54995751261075e+000

3.47755156008335e+005,-1.27530587358260e+001,-3.59755255138547e+000

3.52609637080511e+005,-1.27535117793518e+001,-3.64576267260752e+000

3.57531884183106e+005,-1.27539696007899e+001,-3.69459589443354e+000

3.62522843294651e+005,-1.27544320950474e+001,-3.74406037328962e+000

3.67583473599047e+005,-1.27548991510643e+001,-3.79416440737982e+000

3.72714747669902e+005,-1.27553706518447e+001,-3.84491644023446e+000

3.77917651657445e+005,-1.27558464745017e+001,-3.89632506429158e+000

3.83193185478053e+005,-1.27563264903170e+001,-3.94839902450565e+000

3.88542363006410e+005,-1.27568105648136e+001,-4.00114722198051e+000

3.93966212270369e+005,-1.27572985578440e+001,-4.05457871762042e+000

3.99465775648511e+005,-1.27577903236918e+001,-4.10870273579313e+000

4.05042110070485e+005,-1.27582857111879e+001,-4.16352866799992e+000

4.10696287220124e+005,-1.27587845638416e+001,-4.21906607654870e+000

4.16429393741414e+005,-1.27592867199850e+001,-4.27532469822133e+000

4.22242531447321e+005,-1.27597920129323e+001,-4.33231444793238e+000

4.28136817531551e+005,-1.27603002711524e+001,-4.39004542237333e+000

4.34113384783250e+005,-1.27608113184552e+001,-4.44852790363555e+000

4.40173381804713e+005,-1.27613249741909e+001,-4.50777236280678e+000

4.46317973232124e+005,-1.27618410534624e+001,-4.56778946353800e+000

4.52548339959385e+005,-1.27623593673493e+001,-4.62859006557285e+000

4.58865679365059e+005,-1.27628797231440e+001,-4.69018522823640e+000

4.65271205542494e+005,-1.27634019245988e+001,-4.75258621387827e+000

4.71766149533147e+005,-1.27639257721833e+001,-4.81580449126480e+000

4.78351759563174e+005,-1.27644510633514e+001,-4.87985173891782e+000

4.85029301283321e+005,-1.27649775928172e+001,-4.94473984839523e+000

4.91800058012158e+005,-1.27655051528388e+001,-5.01048092751032e+000

4.98665330982714e+005,-1.27660335335096e+001,-5.07708730348553e+000

5.05626439592555e+005,-1.27665625230556e+001,-5.14457152604106e+000

5.12684721657352e+005,-1.27670919081376e+001,-5.21294637041258e+000

5.19841533667984e+005,-1.27676214741586e+001,-5.28222484029928e+000

5.27098251051240e+005,-1.27681510055737e+001,-5.35242017073858e+000

5.34456268434150e+005,-1.27686802862029e+001,-5.42354583090870e+000

5.41916999912011e+005,-1.27692090995448e+001,-5.49561552685713e+000

