Freq.,VOut,OutRef

1.00000000000000e+004,-1.78153987879091e+001,-1.34679502274220e-001

1.01395947979003e+004,-1.78153997440021e+001,-1.36559452553671e-001

1.02811382665607e+004,-1.78154007269570e+001,-1.38465641483071e-001

1.04246576084112e+004,-1.78154017375281e+001,-1.40398435150714e-001

1.05701804056138e+004,-1.78154027764910e+001,-1.42358204745266e-001

1.07177346253629e+004,-1.78154038446424e+001,-1.44345326631454e-001

1.08673486252606e+004,-1.78154049428021e+001,-1.46360182417033e-001

1.10190511587661e+004,-1.78154060718124e+001,-1.48403159028984e-001

1.11728713807222e+004,-1.78154072325393e+001,-1.50474648784046e-001

1.13288388529580e+004,-1.78154084258731e+001,-1.52575049469392e-001

1.14869835499703e+004,-1.78154096527288e+001,-1.54704764411980e-001

1.16473358646846e+004,-1.78154109140477e+001,-1.56864202557565e-001

1.18099266142953e+004,-1.78154122107968e+001,-1.59053778551331e-001

1.19747870461893e+004,-1.78154135439707e+001,-1.61273912813008e-001

1.21419488439505e+004,-1.78154149145913e+001,-1.63525031621883e-001

1.23114441334492e+004,-1.78154163237097e+001,-1.65807567191409e-001

1.24833054890161e+004,-1.78154177724060e+001,-1.68121957759547e-001

1.26575659397028e+004,-1.78154192617911e+001,-1.70468647662686e-001

1.28342589756290e+004,-1.78154207930061e+001,-1.72848087431520e-001

1.30134185544193e+004,-1.78154223672249e+001,-1.75260733866370e-001

1.31950791077289e+004,-1.78154239856539e+001,-1.77707050131079e-001

1.33792755478611e+004,-1.78154256495335e+001,-1.80187505836669e-001

1.35660432744767e+004,-1.78154273601386e+001,-1.82702577133500e-001

1.37554181813974e+004,-1.78154291187796e+001,-1.85252746802956e-001

1.39474366635040e+004,-1.78154309268042e+001,-1.87838504344114e-001

1.41421356237309e+004,-1.78154327855970e+001,-1.90460346073307e-001

1.43395524801583e+004,-1.78154346965820e+001,-1.93118775211703e-001

1.45397251732031e+004,-1.78154366612227e+001,-1.95814301987458e-001

1.47426921729110e+004,-1.78154386810237e+001,-1.98547443726119e-001

1.49484924863494e+004,-1.78154407575316e+001,-2.01318724955484e-001

1.51571656651040e+004,-1.78154428923361e+001,-2.04128677499563e-001

1.53687518128801e+004,-1.78154450870714e+001,-2.06977840583092e-001

1.55832915932100e+004,-1.78154473434178e+001,-2.09866760930928e-001

1.58008262372675e+004,-1.78154496631020e+001,-2.12795992873628e-001

1.60213975517924e+004,-1.78154520478992e+001,-2.15766098453040e-001

1.62450479271247e+004,-1.78154544996340e+001,-2.18777647526776e-001

1.64718203453514e+004,-1.78154570201823e+001,-2.21831217876793e-001

1.67017583885674e+004,-1.78154596114722e+001,-2.24927395319859e-001

1.69349062472505e+004,-1.78154622754856e+001,-2.28066773816331e-001

1.71713087287550e+004,-1.78154650142598e+001,-2.31249955584288e-001

1.74110112659224e+004,-1.78154678298889e+001,-2.34477551213167e-001

1.76540599258131e+004,-1.78154707245255e+001,-2.37750179777628e-001

1.79005014185594e+004,-1.78154737003822e+001,-2.41068468955444e-001

1.81503831063432e+004,-1.78154767597333e+001,-2.44433055147456e-001

1.84037530124975e+004,-1.78154799049168e+001,-2.47844583593546e-001

1.86606598307361e+004,-1.78154831383354e+001,-2.51303708498715e-001

1.89211529345119e+004,-1.78154864624592e+001,-2.54811093153902e-001

1.91852823865052e+004,-1.78154898798268e+001,-2.58367410061835e-001

1.94530989482457e+004,-1.78154933930478e+001,-2.61973341063262e-001

1.97246540898671e+004,-1.78154970048044e+001,-2.65629577463025e-001

1.99999999999999e+004,-1.78155007178535e+001,-2.69336820164703e-001

2.02791895958005e+004,-1.78155045350285e+001,-2.73095779800067e-001

2.05622765331213e+004,-1.78155084592421e+001,-2.76907176859892e-001

2.08493152168224e+004,-1.78155124934877e+001,-2.80771741832720e-001

2.11403608112276e+004,-1.78155166408421e+001,-2.84690215340374e-001

2.14354692507258e+004,-1.78155209044678e+001,-2.88663348276220e-001

2.17346972505211e+004,-1.78155252876148e+001,-2.92691901948527e-001

2.20381023175322e+004,-1.78155297936237e+001,-2.96776648218665e-001

2.23457427614443e+004,-1.78155344259280e+001,-3.00918369647983e-001

2.26576777059159e+004,-1.78155391880562e+001,-3.05117859644622e-001

2.29739670999406e+004,-1.78155440836351e+001,-3.09375922609572e-001

2.32946717293690e+004,-1.78155491163920e+001,-3.13693374088399e-001

2.36198532285905e+004,-1.78155542901574e+001,-3.18071040922360e-001

2.39495740923785e+004,-1.78155596088686e+001,-3.22509761401956e-001

2.42838976879009e+004,-1.78155650765714e+001,-3.27010385424478e-001

2.46228882668982e+004,-1.78155706974240e+001,-3.31573774650526e-001

2.49666109780322e+004,-1.78155764756998e+001,-3.36200802665192e-001

2.53151318794055e+004,-1.78155824157903e+001,-3.40892355138637e-001

2.56685179512580e+004,-1.78155885222089e+001,-3.45649329990905e-001

2.60268371088386e+004,-1.78155947995934e+001,-3.50472637560333e-001

2.63901582154578e+004,-1.78156012527102e+001,-3.55363200766778e-001

2.67585510957221e+004,-1.78156078864572e+001,-3.60321955287934e-001

2.71320865489533e+004,-1.78156147058676e+001,-3.65349849728245e-001

2.75108363627948e+004,-1.78156217161136e+001,-3.70447845795441e-001

2.78948733270080e+004,-1.78156289225101e+001,-3.75616918477116e-001

2.82842712474618e+004,-1.78156363305187e+001,-3.80858056218762e-001

2.86791049603164e+004,-1.78156439457513e+001,-3.86172261108880e-001

2.90794503464061e+004,-1.78156517739747e+001,-3.91560549058525e-001

2.94853843458219e+004,-1.78156598211141e+001,-3.97023949991081e-001

2.98969849726987e+004,-1.78156680932582e+001,-4.02563508028037e-001

3.03143313302078e+004,-1.78156765966626e+001,-4.08180281682249e-001

3.07375036257601e+004,-1.78156853377553e+001,-4.13875344048241e-001

3.11665831864199e+004,-1.78156943231404e+001,-4.19649783000839e-001

3.16016524745350e+004,-1.78157035596037e+001,-4.25504701389588e-001

3.20427951035848e+004,-1.78157130541168e+001,-4.31441217243003e-001

3.24900958542493e+004,-1.78157228138426e+001,-4.37460463968620e-001

3.29436406907028e+004,-1.78157328461397e+001,-4.43563590559555e-001

3.34035167771346e+004,-1.78157431585688e+001,-4.49751761800802e-001

3.38698124945009e+004,-1.78157537588968e+001,-4.56026158481300e-001

3.43426174575100e+004,-1.78157646551031e+001,-4.62387977606043e-001

3.48220225318448e+004,-1.78157758553848e+001,-4.68838432610285e-001

3.53081198516260e+004,-1.78157873681626e+001,-4.75378753579735e-001

3.58010028371187e+004,-1.78157992020870e+001,-4.82010187468011e-001

3.63007662126863e+004,-1.78158113660437e+001,-4.88733998322142e-001

3.68075060249948e+004,-1.78158238691605e+001,-4.95551467506935e-001

3.73213196614721e+004,-1.78158367208129e+001,-5.02463893934253e-001

3.78423058690237e+004,-1.78158499306315e+001,-5.09472594292020e-001

3.83705647730104e+004,-1.78158635085078e+001,-5.16578903280033e-001

3.89061978964912e+004,-1.78158774646013e+001,-5.23784173845149e-001

3.94493081797342e+004,-1.78158918093469e+001,-5.31089777419969e-001

3.99999999999998e+004,-1.78159065534614e+001,-5.38497104164477e-001

4.05583791916010e+004,-1.78159217079512e+001,-5.46007563210610e-001

4.11245530662425e+004,-1.78159372841198e+001,-5.53622582909362e-001

4.16986304336447e+004,-1.78159532935750e+001,-5.61343611081741e-001

4.22807216224550e+004,-1.78159697482374e+001,-5.69172115267933e-001

4.28709385014515e+004,-1.78159866603477e+001,-5.77109582987063e-001

4.34693945010421e+004,-1.78160040424757e+001,-5.85157521991128e-001

4.40762046350642e+004,-1.78160219075279e+001,-5.93317460528964e-001

4.46914855228886e+004,-1.78160402687565e+001,-6.01590947608697e-001

4.53153554118317e+004,-1.78160591397681e+001,-6.09979553263003e-001

4.59479341998812e+004,-1.78160785345326e+001,-6.18484868821276e-001

4.65893434587380e+004,-1.78160984673923e+001,-6.27108507178776e-001

4.72397064571810e+004,-1.78161189530712e+001,-6.35852103073228e-001

4.78991481847569e+004,-1.78161400066847e+001,-6.44717313362873e-001

4.85677953758016e+004,-1.78161616437496e+001,-6.53705817303607e-001

4.92457765337964e+004,-1.78161838801932e+001,-6.62819316837662e-001

4.99332219560642e+004,-1.78162067323644e+001,-6.72059536874386e-001

5.06302637588109e+004,-1.78162302170434e+001,-6.81428225584470e-001

5.13370359025159e+004,-1.78162543514528e+001,-6.90927154686833e-001

5.20536742176771e+004,-1.78162791532680e+001,-7.00558119745312e-001

5.27803164309155e+004,-1.78163046406283e+001,-7.10322940468003e-001

5.35171021914442e+004,-1.78163308321482e+001,-7.20223461004122e-001

5.42641730979066e+004,-1.78163577469291e+001,-7.30261550247932e-001

5.50216727255895e+004,-1.78163854045703e+001,-7.40439102146270e-001

5.57897466540159e+004,-1.78164138251814e+001,-7.50758036005135e-001

5.65685424949235e+004,-1.78164430293944e+001,-7.61220296801540e-001

5.73582099206328e+004,-1.78164730383756e+001,-7.71827855497822e-001

5.81589006928121e+004,-1.78165038738387e+001,-7.82582709358603e-001

5.89707686916437e+004,-1.78165355580571e+001,-7.93486882269123e-001

5.97939699453972e+004,-1.78165681138772e+001,-8.04542425058808e-001

6.06286626604156e+004,-1.78166015647312e+001,-8.15751415824950e-001

6.14750072515201e+004,-1.78166359346510e+001,-8.27115960261670e-001

6.23331663728396e+004,-1.78166712482814e+001,-8.38638191988154e-001

6.32033049490698e+004,-1.78167075308942e+001,-8.50320272882815e-001

6.40855902071694e+004,-1.78167448084021e+001,-8.62164393417931e-001

6.49801917084985e+004,-1.78167831073730e+001,-8.74172772998328e-001

6.58872813814055e+004,-1.78168224550445e+001,-8.86347660300574e-001

6.68070335542691e+004,-1.78168628793383e+001,-8.98691333616817e-001

6.77396249890018e+004,-1.78169044088755e+001,-9.11206101200236e-001

6.86852349150199e+004,-1.78169470729912e+001,-9.23894301611150e-001

6.96440450636895e+004,-1.78169909017496e+001,-9.36758304070565e-001

7.06162397032520e+004,-1.78170359259601e+001,-9.49800508808453e-001

7.16020056742374e+004,-1.78170821771922e+001,-9.63023347421515e-001

7.26015324253724e+004,-1.78171296877910e+001,-9.76429283230748e-001

7.36150120499896e+004,-1.78171784908941e+001,-9.90020811637582e-001

7.46426393229441e+004,-1.78172286204462e+001,-1.00380046048956e+000

7.56846117380472e+004,-1.78172801112166e+001,-1.01777079044085e+000

7.67411295460207e+004,-1.78173329988142e+001,-1.03193439531916e+000

7.78123957929823e+004,-1.78173873197047e+001,-1.04629390249486e+000

7.88986163594682e+004,-1.78174431112267e+001,-1.06085197324903e+000

7.99999999999995e+004,-1.78175004116081e+001,-1.07561130314687e+000

8.11167583832018e+004,-1.78175592599827e+001,-1.09057462241105e+000

8.22491061324848e+004,-1.78176196964069e+001,-1.10574469629742e+000

8.33972608672892e+004,-1.78176817618765e+001,-1.12112432547331e+000

8.45614432449099e+004,-1.78177454983427e+001,-1.13671634639574e+000

8.57418770029029e+004,-1.78178109487294e+001,-1.15252363169480e+000

8.69387890020841e+004,-1.78178781569490e+001,-1.16854909055515e+000

8.81524092701283e+004,-1.78179471679198e+001,-1.18479566910036e+000

8.93829710457770e+004,-1.78180180275815e+001,-1.20126635078214e+000

9.06307108236633e+004,-1.78180907829122e+001,-1.21796415676423e+000

9.18958683997622e+004,-1.78181654819438e+001,-1.23489214631655e+000

9.31786869174758e+004,-1.78182421737787e+001,-1.25205341720271e+000

9.44794129143618e+004,-1.78183209086052e+001,-1.26945110607545e+000

9.57982963695136e+004,-1.78184017377126e+001,-1.28708838887031e+000

9.71355907516031e+004,-1.78184847135070e+001,-1.30496848120170e+000

9.84915530675926e+004,-1.78185698895262e+001,-1.32309463875963e+000

9.98664439121282e+004,-1.78186573204535e+001,-1.34147015771069e+000

1.01260527517622e+005,-1.78187470621328e+001,-1.36009837509670e+000

1.02674071805032e+005,-1.78188391715815e+001,-1.37898266923839e+000

1.04107348435354e+005,-1.78189337070044e+001,-1.39812646013850e+000

1.05560632861831e+005,-1.78190307278055e+001,-1.41753320988829e+000

1.07034204382888e+005,-1.78191302946010e+001,-1.43720642307342e+000

1.08528346195813e+005,-1.78192324692301e+001,-1.45714964718399e+000

1.10043345451179e+005,-1.78193373147659e+001,-1.47736647302514e+000

1.11579493308032e+005,-1.78194448955255e+001,-1.49786053512894e+000

1.13137084989847e+005,-1.78195552770793e+001,-1.51863551217074e+000

1.14716419841265e+005,-1.78196685262587e+001,-1.53969512738538e+000

1.16317801385624e+005,-1.78197847111643e+001,-1.56104314898546e+000

1.17941537383287e+005,-1.78199039011717e+001,-1.58268339058413e+000

1.19587939890794e+005,-1.78200261669369e+001,-1.60461971161999e+000

1.21257325320831e+005,-1.78201515804006e+001,-1.62685601778226e+000

1.22950014503040e+005,-1.78202802147913e+001,-1.64939626144202e+000

1.24666332745679e+005,-1.78204121446264e+001,-1.67224444208626e+000

1.26406609898139e+005,-1.78205474457132e+001,-1.69540460675360e+000

1.28171180414339e+005,-1.78206861951473e+001,-1.71888085047576e+000

1.29960383416997e+005,-1.78208284713102e+001,-1.74267731672301e+000

1.31774562762811e+005,-1.78209743538647e+001,-1.76679819785372e+000

1.33614067108538e+005,-1.78211239237494e+001,-1.79124773556772e+000

1.35479249978003e+005,-1.78212772631708e+001,-1.81603022136767e+000

1.37370469830040e+005,-1.78214344555936e+001,-1.84114999702474e+000

1.39288090127379e+005,-1.78215955857294e+001,-1.86661145505071e+000

1.41232479406504e+005,-1.78217607395230e+001,-1.89241903917636e+000

1.43204011348474e+005,-1.78219300041368e+001,-1.91857724483920e+000

1.45203064850745e+005,-1.78221034679330e+001,-1.94509061967785e+000

1.47230024099979e+005,-1.78222812204531e+001,-1.97196376403573e+000

1.49285278645888e+005,-1.78224633523956e+001,-1.99920133147428e+000

1.51369223476094e+005,-1.78226499555912e+001,-2.02680802929608e+000

1.53482259092041e+005,-1.78228411229744e+001,-2.05478861908036e+000

1.55624791585964e+005,-1.78230369485540e+001,-2.08314791722974e+000

1.57797232718936e+005,-1.78232375273796e+001,-2.11189079552903e+000

1.59999999999999e+005,-1.78234429555063e+001,-2.14102218172002e+000

1.62233516766403e+005,-1.78236533299552e+001,-2.17054706009021e+000

1.64498212264969e+005,-1.78238687486723e+001,-2.20047047207794e+000

1.66794521734578e+005,-1.78240893104835e+001,-2.23079751689452e+000

1.69122886489819e+005,-1.78243151150470e+001,-2.26153335216462e+000

1.71483754005805e+005,-1.78245462628018e+001,-2.29268319458888e+000

1.73877578004168e+005,-1.78247828549138e+001,-2.32425232062503e+000

1.76304818540256e+005,-1.78250249932181e+001,-2.35624606719218e+000

1.78765942091554e+005,-1.78252727801580e+001,-2.38866983240129e+000

1.81261421647326e+005,-1.78255263187210e+001,-2.42152907630899e+000

1.83791736799524e+005,-1.78257857123708e+001,-2.45482932170022e+000

1.86357373834951e+005,-1.78260510649766e+001,-2.48857615489910e+000

1.88958825828723e+005,-1.78263224807385e+001,-2.52277522661098e+000

1.91596592739027e+005,-1.78266000641096e+001,-2.55743225279728e+000

1.94271181503206e+005,-1.78268839197146e+001,-2.59255301558498e+000

1.96983106135185e+005,-1.78271741522655e+001,-2.62814336421065e+000

1.99732887824256e+005,-1.78274708664735e+001,-2.66420921600587e+000

2.02521055035243e+005,-1.78277741669580e+001,-2.70075655741981e+000

2.05348143610063e+005,-1.78280841581516e+001,-2.73779144508738e+000

2.08214696870707e+005,-1.78284009442037e+001,-2.77532000693882e+000

2.11121265723661e+005,-1.78287246288793e+001,-2.81334844335807e+000

2.14068408765776e+005,-1.78290553154562e+001,-2.85188302838962e+000

2.17056692391625e+005,-1.78293931066185e+001,-2.89093011099532e+000

2.20086690902357e+005,-1.78297381043490e+001,-2.93049611636560e+000

2.23158986616063e+005,-1.78300904098177e+001,-2.97058754728595e+000

2.26274169979693e+005,-1.78304501232693e+001,-3.01121098555964e+000

2.29432839682530e+005,-1.78308173439080e+001,-3.05237309349341e+000

2.32635602771247e+005,-1.78311921697818e+001,-3.09408061544034e+000

2.35883074766574e+005,-1.78315746976641e+001,-3.13634037941315e+000

2.39175879781588e+005,-1.78319650229354e+001,-3.17915929875758e+000

2.42514650641661e+005,-1.78323632394636e+001,-3.22254437389901e+000

2.45900029006080e+005,-1.78327694394845e+001,-3.26650269415667e+000

2.49332665491357e+005,-1.78331837134817e+001,-3.31104143963155e+000

2.52813219796278e+005,-1.78336061500677e+001,-3.35616788316764e+000

2.56342360828676e+005,-1.78340368358655e+001,-3.40188939238993e+000

2.59920766833993e+005,-1.78344758553915e+001,-3.44821343181944e+000

2.63549125525621e+005,-1.78349232909405e+001,-3.49514756506787e+000

2.67228134217075e+005,-1.78353792224726e+001,-3.54269945711223e+000

2.70958499956006e+005,-1.78358437275036e+001,-3.59087687665092e+000

2.74740939660078e+005,-1.78363168809987e+001,-3.63968769854326e+000

2.78576180254757e+005,-1.78367987552696e+001,-3.68913990633246e+000

2.82464958813007e+005,-1.78372894198767e+001,-3.73924159485226e+000

2.86408022696948e+005,-1.78377889415370e+001,-3.79000097291858e+000

2.90406129701488e+005,-1.78382973840369e+001,-3.84142636610600e+000

2.94460048199957e+005,-1.78388148081518e+001,-3.89352621960881e+000

2.98570557291775e+005,-1.78393412715736e+001,-3.94630910118722e+000

3.02738446952187e+005,-1.78398768288448e+001,-3.99978370419670e+000

3.06964518184081e+005,-1.78404215313021e+001,-4.05395885070111e+000

3.11249583171928e+005,-1.78409754270286e+001,-4.10884349466769e+000

3.15594465437872e+005,-1.78415385608162e+001,-4.16444672524281e+000

3.19999999999997e+005,-1.78421109741381e+001,-4.22077777010628e+000

3.24467033532806e+005,-1.78426927051330e+001,-4.27784599890275e+000

3.28996424529938e+005,-1.78432837886009e+001,-4.33566092674765e+000

3.33589043469155e+005,-1.78438842560113e+001,-4.39423221780537e+000

3.38245772979638e+005,-1.78444941355249e+001,-4.45356968893666e+000

3.42967508011610e+005,-1.78451134520287e+001,-4.51368331341048e+000

3.47755156008335e+005,-1.78457422271858e+001,-4.57458322467917e+000

3.52609637080511e+005,-1.78463804794997e+001,-4.63627972021205e+000

3.57531884183106e+005,-1.78470282243945e+001,-4.69878326538241e+000

3.62522843294651e+005,-1.78476854743109e+001,-4.76210449740482e+000

3.67583473599047e+005,-1.78483522388183e+001,-4.82625422931707e+000

3.72714747669902e+005,-1.78490285247443e+001,-4.89124345400216e+000

3.77917651657445e+005,-1.78497143363210e+001,-4.95708334824566e+000

3.83193185478053e+005,-1.78504096753486e+001,-5.02378527682200e+000

3.88542363006410e+005,-1.78511145413778e+001,-5.09136079660469e+000

3.93966212270369e+005,-1.78518289319086e+001,-5.15982166069516e+000

3.99465775648511e+005,-1.78525528426090e+001,-5.22917982256266e+000

4.05042110070485e+005,-1.78532862675504e+001,-5.29944744019131e+000

4.10696287220124e+005,-1.78540291994623e+001,-5.37063688022772e+000

4.16429393741414e+005,-1.78547816300049e+001,-5.44276072212062e+000

4.22242531447321e+005,-1.78555435500595e+001,-5.51583176225007e+000

4.28136817531551e+005,-1.78563149500374e+001,-5.58986301803758e+000

4.34113384783250e+005,-1.78570958202062e+001,-5.66486773203158e+000

4.40173381804713e+005,-1.78578861510338e+001,-5.74085937596311e+000

4.46317973232124e+005,-1.78586859335490e+001,-5.81785165476416e+000

4.52548339959385e+005,-1.78594951597189e+001,-5.89585851054493e+000

4.58865679365059e+005,-1.78603138228429e+001,-5.97489412652293e+000

4.65271205542494e+005,-1.78611419179617e+001,-6.05497293089922e+000

4.71766149533147e+005,-1.78619794422811e+001,-6.13610960067712e+000

4.78351759563174e+005,-1.78628263956109e+001,-6.21831906541834e+000

4.85029301283321e+005,-1.78636827808164e+001,-6.30161651093091e+000

4.91800058012158e+005,-1.78645486042836e+001,-6.38601738288781e+000

4.98665330982714e+005,-1.78654238763951e+001,-6.47153739037013e+000

5.05626439592555e+005,-1.78663086120186e+001,-6.55819250933177e+000

5.12684721657352e+005,-1.78672028310044e+001,-6.64599898598420e+000

5.19841533667984e+005,-1.78681065586929e+001,-6.73497334009790e+000

5.27098251051240e+005,-1.78690198264299e+001,-6.82513236821859e+000

5.34456268434150e+005,-1.78699426720897e+001,-6.91649314679744e+000

5.41916999912011e+005,-1.78708751406042e+001,-7.00907303523407e+000

