Freq.,VOut,OutRef

1.00000000000000e+004,-1.63466754430141e+001,-1.82674265773538e-001

1.01395947979003e+004,-1.63466760773226e+001,-1.85224246485846e-001

1.02811382665607e+004,-1.63466767294548e+001,-1.87809821182955e-001

1.04246576084112e+004,-1.63466773999110e+001,-1.90431486635437e-001

1.05701804056138e+004,-1.63466780892062e+001,-1.93089746543483e-001

1.07177346253629e+004,-1.63466787978692e+001,-1.95785111636272e-001

1.08673486252606e+004,-1.63466795264438e+001,-1.98518099767004e-001

1.10190511587661e+004,-1.63466802754893e+001,-2.01289236011409e-001

1.11728713807222e+004,-1.63466810455805e+001,-2.04099052771470e-001

1.13288388529580e+004,-1.63466818373082e+001,-2.06948089875521e-001

1.14869835499703e+004,-1.63466826512801e+001,-2.09836894680716e-001

1.16473358646846e+004,-1.63466834881207e+001,-2.12766022181569e-001

1.18099266142953e+004,-1.63466843484720e+001,-2.15736035112587e-001

1.19747870461893e+004,-1.63466852329942e+001,-2.18747504056697e-001

1.21419488439505e+004,-1.63466861423657e+001,-2.21801007557044e-001

1.23114441334492e+004,-1.63466870772841e+001,-2.24897132225292e-001

1.24833054890161e+004,-1.63466880384667e+001,-2.28036472853500e-001

1.26575659397028e+004,-1.63466890266504e+001,-2.31219632532197e-001

1.28342589756290e+004,-1.63466900425936e+001,-2.34447222758989e-001

1.30134185544193e+004,-1.63466910870750e+001,-2.37719863563893e-001

1.31950791077289e+004,-1.63466921608959e+001,-2.41038183619465e-001

1.33792755478611e+004,-1.63466932648795e+001,-2.44402820369633e-001

1.35660432744767e+004,-1.63466943998725e+001,-2.47814420142988e-001

1.37554181813974e+004,-1.63466955667448e+001,-2.51273638285831e-001

1.39474366635040e+004,-1.63466967663912e+001,-2.54781139278555e-001

1.41421356237309e+004,-1.63466979997312e+001,-2.58337596870040e-001

1.43395524801583e+004,-1.63466992677103e+001,-2.61943694200962e-001

1.45397251732031e+004,-1.63467005713003e+001,-2.65600123939069e-001

1.47426921729110e+004,-1.63467019115002e+001,-2.69307588408089e-001

1.49484924863494e+004,-1.63467032893372e+001,-2.73066799724543e-001

1.51571656651040e+004,-1.63467047058667e+001,-2.76878479933615e-001

1.53687518128801e+004,-1.63467061621744e+001,-2.80743361144106e-001

1.55832915932100e+004,-1.63467076593759e+001,-2.84662185672741e-001

1.58008262372675e+004,-1.63467091986180e+001,-2.88635706183605e-001

1.60213975517924e+004,-1.63467107810799e+001,-2.92664685832283e-001

1.62450479271247e+004,-1.63467124079733e+001,-2.96749898412598e-001

1.64718203453514e+004,-1.63467140805444e+001,-3.00892128502004e-001

1.67017583885674e+004,-1.63467158000735e+001,-3.05092171616452e-001

1.69349062472505e+004,-1.63467175678776e+001,-3.09350834354873e-001

1.71713087287550e+004,-1.63467193853097e+001,-3.13668934560760e-001

1.74110112659224e+004,-1.63467212537611e+001,-3.18047301472819e-001

1.76540599258131e+004,-1.63467231746617e+001,-3.22486775886620e-001

1.79005014185594e+004,-1.63467251494816e+001,-3.26988210313908e-001

1.81503831063432e+004,-1.63467271797318e+001,-3.31552469143342e-001

1.84037530124975e+004,-1.63467292669658e+001,-3.36180428808527e-001

1.86606598307361e+004,-1.63467314127799e+001,-3.40872977954416e-001

1.89211529345119e+004,-1.63467336188156e+001,-3.45631017605001e-001

1.91852823865052e+004,-1.63467358867598e+001,-3.50455461337291e-001

1.94530989482457e+004,-1.63467382183467e+001,-3.55347235452988e-001

1.97246540898671e+004,-1.63467406153589e+001,-3.60307279157747e-001

1.99999999999999e+004,-1.63467430796284e+001,-3.65336544739274e-001

2.02791895958005e+004,-1.63467456130389e+001,-3.70435997745591e-001

2.05622765331213e+004,-1.63467482175261e+001,-3.75606617174882e-001

2.08493152168224e+004,-1.63467508950800e+001,-3.80849395655975e-001

2.11403608112276e+004,-1.63467536477458e+001,-3.86165339641294e-001

2.14354692507258e+004,-1.63467564776259e+001,-3.91555469596292e-001

2.17346972505211e+004,-1.63467593868813e+001,-3.97020820194079e-001

2.20381023175322e+004,-1.63467623777329e+001,-4.02562440512854e-001

2.23457427614443e+004,-1.63467654524638e+001,-4.08181394234137e-001

2.26576777059159e+004,-1.63467686134205e+001,-4.13878759845300e-001

2.29739670999406e+004,-1.63467718630147e+001,-4.19655630845760e-001

2.32946717293690e+004,-1.63467752037255e+001,-4.25513115952364e-001

2.36198532285905e+004,-1.63467786381007e+001,-4.31452339312359e-001

2.39495740923785e+004,-1.63467821687589e+001,-4.37474440714406e-001

2.42838976879009e+004,-1.63467857983918e+001,-4.43580575806870e-001

2.46228882668982e+004,-1.63467895297657e+001,-4.49771916315561e-001

2.49666109780322e+004,-1.63467933657237e+001,-4.56049650267263e-001

2.53151318794055e+004,-1.63467973091879e+001,-4.62414982213064e-001

2.56685179512580e+004,-1.63468013631616e+001,-4.68869133458926e-001

2.60268371088386e+004,-1.63468055307315e+001,-4.75413342294141e-001

2.63901582154578e+004,-1.63468098150697e+001,-4.82048864228466e-001

2.67585510957221e+004,-1.63468142194363e+001,-4.88776972228868e-001

2.71320865489533e+004,-1.63468187471822e+001,-4.95598956958688e-001

2.75108363627948e+004,-1.63468234017504e+001,-5.02516127024662e-001

2.78948733270080e+004,-1.63468281866800e+001,-5.09529809220532e-001

2.82842712474618e+004,-1.63468331056076e+001,-5.16641348781995e-001

2.86791049603164e+004,-1.63468381622707e+001,-5.23852109636681e-001

2.90794503464061e+004,-1.63468433605101e+001,-5.31163474664028e-001

2.94853843458219e+004,-1.63468487042728e+001,-5.38576845955291e-001

2.98969849726987e+004,-1.63468541976149e+001,-5.46093645077792e-001

3.03143313302078e+004,-1.63468598447044e+001,-5.53715313343676e-001

3.07375036257601e+004,-1.63468656498246e+001,-5.61443312079678e-001

3.11665831864199e+004,-1.63468716173769e+001,-5.69279122904448e-001

3.16016524745350e+004,-1.63468777518841e+001,-5.77224248004758e-001

3.20427951035848e+004,-1.63468840579936e+001,-5.85280210420048e-001

3.24900958542493e+004,-1.63468905404810e+001,-5.93448554326955e-001

3.29436406907028e+004,-1.63468972042533e+001,-6.01730845330749e-001

3.34035167771346e+004,-1.63469040543526e+001,-6.10128670758245e-001

3.38698124945009e+004,-1.63469110959595e+001,-6.18643639955818e-001

3.43426174575100e+004,-1.63469183343971e+001,-6.27277384591000e-001

3.48220225318448e+004,-1.63469257751348e+001,-6.36031558957778e-001

3.53081198516260e+004,-1.63469334237920e+001,-6.44907840286508e-001

3.58010028371187e+004,-1.63469412861423e+001,-6.53907929057442e-001

3.63007662126863e+004,-1.63469493681176e+001,-6.63033549319706e-001

3.68075060249948e+004,-1.63469576758121e+001,-6.72286449011054e-001

3.73213196614721e+004,-1.63469662154872e+001,-6.81668400285461e-001

3.78423058690237e+004,-1.63469749935752e+001,-6.91181199843967e-001

3.83705647730104e+004,-1.63469840166841e+001,-7.00826669268780e-001

3.89061978964912e+004,-1.63469932916029e+001,-7.10606655361169e-001

3.94493081797342e+004,-1.63470028253053e+001,-7.20523030488045e-001

3.99999999999998e+004,-1.63470126249555e+001,-7.30577692926636e-001

4.05583791916010e+004,-1.63470226979124e+001,-7.40772567219871e-001

4.11245530662425e+004,-1.63470330517356e+001,-7.51109604530585e-001

4.16986304336447e+004,-1.63470436941901e+001,-7.61590783004957e-001

4.22807216224550e+004,-1.63470546332518e+001,-7.72218108138935e-001

4.28709385014515e+004,-1.63470658771129e+001,-7.82993613148183e-001

4.34693945010421e+004,-1.63470774341879e+001,-7.93919359344265e-001

4.40762046350642e+004,-1.63470893131192e+001,-8.04997436514338e-001

4.46914855228886e+004,-1.63471015227828e+001,-8.16229963308607e-001

4.53153554118317e+004,-1.63471140722946e+001,-8.27619087628683e-001

4.59479341998812e+004,-1.63471269710167e+001,-8.39166987022805e-001

4.65893434587380e+004,-1.63471402285637e+001,-8.50875869086873e-001

4.72397064571810e+004,-1.63471538548088e+001,-8.62747971870508e-001

4.78991481847569e+004,-1.63471678598909e+001,-8.74785564285111e-001

4.85677953758016e+004,-1.63471822542214e+001,-8.86990946520731e-001

4.92457765337964e+004,-1.63471970484907e+001,-8.99366450467511e-001

4.99332219560642e+004,-1.63472122536760e+001,-9.11914440140027e-001

5.06302637588109e+004,-1.63472278810480e+001,-9.24637312109725e-001

5.13370359025159e+004,-1.63472439421784e+001,-9.37537495941483e-001

5.20536742176771e+004,-1.63472604489479e+001,-9.50617454634934e-001

5.27803164309155e+004,-1.63472774135535e+001,-9.63879685072822e-001

5.35171021914442e+004,-1.63472948485167e+001,-9.77326718473761e-001

5.42641730979066e+004,-1.63473127666915e+001,-9.90961120850393e-001

5.50216727255895e+004,-1.63473311812727e+001,-1.00478549347400e+000

5.57897466540159e+004,-1.63473501058042e+001,-1.01880247334467e+000

5.65685424949235e+004,-1.63473695541880e+001,-1.03301473366690e+000

5.73582099206328e+004,-1.63473895406928e+001,-1.04742498432923e+000

5.81589006928121e+004,-1.63474100799626e+001,-1.06203597239419e+000

5.89707686916437e+004,-1.63474311870266e+001,-1.07685048258952e+000

5.97939699453972e+004,-1.63474528773080e+001,-1.09187133780750e+000

6.06286626604156e+004,-1.63474751666339e+001,-1.10710139960986e+000

6.14750072515201e+004,-1.63474980712444e+001,-1.12254356873919e+000

6.23331663728396e+004,-1.63475216078035e+001,-1.13820078563564e+000

6.32033049490698e+004,-1.63475457934081e+001,-1.15407603095992e+000

6.40855902071694e+004,-1.63475706455992e+001,-1.17017232612333e+000

6.49801917084985e+004,-1.63475961823718e+001,-1.18649273382259e+000

6.58872813814055e+004,-1.63476224221856e+001,-1.20304035858223e+000

6.68070335542691e+004,-1.63476493839764e+001,-1.21981834730175e+000

6.77396249890018e+004,-1.63476770871661e+001,-1.23682988981253e+000

6.86852349150199e+004,-1.63477055516752e+001,-1.25407821943622e+000

6.96440450636895e+004,-1.63477347979330e+001,-1.27156661355402e+000

7.06162397032520e+004,-1.63477648468900e+001,-1.28929839417937e+000

7.16020056742374e+004,-1.63477957200295e+001,-1.30727692853995e+000

7.26015324253724e+004,-1.63478274393792e+001,-1.32550562966425e+000

7.36150120499896e+004,-1.63478600275238e+001,-1.34398795697575e+000

7.46426393229441e+004,-1.63478935076171e+001,-1.36272741689360e+000

7.56846117380472e+004,-1.63479279033944e+001,-1.38172756343983e+000

7.67411295460207e+004,-1.63479632391858e+001,-1.40099199885379e+000

7.78123957929823e+004,-1.63479995399277e+001,-1.42052437421492e+000

7.88986163594682e+004,-1.63480368311773e+001,-1.44032839006912e+000

7.99999999999995e+004,-1.63480751391248e+001,-1.46040779706466e+000

8.11167583832018e+004,-1.63481144906071e+001,-1.48076639659524e+000

8.22491061324848e+004,-1.63481549131211e+001,-1.50140804144894e+000

8.33972608672892e+004,-1.63481964348374e+001,-1.52233663646544e+000

8.45614432449099e+004,-1.63482390846138e+001,-1.54355613919918e+000

8.57418770029029e+004,-1.63482828920095e+001,-1.56507056059276e+000

8.69387890020841e+004,-1.63483278872990e+001,-1.58688396565259e+000

8.81524092701283e+004,-1.63483741014859e+001,-1.60900047413847e+000

8.93829710457770e+004,-1.63484215663175e+001,-1.63142426125499e+000

9.06307108236633e+004,-1.63484703142987e+001,-1.65415955835415e+000

9.18958683997622e+004,-1.63485203787067e+001,-1.67721065364427e+000

9.31786869174758e+004,-1.63485717936052e+001,-1.70058189290644e+000

9.44794129143618e+004,-1.63486245938589e+001,-1.72427768022006e+000

9.57982963695136e+004,-1.63486788151482e+001,-1.74830247869448e+000

9.71355907516031e+004,-1.63487344939835e+001,-1.77266081121115e+000

9.84915530675926e+004,-1.63487916677199e+001,-1.79735726117077e+000

9.98664439121282e+004,-1.63488503745719e+001,-1.82239647325152e+000

1.01260527517622e+005,-1.63489106536276e+001,-1.84778315417418e+000

1.02674071805032e+005,-1.63489725448634e+001,-1.87352207347544e+000

1.04107348435354e+005,-1.63490360891584e+001,-1.89961806429130e+000

1.05560632861831e+005,-1.63491013283090e+001,-1.92607602414709e+000

1.07034204382888e+005,-1.63491683050427e+001,-1.95290091575774e+000

1.08528346195813e+005,-1.63492370630325e+001,-1.98009776783683e+000

1.10043345451179e+005,-1.63493076469110e+001,-2.00767167591403e+000

1.11579493308032e+005,-1.63493801022841e+001,-2.03562780316240e+000

1.13137084989847e+005,-1.63494544757446e+001,-2.06397138123498e+000

1.14716419841265e+005,-1.63495308148857e+001,-2.09270771111099e+000

1.16317801385624e+005,-1.63496091683141e+001,-2.12184216395157e+000

1.17941537383287e+005,-1.63496895856632e+001,-2.15138018196559e+000

1.19587939890794e+005,-1.63497721176052e+001,-2.18132727928568e+000

1.21257325320831e+005,-1.63498568158637e+001,-2.21168904285442e+000

1.22950014503040e+005,-1.63499437332256e+001,-2.24247113332184e+000

1.24666332745679e+005,-1.63500329235527e+001,-2.27367928595293e+000

1.26406609898139e+005,-1.63501244417923e+001,-2.30531931154698e+000

1.28171180414339e+005,-1.63502183439885e+001,-2.33739709736721e+000

1.29960383416997e+005,-1.63503146872917e+001,-2.36991860808434e+000

1.31774562762811e+005,-1.63504135299689e+001,-2.40288988672904e+000

1.33614067108538e+005,-1.63505149314119e+001,-2.43631705566011e+000

1.35479249978003e+005,-1.63506189521464e+001,-2.47020631754252e+000

1.37370469830040e+005,-1.63507256538396e+001,-2.50456395634027e+000

1.39288090127379e+005,-1.63508350993071e+001,-2.53939633832226e+000

1.41232479406504e+005,-1.63509473525197e+001,-2.57470991308220e+000

1.43204011348474e+005,-1.63510624786088e+001,-2.61051121457196e+000

1.45203064850745e+005,-1.63511805438710e+001,-2.64680686215165e+000

1.47230024099979e+005,-1.63513016157730e+001,-2.68360356165277e+000

1.49285278645888e+005,-1.63514257629539e+001,-2.72090810645908e+000

1.51369223476094e+005,-1.63515530552277e+001,-2.75872737860297e+000

1.53482259092041e+005,-1.63516835635852e+001,-2.79706834987857e+000

1.55624791585964e+005,-1.63518173601937e+001,-2.83593808297345e+000

1.57797232718936e+005,-1.63519545183969e+001,-2.87534373261670e+000

1.59999999999999e+005,-1.63520951127126e+001,-2.91529254674910e+000

1.62233516766403e+005,-1.63522392188311e+001,-2.95579186770895e+000

1.64498212264969e+005,-1.63523869136102e+001,-2.99684913344126e+000

1.66794521734578e+005,-1.63525382750713e+001,-3.03847187872663e+000

1.69122886489819e+005,-1.63526933823926e+001,-3.08066773643244e+000

1.71483754005805e+005,-1.63528523159026e+001,-3.12344443878678e+000

1.73877578004168e+005,-1.63530151570711e+001,-3.16680981867655e+000

1.76304818540256e+005,-1.63531819885004e+001,-3.21077181096764e+000

1.78765942091554e+005,-1.63533528939137e+001,-3.25533845385518e+000

1.81261421647326e+005,-1.63535279581442e+001,-3.30051789023494e+000

1.83791736799524e+005,-1.63537072671212e+001,-3.34631836910653e+000

1.86357373834951e+005,-1.63538909078560e+001,-3.39274824700262e+000

1.88958825828723e+005,-1.63540789684268e+001,-3.43981598944871e+000

1.91596592739027e+005,-1.63542715379619e+001,-3.48753017245295e+000

1.94271181503206e+005,-1.63544687066217e+001,-3.53589948402925e+000

1.96983106135185e+005,-1.63546705655805e+001,-3.58493272575165e+000

1.99732887824256e+005,-1.63548772070061e+001,-3.63463881434427e+000

2.02521055035243e+005,-1.63550887240393e+001,-3.68502678330554e+000

2.05348143610063e+005,-1.63553052107721e+001,-3.73610578457080e+000

2.08214696870707e+005,-1.63555267622250e+001,-3.78788509021099e+000

2.11121265723661e+005,-1.63557534743238e+001,-3.84037409417223e+000

2.14068408765776e+005,-1.63559854438750e+001,-3.89358231405595e+000

2.17056692391625e+005,-1.63562227685419e+001,-3.94751939293864e+000

2.20086690902357e+005,-1.63564655468188e+001,-4.00219510123914e+000

2.23158986616063e+005,-1.63567138780059e+001,-4.05761933862593e+000

2.26274169979693e+005,-1.63569678621832e+001,-4.11380213597456e+000

2.29432839682530e+005,-1.63572276001851e+001,-4.17075365736901e+000

2.32635602771247e+005,-1.63574931935747e+001,-4.22848420215417e+000

2.35883074766574e+005,-1.63577647446180e+001,-4.28700420703677e+000

2.39175879781588e+005,-1.63580423562595e+001,-4.34632424823864e+000

2.42514650641661e+005,-1.63583261320976e+001,-4.40645504370188e+000

2.45900029006080e+005,-1.63586161763612e+001,-4.46740745534782e+000

2.49332665491357e+005,-1.63589125938880e+001,-4.52919249139141e+000

2.52813219796278e+005,-1.63592154901028e+001,-4.59182130871141e+000

2.56342360828676e+005,-1.63595249709988e+001,-4.65530521527842e+000

2.59920766833993e+005,-1.63598411431203e+001,-4.71965567263988e+000

2.63549125525621e+005,-1.63601641135474e+001,-4.78488429846596e+000

2.67228134217075e+005,-1.63604939898833e+001,-4.85100286915457e+000

2.70958499956006e+005,-1.63608308802448e+001,-4.91802332249766e+000

2.74740939660078e+005,-1.63611748932551e+001,-4.98595776040913e+000

2.78576180254757e+005,-1.63615261380413e+001,-5.05481845171536e+000

2.82464958813007e+005,-1.63618847242345e+001,-5.12461783500807e+000

2.86408022696948e+005,-1.63622507619751e+001,-5.19536852156071e+000

2.90406129701488e+005,-1.63626243619219e+001,-5.26708329830869e+000

2.94460048199957e+005,-1.63630056352665e+001,-5.33977513089233e+000

2.98570557291775e+005,-1.63633946937537e+001,-5.41345716676397e+000

3.02738446952187e+005,-1.63637916497058e+001,-5.48814273835968e+000

3.06964518184081e+005,-1.63641966160555e+001,-5.56384536633157e+000

3.11249583171928e+005,-1.63646097063832e+001,-5.64057876284610e+000

3.15594465437872e+005,-1.63650310349625e+001,-5.71835683494169e+000

3.19999999999997e+005,-1.63654607168128e+001,-5.79719368794964e+000

3.24467033532806e+005,-1.63658988677592e+001,-5.87710362897502e+000

3.28996424529938e+005,-1.63663456045012e+001,-5.95810117043711e+000

3.33589043469155e+005,-1.63668010446895e+001,-6.04020103366735e+000

3.38245772979638e+005,-1.63672653070122e+001,-6.12341815256426e+000

3.42967508011610e+005,-1.63677385112898e+001,-6.20776767730473e+000

3.47755156008335e+005,-1.63682207785802e+001,-6.29326497810677e+000

3.52609637080511e+005,-1.63687122312937e+001,-6.37992564904435e+000

3.57531884183106e+005,-1.63692129933184e+001,-6.46776551191224e+000

3.62522843294651e+005,-1.63697231901564e+001,-6.55680062013671e+000

3.67583473599047e+005,-1.63702429490706e+001,-6.64704726273187e+000

3.72714747669902e+005,-1.63707723992433e+001,-6.73852196829747e+000

3.77917651657445e+005,-1.63713116719461e+001,-6.83124150905603e+000

3.83193185478053e+005,-1.63718609007217e+001,-6.92522290492719e+000

3.88542363006410e+005,-1.63724202215774e+001,-7.02048342763507e+000

3.93966212270369e+005,-1.63729897731909e+001,-7.11704060484659e+000

3.99465775648511e+005,-1.63735696971289e+001,-7.21491222433749e+000

4.05042110070485e+005,-1.63741601380770e+001,-7.31411633818258e+000

4.10696287220124e+005,-1.63747612440835e+001,-7.41467126696683e+000

4.16429393741414e+005,-1.63753731668144e+001,-7.51659560401543e+000

4.22242531447321e+005,-1.63759960618222e+001,-7.61990821963704e+000

4.28136817531551e+005,-1.63766300888258e+001,-7.72462826537976e+000

4.34113384783250e+005,-1.63772754120050e+001,-7.83077517829442e+000

4.40173381804713e+005,-1.63779322003049e+001,-7.93836868520279e+000

4.46317973232124e+005,-1.63786006277548e+001,-8.04742880696788e+000

4.52548339959385e+005,-1.63792808737978e+001,-8.15797586276254e+000

4.58865679365059e+005,-1.63799731236331e+001,-8.27003047433335e+000

4.65271205542494e+005,-1.63806775685695e+001,-8.38361357025775e+000

4.71766149533147e+005,-1.63813944063913e+001,-8.49874639019023e+000

4.78351759563174e+005,-1.63821238417339e+001,-8.61545048909704e+000

4.85029301283321e+005,-1.63828660864721e+001,-8.73374774147384e+000

4.91800058012158e+005,-1.63836213601174e+001,-8.85366034554742e+000

4.98665330982714e+005,-1.63843898902267e+001,-8.97521082745631e+000

5.05626439592555e+005,-1.63851719128196e+001,-9.09842204541070e+000

5.12684721657352e+005,-1.63859676728071e+001,-9.22331719382867e+000

5.19841533667984e+005,-1.63867774244268e+001,-9.34991980744700e+000

5.27098251051240e+005,-1.63876014316892e+001,-9.47825376540685e+000

5.34456268434150e+005,-1.63884399688307e+001,-9.60834329531090e+000

5.41916999912011e+005,-1.63892933207745e+001,-9.74021297725332e+000

