Freq.,VOut,OutRef

1.00000000000000e+004,-1.23700545521482e+001,-1.53429610271317e-001

1.01395947979003e+004,-1.23700550095023e+001,-1.55571347213709e-001

1.02811382665607e+004,-1.23700554797042e+001,-1.57742979117526e-001

1.04246576084112e+004,-1.23700559631148e+001,-1.59944923191281e-001

1.05701804056138e+004,-1.23700564601046e+001,-1.62177602463890e-001

1.07177346253629e+004,-1.23700569710548e+001,-1.64441445863706e-001

1.08673486252606e+004,-1.23700574963571e+001,-1.66736888303399e-001

1.10190511587661e+004,-1.23700580364144e+001,-1.69064370758723e-001

1.11728713807222e+004,-1.23700585916408e+001,-1.71424340356892e-001

1.13288388529580e+004,-1.23700591624618e+001,-1.73817250463454e-001

1.14869835499703e+004,-1.23700597493150e+001,-1.76243560763655e-001

1.16473358646846e+004,-1.23700603526503e+001,-1.78703737355488e-001

1.18099266142953e+004,-1.23700609729302e+001,-1.81198252834987e-001

1.19747870461893e+004,-1.23700616106299e+001,-1.83727586390412e-001

1.21419488439505e+004,-1.23700622662382e+001,-1.86292223891454e-001

1.23114441334492e+004,-1.23700629402576e+001,-1.88892657982874e-001

1.24833054890161e+004,-1.23700636332042e+001,-1.91529388180860e-001

1.26575659397028e+004,-1.23700643456091e+001,-1.94202920963369e-001

1.28342589756290e+004,-1.23700650780180e+001,-1.96913769871909e-001

1.30134185544193e+004,-1.23700658309917e+001,-1.99662455609498e-001

1.31950791077289e+004,-1.23700666051071e+001,-2.02449506136665e-001

1.33792755478611e+004,-1.23700674009570e+001,-2.05275456775055e-001

1.35660432744767e+004,-1.23700682191507e+001,-2.08140850310836e-001

1.37554181813974e+004,-1.23700690603148e+001,-2.11046237094414e-001

1.39474366635040e+004,-1.23700699250929e+001,-2.13992175152088e-001

1.41421356237309e+004,-1.23700708141472e+001,-2.16979230284994e-001

1.43395524801583e+004,-1.23700717281582e+001,-2.20007976182514e-001

1.45397251732031e+004,-1.23700726678254e+001,-2.23078994530179e-001

1.47426921729110e+004,-1.23700736338675e+001,-2.26192875123002e-001

1.49484924863494e+004,-1.23700746270237e+001,-2.29350215973142e-001

1.51571656651040e+004,-1.23700756480538e+001,-2.32551623429295e-001

1.53687518128801e+004,-1.23700766977387e+001,-2.35797712289055e-001

1.55832915932100e+004,-1.23700777768811e+001,-2.39089105917571e-001

1.58008262372675e+004,-1.23700788863062e+001,-2.42426436366932e-001

1.60213975517924e+004,-1.23700800268622e+001,-2.45810344496821e-001

1.62450479271247e+004,-1.23700811994207e+001,-2.49241480095608e-001

1.64718203453514e+004,-1.23700824048781e+001,-2.52720502004569e-001

1.67017583885674e+004,-1.23700836441553e+001,-2.56248078244857e-001

1.69349062472505e+004,-1.23700849181994e+001,-2.59824886142373e-001

1.71713087287550e+004,-1.23700862279833e+001,-2.63451612460940e-001

1.74110112659224e+004,-1.23700875745075e+001,-2.67128953527827e-001

1.76540599258131e+004,-1.23700889588003e+001,-2.70857615370782e-001

1.79005014185594e+004,-1.23700903819184e+001,-2.74638313851348e-001

1.81503831063432e+004,-1.23700918449481e+001,-2.78471774799442e-001

1.84037530124975e+004,-1.23700933490059e+001,-2.82358734154930e-001

1.86606598307361e+004,-1.23700948952393e+001,-2.86299938104115e-001

1.89211529345119e+004,-1.23700964848278e+001,-2.90296143223944e-001

1.91852823865052e+004,-1.23700981189839e+001,-2.94348116625086e-001

1.94530989482457e+004,-1.23700997989536e+001,-2.98456636097211e-001

1.97246540898671e+004,-1.23701015260174e+001,-3.02622490260779e-001

1.99999999999999e+004,-1.23701033014918e+001,-3.06846478709824e-001

2.02791895958005e+004,-1.23701051267292e+001,-3.11129412171868e-001

2.05622765331213e+004,-1.23701070031204e+001,-3.15472112653985e-001

2.08493152168224e+004,-1.23701089320942e+001,-3.19875413606890e-001

2.11403608112276e+004,-1.23701109151191e+001,-3.24340160076608e-001

2.14354692507258e+004,-1.23701129537047e+001,-3.28867208867855e-001

2.17346972505211e+004,-1.23701150494022e+001,-3.33457428705885e-001

2.20381023175322e+004,-1.23701172038056e+001,-3.38111700404089e-001

2.23457427614443e+004,-1.23701194185536e+001,-3.42830917023543e-001

2.26576777059159e+004,-1.23701216953298e+001,-3.47615984050893e-001

2.29739670999406e+004,-1.23701240358646e+001,-3.52467819564438e-001

2.32946717293690e+004,-1.23701264419363e+001,-3.57387354410430e-001

2.36198532285905e+004,-1.23701289153723e+001,-3.62375532377303e-001

2.39495740923785e+004,-1.23701314580506e+001,-3.67433310375739e-001

2.42838976879009e+004,-1.23701340719011e+001,-3.72561658618236e-001

2.46228882668982e+004,-1.23701367589071e+001,-3.77761560805163e-001

2.49666109780322e+004,-1.23701395211062e+001,-3.83034014307771e-001

2.53151318794055e+004,-1.23701423605928e+001,-3.88380030357289e-001

2.56685179512580e+004,-1.23701452795187e+001,-3.93800634236339e-001

2.60268371088386e+004,-1.23701482800954e+001,-3.99296865471356e-001

2.63901582154578e+004,-1.23701513645945e+001,-4.04869778032166e-001

2.67585510957221e+004,-1.23701545353511e+001,-4.10520440523827e-001

2.71320865489533e+004,-1.23701577947641e+001,-4.16249936393658e-001

2.75108363627948e+004,-1.23701611452981e+001,-4.22059364135050e-001

2.78948733270080e+004,-1.23701645894859e+001,-4.27949837489734e-001

2.82842712474618e+004,-1.23701681299296e+001,-4.33922485660991e-001

2.86791049603164e+004,-1.23701717693028e+001,-4.39978453525949e-001

2.90794503464061e+004,-1.23701755103525e+001,-4.46118901846941e-001

2.94853843458219e+004,-1.23701793559008e+001,-4.52345007493708e-001

2.98969849726987e+004,-1.23701833088470e+001,-4.58657963662455e-001

3.03143313302078e+004,-1.23701873721701e+001,-4.65058980098685e-001

3.07375036257601e+004,-1.23701915489302e+001,-4.71549283324506e-001

3.11665831864199e+004,-1.23701958422712e+001,-4.78130116868434e-001

3.16016524745350e+004,-1.23702002554228e+001,-4.84802741497055e-001

3.20427951035848e+004,-1.23702047917029e+001,-4.91568435452021e-001

3.24900958542493e+004,-1.23702094545194e+001,-4.98428494687986e-001

3.29436406907028e+004,-1.23702142473735e+001,-5.05384233114841e-001

3.34035167771346e+004,-1.23702191738613e+001,-5.12436982841883e-001

3.38698124945009e+004,-1.23702242376768e+001,-5.19588094426435e-001

3.43426174575100e+004,-1.23702294426142e+001,-5.26838937126901e-001

3.48220225318448e+004,-1.23702347925707e+001,-5.34190899153960e-001

3.53081198516260e+004,-1.23702402915490e+001,-5.41645387931776e-001

3.58010028371187e+004,-1.23702459436603e+001,-5.49203830357903e-001

3.63007662126863e+004,-1.23702517531267e+001,-5.56867673068351e-001

3.68075060249948e+004,-1.23702577242845e+001,-5.64638382705193e-001

3.73213196614721e+004,-1.23702638615870e+001,-5.72517446188010e-001

3.78423058690237e+004,-1.23702701696071e+001,-5.80506370991080e-001

3.83705647730104e+004,-1.23702766530415e+001,-5.88606685417425e-001

3.89061978964912e+004,-1.23702833167124e+001,-5.96819938886136e-001

3.94493081797342e+004,-1.23702901655718e+001,-6.05147702213565e-001

3.99999999999998e+004,-1.23702972047042e+001,-6.13591567906220e-001

4.05583791916010e+004,-1.23703044393305e+001,-6.22153150450740e-001

4.11245530662425e+004,-1.23703118748110e+001,-6.30834086612171e-001

4.16986304336447e+004,-1.23703195166490e+001,-6.39636035734308e-001

4.22807216224550e+004,-1.23703273704942e+001,-6.48560680044362e-001

4.28709385014515e+004,-1.23703354421474e+001,-6.57609724957632e-001

4.34693945010421e+004,-1.23703437375627e+001,-6.66784899394799e-001

4.40762046350642e+004,-1.23703522628524e+001,-6.76087956092544e-001

4.46914855228886e+004,-1.23703610242907e+001,-6.85520671926677e-001

4.53153554118317e+004,-1.23703700283175e+001,-6.95084848233155e-001

4.59479341998812e+004,-1.23703792815427e+001,-7.04782311136637e-001

4.65893434587380e+004,-1.23703887907500e+001,-7.14614911883863e-001

4.72397064571810e+004,-1.23703985629016e+001,-7.24584527175974e-001

4.78991481847569e+004,-1.23704086051423e+001,-7.34693059510637e-001

4.85677953758016e+004,-1.23704189248039e+001,-7.44942437524429e-001

4.92457765337964e+004,-1.23704295294094e+001,-7.55334616343055e-001

4.99332219560642e+004,-1.23704404266783e+001,-7.65871577931064e-001

5.06302637588109e+004,-1.23704516245305e+001,-7.76555331449903e-001

5.13370359025159e+004,-1.23704631310915e+001,-7.87387913617951e-001

5.20536742176771e+004,-1.23704749546972e+001,-7.98371389076710e-001

5.27803164309155e+004,-1.23704871038985e+001,-8.09507850758639e-001

5.35171021914442e+004,-1.23704995874666e+001,-8.20799420262610e-001

5.42641730979066e+004,-1.23705124143978e+001,-8.32248248230989e-001

5.50216727255895e+004,-1.23705255939193e+001,-8.43856514732504e-001

5.57897466540159e+004,-1.23705391354935e+001,-8.55626429649768e-001

5.65685424949235e+004,-1.23705530488240e+001,-8.67560233071218e-001

5.73582099206328e+004,-1.23705673438608e+001,-8.79660195686760e-001

5.81589006928121e+004,-1.23705820308057e+001,-8.91928619188699e-001

5.89707686916437e+004,-1.23705971201180e+001,-9.04367836677693e-001

5.97939699453972e+004,-1.23706126225202e+001,-9.16980213071623e-001

6.06286626604156e+004,-1.23706285490033e+001,-9.29768145522646e-001

6.14750072515201e+004,-1.23706449108331e+001,-9.42734063833887e-001

6.23331663728396e+004,-1.23706617195557e+001,-9.55880430885726e-001

6.32033049490698e+004,-1.23706789870034e+001,-9.69209743064785e-001

6.40855902071694e+004,-1.23706967253010e+001,-9.82724530695568e-001

6.49801917084985e+004,-1.23707149468713e+001,-9.96427358482808e-001

6.58872813814055e+004,-1.23707336644417e+001,-1.01032082595125e+000

6.68070335542691e+004,-1.23707528910501e+001,-1.02440756789641e+000

6.77396249890018e+004,-1.23707726400508e+001,-1.03869025483736e+000

6.86852349150199e+004,-1.23707929251215e+001,-1.05317159347491e+000

6.96440450636895e+004,-1.23708137602684e+001,-1.06785432715549e+000

7.06162397032520e+004,-1.23708351598336e+001,-1.08274123633848e+000

7.16020056742374e+004,-1.23708571385008e+001,-1.09783513907048e+000

7.26015324253724e+004,-1.23708797113016e+001,-1.11313889146354e+000

7.36150120499896e+004,-1.23709028936220e+001,-1.12865538817878e+000

7.46426393229441e+004,-1.23709267012086e+001,-1.14438756291587e+000

7.56846117380472e+004,-1.23709511501751e+001,-1.16033838890539e+000

7.67411295460207e+004,-1.23709762570084e+001,-1.17651087940887e+000

7.78123957929823e+004,-1.23710020385748e+001,-1.19290808822345e+000

7.88986163594682e+004,-1.23710285121265e+001,-1.20953311019199e+000

7.99999999999995e+004,-1.23710556953076e+001,-1.22638908171608e+000

8.11167583832018e+004,-1.23710836061601e+001,-1.24347918127845e+000

8.22491061324848e+004,-1.23711122631302e+001,-1.26080662996780e+000

8.33972608672892e+004,-1.23711416850739e+001,-1.27837469200960e+000

8.45614432449099e+004,-1.23711718912632e+001,-1.29618667530335e+000

8.57418770029029e+004,-1.23712029013916e+001,-1.31424593196430e+000

8.69387890020841e+004,-1.23712347355799e+001,-1.33255585887141e+000

8.81524092701283e+004,-1.23712674143811e+001,-1.35111989821990e+000

8.93829710457770e+004,-1.23713009587864e+001,-1.36994153808043e+000

9.06307108236633e+004,-1.23713353902298e+001,-1.38902431296445e+000

9.18958683997622e+004,-1.23713707305931e+001,-1.40837180439226e+000

9.31786869174758e+004,-1.23714070022105e+001,-1.42798764147222e+000

9.44794129143618e+004,-1.23714442278731e+001,-1.44787550147886e+000

9.57982963695136e+004,-1.23714824308327e+001,-1.46803911044415e+000

9.71355907516031e+004,-1.23715216348062e+001,-1.48848224374947e+000

9.84915530675926e+004,-1.23715618639783e+001,-1.50920872672516e+000

9.98664439121282e+004,-1.23716031430052e+001,-1.53022243525771e+000

1.01260527517622e+005,-1.23716454970174e+001,-1.55152729640077e+000

1.02674071805032e+005,-1.23716889516214e+001,-1.57312728899478e+000

1.04107348435354e+005,-1.23717335329024e+001,-1.59502644428947e+000

1.05560632861831e+005,-1.23717792674249e+001,-1.61722884657870e+000

1.07034204382888e+005,-1.23718261822346e+001,-1.63973863383545e+000

1.08528346195813e+005,-1.23718743048576e+001,-1.66255999835742e+000

1.10043345451179e+005,-1.23719236633013e+001,-1.68569718741908e+000

1.11579493308032e+005,-1.23719742860526e+001,-1.70915450392973e+000

1.13137084989847e+005,-1.23720262020772e+001,-1.73293630709830e+000

1.14716419841265e+005,-1.23720794408170e+001,-1.75704701310804e+000

1.16317801385624e+005,-1.23721340321871e+001,-1.78149109579471e+000

1.17941537383287e+005,-1.23721900065725e+001,-1.80627308733684e+000

1.19587939890794e+005,-1.23722473948230e+001,-1.83139757894987e+000

1.21257325320831e+005,-1.23723062282483e+001,-1.85686922159076e+000

1.22950014503040e+005,-1.23723665386114e+001,-1.88269272666983e+000

1.24666332745679e+005,-1.23724283581213e+001,-1.90887286677129e+000

1.26406609898139e+005,-1.23724917194247e+001,-1.93541447638380e+000

1.28171180414339e+005,-1.23725566555966e+001,-1.96232245263749e+000

1.29960383416997e+005,-1.23726232001296e+001,-1.98960175605214e+000

1.31774562762811e+005,-1.23726913869225e+001,-2.01725741129525e+000

1.33614067108538e+005,-1.23727612502671e+001,-2.04529450794912e+000

1.35479249978003e+005,-1.23728328248338e+001,-2.07371820128851e+000

1.37370469830040e+005,-1.23729061456563e+001,-2.10253371306887e+000

1.39288090127379e+005,-1.23729812481144e+001,-2.13174633232742e+000

1.41232479406504e+005,-1.23730581679155e+001,-2.16136141619234e+000

1.43204011348474e+005,-1.23731369410746e+001,-2.19138439070775e+000

1.45203064850745e+005,-1.23732176038926e+001,-2.22182075166857e+000

1.47230024099979e+005,-1.23733001929332e+001,-2.25267606546937e+000

1.49285278645888e+005,-1.23733847449974e+001,-2.28395596996767e+000

1.51369223476094e+005,-1.23734712970976e+001,-2.31566617535848e+000

1.53482259092041e+005,-1.23735598864280e+001,-2.34781246506841e+000

1.55624791585964e+005,-1.23736505503351e+001,-2.38040069665938e+000

1.57797232718936e+005,-1.23737433262842e+001,-2.41343680275423e+000

1.59999999999999e+005,-1.23738382518258e+001,-2.44692679197379e+000

1.62233516766403e+005,-1.23739353645587e+001,-2.48087674989541e+000

1.64498212264969e+005,-1.23740347020913e+001,-2.51529284002870e+000

1.66794521734578e+005,-1.23741363020008e+001,-2.55018130480912e+000

1.69122886489819e+005,-1.23742402017903e+001,-2.58554846661289e+000

1.71483754005805e+005,-1.23743464388432e+001,-2.62140072879373e+000

1.73877578004168e+005,-1.23744550503757e+001,-2.65774457673782e+000

1.76304818540256e+005,-1.23745660733868e+001,-2.69458657894689e+000

1.78765942091554e+005,-1.23746795446059e+001,-2.73193338814032e+000

1.81261421647326e+005,-1.23747955004378e+001,-2.76979174238481e+000

1.83791736799524e+005,-1.23749139769054e+001,-2.80816846625010e+000

1.86357373834951e+005,-1.23750350095902e+001,-2.84707047199016e+000

1.88958825828723e+005,-1.23751586335696e+001,-2.88650476075458e+000

1.91596592739027e+005,-1.23752848833523e+001,-2.92647842382864e+000

1.94271181503206e+005,-1.23754137928110e+001,-2.96699864390386e+000

1.96983106135185e+005,-1.23755453951124e+001,-3.00807269638206e+000

1.99732887824256e+005,-1.23756797226450e+001,-3.04970795071086e+000

2.02521055035243e+005,-1.23758168069444e+001,-3.09191187175563e+000

2.05348143610063e+005,-1.23759566786154e+001,-3.13469202120734e+000

2.08214696870707e+005,-1.23760993672532e+001,-3.17805605902722e+000

2.11121265723661e+005,-1.23762449013605e+001,-3.22201174493105e+000

2.14068408765776e+005,-1.23763933082636e+001,-3.26656693991404e+000

2.17056692391625e+005,-1.23765446140256e+001,-3.31172960781746e+000

2.20086690902357e+005,-1.23766988433576e+001,-3.35750781693863e+000

2.23158986616063e+005,-1.23768560195277e+001,-3.40390974168651e+000

2.26274169979693e+005,-1.23770161642686e+001,-3.45094366428259e+000

2.29432839682530e+005,-1.23771792976823e+001,-3.49861797651135e+000

2.32635602771247e+005,-1.23773454381440e+001,-3.54694118151860e+000

2.35883074766574e+005,-1.23775146022043e+001,-3.59592189566189e+000

2.39175879781588e+005,-1.23776868044893e+001,-3.64556885041366e+000

2.42514650641661e+005,-1.23778620576004e+001,-3.69589089431608e+000

2.45900029006080e+005,-1.23780403720125e+001,-3.74689699499459e+000

2.49332665491357e+005,-1.23782217559712e+001,-3.79859624122523e+000

2.52813219796278e+005,-1.23784062153898e+001,-3.85099784506191e+000

2.56342360828676e+005,-1.23785937537455e+001,-3.90411114402168e+000

2.59920766833993e+005,-1.23787843719760e+001,-3.95794560333124e+000

2.63549125525621e+005,-1.23789780683752e+001,-4.01251081823582e+000

2.67228134217075e+005,-1.23791748384903e+001,-4.06781651636889e+000

2.70958499956006e+005,-1.23793746750188e+001,-4.12387256018794e+000

2.74740939660078e+005,-1.23795775677070e+001,-4.18068894947342e+000

2.78576180254757e+005,-1.23797835032491e+001,-4.23827582389419e+000

2.82464958813007e+005,-1.23799924651885e+001,-4.29664346563756e+000

2.86408022696948e+005,-1.23802044338204e+001,-4.35580230210827e+000

2.90406129701488e+005,-1.23804193860972e+001,-4.41576290869320e+000

2.94460048199957e+005,-1.23806372955360e+001,-4.47653601159399e+000

2.98570557291775e+005,-1.23808581321291e+001,-4.53813249072778e+000

3.02738446952187e+005,-1.23810818622584e+001,-4.60056338269423e+000

3.06964518184081e+005,-1.23813084486119e+001,-4.66383988381304e+000

3.11249583171928e+005,-1.23815378501063e+001,-4.72797335322560e+000

3.15594465437872e+005,-1.23817700218119e+001,-4.79297531606552e+000

3.19999999999997e+005,-1.23820049148839e+001,-4.85885746669564e+000

3.24467033532806e+005,-1.23822424764973e+001,-4.92563167200857e+000

3.28996424529938e+005,-1.23824826497886e+001,-4.99330997479440e+000

3.33589043469155e+005,-1.23827253738023e+001,-5.06190459717062e+000

3.38245772979638e+005,-1.23829705834435e+001,-5.13142794407326e+000

3.42967508011610e+005,-1.23832182094378e+001,-5.20189260681144e+000

3.47755156008335e+005,-1.23834681782967e+001,-5.27331136667828e+000

3.52609637080511e+005,-1.23837204122913e+001,-5.34569719862053e+000

3.57531884183106e+005,-1.23839748294320e+001,-5.41906327496406e+000

3.62522843294651e+005,-1.23842313434563e+001,-5.49342296919136e+000

3.67583473599047e+005,-1.23844898638250e+001,-5.56878985977054e+000

3.72714747669902e+005,-1.23847502957250e+001,-5.64517773403439e+000

3.77917651657445e+005,-1.23850125400814e+001,-5.72260059210262e+000

3.83193185478053e+005,-1.23852764935770e+001,-5.80107265085145e+000

3.88542363006410e+005,-1.23855420486809e+001,-5.88060834792076e+000

3.93966212270369e+005,-1.23858090936848e+001,-5.96122234576119e+000

3.99465775648511e+005,-1.23860775127485e+001,-6.04292953571634e+000

4.05042110070485e+005,-1.23863471859535e+001,-6.12574504213596e+000

4.10696287220124e+005,-1.23866179893644e+001,-6.20968422652088e+000

4.16429393741414e+005,-1.23868897951007e+001,-6.29476269169178e+000

4.22242531447321e+005,-1.23871624714142e+001,-6.38099628598326e+000

4.28136817531551e+005,-1.23874358827766e+001,-6.46840110745808e+000

4.34113384783250e+005,-1.23877098899740e+001,-6.55699350813851e+000

4.40173381804713e+005,-1.23879843502095e+001,-6.64679009825345e+000

4.46317973232124e+005,-1.23882591172127e+001,-6.73780775049730e+000

4.52548339959385e+005,-1.23885340413573e+001,-6.83006360429862e+000

4.58865679365059e+005,-1.23888089697842e+001,-6.92357507009551e+000

4.65271205542494e+005,-1.23890837465318e+001,-7.01835983361688e+000

4.71766149533147e+005,-1.23893582126723e+001,-7.11443586016574e+000

4.78351759563174e+005,-1.23896322064530e+001,-7.21182139890295e+000

4.85029301283321e+005,-1.23899055634429e+001,-7.31053498713138e+000

4.91800058012158e+005,-1.23901781166835e+001,-7.41059545457697e+000

4.98665330982714e+005,-1.23904496968444e+001,-7.51202192766588e+000

5.05626439592555e+005,-1.23907201323812e+001,-7.61483383379761e+000

5.12684721657352e+005,-1.23909892496966e+001,-7.71905090561379e+000

5.19841533667984e+005,-1.23912568733041e+001,-7.82469318525936e+000

5.27098251051240e+005,-1.23915228259927e+001,-7.93178102864045e+000

5.34456268434150e+005,-1.23917869289928e+001,-8.04033510967498e+000

5.41916999912011e+005,-1.23920490021423e+001,-8.15037642453956e+000

