Freq.,VOut,OutRef

1.00000000000000e+004,-1.67034112333224e+001,-1.51975205688487e-001

1.01395947979003e+004,-1.67034119473452e+001,-1.54096627218120e-001

1.02811382665607e+004,-1.67034126814299e+001,-1.56247659577887e-001

1.04246576084112e+004,-1.67034134361399e+001,-1.58428715987936e-001

1.05701804056138e+004,-1.67034142120542e+001,-1.60640215431375e-001

1.07177346253629e+004,-1.67034150097683e+001,-1.62882582732676e-001

1.08673486252606e+004,-1.67034158298943e+001,-1.65156248641727e-001

1.10190511587661e+004,-1.67034166730612e+001,-1.67461649915864e-001

1.11728713807222e+004,-1.67034175399162e+001,-1.69799229400880e-001

1.13288388529580e+004,-1.67034184311240e+001,-1.72169436119293e-001

1.14869835499703e+004,-1.67034193473684e+001,-1.74572725353293e-001

1.16473358646846e+004,-1.67034202893521e+001,-1.77009558734226e-001

1.18099266142953e+004,-1.67034212577978e+001,-1.79480404328106e-001

1.19747870461893e+004,-1.67034222534480e+001,-1.81985736729236e-001

1.21419488439505e+004,-1.67034232770666e+001,-1.84526037145158e-001

1.23114441334492e+004,-1.67034243294382e+001,-1.87101793496231e-001

1.24833054890161e+004,-1.67034254113700e+001,-1.89713500500429e-001

1.26575659397028e+004,-1.67034265236916e+001,-1.92361659775045e-001

1.28342589756290e+004,-1.67034276672555e+001,-1.95046779929592e-001

1.30134185544193e+004,-1.67034288429387e+001,-1.97769376660747e-001

1.31950791077289e+004,-1.67034300516423e+001,-2.00529972855562e-001

1.33792755478611e+004,-1.67034312942929e+001,-2.03329098687908e-001

1.35660432744767e+004,-1.67034325718427e+001,-2.06167291720974e-001

1.37554181813974e+004,-1.67034338852709e+001,-2.09045097010757e-001

1.39474366635040e+004,-1.67034352355841e+001,-2.11963067206413e-001

1.41421356237309e+004,-1.67034366238168e+001,-2.14921762661803e-001

1.43395524801583e+004,-1.67034380510326e+001,-2.17921751536667e-001

1.45397251732031e+004,-1.67034395183252e+001,-2.20963609907792e-001

1.47426921729110e+004,-1.67034410268181e+001,-2.24047921880433e-001

1.49484924863494e+004,-1.67034425776670e+001,-2.27175279695808e-001

1.51571656651040e+004,-1.67034441720597e+001,-2.30346283846306e-001

1.53687518128801e+004,-1.67034458112170e+001,-2.33561543190347e-001

1.55832915932100e+004,-1.67034474963939e+001,-2.36821675068939e-001

1.58008262372675e+004,-1.67034492288810e+001,-2.40127305418690e-001

1.60213975517924e+004,-1.67034510100041e+001,-2.43479068898781e-001

1.62450479271247e+004,-1.67034528411268e+001,-2.46877609004520e-001

1.64718203453514e+004,-1.67034547236505e+001,-2.50323578194467e-001

1.67017583885674e+004,-1.67034566590157e+001,-2.53817638013282e-001

1.69349062472505e+004,-1.67034586487032e+001,-2.57360459217632e-001

1.71713087287550e+004,-1.67034606942353e+001,-2.60952721902207e-001

1.74110112659224e+004,-1.67034627971767e+001,-2.64595115632338e-001

1.76540599258131e+004,-1.67034649591358e+001,-2.68288339572153e-001

1.79005014185594e+004,-1.67034671817657e+001,-2.72033102621137e-001

1.81503831063432e+004,-1.67034694667660e+001,-2.75830123542664e-001

1.84037530124975e+004,-1.67034718158836e+001,-2.79680131107333e-001

1.86606598307361e+004,-1.67034742309139e+001,-2.83583864227712e-001

1.89211529345119e+004,-1.67034767137028e+001,-2.87542072098241e-001

1.91852823865052e+004,-1.67034792661471e+001,-2.91555514341096e-001

1.94530989482457e+004,-1.67034818901972e+001,-2.95624961144626e-001

1.97246540898671e+004,-1.67034845878573e+001,-2.99751193414464e-001

1.99999999999999e+004,-1.67034873611877e+001,-3.03935002919126e-001

2.02791895958005e+004,-1.67034902123060e+001,-3.08177192440705e-001

2.05622765331213e+004,-1.67034931433887e+001,-3.12478575928242e-001

2.08493152168224e+004,-1.67034961566732e+001,-3.16839978648000e-001

2.11403608112276e+004,-1.67034992544589e+001,-3.21262237343800e-001

2.14354692507258e+004,-1.67035024391094e+001,-3.25746200393692e-001

2.17346972505211e+004,-1.67035057130540e+001,-3.30292727969888e-001

2.20381023175322e+004,-1.67035090787893e+001,-3.34902692203533e-001

2.23457427614443e+004,-1.67035125388816e+001,-3.39576977346727e-001

2.26576777059159e+004,-1.67035160959685e+001,-3.44316479940738e-001

2.29739670999406e+004,-1.67035197527611e+001,-3.49122108985123e-001

2.32946717293690e+004,-1.67035235120452e+001,-3.53994786110892e-001

2.36198532285905e+004,-1.67035273766846e+001,-3.58935445752172e-001

2.39495740923785e+004,-1.67035313496222e+001,-3.63945035322553e-001

2.42838976879009e+004,-1.67035354338827e+001,-3.69024515395523e-001

2.46228882668982e+004,-1.67035396325748e+001,-3.74174859882084e-001

2.49666109780322e+004,-1.67035439488931e+001,-3.79397056218075e-001

2.53151318794055e+004,-1.67035483861211e+001,-3.84692105546182e-001

2.56685179512580e+004,-1.67035529476331e+001,-3.90061022906504e-001

2.60268371088386e+004,-1.67035576368968e+001,-3.95504837426330e-001

2.63901582154578e+004,-1.67035624574760e+001,-4.01024592512896e-001

2.67585510957221e+004,-1.67035674130332e+001,-4.06621346050454e-001

2.71320865489533e+004,-1.67035725073318e+001,-4.12296170598218e-001

2.75108363627948e+004,-1.67035777442398e+001,-4.18050153590185e-001

2.78948733270080e+004,-1.67035831277316e+001,-4.23884397540168e-001

2.82842712474618e+004,-1.67035886618917e+001,-4.29800020247351e-001

2.86791049603164e+004,-1.67035943509171e+001,-4.35798155005006e-001

2.90794503464061e+004,-1.67036001991209e+001,-4.41879950813795e-001

2.94853843458219e+004,-1.67036062109348e+001,-4.48046572593974e-001

2.98969849726987e+004,-1.67036123909129e+001,-4.54299201405005e-001

3.03143313302078e+004,-1.67036187437347e+001,-4.60639034662982e-001

3.07375036257601e+004,-1.67036252742083e+001,-4.67067286367318e-001

3.11665831864199e+004,-1.67036319872745e+001,-4.73585187322421e-001

3.16016524745350e+004,-1.67036388880096e+001,-4.80193985369693e-001

3.20427951035848e+004,-1.67036459816295e+001,-4.86894945619058e-001

3.24900958542493e+004,-1.67036532734934e+001,-4.93689350680188e-001

3.29436406907028e+004,-1.67036607691074e+001,-5.00578500906250e-001

3.34035167771346e+004,-1.67036684741290e+001,-5.07563714628373e-001

3.38698124945009e+004,-1.67036763943702e+001,-5.14646328404879e-001

3.43426174575100e+004,-1.67036845358026e+001,-5.21827697264626e-001

3.48220225318448e+004,-1.67036929045610e+001,-5.29109194958957e-001

3.53081198516260e+004,-1.67037015069480e+001,-5.36492214215656e-001

3.58010028371187e+004,-1.67037103494383e+001,-5.43978166992835e-001

3.63007662126863e+004,-1.67037194386834e+001,-5.51568484742289e-001

3.68075060249948e+004,-1.67037287815166e+001,-5.59264618668099e-001

3.73213196614721e+004,-1.67037383849568e+001,-5.67068039998779e-001

3.78423058690237e+004,-1.67037482562145e+001,-5.74980240252007e-001

3.83705647730104e+004,-1.67037584026960e+001,-5.83002731509824e-001

3.89061978964912e+004,-1.67037688320093e+001,-5.91137046695140e-001

3.94493081797342e+004,-1.67037795519685e+001,-5.99384739851917e-001

3.99999999999998e+004,-1.67037905706002e+001,-6.07747386427061e-001

4.05583791916010e+004,-1.67038018961481e+001,-6.16226583558731e-001

4.11245530662425e+004,-1.67038135370792e+001,-6.24823950367554e-001

4.16986304336447e+004,-1.67038255020893e+001,-6.33541128248627e-001

4.22807216224550e+004,-1.67038378001094e+001,-6.42379781168912e-001

4.28709385014515e+004,-1.67038504403111e+001,-6.51341595972514e-001

4.34693945010421e+004,-1.67038634321134e+001,-6.60428282679207e-001

4.40762046350642e+004,-1.67038767851887e+001,-6.69641574798723e-001

4.46914855228886e+004,-1.67038905094693e+001,-6.78983229640521e-001

4.53153554118317e+004,-1.67039046151545e+001,-6.88455028628293e-001

4.59479341998812e+004,-1.67039191127166e+001,-6.98058777622662e-001

4.65893434587380e+004,-1.67039340129086e+001,-7.07796307244116e-001

4.72397064571810e+004,-1.67039493267708e+001,-7.17669473198693e-001

4.78991481847569e+004,-1.67039650656385e+001,-7.27680156610817e-001

4.85677953758016e+004,-1.67039812411490e+001,-7.37830264358397e-001

4.92457765337964e+004,-1.67039978652494e+001,-7.48121729411173e-001

4.99332219560642e+004,-1.67040149502042e+001,-7.58556511174304e-001

5.06302637588109e+004,-1.67040325086035e+001,-7.69136595835619e-001

5.13370359025159e+004,-1.67040505533709e+001,-7.79863996715321e-001

5.20536742176771e+004,-1.67040690977715e+001,-7.90740754622733e-001

5.27803164309155e+004,-1.67040881554208e+001,-8.01768938214474e-001

5.35171021914442e+004,-1.67041077402930e+001,-8.12950644357109e-001

5.42641730979066e+004,-1.67041278667295e+001,-8.24287998495645e-001

5.50216727255895e+004,-1.67041485494485e+001,-8.35783155023532e-001

5.57897466540159e+004,-1.67041698035536e+001,-8.47438297658980e-001

5.65685424949235e+004,-1.67041916445434e+001,-8.59255639824548e-001

5.73582099206328e+004,-1.67042140883204e+001,-8.71237425031065e-001

5.81589006928121e+004,-1.67042371512015e+001,-8.83385927264681e-001

5.89707686916437e+004,-1.67042608499270e+001,-8.95703451380629e-001

5.97939699453972e+004,-1.67042852016714e+001,-9.08192333498673e-001

6.06286626604156e+004,-1.67043102240526e+001,-9.20854941404450e-001

6.14750072515201e+004,-1.67043359351434e+001,-9.33693674954150e-001

6.23331663728396e+004,-1.67043623534809e+001,-9.46710966484647e-001

6.32033049490698e+004,-1.67043894980782e+001,-9.59909281226070e-001

6.40855902071694e+004,-1.67044173884347e+001,-9.73291117719997e-001

6.49801917084985e+004,-1.67044460445472e+001,-9.86859008243738e-001

6.58872813814055e+004,-1.67044754869215e+001,-1.00061551923416e+000

6.68070335542691e+004,-1.67045057365836e+001,-1.01456325172054e+000

6.77396249890018e+004,-1.67045368150910e+001,-1.02870484176112e+000

6.86852349150199e+004,-1.67045687445449e+001,-1.04304296087998e+000

6.96440450636895e+004,-1.67046015476020e+001,-1.05758031651422e+000

7.06162397032520e+004,-1.67046352474865e+001,-1.07231965246166e+000

7.16020056742374e+004,-1.67046698680020e+001,-1.08726374933476e+000

7.26015324253724e+004,-1.67047054335446e+001,-1.10241542501690e+000

7.36150120499896e+004,-1.67047419691149e+001,-1.11777753512608e+000

7.46426393229441e+004,-1.67047795003308e+001,-1.13335297348123e+000

7.56846117380472e+004,-1.67048180534401e+001,-1.14914467257299e+000

7.67411295460207e+004,-1.67048576553341e+001,-1.16515560403933e+000

7.78123957929823e+004,-1.67048983335596e+001,-1.18138877914759e+000

7.88986163594682e+004,-1.67049401163328e+001,-1.19784724927674e+000

7.99999999999995e+004,-1.67049830325525e+001,-1.21453410640835e+000

8.11167583832018e+004,-1.67050271118131e+001,-1.23145248361955e+000

8.22491061324848e+004,-1.67050723844184e+001,-1.24860555558246e+000

8.33972608672892e+004,-1.67051188813946e+001,-1.26599653906737e+000

8.45614432449099e+004,-1.67051666345045e+001,-1.28362869344919e+000

8.57418770029029e+004,-1.67052156762606e+001,-1.30150532122053e+000

8.69387890020841e+004,-1.67052660399389e+001,-1.31962976850930e+000

8.81524092701283e+004,-1.67053177595926e+001,-1.33800542559905e+000

8.93829710457770e+004,-1.67053708700654e+001,-1.35663572745741e+000

9.06307108236633e+004,-1.67054254070057e+001,-1.37552415426488e+000

9.18958683997622e+004,-1.67054814068797e+001,-1.39467423195195e+000

9.31786869174758e+004,-1.67055389069852e+001,-1.41408953274004e+000

9.44794129143618e+004,-1.67055979454649e+001,-1.43377367568566e+000

9.57982963695136e+004,-1.67056585613199e+001,-1.45373032723215e+000

9.71355907516031e+004,-1.67057207944226e+001,-1.47396320176503e+000

9.84915530675926e+004,-1.67057846855302e+001,-1.49447606217063e+000

9.98664439121282e+004,-1.67058502762977e+001,-1.51527272040243e+000

1.01260527517622e+005,-1.67059176092901e+001,-1.53635703805188e+000

1.02674071805032e+005,-1.67059867279953e+001,-1.55773292692297e+000

1.04107348435354e+005,-1.67060576768363e+001,-1.57940434961286e+000

1.05560632861831e+005,-1.67061305011831e+001,-1.60137532009886e+000

1.07034204382888e+005,-1.67062052473644e+001,-1.62364990432847e+000

1.08528346195813e+005,-1.67062819626789e+001,-1.64623222081712e+000

1.10043345451179e+005,-1.67063606954061e+001,-1.66912644125109e+000

1.11579493308032e+005,-1.67064414948171e+001,-1.69233679109416e+000

1.13137084989847e+005,-1.67065244111843e+001,-1.71586755020293e+000

1.14716419841265e+005,-1.67066094957911e+001,-1.73972305344624e+000

1.16317801385624e+005,-1.67066968009408e+001,-1.76390769133188e+000

1.17941537383287e+005,-1.67067863799653e+001,-1.78842591063817e+000

1.19587939890794e+005,-1.67068782872324e+001,-1.81328221505387e+000

1.21257325320831e+005,-1.67069725781534e+001,-1.83848116582342e+000

1.22950014503040e+005,-1.67070693091893e+001,-1.86402738239912e+000

1.24666332745679e+005,-1.67071685378562e+001,-1.88992554310213e+000

1.26406609898139e+005,-1.67072703227305e+001,-1.91618038578800e+000

1.28171180414339e+005,-1.67073747234526e+001,-1.94279670852307e+000

1.29960383416997e+005,-1.67074818007303e+001,-1.96977937026553e+000

1.31774562762811e+005,-1.67075916163400e+001,-1.99713329155883e+000

1.33614067108538e+005,-1.67077042331286e+001,-2.02486345522905e+000

1.35479249978003e+005,-1.67078197150132e+001,-2.05297490709545e+000

1.37370469830040e+005,-1.67079381269798e+001,-2.08147275668741e+000

1.39288090127379e+005,-1.67080595350807e+001,-2.11036217797326e+000

1.41232479406504e+005,-1.67081840064313e+001,-2.13964841009796e+000

1.43204011348474e+005,-1.67083116092050e+001,-2.16933675813255e+000

1.45203064850745e+005,-1.67084424126266e+001,-2.19943259383403e+000

1.47230024099979e+005,-1.67085764869652e+001,-2.22994135641752e+000

1.49285278645888e+005,-1.67087139035241e+001,-2.26086855334105e+000

1.51369223476094e+005,-1.67088547346309e+001,-2.29221976110249e+000

1.53482259092041e+005,-1.67089990536247e+001,-2.32400062605098e+000

1.55624791585964e+005,-1.67091469348422e+001,-2.35621686521270e+000

1.57797232718936e+005,-1.67092984536017e+001,-2.38887426713121e+000

1.59999999999999e+005,-1.67094536861864e+001,-2.42197869272306e+000

1.62233516766403e+005,-1.67096127098245e+001,-2.45553607615214e+000

1.64498212264969e+005,-1.67097756026681e+001,-2.48955242571985e+000

1.66794521734578e+005,-1.67099424437706e+001,-2.52403382477318e+000

1.69122886489819e+005,-1.67101133130615e+001,-2.55898643263449e+000

1.71483754005805e+005,-1.67102882913196e+001,-2.59441648554894e+000

1.73877578004168e+005,-1.67104674601439e+001,-2.63033029765488e+000

1.76304818540256e+005,-1.67106509019230e+001,-2.66673426197666e+000

1.78765942091554e+005,-1.67108386998017e+001,-2.70363485144004e+000

1.81261421647326e+005,-1.67110309376463e+001,-2.74103861991311e+000

1.83791736799524e+005,-1.67112277000070e+001,-2.77895220327328e+000

1.86357373834951e+005,-1.67114290720792e+001,-2.81738232049950e+000

1.88958825828723e+005,-1.67116351396616e+001,-2.85633577479688e+000

1.91596592739027e+005,-1.67118459891130e+001,-2.89581945474648e+000

1.94271181503206e+005,-1.67120617073071e+001,-2.93584033549003e+000

1.96983106135185e+005,-1.67122823815845e+001,-2.97640547994458e+000

1.99732887824256e+005,-1.67125080997036e+001,-3.01752204005334e+000

2.02521055035243e+005,-1.67127389497886e+001,-3.05919725807039e+000

2.05348143610063e+005,-1.67129750202772e+001,-3.10143846788290e+000

2.08214696870707e+005,-1.67132163998642e+001,-3.14425309637341e+000

2.11121265723661e+005,-1.67134631774458e+001,-3.18764866481910e+000

2.14068408765776e+005,-1.67137154420603e+001,-3.23163279033651e+000

2.17056692391625e+005,-1.67139732828286e+001,-3.27621318736709e+000

2.20086690902357e+005,-1.67142367888927e+001,-3.32139766920895e+000

2.23158986616063e+005,-1.67145060493531e+001,-3.36719414959402e+000

2.26274169979693e+005,-1.67147811532050e+001,-3.41361064431586e+000

2.29432839682530e+005,-1.67150621892740e+001,-3.46065527290413e+000

2.32635602771247e+005,-1.67153492461506e+001,-3.50833626035401e+000

2.35883074766574e+005,-1.67156424121242e+001,-3.55666193890636e+000

2.39175879781588e+005,-1.67159417751175e+001,-3.60564074988261e+000

2.42514650641661e+005,-1.67162474226199e+001,-3.65528124557804e+000

2.45900029006080e+005,-1.67165594416218e+001,-3.70559209121000e+000

2.49332665491357e+005,-1.67168779185492e+001,-3.75658206692778e+000

2.52813219796278e+005,-1.67172029391987e+001,-3.80826006988100e+000

2.56342360828676e+005,-1.67175345886746e+001,-3.86063511635167e+000

2.59920766833993e+005,-1.67178729513263e+001,-3.91371634394788e+000

2.63549125525621e+005,-1.67182181106879e+001,-3.96751301386283e+000

2.67228134217075e+005,-1.67185701494207e+001,-4.02203451319918e+000

2.70958499956006e+005,-1.67189291492567e+001,-4.07729035735827e+000

2.74740939660078e+005,-1.67192951909467e+001,-4.13329019249868e+000

2.78576180254757e+005,-1.67196683542105e+001,-4.19004379806103e+000

2.82464958813007e+005,-1.67200487176912e+001,-4.24756108936177e+000

2.86408022696948e+005,-1.67204363589142e+001,-4.30585212025540e+000

2.90406129701488e+005,-1.67208313542505e+001,-4.36492708586581e+000

2.94460048199957e+005,-1.67212337788847e+001,-4.42479632538798e+000

2.98570557291775e+005,-1.67216437067894e+001,-4.48547032495639e+000

3.02738446952187e+005,-1.67220612107052e+001,-4.54695972058431e+000

3.06964518184081e+005,-1.67224863621273e+001,-4.60927530117067e+000

3.11249583171928e+005,-1.67229192312994e+001,-4.67242801157423e+000

3.15594465437872e+005,-1.67233598872146e+001,-4.73642895575545e+000

3.19999999999997e+005,-1.67238083976252e+001,-4.80128939998356e+000

3.24467033532806e+005,-1.67242648290599e+001,-4.86702077610774e+000

3.28996424529938e+005,-1.67247292468511e+001,-4.93363468489217e+000

3.33589043469155e+005,-1.67252017151709e+001,-5.00114289941207e+000

3.38245772979638e+005,-1.67256822970772e+001,-5.06955736850843e+000

3.42967508011610e+005,-1.67261710545707e+001,-5.13889022030078e+000

3.47755156008335e+005,-1.67266680486617e+001,-5.20915376575426e+000

3.52609637080511e+005,-1.67271733394492e+001,-5.28036050229974e+000

3.57531884183106e+005,-1.67276869862107e+001,-5.35252311750170e+000

3.62522843294651e+005,-1.67282090475049e+001,-5.42565449277475e+000

3.67583473599047e+005,-1.67287395812856e+001,-5.49976770714232e+000

3.72714747669902e+005,-1.67292786450297e+001,-5.57487604103574e+000

3.77917651657445e+005,-1.67298262958766e+001,-5.65099298012917e+000

3.83193185478053e+005,-1.67303825907820e+001,-5.72813221920854e+000

3.88542363006410e+005,-1.67309475866843e+001,-5.80630766606917e+000

3.93966212270369e+005,-1.67315213406850e+001,-5.88553344543836e+000

3.99465775648511e+005,-1.67321039102429e+001,-5.96582390291872e+000

4.05042110070485e+005,-1.67326953533814e+001,-6.04719360895054e+000

4.10696287220124e+005,-1.67332957289104e+001,-6.12965736278471e+000

4.16429393741414e+005,-1.67339050966623e+001,-6.21323019646599e+000

4.22242531447321e+005,-1.67345235177401e+001,-6.29792737882079e+000

4.28136817531551e+005,-1.67351510547818e+001,-6.38376441944484e+000

4.34113384783250e+005,-1.67357877722360e+001,-6.47075707268718e+000

4.40173381804713e+005,-1.67364337366528e+001,-6.55892134162690e+000

4.46317973232124e+005,-1.67370890169866e+001,-6.64827348203731e+000

4.52548339959385e+005,-1.67377536849126e+001,-6.73883000633519e+000

4.58865679365059e+005,-1.67384278151557e+001,-6.83060768750921e+000

4.65271205542494e+005,-1.67391114858316e+001,-6.92362356302716e+000

4.71766149533147e+005,-1.67398047788001e+001,-7.01789493871426e+000

4.78351759563174e+005,-1.67405077800296e+001,-7.11343939260355e+000

4.85029301283321e+005,-1.67412205799727e+001,-7.21027477875241e+000

4.91800058012158e+005,-1.67419432739525e+001,-7.30841923102326e+000

4.98665330982714e+005,-1.67426759625583e+001,-7.40789116682714e+000

5.05626439592555e+005,-1.67434187520518e+001,-7.50870929082599e+000

5.12684721657352e+005,-1.67441717547808e+001,-7.61089259859252e+000

5.19841533667984e+005,-1.67449350896025e+001,-7.71446038022627e+000

5.27098251051240e+005,-1.67457088823137e+001,-7.81943222392478e+000

5.34456268434150e+005,-1.67464932660879e+001,-7.92582801950774e+000

5.41916999912011e+005,-1.67472883819191e+001,-8.03366796189444e+000

