Freq.,VOut,OutRef

1.00000000000000e+004,-1.84916084977729e+001,-1.22202453087363e-001

1.01395947979003e+004,-1.84916096862307e+001,-1.23908198392221e-001

1.02811382665607e+004,-1.84916109080780e+001,-1.25637749182994e-001

1.04246576084112e+004,-1.84916121642522e+001,-1.27391437524514e-001

1.05701804056138e+004,-1.84916134557169e+001,-1.29169600107774e-001

1.07177346253629e+004,-1.84916147834628e+001,-1.30972578310518e-001

1.08673486252606e+004,-1.84916161485083e+001,-1.32800718267291e-001

1.10190511587661e+004,-1.84916175519007e+001,-1.34654370928832e-001

1.11728713807222e+004,-1.84916189947162e+001,-1.36533892135814e-001

1.13288388529580e+004,-1.84916204780614e+001,-1.38439642682018e-001

1.14869835499703e+004,-1.84916220030738e+001,-1.40371988384597e-001

1.16473358646846e+004,-1.84916235709226e+001,-1.42331300154329e-001

1.18099266142953e+004,-1.84916251828103e+001,-1.44317954062287e-001

1.19747870461893e+004,-1.84916268399726e+001,-1.46332331416252e-001

1.21419488439505e+004,-1.84916285436800e+001,-1.48374818830952e-001

1.23114441334492e+004,-1.84916302952385e+001,-1.50445808301096e-001

1.24833054890161e+004,-1.84916320959908e+001,-1.52545697275556e-001

1.26575659397028e+004,-1.84916339473171e+001,-1.54674888733978e-001

1.28342589756290e+004,-1.84916358506361e+001,-1.56833791264006e-001

1.30134185544193e+004,-1.84916378074066e+001,-1.59022819134498e-001

1.31950791077289e+004,-1.84916398191280e+001,-1.61242392377782e-001

1.33792755478611e+004,-1.84916418873414e+001,-1.63492936871813e-001

1.35660432744767e+004,-1.84916440136318e+001,-1.65774884411820e-001

1.37554181813974e+004,-1.84916461996277e+001,-1.68088672802124e-001

1.39474366635040e+004,-1.84916484470034e+001,-1.70434745933256e-001

1.41421356237309e+004,-1.84916507574806e+001,-1.72813553865048e-001

1.43395524801583e+004,-1.84916531328283e+001,-1.75225552916883e-001

1.45397251732031e+004,-1.84916555748656e+001,-1.77671205749512e-001

1.47426921729110e+004,-1.84916580854621e+001,-1.80150981454209e-001

1.49484924863494e+004,-1.84916606665398e+001,-1.82665355640275e-001

1.51571656651040e+004,-1.84916633200746e+001,-1.85214810525092e-001

1.53687518128801e+004,-1.84916660480973e+001,-1.87799835027462e-001

1.55832915932100e+004,-1.84916688526956e+001,-1.90420924855681e-001

1.58008262372675e+004,-1.84916717360158e+001,-1.93078582603520e-001

1.60213975517924e+004,-1.84916747002635e+001,-1.95773317845341e-001

1.62450479271247e+004,-1.84916777477063e+001,-1.98505647230691e-001

1.64718203453514e+004,-1.84916808806756e+001,-2.01276094579143e-001

1.67017583885674e+004,-1.84916841015668e+001,-2.04085190985860e-001

1.69349062472505e+004,-1.84916874128430e+001,-2.06933474912979e-001

1.71713087287550e+004,-1.84916908170358e+001,-2.09821492297793e-001

1.74110112659224e+004,-1.84916943167474e+001,-2.12749796648476e-001

1.76540599258131e+004,-1.84916979146526e+001,-2.15718949153726e-001

1.79005014185594e+004,-1.84917016135008e+001,-2.18729518786292e-001

1.81503831063432e+004,-1.84917054161179e+001,-2.21782082406616e-001

1.84037530124975e+004,-1.84917093254090e+001,-2.24877224873112e-001

1.86606598307361e+004,-1.84917133443598e+001,-2.28015539152108e-001

1.89211529345119e+004,-1.84917174760393e+001,-2.31197626427280e-001

1.91852823865052e+004,-1.84917217236018e+001,-2.34424096213030e-001

1.94530989482457e+004,-1.84917260902898e+001,-2.37695566465860e-001

1.97246540898671e+004,-1.84917305794359e+001,-2.41012663702601e-001

1.99999999999999e+004,-1.84917351944653e+001,-2.44376023114870e-001

2.02791895958005e+004,-1.84917399388989e+001,-2.47786288686680e-001

2.05622765331213e+004,-1.84917448163548e+001,-2.51244113318666e-001

2.08493152168224e+004,-1.84917498305527e+001,-2.54750158941399e-001

2.11403608112276e+004,-1.84917549853150e+001,-2.58305096645443e-001

2.14354692507258e+004,-1.84917602845705e+001,-2.61909606802664e-001

2.17346972505211e+004,-1.84917657323572e+001,-2.65564379191840e-001

2.20381023175322e+004,-1.84917713328252e+001,-2.69270113127499e-001

2.23457427614443e+004,-1.84917770902400e+001,-2.73027517585883e-001

2.26576777059159e+004,-1.84917830089851e+001,-2.76837311341981e-001

2.29739670999406e+004,-1.84917890935660e+001,-2.80700223095380e-001

2.32946717293690e+004,-1.84917953486128e+001,-2.84616991608007e-001

2.36198532285905e+004,-1.84918017788844e+001,-2.88588365838235e-001

2.39495740923785e+004,-1.84918083892709e+001,-2.92615105081578e-001

2.42838976879009e+004,-1.84918151847987e+001,-2.96697979104503e-001

2.46228882668982e+004,-1.84918221706327e+001,-3.00837768290148e-001

2.49666109780322e+004,-1.84918293520810e+001,-3.05035263780028e-001

2.53151318794055e+004,-1.84918367345984e+001,-3.09291267616895e-001

2.56685179512580e+004,-1.84918443237907e+001,-3.13606592890993e-001

2.60268371088386e+004,-1.84918521254187e+001,-3.17982063890728e-001

2.63901582154578e+004,-1.84918601454019e+001,-3.22418516250501e-001

2.67585510957221e+004,-1.84918683898238e+001,-3.26916797100964e-001

2.71320865489533e+004,-1.84918768649354e+001,-3.31477765226643e-001

2.75108363627948e+004,-1.84918855771602e+001,-3.36102291217912e-001

2.78948733270080e+004,-1.84918945330988e+001,-3.40791257629774e-001

2.82842712474618e+004,-1.84919037395339e+001,-3.45545559138729e-001

2.86791049603164e+004,-1.84919132034342e+001,-3.50366102708882e-001

2.90794503464061e+004,-1.84919229319611e+001,-3.55253807747977e-001

2.94853843458219e+004,-1.84919329324726e+001,-3.60209606277734e-001

2.98969849726987e+004,-1.84919432125285e+001,-3.65234443099725e-001

3.03143313302078e+004,-1.84919537798969e+001,-3.70329275960737e-001

3.07375036257601e+004,-1.84919646425586e+001,-3.75495075727979e-001

3.11665831864199e+004,-1.84919758087139e+001,-3.80732826558433e-001

3.16016524745350e+004,-1.84919872867873e+001,-3.86043526074989e-001

3.20427951035848e+004,-1.84919990854343e+001,-3.91428185543434e-001

3.24900958542493e+004,-1.84920112135474e+001,-3.96887830049494e-001

3.29436406907028e+004,-1.84920236802621e+001,-4.02423498681348e-001

3.34035167771346e+004,-1.84920364949639e+001,-4.08036244710758e-001

3.38698124945009e+004,-1.84920496672942e+001,-4.13727135778815e-001

3.43426174575100e+004,-1.84920632071575e+001,-4.19497254083114e-001

3.48220225318448e+004,-1.84920771247285e+001,-4.25347696564664e-001

3.53081198516260e+004,-1.84920914304591e+001,-4.31279575099190e-001

3.58010028371187e+004,-1.84921061350853e+001,-4.37294016692580e-001

3.63007662126863e+004,-1.84921212496350e+001,-4.43392163673685e-001

3.68075060249948e+004,-1.84921367854359e+001,-4.49575173889410e-001

3.73213196614721e+004,-1.84921527541228e+001,-4.55844220908629e-001

3.78423058690237e+004,-1.84921691676460e+001,-4.62200494218795e-001

3.83705647730104e+004,-1.84921860382793e+001,-4.68645199432202e-001

3.89061978964912e+004,-1.84922033786285e+001,-4.75179558490135e-001

3.94493081797342e+004,-1.84922212016398e+001,-4.81804809870040e-001

3.99999999999998e+004,-1.84922395206094e+001,-4.88522208794224e-001

4.05583791916010e+004,-1.84922583491910e+001,-4.95333027444548e-001

4.11245530662425e+004,-1.84922777014066e+001,-5.02238555171946e-001

4.16986304336447e+004,-1.84922975916549e+001,-5.09240098714492e-001

4.22807216224550e+004,-1.84923180347214e+001,-5.16338982415200e-001

4.28709385014515e+004,-1.84923390457880e+001,-5.23536548439933e-001

4.34693945010421e+004,-1.84923606404434e+001,-5.30834157001600e-001

4.40762046350642e+004,-1.84923828346930e+001,-5.38233186582248e-001

4.46914855228886e+004,-1.84924056449697e+001,-5.45735034158818e-001

4.53153554118317e+004,-1.84924290881447e+001,-5.53341115432191e-001

4.59479341998812e+004,-1.84924531815384e+001,-5.61052865055810e-001

4.65893434587380e+004,-1.84924779429315e+001,-5.68871736868472e-001

4.72397064571810e+004,-1.84925033905767e+001,-5.76799204127277e-001

4.78991481847569e+004,-1.84925295432103e+001,-5.84836759743335e-001

4.85677953758016e+004,-1.84925564200641e+001,-5.92985916520264e-001

4.92457765337964e+004,-1.84925840408780e+001,-6.01248207391905e-001

4.99332219560642e+004,-1.84926124259117e+001,-6.09625185664966e-001

5.06302637588109e+004,-1.84926415959581e+001,-6.18118425263222e-001

5.13370359025159e+004,-1.84926715723560e+001,-6.26729520968713e-001

5.20536742176771e+004,-1.84927023770032e+001,-6.35460088673592e-001

5.27803164309155e+004,-1.84927340323702e+001,-6.44311765624134e-001

5.35171021914442e+004,-1.84927665615137e+001,-6.53286210673349e-001

5.42641730979066e+004,-1.84927999880908e+001,-6.62385104532674e-001

5.50216727255895e+004,-1.84928343363729e+001,-6.71610150024315e-001

5.57897466540159e+004,-1.84928696312607e+001,-6.80963072338082e-001

5.65685424949235e+004,-1.84929058982986e+001,-6.90445619285712e-001

5.73582099206328e+004,-1.84929431636896e+001,-7.00059561562072e-001

5.81589006928121e+004,-1.84929814543108e+001,-7.09806693001846e-001

5.89707686916437e+004,-1.84930207977291e+001,-7.19688830842398e-001

5.97939699453972e+004,-1.84930612222167e+001,-7.29707815984426e-001

6.06286626604156e+004,-1.84931027567669e+001,-7.39865513258513e-001

6.14750072515201e+004,-1.84931454311110e+001,-7.50163811686556e-001

6.23331663728396e+004,-1.84931892757341e+001,-7.60604624750373e-001

6.32033049490698e+004,-1.84932343218925e+001,-7.71189890657118e-001

6.40855902071694e+004,-1.84932806016305e+001,-7.81921572609279e-001

6.49801917084985e+004,-1.84933281477974e+001,-7.92801659071354e-001

6.58872813814055e+004,-1.84933769940649e+001,-8.03832164043396e-001

6.68070335542691e+004,-1.84934271749454e+001,-8.15015127329000e-001

6.77396249890018e+004,-1.84934787258093e+001,-8.26352614807503e-001

6.86852349150199e+004,-1.84935316829029e+001,-8.37846718708434e-001

6.96440450636895e+004,-1.84935860833674e+001,-8.49499557882091e-001

7.06162397032520e+004,-1.84936419652568e+001,-8.61313278073387e-001

7.16020056742374e+004,-1.84936993675566e+001,-8.73290052197197e-001

7.26015324253724e+004,-1.84937583302028e+001,-8.85432080612018e-001

7.36150120499896e+004,-1.84938188941007e+001,-8.97741591393114e-001

7.46426393229441e+004,-1.84938811011437e+001,-9.10220840609387e-001

7.56846117380472e+004,-1.84939449942330e+001,-9.22872112597847e-001

7.67411295460207e+004,-1.84940106172965e+001,-9.35697720236424e-001

7.78123957929823e+004,-1.84940780153082e+001,-9.48700005221344e-001

7.88986163594682e+004,-1.84941472343077e+001,-9.61881338340527e-001

7.99999999999995e+004,-1.84942183214197e+001,-9.75244119747440e-001

8.11167583832018e+004,-1.84942913248730e+001,-9.88790779235858e-001

8.22491061324848e+004,-1.84943662940210e+001,-1.00252377651171e+000

8.33972608672892e+004,-1.84944432793599e+001,-1.01644560146854e+000

8.45614432449099e+004,-1.84945223325488e+001,-1.03055877445760e+000

8.57418770029029e+004,-1.84946035064290e+001,-1.04486584655929e+000

8.69387890020841e+004,-1.84946868550427e+001,-1.05936939985522e+000

8.81524092701283e+004,-1.84947724336524e+001,-1.07407204769656e+000

8.93829710457770e+004,-1.84948602987594e+001,-1.08897643497332e+000

9.06307108236633e+004,-1.84949505081226e+001,-1.10408523838119e+000

9.18958683997622e+004,-1.84950431207769e+001,-1.11940116668881e+000

9.31786869174758e+004,-1.84951381970508e+001,-1.13492696100191e+000

9.44794129143618e+004,-1.84952357985845e+001,-1.15066539502790e+000

9.57982963695136e+004,-1.84953359883466e+001,-1.16661927533720e+000

9.71355907516031e+004,-1.84954388306515e+001,-1.18279144162619e+000

9.84915530675926e+004,-1.84955443911753e+001,-1.19918476697335e+000

9.98664439121282e+004,-1.84956527369716e+001,-1.21580215809994e+000

1.01260527517622e+005,-1.84957639364865e+001,-1.23264655562542e+000

1.02674071805032e+005,-1.84958780595736e+001,-1.24972093432153e+000

1.04107348435354e+005,-1.84959951775070e+001,-1.26702830336512e+000

1.05560632861831e+005,-1.84961153629944e+001,-1.28457170659148e+000

1.07034204382888e+005,-1.84962386901897e+001,-1.30235422274227e+000

1.08528346195813e+005,-1.84963652347034e+001,-1.32037896571343e+000

1.10043345451179e+005,-1.84964950736129e+001,-1.33864908480411e+000

1.11579493308032e+005,-1.84966282854718e+001,-1.35716776495967e+000

1.13137084989847e+005,-1.84967649503173e+001,-1.37593822701716e+000

1.14716419841265e+005,-1.84969051496773e+001,-1.39496372794624e+000

1.16317801385624e+005,-1.84970489665748e+001,-1.41424756109275e+000

1.17941537383287e+005,-1.84971964855327e+001,-1.43379305641720e+000

1.19587939890794e+005,-1.84973477925757e+001,-1.45360358073507e+000

1.21257325320831e+005,-1.84975029752304e+001,-1.47368253795607e+000

1.22950014503040e+005,-1.84976621225253e+001,-1.49403336932322e+000

1.24666332745679e+005,-1.84978253249872e+001,-1.51465955364973e+000

1.26406609898139e+005,-1.84979926746367e+001,-1.53556460755851e+000

1.28171180414339e+005,-1.84981642649813e+001,-1.55675208572256e+000

1.29960383416997e+005,-1.84983401910068e+001,-1.57822558110322e+000

1.31774562762811e+005,-1.84985205491655e+001,-1.59998872519213e+000

1.33614067108538e+005,-1.84987054373635e+001,-1.62204518825482e+000

1.35479249978003e+005,-1.84988949549440e+001,-1.64439867957600e+000

1.37370469830040e+005,-1.84990892026691e+001,-1.66705294770787e+000

1.39288090127379e+005,-1.84992882826984e+001,-1.69001178072062e+000

1.41232479406504e+005,-1.84994922985647e+001,-1.71327900646055e+000

1.43204011348474e+005,-1.84997013551474e+001,-1.73685849280826e+000

1.45203064850745e+005,-1.84999155586420e+001,-1.76075414794620e+000

1.47230024099979e+005,-1.85001350165267e+001,-1.78496992063040e+000

1.49285278645888e+005,-1.85003598375263e+001,-1.80950980047087e+000

1.51369223476094e+005,-1.85005901315713e+001,-1.83437781821870e+000

1.53482259092041e+005,-1.85008260097551e+001,-1.85957804606438e+000

1.55624791585964e+005,-1.85010675842861e+001,-1.88511459794359e+000

1.57797232718936e+005,-1.85013149684371e+001,-1.91099162985839e+000

1.59999999999999e+005,-1.85015682764897e+001,-1.93721334020777e+000

1.62233516766403e+005,-1.85018276236762e+001,-1.96378397013299e+000

1.64498212264969e+005,-1.85020931261155e+001,-1.99070780387959e+000

1.66794521734578e+005,-1.85023649007466e+001,-2.01798916917583e+000

1.69122886489819e+005,-1.85026430652565e+001,-2.04563243762742e+000

1.71483754005805e+005,-1.85029277380042e+001,-2.07364202513626e+000

1.73877578004168e+005,-1.85032190379407e+001,-2.10202239233732e+000

1.76304818540256e+005,-1.85035170845231e+001,-2.13077804506155e+000

1.78765942091554e+005,-1.85038219976256e+001,-2.15991353482179e+000

1.81261421647326e+005,-1.85041338974450e+001,-2.18943345932948e+000

1.83791736799524e+005,-1.85044529044016e+001,-2.21934246303663e+000

1.86357373834951e+005,-1.85047791390354e+001,-2.24964523771304e+000

1.88958825828723e+005,-1.85051127218975e+001,-2.28034652305520e+000

1.91596592739027e+005,-1.85054537734371e+001,-2.31145110733128e+000

1.94271181503206e+005,-1.85058024138834e+001,-2.34296382806548e+000

1.96983106135185e+005,-1.85061587631226e+001,-2.37488957276209e+000

1.99732887824256e+005,-1.85065229405708e+001,-2.40723327967413e+000

2.02521055035243e+005,-1.85068950650421e+001,-2.43999993861517e+000

2.05348143610063e+005,-1.85072752546119e+001,-2.47319459182325e+000

2.08214696870707e+005,-1.85076636264762e+001,-2.50682233487257e+000

2.11121265723661e+005,-1.85080602968066e+001,-2.54088831764126e+000

2.14068408765776e+005,-1.85084653806011e+001,-2.57539774533365e+000

2.17056692391625e+005,-1.85088789915310e+001,-2.61035587956396e+000

2.20086690902357e+005,-1.85093012417841e+001,-2.64576803950000e+000

2.23158986616063e+005,-1.85097322419048e+001,-2.68163960307332e+000

2.26274169979693e+005,-1.85101721006304e+001,-2.71797600825651e+000

2.29432839682530e+005,-1.85106209247252e+001,-2.75478275440993e+000

2.32635602771247e+005,-1.85110788188112e+001,-2.79206540370376e+000

2.35883074766574e+005,-1.85115458851978e+001,-2.82982958261389e+000

2.39175879781588e+005,-1.85120222237084e+001,-2.86808098349772e+000

2.42514650641661e+005,-1.85125079315065e+001,-2.90682536625092e+000

2.45900029006080e+005,-1.85130031029208e+001,-2.94606856004786e+000

2.49332665491357e+005,-1.85135078292692e+001,-2.98581646516796e+000

2.52813219796278e+005,-1.85140221986839e+001,-3.02607505491073e+000

2.56342360828676e+005,-1.85145462959362e+001,-3.06685037760205e+000

2.59920766833993e+005,-1.85150802022633e+001,-3.10814855869205e+000

2.63549125525621e+005,-1.85156239951961e+001,-3.14997580294910e+000

2.67228134217075e+005,-1.85161777483905e+001,-3.19233839674805e+000

2.70958499956006e+005,-1.85167415314610e+001,-3.23524271045871e+000

2.74740939660078e+005,-1.85173154098188e+001,-3.27869520093021e+000

2.78576180254757e+005,-1.85178994445137e+001,-3.32270241407891e+000

2.82464958813007e+005,-1.85184936920828e+001,-3.36727098757391e+000

2.86408022696948e+005,-1.85190982044036e+001,-3.41240765362563e+000

2.90406129701488e+005,-1.85197130285555e+001,-3.45811924187533e+000

2.94460048199957e+005,-1.85203382066881e+001,-3.50441268238534e+000

2.98570557291775e+005,-1.85209737758991e+001,-3.55129500873024e+000

3.02738446952187e+005,-1.85216197681203e+001,-3.59877336118981e+000

3.06964518184081e+005,-1.85222762100152e+001,-3.64685499003663e+000

3.11249583171928e+005,-1.85229431228874e+001,-3.69554725892462e+000

3.15594465437872e+005,-1.85236205226004e+001,-3.74485764837171e+000

3.19999999999997e+005,-1.85243084195116e+001,-3.79479375933458e+000

3.24467033532806e+005,-1.85250068184184e+001,-3.84536331687470e+000

3.28996424529938e+005,-1.85257157185206e+001,-3.89657417391041e+000

3.33589043469155e+005,-1.85264351133968e+001,-3.94843431505369e+000

3.38245772979638e+005,-1.85271649909982e+001,-4.00095186052530e+000

3.42967508011610e+005,-1.85279053336584e+001,-4.05413507014621e+000

3.47755156008335e+005,-1.85286561181215e+001,-4.10799234739845e+000

3.52609637080511e+005,-1.85294173155888e+001,-4.16253224355267e+000

3.57531884183106e+005,-1.85301888917842e+001,-4.21776346185409e+000

3.62522843294651e+005,-1.85309708070391e+001,-4.27369486176360e+000

3.67583473599047e+005,-1.85317630163986e+001,-4.33033546324591e+000

3.72714747669902e+005,-1.85325654697480e+001,-4.38769445109883e+000

3.77917651657445e+005,-1.85333781119595e+001,-4.44578117931812e+000

3.83193185478053e+005,-1.85342008830628e+001,-4.50460517548750e+000

3.88542363006410e+005,-1.85350337184354e+001,-4.56417614519074e+000

3.93966212270369e+005,-1.85358765490166e+001,-4.62450397643438e+000

3.99465775648511e+005,-1.85367293015432e+001,-4.68559874407591e+000

4.05042110070485e+005,-1.85375918988078e+001,-4.74747071424798e+000

4.10696287220124e+005,-1.85384642599396e+001,-4.81013034877201e+000

4.16429393741414e+005,-1.85393463007071e+001,-4.87358830955198e+000

4.22242531447321e+005,-1.85402379338440e+001,-4.93785546293990e+000

4.28136817531551e+005,-1.85411390693961e+001,-5.00294288406726e+000

4.34113384783250e+005,-1.85420496150898e+001,-5.06886186113212e+000

4.40173381804713e+005,-1.85429694767225e+001,-5.13562389963440e+000

4.46317973232124e+005,-1.85438985585728e+001,-5.20324072655357e+000

4.52548339959385e+005,-1.85448367638313e+001,-5.27172429445786e+000

4.58865679365059e+005,-1.85457839950502e+001,-5.34108678554183e+000

4.65271205542494e+005,-1.85467401546120e+001,-5.41134061558151e+000

4.71766149533147e+005,-1.85477051452152e+001,-5.48249843780415e+000

4.78351759563174e+005,-1.85486788703779e+001,-5.55457314666285e+000

4.85029301283321e+005,-1.85496612349556e+001,-5.62757788151406e+000

4.91800058012158e+005,-1.85506521456753e+001,-5.70152603018962e+000

4.98665330982714e+005,-1.85516515116819e+001,-5.77643123246036e+000

5.05626439592555e+005,-1.85526592450981e+001,-5.85230738338672e+000

5.12684721657352e+005,-1.85536752615949e+001,-5.92916863655253e+000

5.19841533667984e+005,-1.85546994809720e+001,-6.00702940717918e+000

5.27098251051240e+005,-1.85557318277475e+001,-6.08590437511787e+000

5.34456268434150e+005,-1.85567722317541e+001,-6.16580848771775e+000

5.41916999912011e+005,-1.85578206287424e+001,-6.24675696257006e+000

