Freq.,VOut,OutRef

1.00000000000000e+004,-9.35958235703737e+000,-6.81809758991599e-002

1.01395947979003e+004,-9.35958303800031e+000,-6.91326578086642e-002

1.02811382665607e+004,-9.35958373809302e+000,-7.00976209225698e-002

1.04246576084112e+004,-9.35958445785239e+000,-7.10760504800857e-002

1.05701804056138e+004,-9.35958519783054e+000,-7.20681342977089e-002

1.07177346253629e+004,-9.35958595859481e+000,-7.30740628085245e-002

1.08673486252606e+004,-9.35958674072847e+000,-7.40940290963787e-002

1.10190511587661e+004,-9.35958754483177e+000,-7.51282289286091e-002

1.11728713807222e+004,-9.35958837152085e+000,-7.61768608033692e-002

1.13288388529580e+004,-9.35958922142941e+000,-7.72401259794542e-002

1.14869835499703e+004,-9.35959009520944e+000,-7.83182285125971e-002

1.16473358646846e+004,-9.35959099353023e+000,-7.94113753044228e-002

1.18099266142953e+004,-9.35959191708056e+000,-8.05197761306301e-002

1.19747870461893e+004,-9.35959286656859e+000,-8.16436436845032e-002

1.21419488439505e+004,-9.35959384272137e+000,-8.27831936242555e-002

1.23114441334492e+004,-9.35959484628744e+000,-8.39386446005787e-002

1.24833054890161e+004,-9.35959587803544e+000,-8.51102183105794e-002

1.26575659397028e+004,-9.35959693875612e+000,-8.62981395306280e-002

1.28342589756290e+004,-9.35959802926183e+000,-8.75026361662473e-002

1.30134185544193e+004,-9.35959915038788e+000,-8.87239392901523e-002

1.31950791077289e+004,-9.35960030299321e+000,-8.99622831859379e-002

1.33792755478611e+004,-9.35960148796035e+000,-9.12179053964082e-002

1.35660432744767e+004,-9.35960270619667e+000,-9.24910467652980e-002

1.37554181813974e+004,-9.35960395863528e+000,-9.37819514809817e-002

1.39474366635040e+004,-9.35960524623459e+000,-9.50908671299960e-002

1.41421356237309e+004,-9.35960656998061e+000,-9.64180447336581e-002

1.43395524801583e+004,-9.35960793088652e+000,-9.77637388029698e-002

1.45397251732031e+004,-9.35960932999370e+000,-9.91282073849399e-002

1.47426921729110e+004,-9.35961076837282e+000,-1.00511712109147e-001

1.49484924863494e+004,-9.35961224712445e+000,-1.01914518237900e-001

1.51571656651040e+004,-9.35961376737990e+000,-1.03336894717156e-001

1.53687518128801e+004,-9.35961533030214e+000,-1.04779114225318e-001

1.55832915932100e+004,-9.35961693708611e+000,-1.06241453229109e-001

1.58008262372675e+004,-9.35961858896084e+000,-1.07724192027150e-001

1.60213975517924e+004,-9.35962028718917e+000,-1.09227614810385e-001

1.62450479271247e+004,-9.35962203306950e+000,-1.10752009710470e-001

1.64718203453514e+004,-9.35962382793627e+000,-1.12297668856531e-001

1.67017583885674e+004,-9.35962567316108e+000,-1.13864888429616e-001

1.69349062472505e+004,-9.35962757015369e+000,-1.15453968717763e-001

1.71713087287550e+004,-9.35962952036362e+000,-1.17065214169205e-001

1.74110112659224e+004,-9.35963152528031e+000,-1.18698933454998e-001

1.76540599258131e+004,-9.35963358643497e+000,-1.20355439521644e-001

1.79005014185594e+004,-9.35963570540112e+000,-1.22035049653720e-001

1.81503831063432e+004,-9.35963788379684e+000,-1.23738085526215e-001

1.84037530124975e+004,-9.35964012328428e+000,-1.25464873274900e-001

1.86606598307361e+004,-9.35964242557269e+000,-1.27215743545936e-001

1.89211529345119e+004,-9.35964479241860e+000,-1.28991031564250e-001

1.91852823865052e+004,-9.35964722562733e+000,-1.30791077194419e-001

1.94530989482457e+004,-9.35964972705414e+000,-1.32616225004880e-001

1.97246540898671e+004,-9.35965229860644e+000,-1.34466824327174e-001

1.99999999999999e+004,-9.35965494224435e+000,-1.36343229324757e-001

2.02791895958005e+004,-9.35965765998241e+000,-1.38245799058674e-001

2.05622765331213e+004,-9.35966045389143e+000,-1.40174897549984e-001

2.08493152168224e+004,-9.35966332609927e+000,-1.42130893852961e-001

2.11403608112276e+004,-9.35966627879317e+000,-1.44114162117193e-001

2.14354692507258e+004,-9.35966931422080e+000,-1.46125081661516e-001

2.17346972505211e+004,-9.35967243469255e+000,-1.48164037038580e-001

2.20381023175322e+004,-9.35967564258244e+000,-1.50231418110988e-001

2.23457427614443e+004,-9.35967894033057e+000,-1.52327620118368e-001

2.26576777059159e+004,-9.35968233044474e+000,-1.54453043751242e-001

2.29739670999406e+004,-9.35968581550156e+000,-1.56608095227730e-001

2.32946717293690e+004,-9.35968939815004e+000,-1.58793186359162e-001

2.36198532285905e+004,-9.35969308111135e+000,-1.61008734636981e-001

2.39495740923785e+004,-9.35969686718249e+000,-1.63255163299399e-001

2.42838976879009e+004,-9.35970075923808e+000,-1.65532901409368e-001

2.46228882668982e+004,-9.35970476023127e+000,-1.67842383940662e-001

2.49666109780322e+004,-9.35970887319764e+000,-1.70184051844907e-001

2.53151318794055e+004,-9.35971310125588e+000,-1.72558352141918e-001

2.56685179512580e+004,-9.35971744761140e+000,-1.74965737991559e-001

2.60268371088386e+004,-9.35972191555756e+000,-1.77406668782518e-001

2.63901582154578e+004,-9.35972650847826e+000,-1.79881610213763e-001

2.67585510957221e+004,-9.35973122985101e+000,-1.82391034373996e-001

2.71320865489533e+004,-9.35973608324886e+000,-1.84935419830897e-001

2.75108363627948e+004,-9.35974107234323e+000,-1.87515251714365e-001

2.78948733270080e+004,-9.35974620090653e+000,-1.90131021803732e-001

2.82842712474618e+004,-9.35975147281429e+000,-1.92783228619062e-001

2.86791049603164e+004,-9.35975689204940e+000,-1.95472377500660e-001

2.90794503464061e+004,-9.35976246270307e+000,-1.98198980711082e-001

2.94853843458219e+004,-9.35976818897931e+000,-2.00963557514967e-001

2.98969849726987e+004,-9.35977407519693e+000,-2.03766634278485e-001

3.03143313302078e+004,-9.35978012579320e+000,-2.06608744557830e-001

3.07375036257601e+004,-9.35978634532689e+000,-2.09490429193126e-001

3.11665831864199e+004,-9.35979273848093e+000,-2.12412236408364e-001

3.16016524745350e+004,-9.35979931006651e+000,-2.15374721900935e-001

3.20427951035848e+004,-9.35980606502623e+000,-2.18378448940852e-001

3.24900958542493e+004,-9.35981300843702e+000,-2.21423988472223e-001

3.29436406907028e+004,-9.35982014551465e+000,-2.24511919206120e-001

3.34035167771346e+004,-9.35982748161634e+000,-2.27642827727363e-001

3.38698124945009e+004,-9.35983502224544e+000,-2.30817308590228e-001

3.43426174575100e+004,-9.35984277305449e+000,-2.34035964424522e-001

3.48220225318448e+004,-9.35985073984967e+000,-2.37299406036614e-001

3.53081198516260e+004,-9.35985892859449e+000,-2.40608252515187e-001

3.58010028371187e+004,-9.35986734541368e+000,-2.43963131338401e-001

3.63007662126863e+004,-9.35987599659844e+000,-2.47364678473711e-001

3.68075060249948e+004,-9.35988488860930e+000,-2.50813538494347e-001

3.73213196614721e+004,-9.35989402808135e+000,-2.54310364683170e-001

3.78423058690237e+004,-9.35990342182884e+000,-2.57855819141699e-001

3.83705647730104e+004,-9.35991307684923e+000,-2.61450572903618e-001

3.89061978964912e+004,-9.35992300032818e+000,-2.65095306046089e-001

3.94493081797342e+004,-9.35993319964493e+000,-2.68790707798362e-001

3.99999999999998e+004,-9.35994368237589e+000,-2.72537476664054e-001

4.05583791916010e+004,-9.35995445630108e+000,-2.76336320527590e-001

4.11245530662425e+004,-9.35996552940812e+000,-2.80187956777611e-001

4.16986304336447e+004,-9.35997690989862e+000,-2.84093112416256e-001

4.22807216224550e+004,-9.35998860619251e+000,-2.88052524184484e-001

4.28709385014515e+004,-9.36000062693414e+000,-2.92066938676849e-001

4.34693945010421e+004,-9.36001298099774e+000,-2.96137112462883e-001

4.40762046350642e+004,-9.36002567749302e+000,-3.00263812208613e-001

4.46914855228886e+004,-9.36003872577150e+000,-3.04447814795323e-001

4.53153554118317e+004,-9.36005213543167e+000,-3.08689907448598e-001

4.59479341998812e+004,-9.36006591632566e+000,-3.12990887857339e-001

4.65893434587380e+004,-9.36008007856564e+000,-3.17351564298478e-001

4.72397064571810e+004,-9.36009463252960e+000,-3.21772755765763e-001

4.78991481847569e+004,-9.36010958886804e+000,-3.26255292094654e-001

4.85677953758016e+004,-9.36012495851070e+000,-3.30800014090244e-001

4.92457765337964e+004,-9.36014075267328e+000,-3.35407773654281e-001

4.99332219560642e+004,-9.36015698286420e+000,-3.40079433915859e-001

5.06302637588109e+004,-9.36017366089131e+000,-3.44815869362518e-001

5.13370359025159e+004,-9.36019079886958e+000,-3.49617965967800e-001

5.20536742176771e+004,-9.36020840922799e+000,-3.54486621324613e-001

5.27803164309155e+004,-9.36022650471670e+000,-3.59422744779165e-001

5.35171021914442e+004,-9.36024509841505e+000,-3.64427257560552e-001

5.42641730979066e+004,-9.36026420373879e+000,-3.69501092916971e-001

5.50216727255895e+004,-9.36028383444802e+000,-3.74645196248660e-001

5.57897466540159e+004,-9.36030400465481e+000,-3.79860525244531e-001

5.65685424949235e+004,-9.36032472883151e+000,-3.85148050015342e-001

5.73582099206328e+004,-9.36034602181880e+000,-3.90508753231375e-001

5.81589006928121e+004,-9.36036789883345e+000,-3.95943630260047e-001

5.89707686916437e+004,-9.36039037547765e+000,-4.01453689298687e-001

5.97939699453972e+004,-9.36041346774648e+000,-4.07039951517134e-001

6.06286626604156e+004,-9.36043719203695e+000,-4.12703451193250e-001

6.14750072515201e+004,-9.36046156515685e+000,-4.18445235850033e-001

6.23331663728396e+004,-9.36048660433323e+000,-4.24266366396011e-001

6.32033049490698e+004,-9.36051232722146e+000,-4.30167917262619e-001

6.40855902071694e+004,-9.36053875191416e+000,-4.36150976544141e-001

6.49801917084985e+004,-9.36056589695035e+000,-4.42216646136774e-001

6.58872813814055e+004,-9.36059378132444e+000,-4.48366041877383e-001

6.68070335542691e+004,-9.36062242449598e+000,-4.54600293681452e-001

6.77396249890018e+004,-9.36065184639845e+000,-4.60920545684374e-001

6.86852349150199e+004,-9.36068206744871e+000,-4.67327956380894e-001

6.96440450636895e+004,-9.36071310855680e+000,-4.73823698761972e-001

7.06162397032520e+004,-9.36074499113524e+000,-4.80408960454869e-001

7.16020056742374e+004,-9.36077773710842e+000,-4.87084943861874e-001

7.26015324253724e+004,-9.36081136892255e+000,-4.93852866297747e-001

7.36150120499896e+004,-9.36084590955488e+000,-5.00713960128797e-001

7.46426393229441e+004,-9.36088138252342e+000,-5.07669472909979e-001

7.56846117380472e+004,-9.36091781189675e+000,-5.14720667520883e-001

7.67411295460207e+004,-9.36095522230342e+000,-5.21868822302663e-001

7.78123957929823e+004,-9.36099363894146e+000,-5.29115231194453e-001

7.88986163594682e+004,-9.36103308758780e+000,-5.36461203868823e-001

7.99999999999995e+004,-9.36107359460815e+000,-5.43908065863626e-001

8.11167583832018e+004,-9.36111518696585e+000,-5.51457158717975e-001

8.22491061324848e+004,-9.36115789223156e+000,-5.59109840102768e-001

8.33972608672892e+004,-9.36120173859211e+000,-5.66867483953830e-001

8.45614432449099e+004,-9.36124675485937e+000,-5.74731480602729e-001

8.57418770029029e+004,-9.36129297047985e+000,-5.82703236902749e-001

8.69387890020841e+004,-9.36134041554241e+000,-5.90784176361566e-001

8.81524092701283e+004,-9.36138912078735e+000,-5.98975739265204e-001

8.93829710457770e+004,-9.36143911761447e+000,-6.07279382803948e-001

9.06307108236633e+004,-9.36149043809083e+000,-6.15696581198609e-001

9.18958683997622e+004,-9.36154311495875e+000,-6.24228825820450e-001

9.31786869174758e+004,-9.36159718164310e+000,-6.32877625313412e-001

9.44794129143618e+004,-9.36165267225793e+000,-6.41644505715535e-001

9.57982963695136e+004,-9.36170962161351e+000,-6.50531010575260e-001

9.71355907516031e+004,-9.36176806522237e+000,-6.59538701067563e-001

9.84915530675926e+004,-9.36182803930499e+000,-6.68669156110413e-001

9.98664439121282e+004,-9.36188958079499e+000,-6.77923972476713e-001

1.01260527517622e+005,-9.36195272734403e+000,-6.87304764905175e-001

1.02674071805032e+005,-9.36201751732547e+000,-6.96813166212164e-001

1.04107348435354e+005,-9.36208398983857e+000,-7.06450827395211e-001

1.05560632861831e+005,-9.36215218471045e+000,-7.16219417743449e-001

1.07034204382888e+005,-9.36222214249875e+000,-7.26120624939131e-001

1.08528346195813e+005,-9.36229390449287e+000,-7.36156155159722e-001

1.10043345451179e+005,-9.36236751271416e+000,-7.46327733180246e-001

1.11579493308032e+005,-9.36244300991597e+000,-7.56637102469252e-001

1.13137084989847e+005,-9.36252043958174e+000,-7.67086025289820e-001

1.14716419841265e+005,-9.36259984592327e+000,-7.77676282790698e-001

1.16317801385624e+005,-9.36268127387683e+000,-7.88409675103853e-001

1.17941537383287e+005,-9.36276476909902e+000,-7.99288021434038e-001

1.19587939890794e+005,-9.36285037796078e+000,-8.10313160151855e-001

1.21257325320831e+005,-9.36293814754070e+000,-8.21486948881740e-001

1.22950014503040e+005,-9.36302812561652e+000,-8.32811264592457e-001

1.24666332745679e+005,-9.36312036065556e+000,-8.44288003683389e-001

1.26406609898139e+005,-9.36321490180357e+000,-8.55919082072334e-001

1.28171180414339e+005,-9.36331179887192e+000,-8.67706435282151e-001

1.29960383416997e+005,-9.36341110232381e+000,-8.79652018524450e-001

1.31774562762811e+005,-9.36351286325747e+000,-8.91757806789632e-001

1.33614067108538e+005,-9.36361713338891e+000,-9.04025794930114e-001

1.35479249978003e+005,-9.36372396503209e+000,-9.16457997748929e-001

1.37370469830040e+005,-9.36383341107756e+000,-9.29056450085773e-001

1.39288090127379e+005,-9.36394552496837e+000,-9.41823206908519e-001

1.41232479406504e+005,-9.36406036067489e+000,-9.54760343400796e-001

1.43204011348474e+005,-9.36417797266644e+000,-9.67869955058196e-001

1.45203064850745e+005,-9.36429841588119e+000,-9.81154157781732e-001

1.47230024099979e+005,-9.36442174569359e+000,-9.94615087977736e-001

1.49285278645888e+005,-9.36454801787937e+000,-1.00825490265920e+000

1.51369223476094e+005,-9.36467728857766e+000,-1.02207577955430e+000

1.53482259092041e+005,-9.36480961425082e+000,-1.03607991721753e+000

1.55624791585964e+005,-9.36494505164189e+000,-1.05026953514555e+000

1.57797232718936e+005,-9.36508365772801e+000,-1.06464687390486e+000

1.59999999999999e+005,-9.36522548967217e+000,-1.07921419526089e+000

1.62233516766403e+005,-9.36537060477180e+000,-1.09397378231670e+000

1.64498212264969e+005,-9.36551906040336e+000,-1.10892793966403e+000

1.66794521734578e+005,-9.36567091396502e+000,-1.12407899354001e+000

1.69122886489819e+005,-9.36582622281544e+000,-1.13942929199665e+000

1.71483754005805e+005,-9.36598504420944e+000,-1.15498120508262e+000

1.73877578004168e+005,-9.36614743523047e+000,-1.17073712503691e+000

1.76304818540256e+005,-9.36631345271912e+000,-1.18669946649983e+000

1.78765942091554e+005,-9.36648315319922e+000,-1.20287066673418e+000

1.81261421647326e+005,-9.36665659279929e+000,-1.21925318586951e+000

1.83791736799524e+005,-9.36683382717150e+000,-1.23584950715759e+000

1.86357373834951e+005,-9.36701491140606e+000,-1.25266213725473e+000

1.88958825828723e+005,-9.36719989994303e+000,-1.26969360651811e+000

1.91596592739027e+005,-9.36738884647948e+000,-1.28694646932983e+000

1.94271181503206e+005,-9.36758180387416e+000,-1.30442330444092e+000

1.96983106135185e+005,-9.36777882404754e+000,-1.32212671534310e+000

1.99732887824256e+005,-9.36797995787897e+000,-1.34005933066712e+000

2.02521055035243e+005,-9.36818525509971e+000,-1.35822380461050e+000

2.05348143610063e+005,-9.36839476418325e+000,-1.37662281739225e+000

2.08214696870707e+005,-9.36860853223127e+000,-1.39525907574501e+000

2.11121265723661e+005,-9.36882660485689e+000,-1.41413531343704e+000

2.14068408765776e+005,-9.36904902606398e+000,-1.43325429183311e+000

2.17056692391625e+005,-9.36927583812423e+000,-1.45261880048837e+000

2.20086690902357e+005,-9.36950708145015e+000,-1.47223165778640e+000

2.23158986616063e+005,-9.36974279446550e+000,-1.49209571161688e+000

2.26274169979693e+005,-9.36998301347345e+000,-1.51221384009317e+000

2.29432839682530e+005,-9.37022777252107e+000,-1.53258895232066e+000

2.32635602771247e+005,-9.37047710326244e+000,-1.55322398920602e+000

2.35883074766574e+005,-9.37073103481898e+000,-1.57412192431801e+000

2.39175879781588e+005,-9.37098959363791e+000,-1.59528576479769e+000

2.42514650641661e+005,-9.37125280334894e+000,-1.61671855232187e+000

2.45900029006080e+005,-9.37152068461988e+000,-1.63842336411652e+000

2.49332665491357e+005,-9.37179325501044e+000,-1.66040331403017e+000

2.52813219796278e+005,-9.37207052882590e+000,-1.68266155365986e+000

2.56342360828676e+005,-9.37235251696996e+000,-1.70520127353684e+000

2.59920766833993e+005,-9.37263922679720e+000,-1.72802570437329e+000

2.63549125525621e+005,-9.37293066196609e+000,-1.75113811836731e+000

2.67228134217075e+005,-9.37322682229289e+000,-1.77454183057041e+000

2.70958499956006e+005,-9.37352770360568e+000,-1.79824020031977e+000

2.74740939660078e+005,-9.37383329760123e+000,-1.82223663272996e+000

2.78576180254757e+005,-9.37414359170229e+000,-1.84653458025448e+000

2.82464958813007e+005,-9.37445856891844e+000,-1.87113754430729e+000

2.86408022696948e+005,-9.37477820770939e+000,-1.89604907695309e+000

2.90406129701488e+005,-9.37510248185139e+000,-1.92127278266065e+000

2.94460048199957e+005,-9.37543136030792e+000,-1.94681232012326e+000

2.98570557291775e+005,-9.37576480710480e+000,-1.97267140414176e+000

3.02738446952187e+005,-9.37610278120966e+000,-1.99885380757552e+000

3.06964518184081e+005,-9.37644523641733e+000,-2.02536336335505e+000

3.11249583171928e+005,-9.37679212124112e+000,-2.05220396655718e+000

3.15594465437872e+005,-9.37714337881044e+000,-2.07937957654300e+000

3.19999999999997e+005,-9.37749894677546e+000,-2.10689421915675e+000

3.24467033532806e+005,-9.37785875721934e+000,-2.13475198898070e+000

3.28996424529938e+005,-9.37822273657855e+000,-2.16295705164908e+000

3.33589043469155e+005,-9.37859080557153e+000,-2.19151364621481e+000

3.38245772979638e+005,-9.37896287913654e+000,-2.22042608756890e+000

3.42967508011610e+005,-9.37933886637900e+000,-2.24969876890800e+000

3.47755156008335e+005,-9.37971867052853e+000,-2.27933616424927e+000

3.52609637080511e+005,-9.38010218890672e+000,-2.30934283098597e+000

3.57531884183106e+005,-9.38048931290514e+000,-2.33972341248504e+000

3.62522843294651e+005,-9.38087992797496e+000,-2.37048264071761e+000

3.67583473599047e+005,-9.38127391362755e+000,-2.40162533892243e+000

3.72714747669902e+005,-9.38167114344693e+000,-2.43315642429723e+000

3.77917651657445e+005,-9.38207148511441e+000,-2.46508091071103e+000

3.83193185478053e+005,-9.38247480044493e+000,-2.49740391143676e+000

3.88542363006410e+005,-9.38288094543602e+000,-2.53013064189749e+000

3.93966212270369e+005,-9.38328977032899e+000,-2.56326642242092e+000

3.99465775648511e+005,-9.38370111968280e+000,-2.59681668099769e+000

4.05042110070485e+005,-9.38411483246005e+000,-2.63078695603980e+000

4.10696287220124e+005,-9.38453074212559e+000,-2.66518289913256e+000

4.16429393741414e+005,-9.38494867675739e+000,-2.70001027777444e+000

4.22242531447321e+005,-9.38536845916952e+000,-2.73527497810132e+000

4.28136817531551e+005,-9.38578990704694e+000,-2.77098300758926e+000

4.34113384783250e+005,-9.38621283309191e+000,-2.80714049773088e+000

4.40173381804713e+005,-9.38663704518163e+000,-2.84375370667990e+000

4.46317973232124e+005,-9.38706234653690e+000,-2.88082902185916e+000

4.52548339959385e+005,-9.38748853590076e+000,-2.91837296252906e+000

4.58865679365059e+005,-9.38791540772744e+000,-2.95639218230814e+000

4.65271205542494e+005,-9.38834275238009e+000,-2.99489347164648e+000

4.71766149533147e+005,-9.38877035633772e+000,-3.03388376024286e+000

4.78351759563174e+005,-9.38919800240957e+000,-3.07337011940553e+000

4.85029301283321e+005,-9.38962546995703e+000,-3.11335976435237e+000

4.91800058012158e+005,-9.39005253512207e+000,-3.15386005644429e+000

4.98665330982714e+005,-9.39047897106100e+000,-3.19487850535451e+000

5.05626439592555e+005,-9.39090454818353e+000,-3.23642277116545e+000

5.12684721657352e+005,-9.39132903439528e+000,-3.27850066639539e+000

5.19841533667984e+005,-9.39175219534366e+000,-3.32112015795189e+000

5.27098251051240e+005,-9.39217379466575e+000,-3.36428936900901e+000

5.34456268434150e+005,-9.39259359423731e+000,-3.40801658080969e+000

5.41916999912011e+005,-9.39301135442205e+000,-3.45231023439325e+000

