Freq.,VOut,OutRef

1.00000000000000e+004,-1.83021931171246e+001,-2.45620854573161e-001

1.01395947979003e+004,-1.83021945844239e+001,-2.49049463899838e-001

1.02811382665607e+004,-1.83021960929535e+001,-2.52525929311013e-001

1.04246576084112e+004,-1.83021976438717e+001,-2.56050918617377e-001

1.05701804056138e+004,-1.83021992383688e+001,-2.59625108943504e-001

1.07177346253629e+004,-1.83022008776688e+001,-2.63249186854974e-001

1.08673486252606e+004,-1.83022025630297e+001,-2.66923848492117e-001

1.10190511587661e+004,-1.83022042957451e+001,-2.70649799700041e-001

1.11728713807222e+004,-1.83022060771447e+001,-2.74427756167219e-001

1.13288388529580e+004,-1.83022079085955e+001,-2.78258443558678e-001

1.14869835499703e+004,-1.83022097915030e+001,-2.82142597658137e-001

1.16473358646846e+004,-1.83022117273119e+001,-2.86080964506300e-001

1.18099266142953e+004,-1.83022137175074e+001,-2.90074300544949e-001

1.19747870461893e+004,-1.83022157636167e+001,-2.94123372760104e-001

1.21419488439505e+004,-1.83022178672093e+001,-2.98228958830721e-001

1.23114441334492e+004,-1.83022200298992e+001,-3.02391847274351e-001

1.24833054890161e+004,-1.83022222533453e+001,-3.06612837601536e-001

1.26575659397028e+004,-1.83022245392531e+001,-3.10892740465849e-001

1.28342589756290e+004,-1.83022268893760e+001,-3.15232377817400e-001

1.30134185544193e+004,-1.83022293055163e+001,-3.19632583064988e-001

1.31950791077289e+004,-1.83022317895272e+001,-3.24094201229941e-001

1.33792755478611e+004,-1.83022343433132e+001,-3.28618089111199e-001

1.35660432744767e+004,-1.83022369688328e+001,-3.33205115445199e-001

1.37554181813974e+004,-1.83022396680992e+001,-3.37856161074856e-001

1.39474366635040e+004,-1.83022424431818e+001,-3.42572119115726e-001

1.41421356237309e+004,-1.83022452962080e+001,-3.47353895129020e-001

1.43395524801583e+004,-1.83022482293648e+001,-3.52202407290113e-001

1.45397251732031e+004,-1.83022512449007e+001,-3.57118586567226e-001

1.47426921729110e+004,-1.83022543451268e+001,-3.62103376895927e-001

1.49484924863494e+004,-1.83022575324190e+001,-3.67157735363192e-001

1.51571656651040e+004,-1.83022608092200e+001,-3.72282632384628e-001

1.53687518128801e+004,-1.83022641780403e+001,-3.77479051894498e-001

1.55832915932100e+004,-1.83022676414614e+001,-3.82747991527437e-001

1.58008262372675e+004,-1.83022712021363e+001,-3.88090462814878e-001

1.60213975517924e+004,-1.83022748627927e+001,-3.93507491371903e-001

1.62450479271247e+004,-1.83022786262344e+001,-3.99000117095670e-001

1.64718203453514e+004,-1.83022824953438e+001,-4.04569394362247e-001

1.67017583885674e+004,-1.83022864730838e+001,-4.10216392227137e-001

1.69349062472505e+004,-1.83022905625002e+001,-4.15942194628297e-001

1.71713087287550e+004,-1.83022947667238e+001,-4.21747900594665e-001

1.74110112659224e+004,-1.83022990889731e+001,-4.27634624450043e-001

1.76540599258131e+004,-1.83023035325567e+001,-4.33603496028844e-001

1.79005014185594e+004,-1.83023081008753e+001,-4.39655660889780e-001

1.81503831063432e+004,-1.83023127974248e+001,-4.45792280532645e-001

1.84037530124975e+004,-1.83023176257988e+001,-4.52014532619228e-001

1.86606598307361e+004,-1.83023225896912e+001,-4.58323611197244e-001

1.89211529345119e+004,-1.83023276928992e+001,-4.64720726924505e-001

1.91852823865052e+004,-1.83023329393259e+001,-4.71207107301216e-001

1.94530989482457e+004,-1.83023383329833e+001,-4.77783996901454e-001

1.97246540898671e+004,-1.83023438779955e+001,-4.84452657608975e-001

1.99999999999999e+004,-1.83023495786016e+001,-4.91214368855651e-001

2.02791895958005e+004,-1.83023554391593e+001,-4.98070427863438e-001

2.05622765331213e+004,-1.83023614641471e+001,-5.05022149892628e-001

2.08493152168224e+004,-1.83023676581692e+001,-5.12070868485830e-001

2.11403608112276e+004,-1.83023740259576e+001,-5.19217935724603e-001

2.14354692507258e+004,-1.83023805723766e+001,-5.26464722481540e-001

2.17346972505211e+004,-1.83023873024258e+001,-5.33812618680526e-001

2.20381023175322e+004,-1.83023942212441e+001,-5.41263033560250e-001

2.23457427614443e+004,-1.83024013341136e+001,-5.48817395938335e-001

2.26576777059159e+004,-1.83024086464636e+001,-5.56477154480420e-001

2.29739670999406e+004,-1.83024161638743e+001,-5.64243777975646e-001

2.32946717293690e+004,-1.83024238920813e+001,-5.72118755610206e-001

2.36198532285905e+004,-1.83024318369801e+001,-5.80103597250159e-001

2.39495740923785e+004,-1.83024400046295e+001,-5.88199833724484e-001

2.42838976879009e+004,-1.83024484012574e+001,-5.96409017112954e-001

2.46228882668982e+004,-1.83024570332645e+001,-6.04732721038021e-001

2.49666109780322e+004,-1.83024659072294e+001,-6.13172540960041e-001

2.53151318794055e+004,-1.83024750299136e+001,-6.21730094477034e-001

2.56685179512580e+004,-1.83024844082661e+001,-6.30407021628109e-001

2.60268371088386e+004,-1.83024940494291e+001,-6.39204985200033e-001

2.63901582154578e+004,-1.83025039607429e+001,-6.48125671040035e-001

2.67585510957221e+004,-1.83025141497513e+001,-6.57170788370963e-001

2.71320865489533e+004,-1.83025246242074e+001,-6.66342070109998e-001

2.75108363627948e+004,-1.83025353920791e+001,-6.75641273193738e-001

2.78948733270080e+004,-1.83025464615554e+001,-6.85070178905482e-001

2.82842712474618e+004,-1.83025578410517e+001,-6.94630593207668e-001

2.86791049603164e+004,-1.83025695392167e+001,-7.04324347079948e-001

2.90794503464061e+004,-1.83025815649380e+001,-7.14153296858826e-001

2.94853843458219e+004,-1.83025939273496e+001,-7.24119324582956e-001

2.98969849726987e+004,-1.83026066358378e+001,-7.34224338344459e-001

3.03143313302078e+004,-1.83026197000481e+001,-7.44470272642433e-001

3.07375036257601e+004,-1.83026331298926e+001,-7.54859088743252e-001

3.11665831864199e+004,-1.83026469355571e+001,-7.65392775042468e-001

3.16016524745350e+004,-1.83026611275084e+001,-7.76073347435334e-001

3.20427951035848e+004,-1.83026757165019e+001,-7.86902849687391e-001

3.24900958542493e+004,-1.83026907135896e+001,-7.97883353815531e-001

3.29436406907028e+004,-1.83027061301279e+001,-8.09016960467442e-001

3.34035167771346e+004,-1.83027219777858e+001,-8.20305799312212e-001

3.38698124945009e+004,-1.83027382685535e+001,-8.31752029430036e-001

3.43426174575100e+004,-1.83027550147511e+001,-8.43357839711241e-001

3.48220225318448e+004,-1.83027722290368e+001,-8.55125449259674e-001

3.53081198516260e+004,-1.83027899244169e+001,-8.67057107797284e-001

3.58010028371187e+004,-1.83028081142545e+001,-8.79155096080155e-001

3.63007662126863e+004,-1.83028268122792e+001,-8.91421726313736e-001

3.68075060249948e+004,-1.83028460325972e+001,-9.03859342576977e-001

3.73213196614721e+004,-1.83028657897007e+001,-9.16470321250591e-001

3.78423058690237e+004,-1.83028860984788e+001,-9.29257071450665e-001

3.83705647730104e+004,-1.83029069742276e+001,-9.42222035467038e-001

3.89061978964912e+004,-1.83029284326613e+001,-9.55367689207988e-001

3.94493081797342e+004,-1.83029504899233e+001,-9.68696542650837e-001

3.99999999999998e+004,-1.83029731625973e+001,-9.82211140295012e-001

4.05583791916010e+004,-1.83029964677190e+001,-9.95914061625801e-001

4.11245530662425e+004,-1.83030204227883e+001,-1.00980792157767e+000

4.16986304336447e+004,-1.83030450457810e+001,-1.02389537100951e+000

4.22807216224550e+004,-1.83030703551619e+001,-1.03817909717975e+000

4.28709385014515e+004,-1.83030963698973e+001,-1.05266182423016e+000

4.34693945010421e+004,-1.83031231094677e+001,-1.06734631367716e+000

4.40762046350642e+004,-1.83031505938822e+001,-1.08223536490375e+000

4.46914855228886e+004,-1.83031788436914e+001,-1.09733181566295e+000

4.53153554118317e+004,-1.83032078800018e+001,-1.11263854258374e+000

4.59479341998812e+004,-1.83032377244903e+001,-1.12815846168222e+000

4.65893434587380e+004,-1.83032683994189e+001,-1.14389452888317e+000

4.72397064571810e+004,-1.83032999276496e+001,-1.15984974054236e+000

4.78991481847569e+004,-1.83033323326600e+001,-1.17602713397831e+000

4.85677953758016e+004,-1.83033656385592e+001,-1.19242978800932e+000

4.92457765337964e+004,-1.83033998701037e+001,-1.20906082349568e+000

4.99332219560642e+004,-1.83034350527143e+001,-1.22592340388974e+000

5.06302637588109e+004,-1.83034712124926e+001,-1.24302073579061e+000

5.13370359025159e+004,-1.83035083762385e+001,-1.26035606950574e+000

5.20536742176771e+004,-1.83035465714678e+001,-1.27793269961937e+000

5.27803164309155e+004,-1.83035858264305e+001,-1.29575396556619e+000

5.35171021914442e+004,-1.83036261701288e+001,-1.31382325221201e+000

5.42641730979066e+004,-1.83036676323364e+001,-1.33214399044019e+000

5.50216727255895e+004,-1.83037102436172e+001,-1.35071965774691e+000

5.57897466540159e+004,-1.83037540353459e+001,-1.36955377883665e+000

5.65685424949235e+004,-1.83037990397269e+001,-1.38864992623371e+000

5.73582099206328e+004,-1.83038452898159e+001,-1.40801172088971e+000

5.81589006928121e+004,-1.83038928195401e+001,-1.42764283280700e+000

5.89707686916437e+004,-1.83039416637198e+001,-1.44754698166083e+000

5.97939699453972e+004,-1.83039918580903e+001,-1.46772793743337e+000

6.06286626604156e+004,-1.83040434393239e+001,-1.48818952105208e+000

6.14750072515201e+004,-1.83040964450527e+001,-1.50893560503528e+000

6.23331663728396e+004,-1.83041509138918e+001,-1.52997011414304e+000

6.32033049490698e+004,-1.83042068854625e+001,-1.55129702603636e+000

6.40855902071694e+004,-1.83042644004166e+001,-1.57292037194245e+000

6.49801917084985e+004,-1.83043235004610e+001,-1.59484423732507e+000

6.58872813814055e+004,-1.83043842283818e+001,-1.61707276256527e+000

6.68070335542691e+004,-1.83044466280708e+001,-1.63961014364378e+000

6.77396249890018e+004,-1.83045107445503e+001,-1.66246063283475e+000

6.86852349150199e+004,-1.83045766239994e+001,-1.68562853940331e+000

6.96440450636895e+004,-1.83046443137818e+001,-1.70911823030895e+000

7.06162397032520e+004,-1.83047138624712e+001,-1.73293413092066e+000

7.16020056742374e+004,-1.83047853198803e+001,-1.75708072573199e+000

7.26015324253724e+004,-1.83048587370882e+001,-1.78156255908751e+000

7.36150120499896e+004,-1.83049341664687e+001,-1.80638423591440e+000

7.46426393229441e+004,-1.83050116617195e+001,-1.83155042246075e+000

7.56846117380472e+004,-1.83050912778913e+001,-1.85706584704068e+000

7.67411295460207e+004,-1.83051730714178e+001,-1.88293530078560e+000

7.78123957929823e+004,-1.83052571001454e+001,-1.90916363840345e+000

7.88986163594682e+004,-1.83053434233639e+001,-1.93575577894283e+000

7.99999999999995e+004,-1.83054321018375e+001,-1.96271670656569e+000

8.11167583832018e+004,-1.83055231978362e+001,-1.99005147132529e+000

8.22491061324848e+004,-1.83056167751671e+001,-2.01776518995101e+000

8.33972608672892e+004,-1.83057128992068e+001,-2.04586304664095e+000

8.45614432449099e+004,-1.83058116369333e+001,-2.07435029386002e+000

8.57418770029029e+004,-1.83059130569595e+001,-2.10323225314498e+000

8.69387890020841e+004,-1.83060172295651e+001,-2.13251431591685e+000

8.81524092701283e+004,-1.83061242267310e+001,-2.16220194429873e+000

8.93829710457770e+004,-1.83062341221718e+001,-2.19230067194244e+000

9.06307108236633e+004,-1.83063469913705e+001,-2.22281610485905e+000

9.18958683997622e+004,-1.83064629116119e+001,-2.25375392225908e+000

9.31786869174758e+004,-1.83065819620173e+001,-2.28511987739679e+000

9.44794129143618e+004,-1.83067042235782e+001,-2.31691979842439e+000

9.57982963695136e+004,-1.83068297791918e+001,-2.34915958924991e+000

9.71355907516031e+004,-1.83069587136946e+001,-2.38184523040382e+000

9.84915530675926e+004,-1.83070911138979e+001,-2.41498277991257e+000

9.98664439121282e+004,-1.83072270686223e+001,-2.44857837417830e+000

1.01260527517622e+005,-1.83073666687321e+001,-2.48263822886641e+000

1.02674071805032e+005,-1.83075100071708e+001,-2.51716863980008e+000

1.04107348435354e+005,-1.83076571789948e+001,-2.55217598386149e+000

1.05560632861831e+005,-1.83078082814089e+001,-2.58766671990115e+000

1.07034204382888e+005,-1.83079634138000e+001,-2.62364738965462e+000

1.08528346195813e+005,-1.83081226777714e+001,-2.66012461866625e+000

1.10043345451179e+005,-1.83082861771769e+001,-2.69710511722092e+000

1.11579493308032e+005,-1.83084540181542e+001,-2.73459568128425e+000

1.13137084989847e+005,-1.83086263091580e+001,-2.77260319344996e+000

1.14716419841265e+005,-1.83088031609934e+001,-2.81113462389575e+000

1.16317801385624e+005,-1.83089846868473e+001,-2.85019703134893e+000

1.17941537383287e+005,-1.83091710023209e+001,-2.88979756405797e+000

1.19587939890794e+005,-1.83093622254605e+001,-2.92994346077702e+000

1.21257325320831e+005,-1.83095584767881e+001,-2.97064205175549e+000

1.22950014503040e+005,-1.83097598793311e+001,-3.01190075974025e+000

1.24666332745679e+005,-1.83099665586513e+001,-3.05372710098722e+000

1.26406609898139e+005,-1.83101786428728e+001,-3.09612868628174e+000

1.28171180414339e+005,-1.83103962627093e+001,-3.13911322197189e+000

1.29960383416997e+005,-1.83106195514899e+001,-3.18268851101173e+000

1.31774562762811e+005,-1.83108486451844e+001,-3.22686245401616e+000

1.33614067108538e+005,-1.83110836824267e+001,-3.27164305032865e+000

1.35479249978003e+005,-1.83113248045375e+001,-3.31703839910161e+000

1.37370469830040e+005,-1.83115721555455e+001,-3.36305670038974e+000

1.39288090127379e+005,-1.83118258822071e+001,-3.40970625625750e+000

1.41232479406504e+005,-1.83120861340244e+001,-3.45699547190201e+000

1.43204011348474e+005,-1.83123530632624e+001,-3.50493285679020e+000

1.45203064850745e+005,-1.83126268249632e+001,-3.55352702581422e+000

1.47230024099979e+005,-1.83129075769600e+001,-3.60278670046142e+000

1.49285278645888e+005,-1.83131954798878e+001,-3.65272071000475e+000

1.51369223476094e+005,-1.83134906971935e+001,-3.70333799271101e+000

1.53482259092041e+005,-1.83137933951429e+001,-3.75464759706937e+000

1.55624791585964e+005,-1.83141037428266e+001,-3.80665868304046e+000

1.57797232718936e+005,-1.83144219121630e+001,-3.85938052333039e+000

1.59999999999999e+005,-1.83147480778993e+001,-3.91282250468411e+000

1.62233516766403e+005,-1.83150824176111e+001,-3.96699412920714e+000

1.64498212264969e+005,-1.83154251116979e+001,-4.02190501571226e+000

1.66794521734578e+005,-1.83157763433782e+001,-4.07756490109364e+000

1.69122886489819e+005,-1.83161362986808e+001,-4.13398364173035e+000

1.71483754005805e+005,-1.83165051664341e+001,-4.19117121492052e+000

1.73877578004168e+005,-1.83168831382532e+001,-4.24913772034810e+000

1.76304818540256e+005,-1.83172704085239e+001,-4.30789338158341e+000

1.78765942091554e+005,-1.83176671743848e+001,-4.36744854761986e+000

1.81261421647326e+005,-1.83180736357063e+001,-4.42781369444797e+000

1.83791736799524e+005,-1.83184899950674e+001,-4.48899942666970e+000

1.86357373834951e+005,-1.83189164577300e+001,-4.55101647915341e+000

1.88958825828723e+005,-1.83193532316108e+001,-4.61387571873433e+000

1.91596592739027e+005,-1.83198005272504e+001,-4.67758814595882e+000

1.94271181503206e+005,-1.83202585577806e+001,-4.74216489687880e+000

1.96983106135185e+005,-1.83207275388889e+001,-4.80761724489425e+000

1.99732887824256e+005,-1.83212076887813e+001,-4.87395660265143e+000

2.02521055035243e+005,-1.83216992281428e+001,-4.94119452399235e+000

2.05348143610063e+005,-1.83222023800958e+001,-5.00934270596612e+000

2.08214696870707e+005,-1.83227173701575e+001,-5.07841299089585e+000

2.11121265723661e+005,-1.83232444261946e+001,-5.14841736851156e+000

2.14068408765776e+005,-1.83237837783780e+001,-5.21936797814615e+000

2.17056692391625e+005,-1.83243356591350e+001,-5.29127711099932e+000

2.20086690902357e+005,-1.83249003031016e+001,-5.36415721247169e+000

2.23158986616063e+005,-1.83254779470739e+001,-5.43802088457180e+000

2.26274169979693e+005,-1.83260688299593e+001,-5.51288088839801e+000

2.29432839682530e+005,-1.83266731927276e+001,-5.58875014669819e+000

2.32635602771247e+005,-1.83272912783625e+001,-5.66564174650963e+000

2.35883074766574e+005,-1.83279233318146e+001,-5.74356894188198e+000

2.39175879781588e+005,-1.83285695999548e+001,-5.82254515668506e+000

2.42514650641661e+005,-1.83292303315299e+001,-5.90258398750393e+000

2.45900029006080e+005,-1.83299057771203e+001,-5.98369920662467e+000

2.49332665491357e+005,-1.83305961891008e+001,-6.06590476511017e+000

2.52813219796278e+005,-1.83313018216039e+001,-6.14921479597194e+000

2.56342360828676e+005,-1.83320229304881e+001,-6.23364361743648e+000

2.59920766833993e+005,-1.83327597733097e+001,-6.31920573630869e+000

2.63549125525621e+005,-1.83335126093006e+001,-6.40591585143652e+000

2.67228134217075e+005,-1.83342816993513e+001,-6.49378885727368e+000

2.70958499956006e+005,-1.83350673060007e+001,-6.58283984754563e+000

2.74740939660078e+005,-1.83358696934337e+001,-6.67308411901778e+000

2.78576180254757e+005,-1.83366891274858e+001,-6.76453717536744e+000

2.82464958813007e+005,-1.83375258756576e+001,-6.85721473115888e+000

2.86408022696948e+005,-1.83383802071386e+001,-6.95113271592342e+000

2.90406129701488e+005,-1.83392523928410e+001,-7.04630727834328e+000

2.94460048199957e+005,-1.83401427054457e+001,-7.14275479053855e+000

2.98570557291775e+005,-1.83410514194600e+001,-7.24049185245782e+000

3.02738446952187e+005,-1.83419788112885e+001,-7.33953529637014e+000

3.06964518184081e+005,-1.83429251593181e+001,-7.43990219145784e+000

3.11249583171928e+005,-1.83438907440177e+001,-7.54160984850775e+000

3.15594465437872e+005,-1.83448758480537e+001,-7.64467582469872e+000

3.19999999999997e+005,-1.83458807564229e+001,-7.74911792848379e+000

3.24467033532806e+005,-1.83469057566015e+001,-7.85495422456291e+000

3.28996424529938e+005,-1.83479511387141e+001,-7.96220303894371e+000

3.33589043469155e+005,-1.83490171957211e+001,-8.07088296408610e+000

3.38245772979638e+005,-1.83501042236265e+001,-8.18101286412687e+000

3.42967508011610e+005,-1.83512125217072e+001,-8.29261188017960e+000

3.47755156008335e+005,-1.83523423927633e+001,-8.40569943570571e+000

3.52609637080511e+005,-1.83534941433915e+001,-8.52029524194926e+000

3.57531884183106e+005,-1.83546680842820e+001,-8.63641930343282e+000

3.62522843294651e+005,-1.83558645305388e+001,-8.75409192350557e+000

3.67583473599047e+005,-1.83570838020255e+001,-8.87333370993882e+000

3.72714747669902e+005,-1.83583262237353e+001,-8.99416558056261e+000

3.77917651657445e+005,-1.83595921261880e+001,-9.11660876893344e+000

3.83193185478053e+005,-1.83608818458525e+001,-9.24068483002997e+000

3.88542363006410e+005,-1.83621957255960e+001,-9.36641564596604e+000

3.93966212270369e+005,-1.83635341151606e+001,-9.49382343171322e+000

3.99465775648511e+005,-1.83648973716675e+001,-9.62293074082684e+000

4.05042110070485e+005,-1.83662858601476e+001,-9.75376047116571e+000

4.10696287220124e+005,-1.83676999541014e+001,-9.88633587059637e+000

4.16429393741414e+005,-1.83691400360850e+001,-1.00206805426758e+001

4.22242531447321e+005,-1.83706064983252e+001,-1.01568184523013e+001

4.28136817531551e+005,-1.83720997433615e+001,-1.02947739313210e+001

4.34113384783250e+005,-1.83736201847156e+001,-1.04345716840957e+001

4.40173381804713e+005,-1.83751682475882e+001,-1.05762367930022e+001

4.46317973232124e+005,-1.83767443695824e+001,-1.07197947238724e+001

4.52548339959385e+005,-1.83783490014542e+001,-1.08652713313566e+001

4.58865679365059e+005,-1.83799826078879e+001,-1.10126928642068e+001

4.65271205542494e+005,-1.83816456682975e+001,-1.11620859704666e+001

4.71766149533147e+005,-1.83833386776527e+001,-1.13134777025662e+001

4.78351759563174e+005,-1.83850621473286e+001,-1.14668955223100e+001

4.85029301283321e+005,-1.83868166059789e+001,-1.16223673057534e+001

4.91800058012158e+005,-1.83886026004311e+001,-1.17799213479585e+001

4.98665330982714e+005,-1.83904206966037e+001,-1.19395863676264e+001

5.05626439592555e+005,-1.83922714804427e+001,-1.21013915115965e+001

5.12684721657352e+005,-1.83941555588792e+001,-1.22653663592100e+001

5.19841533667984e+005,-1.83960735608042e+001,-1.24315409265307e+001

5.27098251051240e+005,-1.83980261380610e+001,-1.25999456704203e+001

5.34456268434150e+005,-1.84000139664543e+001,-1.27706114924618e+001

5.41916999912011e+005,-1.84020377467741e+001,-1.29435697427301e+001

