Freq.,VOut,OutRef

1.00000000000000e+004,-2.52544991261253e+001,-1.82720236104388e-001

1.01395947979003e+004,-2.52545007397231e+001,-1.85270755991158e-001

1.02811382665607e+004,-2.52545023986594e+001,-1.87856873035547e-001

1.04246576084112e+004,-2.52545041042072e+001,-1.90479083869442e-001

1.05701804056138e+004,-2.52545058576754e+001,-1.93137892043027e-001

1.07177346253629e+004,-2.52545076604096e+001,-1.95833808124191e-001

1.08673486252606e+004,-2.52545095137931e+001,-1.98567349794629e-001

1.10190511587661e+004,-2.52545114192479e+001,-2.01339041948353e-001

1.11728713807222e+004,-2.52545133782362e+001,-2.04149416792264e-001

1.13288388529580e+004,-2.52545153922607e+001,-2.06999013949322e-001

1.14869835499703e+004,-2.52545174628667e+001,-2.09888380556908e-001

1.16473358646846e+004,-2.52545195916426e+001,-2.12818071375072e-001

1.18099266142953e+004,-2.52545217802211e+001,-2.15788648892671e-001

1.19747870461893e+004,-2.52545240302811e+001,-2.18800683431350e-001

1.21419488439505e+004,-2.52545263435483e+001,-2.21854753254844e-001

1.23114441334492e+004,-2.52545287217970e+001,-2.24951444680671e-001

1.24833054890161e+004,-2.52545311668507e+001,-2.28091352192635e-001

1.26575659397028e+004,-2.52545336805846e+001,-2.31275078550477e-001

1.28342589756290e+004,-2.52545362649260e+001,-2.34503234906040e-001

1.30134185544193e+004,-2.52545389218564e+001,-2.37776440921457e-001

1.31950791077289e+004,-2.52545416534128e+001,-2.41095324884207e-001

1.33792755478611e+004,-2.52545444616892e+001,-2.44460523827348e-001

1.35660432744767e+004,-2.52545473488382e+001,-2.47872683652888e-001

1.37554181813974e+004,-2.52545503170726e+001,-2.51332459250523e-001

1.39474366635040e+004,-2.52545533686676e+001,-2.54840514624004e-001

1.41421356237309e+004,-2.52545565059616e+001,-2.58397523018116e-001

1.43395524801583e+004,-2.52545597313584e+001,-2.62004167045805e-001

1.45397251732031e+004,-2.52545630473297e+001,-2.65661138815354e-001

1.47426921729110e+004,-2.52545664564158e+001,-2.69369140064859e-001

1.49484924863494e+004,-2.52545699612282e+001,-2.73128882294949e-001

1.51571656651040e+004,-2.52545735644515e+001,-2.76941086901093e-001

1.53687518128801e+004,-2.52545772688457e+001,-2.80806485310796e-001

1.55832915932100e+004,-2.52545810772473e+001,-2.84725819126344e-001

1.58008262372675e+004,-2.52545849925730e+001,-2.88699840258444e-001

1.60213975517924e+004,-2.52545890178201e+001,-2.92729311075191e-001

1.62450479271247e+004,-2.52545931560706e+001,-2.96815004538637e-001

1.64718203453514e+004,-2.52545974104920e+001,-3.00957704359625e-001

1.67017583885674e+004,-2.52546017843407e+001,-3.05158205138421e-001

1.69349062472505e+004,-2.52546062809639e+001,-3.09417312518760e-001

1.71713087287550e+004,-2.52546109038025e+001,-3.13735843337825e-001

1.74110112659224e+004,-2.52546156563931e+001,-3.18114625783079e-001

1.76540599258131e+004,-2.52546205423717e+001,-3.22554499545282e-001

1.79005014185594e+004,-2.52546255654753e+001,-3.27056315977703e-001

1.81503831063432e+004,-2.52546307295456e+001,-3.31620938257654e-001

1.84037530124975e+004,-2.52546360385312e+001,-3.36249241548519e-001

1.86606598307361e+004,-2.52546414964912e+001,-3.40942113161804e-001

1.89211529345119e+004,-2.52546471075977e+001,-3.45700452728942e-001

1.91852823865052e+004,-2.52546528761395e+001,-3.50525172365281e-001

1.94530989482457e+004,-2.52546588065245e+001,-3.55417196844623e-001

1.97246540898671e+004,-2.52546649032840e+001,-3.60377463770559e-001

1.99999999999999e+004,-2.52546711710755e+001,-3.65406923754900e-001

2.02791895958005e+004,-2.52546776146861e+001,-3.70506540592294e-001

2.05622765331213e+004,-2.52546842390365e+001,-3.75677291444465e-001

2.08493152168224e+004,-2.52546910491844e+001,-3.80920167020370e-001

2.11403608112276e+004,-2.52546980503281e+001,-3.86236171762471e-001

2.14354692507258e+004,-2.52547052478113e+001,-3.91626324033097e-001

2.17346972505211e+004,-2.52547126471257e+001,-3.97091656307027e-001

2.20381023175322e+004,-2.52547202539162e+001,-4.02633215362817e-001

2.23457427614443e+004,-2.52547280739847e+001,-4.08252062476070e-001

2.26576777059159e+004,-2.52547361132943e+001,-4.13949273620224e-001

2.29739670999406e+004,-2.52547443779740e+001,-4.19725939664996e-001

2.32946717293690e+004,-2.52547528743230e+001,-4.25583166579221e-001

2.36198532285905e+004,-2.52547616088159e+001,-4.31522075635713e-001

2.39495740923785e+004,-2.52547705881066e+001,-4.37543803620772e-001

2.42838976879009e+004,-2.52547798190341e+001,-4.43649503043400e-001

2.46228882668982e+004,-2.52547893086270e+001,-4.49840342350365e-001

2.49666109780322e+004,-2.52547990641090e+001,-4.56117506140427e-001

2.53151318794055e+004,-2.52548090929042e+001,-4.62482195384115e-001

2.56685179512580e+004,-2.52548194026426e+001,-4.68935627644689e-001

2.60268371088386e+004,-2.52548300011651e+001,-4.75479037305684e-001

2.63901582154578e+004,-2.52548408965306e+001,-4.82113675792687e-001

2.67585510957221e+004,-2.52548520970205e+001,-4.88840811807938e-001

2.71320865489533e+004,-2.52548636111458e+001,-4.95661731561857e-001

2.75108363627948e+004,-2.52548754476529e+001,-5.02577739008927e-001

2.78948733270080e+004,-2.52548876155296e+001,-5.09590156087316e-001

2.82842712474618e+004,-2.52549001240130e+001,-5.16700322959032e-001

2.86791049603164e+004,-2.52549129825944e+001,-5.23909598257196e-001

2.90794503464061e+004,-2.52549262010281e+001,-5.31219359331482e-001

2.94853843458219e+004,-2.52549397893369e+001,-5.38631002501765e-001

2.98969849726987e+004,-2.52549537578204e+001,-5.46145943309366e-001

3.03143313302078e+004,-2.52549681170621e+001,-5.53765616775740e-001

3.07375036257601e+004,-2.52549828779372e+001,-5.61491477662611e-001

3.11665831864199e+004,-2.52549980516201e+001,-5.69325000735818e-001

3.16016524745350e+004,-2.52550136495932e+001,-5.77267681029712e-001

3.20427951035848e+004,-2.52550296836543e+001,-5.85321034120311e-001

3.24900958542493e+004,-2.52550461659257e+001,-5.93486596395838e-001

3.29436406907028e+004,-2.52550631088628e+001,-6.01765925333133e-001

3.34035167771346e+004,-2.52550805252627e+001,-6.10160599779163e-001

3.38698124945009e+004,-2.52550984282738e+001,-6.18672220230725e-001

3.43426174575100e+004,-2.52551168314048e+001,-6.27302409123488e-001

3.48220225318448e+004,-2.52551357485347e+001,-6.36052811120045e-001

3.53081198516260e+004,-2.52551551939222e+001,-6.44925093403814e-001

3.58010028371187e+004,-2.52551751822162e+001,-6.53920945972933e-001

3.63007662126863e+004,-2.52551957284660e+001,-6.63042081942856e-001

3.68075060249948e+004,-2.52552168481318e+001,-6.72290237848198e-001

3.73213196614721e+004,-2.52552385570959e+001,-6.81667173947606e-001

3.78423058690237e+004,-2.52552608716735e+001,-6.91174674536919e-001

3.83705647730104e+004,-2.52552838086243e+001,-7.00814548260229e-001

3.89061978964912e+004,-2.52553073851642e+001,-7.10588628426720e-001

3.94493081797342e+004,-2.52553316189774e+001,-7.20498773332888e-001

3.99999999999998e+004,-2.52553565282281e+001,-7.30546866585129e-001

4.05583791916010e+004,-2.52553821315739e+001,-7.40734817426739e-001

4.11245530662425e+004,-2.52554084481783e+001,-7.51064561070157e-001

4.16986304336447e+004,-2.52554354977234e+001,-7.61538059031581e-001

4.22807216224550e+004,-2.52554633004242e+001,-7.72157299467259e-001

4.28709385014515e+004,-2.52554918770421e+001,-7.82924297516601e-001

4.34693945010421e+004,-2.52555212488989e+001,-7.93841095647257e-001

4.40762046350642e+004,-2.52555514378912e+001,-8.04909764004052e-001

4.46914855228886e+004,-2.52555824665055e+001,-8.16132400760550e-001

4.53153554118317e+004,-2.52556143578331e+001,-8.27511132475858e-001

4.59479341998812e+004,-2.52556471355860e+001,-8.39048114453215e-001

4.65893434587380e+004,-2.52556808241119e+001,-8.50745531104393e-001

4.72397064571810e+004,-2.52557154484113e+001,-8.62605596315322e-001

4.78991481847569e+004,-2.52557510341536e+001,-8.74630553816710e-001

4.85677953758016e+004,-2.52557876076940e+001,-8.86822677558014e-001

4.92457765337964e+004,-2.52558251960910e+001,-8.99184272084143e-001

4.99332219560642e+004,-2.52558638271241e+001,-9.11717672917336e-001

5.06302637588109e+004,-2.52559035293115e+001,-9.24425246940925e-001

5.13370359025159e+004,-2.52559443319290e+001,-9.37309392787661e-001

5.20536742176771e+004,-2.52559862650285e+001,-9.50372541230841e-001

5.27803164309155e+004,-2.52560293594576e+001,-9.63617155579667e-001

5.35171021914442e+004,-2.52560736468788e+001,-9.77045732077389e-001

5.42641730979066e+004,-2.52561191597898e+001,-9.90660800302976e-001

5.50216727255895e+004,-2.52561659315441e+001,-1.00446492357649e+000

5.57897466540159e+004,-2.52562139963716e+001,-1.01846069936820e+000

5.65685424949235e+004,-2.52562633894001e+001,-1.03265075970982e+000

5.73582099206328e+004,-2.52563141466764e+001,-1.04703777161113e+000

5.81589006928121e+004,-2.52563663051894e+001,-1.06162443747666e+000

5.89707686916437e+004,-2.52564199028921e+001,-1.07641349552898e+000

5.97939699453972e+004,-2.52564749787242e+001,-1.09140772023363e+000

6.06286626604156e+004,-2.52565315726363e+001,-1.10660992272679e+000

6.14750072515201e+004,-2.52565897256131e+001,-1.12202295124749e+000

6.23331663728396e+004,-2.52566494796978e+001,-1.13764969157067e+000

6.32033049490698e+004,-2.52567108780170e+001,-1.15349306744617e+000

6.40855902071694e+004,-2.52567739648054e+001,-1.16955604103816e+000

6.49801917084985e+004,-2.52568387854313e+001,-1.18584161336983e+000

6.58872813814055e+004,-2.52569053864233e+001,-1.20235282476727e+000

6.68070335542691e+004,-2.52569738154954e+001,-1.21909275531070e+000

6.77396249890018e+004,-2.52570441215748e+001,-1.23606452528547e+000

6.86852349150199e+004,-2.52571163548285e+001,-1.25327129563568e+000

6.96440450636895e+004,-2.52571905666912e+001,-1.27071626842261e+000

7.06162397032520e+004,-2.52572668098928e+001,-1.28840268728308e+000

7.16020056742374e+004,-2.52573451384874e+001,-1.30633383789205e+000

7.26015324253724e+004,-2.52574256078812e+001,-1.32451304842778e+000

7.36150120499896e+004,-2.52575082748625e+001,-1.34294369003601e+000

7.46426393229441e+004,-2.52575931976303e+001,-1.36162917730219e+000

7.56846117380472e+004,-2.52576804358247e+001,-1.38057296872007e+000

7.67411295460207e+004,-2.52577700505567e+001,-1.39977856716632e+000

7.78123957929823e+004,-2.52578621044388e+001,-1.41924952037445e+000

7.88986163594682e+004,-2.52579566616155e+001,-1.43898942141343e+000

7.99999999999995e+004,-2.52580537877948e+001,-1.45900190916485e+000

8.11167583832018e+004,-2.52581535502790e+001,-1.47929066880505e+000

8.22491061324848e+004,-2.52582560179964e+001,-1.49985943228701e+000

8.33972608672892e+004,-2.52583612615332e+001,-1.52071197882308e+000

8.45614432449099e+004,-2.52584693531652e+001,-1.54185213537202e+000

8.57418770029029e+004,-2.52585803668900e+001,-1.56328377712513e+000

8.69387890020841e+004,-2.52586943784593e+001,-1.58501082799392e+000

8.81524092701283e+004,-2.52588114654114e+001,-1.60703726109986e+000

8.93829710457770e+004,-2.52589317071033e+001,-1.62936709926516e+000

9.06307108236633e+004,-2.52590551847435e+001,-1.65200441550414e+000

9.18958683997622e+004,-2.52591819814241e+001,-1.67495333351601e+000

9.31786869174758e+004,-2.52593121821538e+001,-1.69821802817872e+000

9.44794129143618e+004,-2.52594458738899e+001,-1.72180272604342e+000

9.57982963695136e+004,-2.52595831455706e+001,-1.74571170582977e+000

9.71355907516031e+004,-2.52597240881474e+001,-1.76994929892281e+000

9.84915530675926e+004,-2.52598687946164e+001,-1.79451988987040e+000

9.98664439121282e+004,-2.52600173600504e+001,-1.81942791688021e+000

1.01260527517622e+005,-2.52601698816302e+001,-1.84467787231921e+000

1.02674071805032e+005,-2.52603264586753e+001,-1.87027430321286e+000

1.04107348435354e+005,-2.52604871926742e+001,-1.89622181174597e+000

1.05560632861831e+005,-2.52606521873149e+001,-1.92252505576324e+000

1.07034204382888e+005,-2.52608215485141e+001,-1.94918874927110e+000

1.08528346195813e+005,-2.52609953844455e+001,-1.97621766294165e+000

1.10043345451179e+005,-2.52611738055686e+001,-2.00361662461562e+000

1.11579493308032e+005,-2.52613569246555e+001,-2.03139051980757e+000

1.13137084989847e+005,-2.52615448568171e+001,-2.05954429221267e+000

1.14716419841265e+005,-2.52617377195293e+001,-2.08808294421316e+000

1.16317801385624e+005,-2.52619356326566e+001,-2.11701153738825e+000

1.17941537383287e+005,-2.52621387184760e+001,-2.14633519302576e+000

1.19587939890794e+005,-2.52623471016985e+001,-2.17605909263254e+000

1.21257325320831e+005,-2.52625609094904e+001,-2.20618847845181e+000

1.22950014503040e+005,-2.52627802714925e+001,-2.23672865397933e+000

1.24666332745679e+005,-2.52630053198377e+001,-2.26768498448461e+000

1.26406609898139e+005,-2.52632361891676e+001,-2.29906289753328e+000

1.28171180414339e+005,-2.52634730166468e+001,-2.33086788351511e+000

1.29960383416997e+005,-2.52637159419759e+001,-2.36310549617561e+000

1.31774562762811e+005,-2.52639651074020e+001,-2.39578135315025e+000

1.33614067108538e+005,-2.52642206577274e+001,-2.42890113650647e+000

1.35479249978003e+005,-2.52644827403167e+001,-2.46247059329030e+000

1.37370469830040e+005,-2.52647515051005e+001,-2.49649553607846e+000

1.39288090127379e+005,-2.52650271045777e+001,-2.53098184353889e+000

1.41232479406504e+005,-2.52653096938149e+001,-2.56593546099855e+000

1.43204011348474e+005,-2.52655994304430e+001,-2.60136240101902e+000

1.45203064850745e+005,-2.52658964746516e+001,-2.63726874398375e+000

1.47230024099979e+005,-2.52662009891798e+001,-2.67366063869340e+000

1.49285278645888e+005,-2.52665131393048e+001,-2.71054430297486e+000

1.51369223476094e+005,-2.52668330928268e+001,-2.74792602430045e+000

1.53482259092041e+005,-2.52671610200510e+001,-2.78581216042370e+000

1.55624791585964e+005,-2.52674970937663e+001,-2.82420914002861e+000

1.57797232718936e+005,-2.52678414892202e+001,-2.86312346339532e+000

1.59999999999999e+005,-2.52681943840908e+001,-2.90256170308372e+000

1.62233516766403e+005,-2.52685559584547e+001,-2.94253050463695e+000

1.64498212264969e+005,-2.52689263947513e+001,-2.98303658730557e+000

1.66794521734578e+005,-2.52693058777431e+001,-3.02408674479409e+000

1.69122886489819e+005,-2.52696945944726e+001,-3.06568784603204e+000

1.71483754005805e+005,-2.52700927342147e+001,-3.10784683597075e+000

1.73877578004168e+005,-2.52705004884255e+001,-3.15057073641004e+000

1.76304818540256e+005,-2.52709180506866e+001,-3.19386664685348e+000

1.78765942091554e+005,-2.52713456166457e+001,-3.23774174539559e+000

1.81261421647326e+005,-2.52717833839529e+001,-3.28220328964621e+000

1.83791736799524e+005,-2.52722315521923e+001,-3.32725861768914e+000

1.86357373834951e+005,-2.52726903228107e+001,-3.37291514908123e+000

1.88958825828723e+005,-2.52731598990408e+001,-3.41918038589406e+000

1.91596592739027e+005,-2.52736404858209e+001,-3.46606191379817e+000

1.94271181503206e+005,-2.52741322897108e+001,-3.51356740319597e+000

1.96983106135185e+005,-2.52746355188034e+001,-3.56170461040398e+000

1.99732887824256e+005,-2.52751503826319e+001,-3.61048137888775e+000

2.02521055035243e+005,-2.52756770920746e+001,-3.65990564055122e+000

2.05348143610063e+005,-2.52762158592546e+001,-3.70998541708749e+000

2.08214696870707e+005,-2.52767668974368e+001,-3.76072882138680e+000

2.11121265723661e+005,-2.52773304209219e+001,-3.81214405901320e+000

2.14068408765776e+005,-2.52779066449366e+001,-3.86423942974618e+000

2.17056692391625e+005,-2.52784957855213e+001,-3.91702332919355e+000

2.20086690902357e+005,-2.52790980594162e+001,-3.97050425047834e+000

2.23158986616063e+005,-2.52797136839434e+001,-4.02469078600406e+000

2.26274169979693e+005,-2.52803428768894e+001,-4.07959162929675e+000

2.29432839682530e+005,-2.52809858563841e+001,-4.13521557693400e+000

2.32635602771247e+005,-2.52816428407801e+001,-4.19157153055752e+000

2.35883074766574e+005,-2.52823140485315e+001,-4.24866849897684e+000

2.39175879781588e+005,-2.52829996980716e+001,-4.30651560036388e+000

2.42514650641661e+005,-2.52837000076923e+001,-4.36512206454420e+000

2.45900029006080e+005,-2.52844151954239e+001,-4.42449723538490e+000

2.49332665491357e+005,-2.52851454789169e+001,-4.48465057328429e+000

2.52813219796278e+005,-2.52858910753257e+001,-4.54559165776373e+000

2.56342360828676e+005,-2.52866522011960e+001,-4.60733019016614e+000

2.59920766833993e+005,-2.52874290723560e+001,-4.66987599646050e+000

2.63549125525621e+005,-2.52882219038107e+001,-4.73323903015863e+000

2.67228134217075e+005,-2.52890309096439e+001,-4.79742937534139e+000

2.70958499956006e+005,-2.52898563029244e+001,-4.86245724979762e+000

2.74740939660078e+005,-2.52906982956203e+001,-4.92833300827991e+000

2.78576180254757e+005,-2.52915570985208e+001,-4.99506714587236e+000

2.82464958813007e+005,-2.52924329211675e+001,-5.06267030147712e+000

2.86408022696948e+005,-2.52933259717948e+001,-5.13115326141453e+000

2.90406129701488e+005,-2.52942364572818e+001,-5.20052696314101e+000

2.94460048199957e+005,-2.52951645831157e+001,-5.27080249908287e+000

2.98570557291775e+005,-2.52961105533685e+001,-5.34199112058368e+000

3.02738446952187e+005,-2.52970745706871e+001,-5.41410424196700e+000

3.06964518184081e+005,-2.52980568362992e+001,-5.48715344470966e+000

3.11249583171928e+005,-2.52990575500343e+001,-5.56115048172654e+000

3.15594465437872e+005,-2.53000769103630e+001,-5.63610728176192e+000

3.19999999999997e+005,-2.53011151144536e+001,-5.71203595388586e+000

3.24467033532806e+005,-2.53021723582482e+001,-5.78894879209114e+000

3.28996424529938e+005,-2.53032488365597e+001,-5.86685827998804e+000

3.33589043469155e+005,-2.53043447431893e+001,-5.94577709559106e+000

3.38245772979638e+005,-2.53054602710672e+001,-6.02571811619459e+000

3.42967508011610e+005,-2.53065956124157e+001,-6.10669442332955e+000

3.47755156008335e+005,-2.53077509589379e+001,-6.18871930779802e+000

3.52609637080511e+005,-2.53089265020302e+001,-6.27180627477692e+000

3.57531884183106e+005,-2.53101224330217e+001,-6.35596904898648e+000

3.62522843294651e+005,-2.53113389434407e+001,-6.44122157991380e+000

3.67583473599047e+005,-2.53125762253078e+001,-6.52757804708582e+000

3.72714747669902e+005,-2.53138344714582e+001,-6.61505286538228e+000

3.77917651657445e+005,-2.53151138758926e+001,-6.70366069038210e+000

3.83193185478053e+005,-2.53164146341574e+001,-6.79341642373203e+000

3.88542363006410e+005,-2.53177369437552e+001,-6.88433521852984e+000

3.93966212270369e+005,-2.53190810045854e+001,-6.97643248471384e+000

3.99465775648511e+005,-2.53204470194150e+001,-7.06972389444670e+000

4.05042110070485e+005,-2.53218351943812e+001,-7.16422538748598e+000

4.10696287220124e+005,-2.53232457395237e+001,-7.25995317653001e+000

4.16429393741414e+005,-2.53246788693491e+001,-7.35692375253063e+000

4.22242531447321e+005,-2.53261348034250e+001,-7.45515388996086e+000

4.28136817531551e+005,-2.53276137670061e+001,-7.55466065202962e+000

4.34113384783250e+005,-2.53291159916891e+001,-7.65546139583169e+000

4.40173381804713e+005,-2.53306417160991e+001,-7.75757377742410e+000

4.46317973232124e+005,-2.53321911866049e+001,-7.86101575681851e+000

4.52548339959385e+005,-2.53337646580628e+001,-7.96580560288128e+000

4.58865679365059e+005,-2.53353623945895e+001,-8.07196189813071e+000

4.65271205542494e+005,-2.53369846703623e+001,-8.17950354342280e+000

4.71766149533147e+005,-2.53386317704457e+001,-8.28844976251739e+000

4.78351759563174e+005,-2.53403039916437e+001,-8.39882010651638e+000

4.85029301283321e+005,-2.53420016433779e+001,-8.51063445816582e+000

4.91800058012158e+005,-2.53437250485874e+001,-8.62391303601586e+000

4.98665330982714e+005,-2.53454745446535e+001,-8.73867639843009e+000

5.05626439592555e+005,-2.53472504843434e+001,-8.85494544743943e+000

5.12684721657352e+005,-2.53490532367756e+001,-8.97274143243570e+000

5.19841533667984e+005,-2.53508831884040e+001,-9.09208595369772e+000

5.27098251051240e+005,-2.53527407440177e+001,-9.21300096574769e+000

5.34456268434150e+005,-2.53546263277596e+001,-9.33550878053392e+000

5.41916999912011e+005,-2.53565403841572e+001,-9.45963207043631e+000

