Freq.,VOut,OutRef

1.00000000000000e+004,-1.09640351950089e+001,-9.80803903828010e-002

1.01395947979003e+004,-1.09640353358028e+001,-9.94495193761347e-002

1.02811382665607e+004,-1.09640354805513e+001,-1.00837759753389e-001

1.04246576084112e+004,-1.09640356293654e+001,-1.02245378260425e-001

1.05701804056138e+004,-1.09640357823590e+001,-1.03672645364335e-001

1.07177346253629e+004,-1.09640359396495e+001,-1.05119835305394e-001

1.08673486252606e+004,-1.09640361013573e+001,-1.06587226151219e-001

1.10190511587661e+004,-1.09640362676064e+001,-1.08075099848339e-001

1.11728713807222e+004,-1.09640364385244e+001,-1.09583742276679e-001

1.13288388529580e+004,-1.09640366142420e+001,-1.11113443306631e-001

1.14869835499703e+004,-1.09640367948939e+001,-1.12664496851169e-001

1.16473358646846e+004,-1.09640369806186e+001,-1.14237200924544e-001

1.18099266142953e+004,-1.09640371715582e+001,-1.15831857698903e-001

1.19747870461893e+004,-1.09640373678589e+001,-1.17448773562205e-001

1.21419488439505e+004,-1.09640375696712e+001,-1.19088259176097e-001

1.23114441334492e+004,-1.09640377771497e+001,-1.20750629535731e-001

1.24833054890161e+004,-1.09640379904531e+001,-1.22436204032915e-001

1.26575659397028e+004,-1.09640382097448e+001,-1.24145306513445e-001

1.28342589756290e+004,-1.09640384351925e+001,-1.25878265341007e-001

1.30134185544193e+004,-1.09640386669689e+001,-1.27635413460613e-001

1.31950791077289e+004,-1.09640389052516e+001,-1.29417088458546e-001

1.33792755478611e+004,-1.09640391502224e+001,-1.31223632636090e-001

1.35660432744767e+004,-1.09640394020691e+001,-1.33055393064047e-001

1.37554181813974e+004,-1.09640396609844e+001,-1.34912721656449e-001

1.39474366635040e+004,-1.09640399271662e+001,-1.36795975236090e-001

1.41421356237309e+004,-1.09640402008181e+001,-1.38705515602747e-001

1.43395524801583e+004,-1.09640404821495e+001,-1.40641709601372e-001

1.45397251732031e+004,-1.09640407713753e+001,-1.42604929195271e-001

1.47426921729110e+004,-1.09640410687166e+001,-1.44595551534562e-001

1.49484924863494e+004,-1.09640413744008e+001,-1.46613959029497e-001

1.51571656651040e+004,-1.09640416886615e+001,-1.48660539423090e-001

1.53687518128801e+004,-1.09640420117386e+001,-1.50735685867207e-001

1.55832915932100e+004,-1.09640423438792e+001,-1.52839796995213e-001

1.58008262372675e+004,-1.09640426853369e+001,-1.54973276999236e-001

1.60213975517924e+004,-1.09640430363724e+001,-1.57136535709525e-001

1.62450479271247e+004,-1.09640433972538e+001,-1.59329988670115e-001

1.64718203453514e+004,-1.09640437682564e+001,-1.61554057219412e-001

1.67017583885674e+004,-1.09640441496637e+001,-1.63809168570968e-001

1.69349062472505e+004,-1.09640445417664e+001,-1.66095755895417e-001

1.71713087287550e+004,-1.09640449448638e+001,-1.68414258402456e-001

1.74110112659224e+004,-1.09640453592634e+001,-1.70765121424868e-001

1.76540599258131e+004,-1.09640457852813e+001,-1.73148796505043e-001

1.79005014185594e+004,-1.09640462232420e+001,-1.75565741481296e-001

1.81503831063432e+004,-1.09640466734796e+001,-1.78016420573025e-001

1.84037530124975e+004,-1.09640471363371e+001,-1.80501304471470e-001

1.86606598307361e+004,-1.09640476121669e+001,-1.83020870430486e-001

1.89211529345119e+004,-1.09640481013319e+001,-1.85575602352968e-001

1.91852823865052e+004,-1.09640486042043e+001,-1.88165990890293e-001

1.94530989482457e+004,-1.09640491211669e+001,-1.90792533532441e-001

1.97246540898671e+004,-1.09640496526131e+001,-1.93455734701224e-001

1.99999999999999e+004,-1.09640501989474e+001,-1.96156105849112e-001

2.02791895958005e+004,-1.09640507605853e+001,-1.98894165556781e-001

2.05622765331213e+004,-1.09640513379538e+001,-2.01670439631168e-001

2.08493152168224e+004,-1.09640519314917e+001,-2.04485461208229e-001

2.11403608112276e+004,-1.09640525416502e+001,-2.07339770849327e-001

2.14354692507258e+004,-1.09640531688928e+001,-2.10233916650092e-001

2.17346972505211e+004,-1.09640538136957e+001,-2.13168454342399e-001

2.20381023175322e+004,-1.09640544765484e+001,-2.16143947400596e-001

2.23457427614443e+004,-1.09640551579542e+001,-2.19160967148019e-001

2.26576777059159e+004,-1.09640558584296e+001,-2.22220092868797e-001

2.29739670999406e+004,-1.09640565785058e+001,-2.25321911915464e-001

2.32946717293690e+004,-1.09640573187289e+001,-2.28467019820415e-001

2.36198532285905e+004,-1.09640580796596e+001,-2.31656020412331e-001

2.39495740923785e+004,-1.09640588618743e+001,-2.34889525928082e-001

2.42838976879009e+004,-1.09640596659650e+001,-2.38168157134233e-001

2.46228882668982e+004,-1.09640604925405e+001,-2.41492543437028e-001

2.49666109780322e+004,-1.09640613422258e+001,-2.44863323009150e-001

2.53151318794055e+004,-1.09640622156634e+001,-2.48281142910451e-001

2.56685179512580e+004,-1.09640631135133e+001,-2.51746659206769e-001

2.60268371088386e+004,-1.09640640364537e+001,-2.55260537099060e-001

2.63901582154578e+004,-1.09640649851814e+001,-2.58823451047425e-001

2.67585510957221e+004,-1.09640659604123e+001,-2.62436084900443e-001

2.71320865489533e+004,-1.09640669628819e+001,-2.66099132024533e-001

2.75108363627948e+004,-1.09640679933458e+001,-2.69813295435998e-001

2.78948733270080e+004,-1.09640690525803e+001,-2.73579287934379e-001

2.82842712474618e+004,-1.09640701413829e+001,-2.77397832236741e-001

2.86791049603164e+004,-1.09640712605730e+001,-2.81269661117348e-001

2.90794503464061e+004,-1.09640724109921e+001,-2.85195517543693e-001

2.94853843458219e+004,-1.09640735935049e+001,-2.89176154819571e-001

2.98969849726987e+004,-1.09640748089995e+001,-2.93212336726757e-001

3.03143313302078e+004,-1.09640760583882e+001,-2.97304837669410e-001

3.07375036257601e+004,-1.09640773426082e+001,-3.01454442822063e-001

3.11665831864199e+004,-1.09640786626218e+001,-3.05661948278477e-001

3.16016524745350e+004,-1.09640800194181e+001,-3.09928161198053e-001

3.20427951035848e+004,-1.09640814140123e+001,-3.14253899964933e-001

3.24900958542493e+004,-1.09640828474474e+001,-3.18639994339139e-001

3.29436406907028e+004,-1.09640843207948e+001,-3.23087285611682e-001

3.34035167771346e+004,-1.09640858351544e+001,-3.27596626768747e-001

3.38698124945009e+004,-1.09640873916560e+001,-3.32168882648045e-001

3.43426174575100e+004,-1.09640889914601e+001,-3.36804930102690e-001

3.48220225318448e+004,-1.09640906357582e+001,-3.41505658168786e-001

3.53081198516260e+004,-1.09640923257738e+001,-3.46271968232351e-001

3.58010028371187e+004,-1.09640940627630e+001,-3.51104774198736e-001

3.63007662126863e+004,-1.09640958480164e+001,-3.56005002662503e-001

3.68075060249948e+004,-1.09640976828582e+001,-3.60973593087105e-001

3.73213196614721e+004,-1.09640995686490e+001,-3.66011497975442e-001

3.78423058690237e+004,-1.09641015067845e+001,-3.71119683056518e-001

3.83705647730104e+004,-1.09641034986988e+001,-3.76299127457543e-001

3.89061978964912e+004,-1.09641055458636e+001,-3.81550823896181e-001

3.94493081797342e+004,-1.09641076497898e+001,-3.86875778862254e-001

3.99999999999998e+004,-1.09641098120282e+001,-3.92275012808527e-001

4.05583791916010e+004,-1.09641120341711e+001,-3.97749560341277e-001

4.11245530662425e+004,-1.09641143178525e+001,-4.03300470414194e-001

4.16986304336447e+004,-1.09641166647498e+001,-4.08928806524008e-001

4.22807216224550e+004,-1.09641190765843e+001,-4.14635646911441e-001

4.28709385014515e+004,-1.09641215551229e+001,-4.20422084761215e-001

4.34693945010421e+004,-1.09641241021787e+001,-4.26289228405706e-001

4.40762046350642e+004,-1.09641267196123e+001,-4.32238201533809e-001

4.46914855228886e+004,-1.09641294093328e+001,-4.38270143400659e-001

4.53153554118317e+004,-1.09641321732992e+001,-4.44386209036534e-001

4.59479341998812e+004,-1.09641350135215e+001,-4.50587569466356e-001

4.65893434587380e+004,-1.09641379320619e+001,-4.56875411924467e-001

4.72397064571810e+004,-1.09641409310359e+001,-4.63250940077693e-001

4.78991481847569e+004,-1.09641440126134e+001,-4.69715374248106e-001

4.85677953758016e+004,-1.09641471790206e+001,-4.76269951638470e-001

4.92457765337964e+004,-1.09641504325409e+001,-4.82915926561870e-001

4.99332219560642e+004,-1.09641537755159e+001,-4.89654570677641e-001

5.06302637588109e+004,-1.09641572103474e+001,-4.96487173221863e-001

5.13370359025159e+004,-1.09641607394980e+001,-5.03415041249219e-001

5.20536742176771e+004,-1.09641643654932e+001,-5.10439499872647e-001

5.27803164309155e+004,-1.09641680909222e+001,-5.17561892509223e-001

5.35171021914442e+004,-1.09641719184397e+001,-5.24783581128064e-001

5.42641730979066e+004,-1.09641758507672e+001,-5.32105946499214e-001

5.50216727255895e+004,-1.09641798906944e+001,-5.39530388450139e-001

5.57897466540159e+004,-1.09641840410806e+001,-5.47058326121982e-001

5.65685424949235e+004,-1.09641883048565e+001,-5.54691198230792e-001

5.73582099206328e+004,-1.09641926850252e+001,-5.62430463329671e-001

5.81589006928121e+004,-1.09641971846641e+001,-5.70277600079604e-001

5.89707686916437e+004,-1.09642018069265e+001,-5.78234107515347e-001

5.97939699453972e+004,-1.09642065550426e+001,-5.86301505324457e-001

6.06286626604156e+004,-1.09642114323217e+001,-5.94481334120311e-001

6.14750072515201e+004,-1.09642164421531e+001,-6.02775155726611e-001

6.23331663728396e+004,-1.09642215880086e+001,-6.11184553458952e-001

6.32033049490698e+004,-1.09642268734427e+001,-6.19711132416749e-001

6.40855902071694e+004,-1.09642323020957e+001,-6.28356519769692e-001

6.49801917084985e+004,-1.09642378776941e+001,-6.37122365057133e-001

6.58872813814055e+004,-1.09642436040530e+001,-6.46010340485765e-001

6.68070335542691e+004,-1.09642494850769e+001,-6.55022141231431e-001

6.77396249890018e+004,-1.09642555247623e+001,-6.64159485746089e-001

6.86852349150199e+004,-1.09642617271982e+001,-6.73424116068691e-001

6.96440450636895e+004,-1.09642680965683e+001,-6.82817798138298e-001

7.06162397032520e+004,-1.09642746371527e+001,-6.92342322111173e-001

7.16020056742374e+004,-1.09642813533287e+001,-7.01999502684415e-001

7.26015324253724e+004,-1.09642882495733e+001,-7.11791179419863e-001

7.36150120499896e+004,-1.09642953304640e+001,-7.21719217074090e-001

7.46426393229441e+004,-1.09643026006805e+001,-7.31785505932873e-001

7.56846117380472e+004,-1.09643100650063e+001,-7.41991962147696e-001

7.67411295460207e+004,-1.09643177283299e+001,-7.52340528078534e-001

7.78123957929823e+004,-1.09643255956465e+001,-7.62833172638841e-001

7.88986163594682e+004,-1.09643336720590e+001,-7.73471891646431e-001

7.99999999999995e+004,-1.09643419627796e+001,-7.84258708176575e-001

8.11167583832018e+004,-1.09643504731308e+001,-7.95195672922930e-001

8.22491061324848e+004,-1.09643592085470e+001,-8.06284864557265e-001

8.33972608672892e+004,-1.09643681745751e+001,-8.17528390099491e-001

8.45614432449099e+004,-1.09643773768762e+001,-8.28928385288125e-001

8.57418770029029e+004,-1.09643868212260e+001,-8.40487014956223e-001

8.69387890020841e+004,-1.09643965135162e+001,-8.52206473412659e-001

8.81524092701283e+004,-1.09644064597550e+001,-8.64088984826417e-001

8.93829710457770e+004,-1.09644166660682e+001,-8.76136803617413e-001

9.06307108236633e+004,-1.09644271386993e+001,-8.88352214850587e-001

9.18958683997622e+004,-1.09644378840107e+001,-9.00737534634694e-001

9.31786869174758e+004,-1.09644489084835e+001,-9.13295110527161e-001

9.44794129143618e+004,-1.09644602187180e+001,-9.26027321942160e-001

9.57982963695136e+004,-1.09644718214340e+001,-9.38936580564700e-001

9.71355907516031e+004,-1.09644837234706e+001,-9.52025330768480e-001

9.84915530675926e+004,-1.09644959317862e+001,-9.65296050040865e-001

9.98664439121282e+004,-1.09645084534578e+001,-9.78751249410797e-001

1.01260527517622e+005,-1.09645212956807e+001,-9.92393473883643e-001

1.02674071805032e+005,-1.09645344657681e+001,-1.00622530287891e+000

1.04107348435354e+005,-1.09645479711495e+001,-1.02024935067599e+000

1.05560632861831e+005,-1.09645618193699e+001,-1.03446826686406e+000

1.07034204382888e+005,-1.09645760180886e+001,-1.04888473679672e+000

1.08528346195813e+005,-1.09645905750775e+001,-1.06350148205262e+000

1.10043345451179e+005,-1.09646054982187e+001,-1.07832126090409e+000

1.11579493308032e+005,-1.09646207955028e+001,-1.09334686878743e+000

1.13137084989847e+005,-1.09646364750267e+001,-1.10858113878107e+000

1.14716419841265e+005,-1.09646525449899e+001,-1.12402694209183e+000

1.16317801385624e+005,-1.09646690136923e+001,-1.13968718854278e+000

1.17941537383287e+005,-1.09646858895304e+001,-1.15556482707025e+000

1.19587939890794e+005,-1.09647031809932e+001,-1.17166284622762e+000

1.21257325320831e+005,-1.09647208966586e+001,-1.18798427469224e+000

1.22950014503040e+005,-1.09647390451883e+001,-1.20453218178309e+000

1.24666332745679e+005,-1.09647576353227e+001,-1.22130967798251e+000

1.26406609898139e+005,-1.09647766758759e+001,-1.23831991546436e+000

1.28171180414339e+005,-1.09647961757297e+001,-1.25556608863021e+000

1.29960383416997e+005,-1.09648161438265e+001,-1.27305143465503e+000

1.31774562762811e+005,-1.09648365891633e+001,-1.29077923403448e+000

1.33614067108538e+005,-1.09648575207837e+001,-1.30875281114395e+000

1.35479249978003e+005,-1.09648789477697e+001,-1.32697553480613e+000

1.37370469830040e+005,-1.09649008792339e+001,-1.34545081886146e+000

1.39288090127379e+005,-1.09649233243095e+001,-1.36418212275280e+000

1.41232479406504e+005,-1.09649462921406e+001,-1.38317295211363e+000

1.43204011348474e+005,-1.09649697918724e+001,-1.40242685936588e+000

1.45203064850745e+005,-1.09649938326392e+001,-1.42194744432951e+000

1.47230024099979e+005,-1.09650184235532e+001,-1.44173835483630e+000

1.49285278645888e+005,-1.09650435736916e+001,-1.46180328735681e+000

1.51369223476094e+005,-1.09650692920831e+001,-1.48214598763538e+000

1.53482259092041e+005,-1.09650955876945e+001,-1.50277025133349e+000

1.55624791585964e+005,-1.09651224694153e+001,-1.52367992468607e+000

1.57797232718936e+005,-1.09651499460418e+001,-1.54487890516728e+000

1.59999999999999e+005,-1.09651780262613e+001,-1.56637114216436e+000

1.62233516766403e+005,-1.09652067186338e+001,-1.58816063766798e+000

1.64498212264969e+005,-1.09652360315742e+001,-1.61025144696854e+000

1.66794521734578e+005,-1.09652659733333e+001,-1.63264767936717e+000

1.69122886489819e+005,-1.09652965519767e+001,-1.65535349889970e+000

1.71483754005805e+005,-1.09653277753646e+001,-1.67837312507038e+000

1.73877578004168e+005,-1.09653596511292e+001,-1.70171083360147e+000

1.76304818540256e+005,-1.09653921866518e+001,-1.72537095719461e+000

1.78765942091554e+005,-1.09654253890385e+001,-1.74935788630609e+000

1.81261421647326e+005,-1.09654592650950e+001,-1.77367606993812e+000

1.83791736799524e+005,-1.09654938213004e+001,-1.79833001644334e+000

1.86357373834951e+005,-1.09655290637802e+001,-1.82332429434471e+000

1.88958825828723e+005,-1.09655649982777e+001,-1.84866353317254e+000

1.91596592739027e+005,-1.09656016301243e+001,-1.87435242431639e+000

1.94271181503206e+005,-1.09656389642096e+001,-1.90039572189581e+000

1.96983106135185e+005,-1.09656770049493e+001,-1.92679824364546e+000

1.99732887824256e+005,-1.09657157562528e+001,-1.95356487182290e+000

2.02521055035243e+005,-1.09657552214891e+001,-1.98070055412992e+000

2.05348143610063e+005,-1.09657954034522e+001,-2.00821030465737e+000

2.08214696870707e+005,-1.09658363043252e+001,-2.03609920484650e+000

2.11121265723661e+005,-1.09658779256428e+001,-2.06437240447438e+000

2.14068408765776e+005,-1.09659202682540e+001,-2.09303512265652e+000

2.17056692391625e+005,-1.09659633322824e+001,-2.12209264887360e+000

2.20086690902357e+005,-1.09660071170864e+001,-2.15155034402094e+000

2.23158986616063e+005,-1.09660516212182e+001,-2.18141364147893e+000

2.26274169979693e+005,-1.09660968423815e+001,-2.21168804820958e+000

2.29432839682530e+005,-1.09661427773888e+001,-2.24237914587488e+000

2.32635602771247e+005,-1.09661894221179e+001,-2.27349259198228e+000

2.35883074766574e+005,-1.09662367714668e+001,-2.30503412105496e+000

2.39175879781588e+005,-1.09662848193087e+001,-2.33700954582773e+000

2.42514650641661e+005,-1.09663335584457e+001,-2.36942475847167e+000

2.45900029006080e+005,-1.09663829805625e+001,-2.40228573184335e+000

2.49332665491357e+005,-1.09664330761787e+001,-2.43559852076627e+000

2.52813219796278e+005,-1.09664838346013e+001,-2.46936926333673e+000

2.56342360828676e+005,-1.09665352438761e+001,-2.50360418226233e+000

2.59920766833993e+005,-1.09665872907398e+001,-2.53830958622926e+000

2.63549125525621e+005,-1.09666399605704e+001,-2.57349187129877e+000

2.67228134217075e+005,-1.09666932373386e+001,-2.60915752233793e+000

2.70958499956006e+005,-1.09667471035590e+001,-2.64531311447689e+000

2.74740939660078e+005,-1.09668015402402e+001,-2.68196531460429e+000

2.78576180254757e+005,-1.09668565268367e+001,-2.71912088288855e+000

2.82464958813007e+005,-1.09669120411999e+001,-2.75678667433650e+000

2.86408022696948e+005,-1.09669680595294e+001,-2.79496964038418e+000

2.90406129701488e+005,-1.09670245563257e+001,-2.83367683051867e+000

2.94460048199957e+005,-1.09670815043427e+001,-2.87291539393600e+000

2.98570557291775e+005,-1.09671388745406e+001,-2.91269258123230e+000

3.02738446952187e+005,-1.09671966360409e+001,-2.95301574612889e+000

3.06964518184081e+005,-1.09672547560810e+001,-2.99389234722994e+000

3.11249583171928e+005,-1.09673131999705e+001,-3.03532994981671e+000

3.15594465437872e+005,-1.09673719310487e+001,-3.07733622767425e+000

3.19999999999997e+005,-1.09674309106432e+001,-3.11991896495261e+000

3.24467033532806e+005,-1.09674900980301e+001,-3.16308605806132e+000

3.28996424529938e+005,-1.09675494503954e+001,-3.20684551759828e+000

3.33589043469155e+005,-1.09676089227989e+001,-3.25120547031220e+000

3.38245772979638e+005,-1.09676684681385e+001,-3.29617416109710e+000

3.42967508011610e+005,-1.09677280371178e+001,-3.34175995502041e+000

3.47755156008335e+005,-1.09677875782145e+001,-3.38797133938303e+000

3.52609637080511e+005,-1.09678470376519e+001,-3.43481692581143e+000

3.57531884183106e+005,-1.09679063593716e+001,-3.48230545238059e+000

3.62522843294651e+005,-1.09679654850089e+001,-3.53044578576771e+000

3.67583473599047e+005,-1.09680243538706e+001,-3.57924692343621e+000

3.72714747669902e+005,-1.09680829029150e+001,-3.62871799584864e+000

3.77917651657445e+005,-1.09681410667340e+001,-3.67886826870848e+000

3.83193185478053e+005,-1.09681987775380e+001,-3.72970714522907e+000

3.88542363006410e+005,-1.09682559651435e+001,-3.78124416843041e+000

3.93966212270369e+005,-1.09683125569623e+001,-3.83348902346138e+000

3.99465775648511e+005,-1.09683684779940e+001,-3.88645153994716e+000

4.05042110070485e+005,-1.09684236508206e+001,-3.94014169436237e+000

4.10696287220124e+005,-1.09684779956034e+001,-3.99456961242488e+000

4.16429393741414e+005,-1.09685314300826e+001,-4.04974557151558e+000

4.22242531447321e+005,-1.09685838695789e+001,-4.10568000311782e+000

4.28136817531551e+005,-1.09686352269972e+001,-4.16238349527774e+000

4.34113384783250e+005,-1.09686854128334e+001,-4.21986679508574e+000

4.40173381804713e+005,-1.09687343351817e+001,-4.27814081117596e+000

4.46317973232124e+005,-1.09687818997450e+001,-4.33721661624519e+000

4.52548339959385e+005,-1.09688280098467e+001,-4.39710544958908e+000

4.58865679365059e+005,-1.09688725664440e+001,-4.45781871965502e+000

4.65271205542494e+005,-1.09689154681429e+001,-4.51936800661190e+000

4.71766149533147e+005,-1.09689566112141e+001,-4.58176506493657e+000

4.78351759563174e+005,-1.09689958896102e+001,-4.64502182601324e+000

4.85029301283321e+005,-1.09690331949843e+001,-4.70915040075088e+000

4.91800058012158e+005,-1.09690684167078e+001,-4.77416308221339e+000

4.98665330982714e+005,-1.09691014418904e+001,-4.84007234826535e+000

5.05626439592555e+005,-1.09691321553989e+001,-4.90689086423205e+000

5.12684721657352e+005,-1.09691604398764e+001,-4.97463148557326e+000

5.19841533667984e+005,-1.09691861757618e+001,-5.04330726057302e+000

5.27098251051240e+005,-1.09692092413074e+001,-5.11293143304380e+000

5.34456268434150e+005,-1.09692295125971e+001,-5.18351744504484e+000

5.41916999912011e+005,-1.09692468635621e+001,-5.25507893961871e+000

