Freq.,VOut,OutRef

1.00000000000000e+004,-2.35386586265019e+001,-1.26884049527607e-001

1.01395947979003e+004,-2.35386599086623e+001,-1.28655097230083e-001

1.02811382665607e+004,-2.35386612268279e+001,-1.30450859877668e-001

1.04246576084112e+004,-2.35386625820088e+001,-1.32271682138753e-001

1.05701804056138e+004,-2.35386639752429e+001,-1.34117913481648e-001

1.07177346253629e+004,-2.35386654075975e+001,-1.35989908237542e-001

1.08673486252606e+004,-2.35386668801697e+001,-1.37888025667301e-001

1.10190511587661e+004,-2.35386683940874e+001,-1.39812630030863e-001

1.11728713807222e+004,-2.35386699505095e+001,-1.41764090658509e-001

1.13288388529580e+004,-2.35386715506280e+001,-1.43742782014883e-001

1.14869835499703e+004,-2.35386731956678e+001,-1.45749083776249e-001

1.16473358646846e+004,-2.35386748868881e+001,-1.47783380900316e-001

1.18099266142953e+004,-2.35386766255835e+001,-1.49846063695657e-001

1.19747870461893e+004,-2.35386784130845e+001,-1.51937527901788e-001

1.21419488439505e+004,-2.35386802507590e+001,-1.54058174758577e-001

1.23114441334492e+004,-2.35386821400128e+001,-1.56208411086633e-001

1.24833054890161e+004,-2.35386840822917e+001,-1.58388649358447e-001

1.26575659397028e+004,-2.35386860790806e+001,-1.60599307786105e-001

1.28342589756290e+004,-2.35386881319072e+001,-1.62840810387446e-001

1.30134185544193e+004,-2.35386902423410e+001,-1.65113587076868e-001

1.31950791077289e+004,-2.35386924119957e+001,-1.67418073740905e-001

1.33792755478611e+004,-2.35386946425296e+001,-1.69754712323525e-001

1.35660432744767e+004,-2.35386969356477e+001,-1.72123950906127e-001

1.37554181813974e+004,-2.35386992931024e+001,-1.74526243794187e-001

1.39474366635040e+004,-2.35387017166950e+001,-1.76962051602098e-001

1.41421356237309e+004,-2.35387042082769e+001,-1.79431841341307e-001

1.43395524801583e+004,-2.35387067697510e+001,-1.81936086506794e-001

1.45397251732031e+004,-2.35387094030738e+001,-1.84475267164118e-001

1.47426921729110e+004,-2.35387121102555e+001,-1.87049870044546e-001

1.49484924863494e+004,-2.35387148933628e+001,-1.89660388632054e-001

1.51571656651040e+004,-2.35387177545199e+001,-1.92307323257453e-001

1.53687518128801e+004,-2.35387206959098e+001,-1.94991181194553e-001

1.55832915932100e+004,-2.35387237197769e+001,-1.97712476748394e-001

1.58008262372675e+004,-2.35387268284271e+001,-2.00471731361133e-001

1.60213975517924e+004,-2.35387300242313e+001,-2.03269473701347e-001

1.62450479271247e+004,-2.35387333096259e+001,-2.06106239766371e-001

1.64718203453514e+004,-2.35387366871150e+001,-2.08982572983330e-001

1.67017583885674e+004,-2.35387401592724e+001,-2.11899024309472e-001

1.69349062472505e+004,-2.35387437287434e+001,-2.14856152332788e-001

1.71713087287550e+004,-2.35387473982464e+001,-2.17854523381698e-001

1.74110112659224e+004,-2.35387511705759e+001,-2.20894711623202e-001

1.76540599258131e+004,-2.35387550486032e+001,-2.23977299176810e-001

1.79005014185594e+004,-2.35387590352799e+001,-2.27102876217170e-001

1.81503831063432e+004,-2.35387631336390e+001,-2.30272041086275e-001

1.84037530124975e+004,-2.35387673467977e+001,-2.33485400405662e-001

1.86606598307361e+004,-2.35387716779594e+001,-2.36743569185773e-001

1.89211529345119e+004,-2.35387761304167e+001,-2.40047170940969e-001

1.91852823865052e+004,-2.35387807075526e+001,-2.43396837807828e-001

1.94530989482457e+004,-2.35387854128441e+001,-2.46793210657873e-001

1.97246540898671e+004,-2.35387902498644e+001,-2.50236939215870e-001

1.99999999999999e+004,-2.35387952222855e+001,-2.53728682182488e-001

2.02791895958005e+004,-2.35388003338805e+001,-2.57269107355447e-001

2.05622765331213e+004,-2.35388055885270e+001,-2.60858891749274e-001

2.08493152168224e+004,-2.35388109902094e+001,-2.64498721722128e-001

2.11403608112276e+004,-2.35388165430225e+001,-2.68189293100127e-001

2.14354692507258e+004,-2.35388222511734e+001,-2.71931311307835e-001

2.17346972505211e+004,-2.35388281189852e+001,-2.75725491494625e-001

2.20381023175322e+004,-2.35388341509004e+001,-2.79572558664340e-001

2.23457427614443e+004,-2.35388403514837e+001,-2.83473247810831e-001

2.26576777059159e+004,-2.35388467254250e+001,-2.87428304050952e-001

2.29739670999406e+004,-2.35388532775435e+001,-2.91438482757741e-001

2.32946717293690e+004,-2.35388600127907e+001,-2.95504549700638e-001

2.36198532285905e+004,-2.35388669362537e+001,-2.99627281183458e-001

2.39495740923785e+004,-2.35388740531598e+001,-3.03807464183419e-001

2.42838976879009e+004,-2.35388813688790e+001,-3.08045896496450e-001

2.46228882668982e+004,-2.35388888889289e+001,-3.12343386876753e-001

2.49666109780322e+004,-2.35388966189778e+001,-3.16700755188498e-001

2.53151318794055e+004,-2.35389045648491e+001,-3.21118832547379e-001

2.56685179512580e+004,-2.35389127325257e+001,-3.25598461473887e-001

2.60268371088386e+004,-2.35389211281534e+001,-3.30140496042313e-001

2.63901582154578e+004,-2.35389297580462e+001,-3.34745802033244e-001

2.67585510957221e+004,-2.35389386286900e+001,-3.39415257089974e-001

2.71320865489533e+004,-2.35389477467474e+001,-3.44149750872854e-001

2.75108363627948e+004,-2.35389571190624e+001,-3.48950185218394e-001

2.78948733270080e+004,-2.35389667526651e+001,-3.53817474299699e-001

2.82842712474618e+004,-2.35389766547764e+001,-3.58752544786818e-001

2.86791049603164e+004,-2.35389868328137e+001,-3.63756336010242e-001

2.90794503464061e+004,-2.35389972943947e+001,-3.68829800129999e-001

2.94853843458219e+004,-2.35390080473441e+001,-3.73973902297349e-001

2.98969849726987e+004,-2.35390190996982e+001,-3.79189620827571e-001

3.03143313302078e+004,-2.35390304597102e+001,-3.84477947370480e-001

3.07375036257601e+004,-2.35390421358564e+001,-3.89839887083254e-001

3.11665831864199e+004,-2.35390541368412e+001,-3.95276458805794e-001

3.16016524745350e+004,-2.35390664716041e+001,-4.00788695234307e-001

3.20427951035848e+004,-2.35390791493245e+001,-4.06377643104734e-001

3.24900958542493e+004,-2.35390921794286e+001,-4.12044363369374e-001

3.29436406907028e+004,-2.35391055715955e+001,-4.17789931382435e-001

3.34035167771346e+004,-2.35391193357637e+001,-4.23615437080394e-001

3.38698124945009e+004,-2.35391334821374e+001,-4.29521985172488e-001

3.43426174575100e+004,-2.35391480211936e+001,-4.35510695325933e-001

3.48220225318448e+004,-2.35391629636888e+001,-4.41582702357470e-001

3.53081198516260e+004,-2.35391783206659e+001,-4.47739156424582e-001

3.58010028371187e+004,-2.35391941034616e+001,-4.53981223220521e-001

3.63007662126863e+004,-2.35392103237136e+001,-4.60310084168267e-001

3.68075060249948e+004,-2.35392269933682e+001,-4.66726936619972e-001

3.73213196614721e+004,-2.35392441246877e+001,-4.73232994055774e-001

3.78423058690237e+004,-2.35392617302585e+001,-4.79829486286363e-001

3.83705647730104e+004,-2.35392798229987e+001,-4.86517659654963e-001

3.89061978964912e+004,-2.35392984161666e+001,-4.93298777244280e-001

3.94493081797342e+004,-2.35393175233687e+001,-5.00174119082041e-001

3.99999999999998e+004,-2.35393371585683e+001,-5.07144982352422e-001

4.05583791916010e+004,-2.35393573360941e+001,-5.14212681604950e-001

4.11245530662425e+004,-2.35393780706488e+001,-5.21378548968487e-001

4.16986304336447e+004,-2.35393993773184e+001,-5.28643934365280e-001

4.22807216224550e+004,-2.35394212715807e+001,-5.36010205729822e-001

4.28709385014515e+004,-2.35394437693154e+001,-5.43478749223404e-001

4.34693945010421e+004,-2.35394668868126e+001,-5.51050969458663e-001

4.40762046350642e+004,-2.35394906407833e+001,-5.58728289718502e-001

4.46914855228886e+004,-2.35395150483686e+001,-5.66512152180847e-001

4.53153554118317e+004,-2.35395401271498e+001,-5.74404018145135e-001

4.59479341998812e+004,-2.35395658951587e+001,-5.82405368257823e-001

4.65893434587380e+004,-2.35395923708870e+001,-5.90517702745138e-001

4.72397064571810e+004,-2.35396195732984e+001,-5.98742541638700e-001

4.78991481847569e+004,-2.35396475218373e+001,-6.07081425012455e-001

4.85677953758016e+004,-2.35396762364407e+001,-6.15535913215147e-001

4.92457765337964e+004,-2.35397057375491e+001,-6.24107587104935e-001

4.99332219560642e+004,-2.35397360461168e+001,-6.32798048288547e-001

5.06302637588109e+004,-2.35397671836240e+001,-6.41608919360385e-001

5.13370359025159e+004,-2.35397991720871e+001,-6.50541844142066e-001

5.20536742176771e+004,-2.35398320340713e+001,-6.59598487923626e-001

5.27803164309155e+004,-2.35398657927015e+001,-6.68780537710138e-001

5.35171021914442e+004,-2.35399004716739e+001,-6.78089702463959e-001

5.42641730979066e+004,-2.35399360952689e+001,-6.87527713351004e-001

5.50216727255895e+004,-2.35399726883615e+001,-6.97096323991479e-001

5.57897466540159e+004,-2.35400102764347e+001,-7.06797310706434e-001

5.65685424949235e+004,-2.35400488855912e+001,-7.16632472768604e-001

5.73582099206328e+004,-2.35400885425657e+001,-7.26603632655181e-001

5.81589006928121e+004,-2.35401292747371e+001,-7.36712636301193e-001

5.89707686916437e+004,-2.35401711101413e+001,-7.46961353351478e-001

5.97939699453972e+004,-2.35402140774833e+001,-7.57351677419033e-001

6.06286626604156e+004,-2.35402582061499e+001,-7.67885526339948e-001

6.14750072515201e+004,-2.35403035262226e+001,-7.78564842430873e-001

6.23331663728396e+004,-2.35403500684897e+001,-7.89391592749419e-001

6.32033049490698e+004,-2.35403978644592e+001,-8.00367769352619e-001

6.40855902071694e+004,-2.35404469463710e+001,-8.11495389558846e-001

6.49801917084985e+004,-2.35404973472103e+001,-8.22776496207920e-001

6.58872813814055e+004,-2.35405491007193e+001,-8.34213157925959e-001

6.68070335542691e+004,-2.35406022414102e+001,-8.45807469387566e-001

6.77396249890018e+004,-2.35406568045773e+001,-8.57561551581423e-001

6.86852349150199e+004,-2.35407128263095e+001,-8.69477552074099e-001

6.96440450636895e+004,-2.35407703435022e+001,-8.81557645278560e-001

7.06162397032520e+004,-2.35408293938697e+001,-8.93804032719792e-001

7.16020056742374e+004,-2.35408900159567e+001,-9.06218943302464e-001

7.26015324253724e+004,-2.35409522491502e+001,-9.18804633580188e-001

7.36150120499896e+004,-2.35410161336909e+001,-9.31563388024718e-001

7.46426393229441e+004,-2.35410817106839e+001,-9.44497519296368e-001

7.56846117380472e+004,-2.35411490221105e+001,-9.57609368513245e-001

7.67411295460207e+004,-2.35412181108378e+001,-9.70901305526766e-001

7.78123957929823e+004,-2.35412890206294e+001,-9.84375729189608e-001

7.88986163594682e+004,-2.35413617961553e+001,-9.98035067632167e-001

7.99999999999995e+004,-2.35414364830009e+001,-1.01188177853518e+000

8.11167583832018e+004,-2.35415131276762e+001,-1.02591834940588e+000

8.22491061324848e+004,-2.35415917776243e+001,-1.04014729785247e+000

8.33972608672892e+004,-2.35416724812290e+001,-1.05457117186173e+000

8.45614432449099e+004,-2.35417552878220e+001,-1.06919255007842e+000

8.57418770029029e+004,-2.35418402476901e+001,-1.08401404208168e+000

8.69387890020841e+004,-2.35419274120807e+001,-1.09903828866698e+000

8.81524092701283e+004,-2.35420168332066e+001,-1.11426796212863e+000

8.93829710457770e+004,-2.35421085642519e+001,-1.12970576654012e+000

9.06307108236633e+004,-2.35422026593736e+001,-1.14535443804204e+000

9.18958683997622e+004,-2.35422991737062e+001,-1.16121674512614e+000

9.31786869174758e+004,-2.35423981633621e+001,-1.17729548892548e+000

9.44794129143618e+004,-2.35424996854330e+001,-1.19359350350340e+000

9.57982963695136e+004,-2.35426037979897e+001,-1.21011365614745e+000

9.71355907516031e+004,-2.35427105600801e+001,-1.22685884766501e+000

9.84915530675926e+004,-2.35428200317274e+001,-1.24383201268034e+000

9.98664439121282e+004,-2.35429322739254e+001,-1.26103611993790e+000

1.01260527517622e+005,-2.35430473486341e+001,-1.27847417260511e+000

1.02674071805032e+005,-2.35431653187728e+001,-1.29614920858232e+000

1.04107348435354e+005,-2.35432862482119e+001,-1.31406430081574e+000

1.05560632861831e+005,-2.35434102017641e+001,-1.33222255761393e+000

1.07034204382888e+005,-2.35435372451729e+001,-1.35062712296989e+000

1.08528346195813e+005,-2.35436674451000e+001,-1.36928117689062e+000

1.10043345451179e+005,-2.35438008691109e+001,-1.38818793572849e+000

1.11579493308032e+005,-2.35439375856589e+001,-1.40735065252268e+000

1.13137084989847e+005,-2.35440776640670e+001,-1.42677261734627e+000

1.14716419841265e+005,-2.35442211745079e+001,-1.44645715766109e+000

1.16317801385624e+005,-2.35443681879825e+001,-1.46640763867964e+000

1.17941537383287e+005,-2.35445187762958e+001,-1.48662746373865e+000

1.19587939890794e+005,-2.35446730120307e+001,-1.50712007468046e+000

1.21257325320831e+005,-2.35448309685202e+001,-1.52788895224543e+000

1.22950014503040e+005,-2.35449927198169e+001,-1.54893761647482e+000

1.24666332745679e+005,-2.35451583406603e+001,-1.57026962712735e+000

1.26406609898139e+005,-2.35453279064423e+001,-1.59188858410777e+000

1.28171180414339e+005,-2.35455014931691e+001,-1.61379812791030e+000

1.29960383416997e+005,-2.35456791774223e+001,-1.63600194007541e+000

1.31774562762811e+005,-2.35458610363162e+001,-1.65850374366629e+000

1.33614067108538e+005,-2.35460471474532e+001,-1.68130730375727e+000

1.35479249978003e+005,-2.35462375888771e+001,-1.70441642794562e+000

1.37370469830040e+005,-2.35464324390229e+001,-1.72783496688069e+000

1.39288090127379e+005,-2.35466317766645e+001,-1.75156681481354e+000

1.41232479406504e+005,-2.35468356808606e+001,-1.77561591016846e+000

1.43204011348474e+005,-2.35470442308966e+001,-1.79998623614065e+000

1.45203064850745e+005,-2.35472575062249e+001,-1.82468182131505e+000

1.47230024099979e+005,-2.35474755864030e+001,-1.84970674031425e+000

1.49285278645888e+005,-2.35476985510279e+001,-1.87506511447132e+000

1.51369223476094e+005,-2.35479264796692e+001,-1.90076111253623e+000

1.53482259092041e+005,-2.35481594517994e+001,-1.92679895140801e+000

1.55624791585964e+005,-2.35483975467215e+001,-1.95318289690295e+000

1.57797232718936e+005,-2.35486408434952e+001,-1.97991726455448e+000

1.59999999999999e+005,-2.35488894208600e+001,-2.00700642045008e+000

1.62233516766403e+005,-2.35491433571570e+001,-2.03445478210481e+000

1.64498212264969e+005,-2.35494027302486e+001,-2.06226681937308e+000

1.66794521734578e+005,-2.35496676174360e+001,-2.09044705540247e+000

1.69122886489819e+005,-2.35499380953757e+001,-2.11900006762801e+000

1.71483754005805e+005,-2.35502142399943e+001,-2.14793048881072e+000

1.73877578004168e+005,-2.35504961264017e+001,-2.17724300812273e+000

1.76304818540256e+005,-2.35507838288041e+001,-2.20694237227825e+000

1.78765942091554e+005,-2.35510774204151e+001,-2.23703338671401e+000

1.81261421647326e+005,-2.35513769733675e+001,-2.26752091681882e+000

1.83791736799524e+005,-2.35516825586232e+001,-2.29840988921701e+000

1.86357373834951e+005,-2.35519942458848e+001,-2.32970529310316e+000

1.88958825828723e+005,-2.35523121035064e+001,-2.36141218163169e+000

1.91596592739027e+005,-2.35526361984051e+001,-2.39353567336438e+000

1.94271181503206e+005,-2.35529665959740e+001,-2.42608095377231e+000

1.96983106135185e+005,-2.35533033599957e+001,-2.45905327679966e+000

1.99732887824256e+005,-2.35536465525586e+001,-2.49245796648250e+000

2.02521055035243e+005,-2.35539962339740e+001,-2.52630041863288e+000

2.05348143610063e+005,-2.35543524626966e+001,-2.56058610258071e+000

2.08214696870707e+005,-2.35547152952478e+001,-2.59532056297914e+000

2.11121265723661e+005,-2.35550847861423e+001,-2.63050942167136e+000

2.14068408765776e+005,-2.35554609878182e+001,-2.66615837962224e+000

2.17056692391625e+005,-2.35558439505718e+001,-2.70227321890981e+000

2.20086690902357e+005,-2.35562337224974e+001,-2.73885980478367e+000

2.23158986616063e+005,-2.35566303494319e+001,-2.77592408778221e+000

2.26274169979693e+005,-2.35570338749055e+001,-2.81347210591622e+000

2.29432839682530e+005,-2.35574443400982e+001,-2.85150998691222e+000

2.32635602771247e+005,-2.35578617838041e+001,-2.89004395051696e+000

2.35883074766574e+005,-2.35582862424022e+001,-2.92908031086336e+000

2.39175879781588e+005,-2.35587177498349e+001,-2.96862547889474e+000

2.42514650641661e+005,-2.35591563375959e+001,-3.00868596484694e+000

2.45900029006080e+005,-2.35596020347257e+001,-3.04926838078581e+000

2.49332665491357e+005,-2.35600548678171e+001,-3.09037944319882e+000

2.52813219796278e+005,-2.35605148610309e+001,-3.13202597563978e+000

2.56342360828676e+005,-2.35609820361207e+001,-3.17421491142000e+000

2.59920766833993e+005,-2.35614564124699e+001,-3.21695329635080e+000

2.63549125525621e+005,-2.35619380071387e+001,-3.26024829152482e+000

2.67228134217075e+005,-2.35624268349234e+001,-3.30410717614262e+000

2.70958499956006e+005,-2.35629229084274e+001,-3.34853735037505e+000

2.74740939660078e+005,-2.35634262381449e+001,-3.39354633825884e+000

2.78576180254757e+005,-2.35639368325563e+001,-3.43914179062599e+000

2.82464958813007e+005,-2.35644546982380e+001,-3.48533148805567e+000

2.86408022696948e+005,-2.35649798399844e+001,-3.53212334385216e+000

2.90406129701488e+005,-2.35655122609434e+001,-3.57952540703958e+000

2.94460048199957e+005,-2.35660519627658e+001,-3.62754586537164e+000

2.98570557291775e+005,-2.35665989457687e+001,-3.67619304834999e+000

3.02738446952187e+005,-2.35671532091118e+001,-3.72547543025035e+000

3.06964518184081e+005,-2.35677147509885e+001,-3.77540163314637e+000

3.11249583171928e+005,-2.35682835688306e+001,-3.82598042993156e+000

3.15594465437872e+005,-2.35688596595263e+001,-3.87722074733327e+000

3.19999999999997e+005,-2.35694430196527e+001,-3.92913166891155e+000

3.24467033532806e+005,-2.35700336457212e+001,-3.98172243804241e+000

3.28996424529938e+005,-2.35706315344366e+001,-4.03500246087740e+000

3.33589043469155e+005,-2.35712366829690e+001,-4.08898130927789e+000

3.38245772979638e+005,-2.35718490892386e+001,-4.14366872371802e+000

3.42967508011610e+005,-2.35724687522130e+001,-4.19907461615246e+000

3.47755156008335e+005,-2.35730956722167e+001,-4.25520907284429e+000

3.52609637080511e+005,-2.35737298512511e+001,-4.31208235715212e+000

3.57531884183106e+005,-2.35743712933274e+001,-4.36970491226923e+000

3.62522843294651e+005,-2.35750200048080e+001,-4.42808736391291e+000

3.67583473599047e+005,-2.35756759947597e+001,-4.48724052296161e+000

3.72714747669902e+005,-2.35763392753151e+001,-4.54717538803608e+000

3.77917651657445e+005,-2.35770098620431e+001,-4.60790314802259e+000

3.83193185478053e+005,-2.35776877743277e+001,-4.66943518453549e+000

3.88542363006410e+005,-2.35783730357542e+001,-4.73178307431832e+000

3.93966212270369e+005,-2.35790656745014e+001,-4.79495859158069e+000

3.99465775648511e+005,-2.35797657237412e+001,-4.85897371027046e+000

4.05042110070485e+005,-2.35804732220418e+001,-4.92384060628166e+000

4.10696287220124e+005,-2.35811882137773e+001,-4.98957165959506e+000

4.16429393741414e+005,-2.35819107495392e+001,-5.05617945635413e+000

4.22242531447321e+005,-2.35826408865526e+001,-5.12367679087491e+000

4.28136817531551e+005,-2.35833786890942e+001,-5.19207666759255e+000

4.34113384783250e+005,-2.35841242289117e+001,-5.26139230294262e+000

4.40173381804713e+005,-2.35848775856444e+001,-5.33163712718184e+000

4.46317973232124e+005,-2.35856388472447e+001,-5.40282478614847e+000

4.52548339959385e+005,-2.35864081103987e+001,-5.47496914296401e+000

4.58865679365059e+005,-2.35871854809459e+001,-5.54808427968110e+000

4.65271205542494e+005,-2.35879710742979e+001,-5.62218449887737e+000

4.71766149533147e+005,-2.35887650158549e+001,-5.69728432520036e+000

4.78351759563174e+005,-2.35895674414196e+001,-5.77339850686608e+000

4.85029301283321e+005,-2.35903784976085e+001,-5.85054201711607e+000

4.91800058012158e+005,-2.35911983422598e+001,-5.92873005563401e+000

4.98665330982714e+005,-2.35920271448373e+001,-6.00797804992879e+000

5.05626439592555e+005,-2.35928650868312e+001,-6.08830165668677e+000

5.12684721657352e+005,-2.35937123621538e+001,-6.16971676309721e+000

5.19841533667984e+005,-2.35945691775313e+001,-6.25223948815697e+000

5.27098251051240e+005,-2.35954357528916e+001,-6.33588618395562e+000

5.34456268434150e+005,-2.35963123217461e+001,-6.42067343695013e+000

5.41916999912011e+005,-2.35971991315688e+001,-6.50661806922857e+000

