Freq.,VOut,OutRef

1.00000000000000e+004,-2.51306778975144e+000,-4.70501338943223e-002

1.01395947979003e+004,-2.51306781712191e+000,-4.77069224203529e-002

1.02811382665607e+004,-2.51306784526014e+000,-4.83728790827616e-002

1.04246576084112e+004,-2.51306787418791e+000,-4.90481318494496e-002

1.05701804056138e+004,-2.51306790392736e+000,-4.97328104763481e-002

1.07177346253629e+004,-2.51306793450111e+000,-5.04270465306198e-002

1.08673486252606e+004,-2.51306796593254e+000,-5.11309734148586e-002

1.10190511587661e+004,-2.51306799824555e+000,-5.18447263941000e-002

1.11728713807222e+004,-2.51306803146484e+000,-5.25684426203440e-002

1.13288388529580e+004,-2.51306806561592e+000,-5.33022611581757e-002

1.14869835499703e+004,-2.51306810072470e+000,-5.40463230151822e-002

1.16473358646846e+004,-2.51306813681791e+000,-5.48007711660039e-002

1.18099266142953e+004,-2.51306817392340e+000,-5.55657505780505e-002

1.19747870461893e+004,-2.51306821206934e+000,-5.63414082441792e-002

1.21419488439505e+004,-2.51306825128456e+000,-5.71278932096073e-002

1.23114441334492e+004,-2.51306829159904e+000,-5.79253565971008e-002

1.24833054890161e+004,-2.51306833304376e+000,-5.87339516365664e-002

1.26575659397028e+004,-2.51306837565016e+000,-5.95538336992900e-002

1.28342589756290e+004,-2.51306841945086e+000,-6.03851603216928e-002

1.30134185544193e+004,-2.51306846447872e+000,-6.12280912437236e-002

1.31950791077289e+004,-2.51306851076876e+000,-6.20827884252983e-002

1.33792755478611e+004,-2.51306855835566e+000,-6.29494160951046e-002

1.35660432744767e+004,-2.51306860727568e+000,-6.38281407688974e-002

1.37554181813974e+004,-2.51306865756642e+000,-6.47191312836355e-002

1.39474366635040e+004,-2.51306870926557e+000,-6.56225588386085e-002

1.41421356237309e+004,-2.51306876241299e+000,-6.65385970139669e-002

1.43395524801583e+004,-2.51306881704884e+000,-6.74674218168197e-002

1.45397251732031e+004,-2.51306887321443e+000,-6.84092117099943e-002

1.47426921729110e+004,-2.51306893095284e+000,-6.93641476416583e-002

1.49484924863494e+004,-2.51306899030777e+000,-7.03324130883959e-002

1.51571656651040e+004,-2.51306905132417e+000,-7.13141940866756e-002

1.53687518128801e+004,-2.51306911404833e+000,-7.23096792666687e-002

1.55832915932100e+004,-2.51306917852784e+000,-7.33190598907350e-002

1.58008262372675e+004,-2.51306924481190e+000,-7.43425298871055e-002

1.60213975517924e+004,-2.51306931295042e+000,-7.53802858939258e-002

1.62450479271247e+004,-2.51306938299518e+000,-7.64325272888002e-002

1.64718203453514e+004,-2.51306945499916e+000,-7.74994562322909e-002

1.67017583885674e+004,-2.51306952901684e+000,-7.85812777045000e-002

1.69349062472505e+004,-2.51306960510426e+000,-7.96781995447609e-002

1.71713087287550e+004,-2.51306968331892e+000,-8.07904324918086e-002

1.74110112659224e+004,-2.51306976372030e+000,-8.19181902212171e-002

1.76540599258131e+004,-2.51306984636875e+000,-8.30616893942694e-002

1.79005014185594e+004,-2.51306993132677e+000,-8.42211496902904e-002

1.81503831063432e+004,-2.51307001865879e+000,-8.53967938520046e-002

1.84037530124975e+004,-2.51307010843029e+000,-8.65888477328965e-002

1.86606598307361e+004,-2.51307020070958e+000,-8.77975403303086e-002

1.89211529345119e+004,-2.51307029556558e+000,-8.90231038423434e-002

1.91852823865052e+004,-2.51307039306997e+000,-9.02657737008355e-002

1.94530989482457e+004,-2.51307049329623e+000,-9.15257886214667e-002

1.97246540898671e+004,-2.51307059631988e+000,-9.28033906487691e-002

1.99999999999999e+004,-2.51307070221812e+000,-9.40988252048765e-002

2.02791895958005e+004,-2.51307081107079e+000,-9.54123411311965e-002

2.05622765331213e+004,-2.51307092295933e+000,-9.67441907423351e-002

2.08493152168224e+004,-2.51307103796826e+000,-9.80946298657841e-002

2.11403608112276e+004,-2.51307115618336e+000,-9.94639179031203e-002

2.14354692507258e+004,-2.51307127769359e+000,-1.00852317866497e-001

2.17346972505211e+004,-2.51307140258959e+000,-1.02260096440485e-001

2.20381023175322e+004,-2.51307153096506e+000,-1.03687524023818e-001

2.23457427614443e+004,-2.51307166291599e+000,-1.05134874786473e-001

2.26576777059159e+004,-2.51307179854106e+000,-1.06602426720028e-001

2.29739670999406e+004,-2.51307193794162e+000,-1.08090461691579e-001

2.32946717293690e+004,-2.51307208122134e+000,-1.09599265499917e-001

2.36198532285905e+004,-2.51307222848723e+000,-1.11129127924530e-001

2.39495740923785e+004,-2.51307237984904e+000,-1.12680342784652e-001

2.42838976879009e+004,-2.51307253541918e+000,-1.14253207997439e-001

2.46228882668982e+004,-2.51307269531362e+000,-1.15848025627926e-001

2.49666109780322e+004,-2.51307285965098e+000,-1.17465101955037e-001

2.53151318794055e+004,-2.51307302855301e+000,-1.19104747525567e-001

2.56685179512580e+004,-2.51307320214524e+000,-1.20767277211676e-001

2.60268371088386e+004,-2.51307338055600e+000,-1.22453010276557e-001

2.63901582154578e+004,-2.51307356391735e+000,-1.24162270429840e-001

2.67585510957221e+004,-2.51307375236483e+000,-1.25895385892888e-001

2.71320865489533e+004,-2.51307394603729e+000,-1.27652689461327e-001

2.75108363627948e+004,-2.51307414507758e+000,-1.29434518566137e-001

2.78948733270080e+004,-2.51307434963258e+000,-1.31241215337458e-001

2.82842712474618e+004,-2.51307455985222e+000,-1.33073126677169e-001

2.86791049603164e+004,-2.51307477589140e+000,-1.34930604313210e-001

2.90794503464061e+004,-2.51307499790805e+000,-1.36814004879929e-001

2.94853843458219e+004,-2.51307522606524e+000,-1.38723689972259e-001

2.98969849726987e+004,-2.51307546052981e+000,-1.40660026225626e-001

3.03143313302078e+004,-2.51307570147280e+000,-1.42623385381772e-001

3.07375036257601e+004,-2.51307594906996e+000,-1.44614144358750e-001

3.11665831864199e+004,-2.51307620350186e+000,-1.46632685321766e-001

3.16016524745350e+004,-2.51307646495343e+000,-1.48679395759146e-001

3.20427951035848e+004,-2.51307673361436e+000,-1.50754668555323e-001

3.24900958542493e+004,-2.51307700967955e+000,-1.52858902062437e-001

3.29436406907028e+004,-2.51307729334868e+000,-1.54992500180502e-001

3.34035167771346e+004,-2.51307758482642e+000,-1.57155872432716e-001

3.38698124945009e+004,-2.51307788432328e+000,-1.59349434039089e-001

3.43426174575100e+004,-2.51307819205474e+000,-1.61573606001992e-001

3.48220225318448e+004,-2.51307850824161e+000,-1.63828815183844e-001

3.53081198516260e+004,-2.51307883311081e+000,-1.66115494384527e-001

3.58010028371187e+004,-2.51307916689470e+000,-1.68434082429081e-001

3.63007662126863e+004,-2.51307950983156e+000,-1.70785024247528e-001

3.68075060249948e+004,-2.51307986216566e+000,-1.73168770960712e-001

3.73213196614721e+004,-2.51308022414770e+000,-1.75585779963706e-001

3.78423058690237e+004,-2.51308059603408e+000,-1.78036515017911e-001

3.83705647730104e+004,-2.51308097808818e+000,-1.80521446331724e-001

3.89061978964912e+004,-2.51308137057954e+000,-1.83041050655542e-001

3.94493081797342e+004,-2.51308177378470e+000,-1.85595811367970e-001

3.99999999999998e+004,-2.51308218798672e+000,-1.88186218571194e-001

4.05583791916010e+004,-2.51308261347585e+000,-1.90812769180361e-001

4.11245530662425e+004,-2.51308305054920e+000,-1.93475967020546e-001

4.16986304336447e+004,-2.51308349951144e+000,-1.96176322918515e-001

4.22807216224550e+004,-2.51308396067414e+000,-1.98914354804704e-001

4.28709385014515e+004,-2.51308443435690e+000,-2.01690587804324e-001

4.34693945010421e+004,-2.51308492088678e+000,-2.04505554341843e-001

4.40762046350642e+004,-2.51308542059854e+000,-2.07359794240223e-001

4.46914855228886e+004,-2.51308593383511e+000,-2.10253854821323e-001

4.53153554118317e+004,-2.51308646094731e+000,-2.13188291011696e-001

4.59479341998812e+004,-2.51308700229421e+000,-2.16163665445487e-001

4.65893434587380e+004,-2.51308755824366e+000,-2.19180548569290e-001

4.72397064571810e+004,-2.51308812917163e+000,-2.22239518753430e-001

4.78991481847569e+004,-2.51308871546267e+000,-2.25341162399231e-001

4.85677953758016e+004,-2.51308931751039e+000,-2.28486074048233e-001

4.92457765337964e+004,-2.51308993571751e+000,-2.31674856493461e-001

4.99332219560642e+004,-2.51309057049543e+000,-2.34908120896972e-001

5.06302637588109e+004,-2.51309122226496e+000,-2.38186486901412e-001

5.13370359025159e+004,-2.51309189145634e+000,-2.41510582746401e-001

5.20536742176771e+004,-2.51309257850923e+000,-2.44881045387965e-001

5.27803164309155e+004,-2.51309328387278e+000,-2.48298520618482e-001

5.35171021914442e+004,-2.51309400800621e+000,-2.51763663184884e-001

5.42641730979066e+004,-2.51309475137809e+000,-2.55277136916738e-001

5.50216727255895e+004,-2.51309551446731e+000,-2.58839614845703e-001

5.57897466540159e+004,-2.51309629776284e+000,-2.62451779333468e-001

5.65685424949235e+004,-2.51309710176359e+000,-2.66114322200784e-001

5.73582099206328e+004,-2.51309792697898e+000,-2.69827944855015e-001

5.81589006928121e+004,-2.51309877392874e+000,-2.73593358422674e-001

5.89707686916437e+004,-2.51309964314287e+000,-2.77411283882570e-001

5.97939699453972e+004,-2.51310053516210e+000,-2.81282452199273e-001

6.06286626604156e+004,-2.51310145053763e+000,-2.85207604460737e-001

6.14750072515201e+004,-2.51310238983130e+000,-2.89187492016688e-001

6.23331663728396e+004,-2.51310335361566e+000,-2.93222876618152e-001

6.32033049490698e+004,-2.51310434247384e+000,-2.97314530560790e-001

6.40855902071694e+004,-2.51310535699989e+000,-3.01463236827325e-001

6.49801917084985e+004,-2.51310639779842e+000,-3.05669789234437e-001

6.58872813814055e+004,-2.51310746548495e+000,-3.09934992579565e-001

6.68070335542691e+004,-2.51310856068563e+000,-3.14259662791987e-001

6.77396249890018e+004,-2.51310968403701e+000,-3.18644627085165e-001

6.86852349150199e+004,-2.51311083618672e+000,-3.23090724107109e-001

6.96440450636895e+004,-2.51311201779256e+000,-3.27598804099971e-001

7.06162397032520e+004,-2.51311322952285e+000,-3.32169729056709e-001

7.16020056742374e+004,-2.51311447205625e+000,-3.36804372879809e-001

7.26015324253724e+004,-2.51311574608142e+000,-3.41503621546053e-001

7.36150120499896e+004,-2.51311705229742e+000,-3.46268373266819e-001

7.46426393229441e+004,-2.51311839141265e+000,-3.51099538659451e-001

7.56846117380472e+004,-2.51311976414532e+000,-3.55998040912053e-001

7.67411295460207e+004,-2.51312117122307e+000,-3.60964815955567e-001

7.78123957929823e+004,-2.51312261338231e+000,-3.66000812638641e-001

7.88986163594682e+004,-2.51312409136855e+000,-3.71106992899831e-001

7.99999999999995e+004,-2.51312560593527e+000,-3.76284331949631e-001

8.11167583832018e+004,-2.51312715784428e+000,-3.81533818446863e-001

8.22491061324848e+004,-2.51312874786496e+000,-3.86856454682720e-001

8.33972608672892e+004,-2.51313037677357e+000,-3.92253256767265e-001

8.45614432449099e+004,-2.51313204535318e+000,-3.97725254815162e-001

8.57418770029029e+004,-2.51313375439276e+000,-4.03273493136998e-001

8.69387890020841e+004,-2.51313550468703e+000,-4.08899030429603e-001

8.81524092701283e+004,-2.51313729703516e+000,-4.14602939975406e-001

8.93829710457770e+004,-2.51313913224059e+000,-4.20386309836771e-001

9.06307108236633e+004,-2.51314101111008e+000,-4.26250243058028e-001

9.18958683997622e+004,-2.51314293445284e+000,-4.32195857868894e-001

9.31786869174758e+004,-2.51314490307988e+000,-4.38224287889456e-001

9.44794129143618e+004,-2.51314691780272e+000,-4.44336682340738e-001

9.57982963695136e+004,-2.51314897943265e+000,-4.50534206255368e-001

9.71355907516031e+004,-2.51315108877969e+000,-4.56818040691249e-001

9.84915530675926e+004,-2.51315324665105e+000,-4.63189382952246e-001

9.98664439121282e+004,-2.51315545385036e+000,-4.69649446805453e-001

1.01260527517622e+005,-2.51315771117612e+000,-4.76199462707210e-001

1.02674071805032e+005,-2.51316001942051e+000,-4.82840678026804e-001

1.04107348435354e+005,-2.51316237936749e+000,-4.89574357281692e-001

1.05560632861831e+005,-2.51316479179180e+000,-4.96401782365042e-001

1.07034204382888e+005,-2.51316725745693e+000,-5.03324252785464e-001

1.08528346195813e+005,-2.51316977711342e+000,-5.10343085906328e-001

1.10043345451179e+005,-2.51317235149711e+000,-5.17459617187906e-001

1.11579493308032e+005,-2.51317498132724e+000,-5.24675200434907e-001

1.13137084989847e+005,-2.51317766730403e+000,-5.31991208047373e-001

1.14716419841265e+005,-2.51318041010706e+000,-5.39409031272416e-001

1.16317801385624e+005,-2.51318321039259e+000,-5.46930080463394e-001

1.17941537383287e+005,-2.51318606879124e+000,-5.54555785341085e-001

1.19587939890794e+005,-2.51318898590557e+000,-5.62287595257727e-001

1.21257325320831e+005,-2.51319196230743e+000,-5.70126979466435e-001

1.22950014503040e+005,-2.51319499853496e+000,-5.78075427395602e-001

1.24666332745679e+005,-2.51319809509012e+000,-5.86134448922647e-001

1.26406609898139e+005,-2.51320125243525e+000,-5.94305574658911e-001

1.28171180414339e+005,-2.51320447099013e+000,-6.02590356231831e-001

1.29960383416997e+005,-2.51320775112859e+000,-6.10990366577450e-001

1.31774562762811e+005,-2.51321109317508e+000,-6.19507200232282e-001

1.33614067108538e+005,-2.51321449740110e+000,-6.28142473632890e-001

1.35479249978003e+005,-2.51321796402140e+000,-6.36897825419762e-001

1.37370469830040e+005,-2.51322149319015e+000,-6.45774916744233e-001

1.39288090127379e+005,-2.51322508499673e+000,-6.54775431582463e-001

1.41232479406504e+005,-2.51322873946204e+000,-6.63901077050125e-001

1.43204011348474e+005,-2.51323245653324e+000,-6.73153583730880e-001

1.45203064850745e+005,-2.51323623608018e+000,-6.82534705998010e-001

1.47230024099979e+005,-2.51324007789008e+000,-6.92046222351928e-001

1.49285278645888e+005,-2.51324398166306e+000,-7.01689935756177e-001

1.51369223476094e+005,-2.51324794700694e+000,-7.11467673982601e-001

1.53482259092041e+005,-2.51325197343228e+000,-7.21381289960599e-001

1.55624791585964e+005,-2.51325606034683e+000,-7.31432662132783e-001

1.57797232718936e+005,-2.51326020705029e+000,-7.41623694815317e-001

1.59999999999999e+005,-2.51326441272867e+000,-7.51956318565492e-001

1.62233516766403e+005,-2.51326867644833e+000,-7.62432490555102e-001

1.64498212264969e+005,-2.51327299715021e+000,-7.73054194949694e-001

1.66794521734578e+005,-2.51327737364381e+000,-7.83823443293927e-001

1.69122886489819e+005,-2.51328180460076e+000,-7.94742274904867e-001

1.71483754005805e+005,-2.51328628854856e+000,-8.05812757270680e-001

1.73877578004168e+005,-2.51329082386429e+000,-8.17036986454390e-001

1.76304818540256e+005,-2.51329540876751e+000,-8.28417087509753e-001

1.78765942091554e+005,-2.51330004131389e+000,-8.39955214898096e-001

1.81261421647326e+005,-2.51330471938837e+000,-8.51653552915389e-001

1.83791736799524e+005,-2.51330944069778e+000,-8.63514316128090e-001

1.86357373834951e+005,-2.51331420276406e+000,-8.75539749812616e-001

1.88958825828723e+005,-2.51331900291698e+000,-8.87732130405118e-001

1.91596592739027e+005,-2.51332383828703e+000,-9.00093765957002e-001

1.94271181503206e+005,-2.51332870579757e+000,-9.12626996602325e-001

1.96983106135185e+005,-2.51333360215804e+000,-9.25334195026055e-001

1.99732887824256e+005,-2.51333852385601e+000,-9.38217766947942e-001

2.02521055035243e+005,-2.51334346714986e+000,-9.51280151609376e-001

2.05348143610063e+005,-2.51334842806115e+000,-9.64523822270460e-001

2.08214696870707e+005,-2.51335340236711e+000,-9.77951286715408e-001

2.11121265723661e+005,-2.51335838559283e+000,-9.91565087767438e-001

2.14068408765776e+005,-2.51336337300422e+000,-1.00536780380778e+000

2.17056692391625e+005,-2.51336835959953e+000,-1.01936204931216e+000

2.20086690902357e+005,-2.51337334010283e+000,-1.03355047538490e+000

2.23158986616063e+005,-2.51337830895572e+000,-1.04793577031241e+000

2.26274169979693e+005,-2.51338326031037e+000,-1.06252066011774e+000

2.29432839682530e+005,-2.51338818802199e+000,-1.07730790912957e+000

2.32635602771247e+005,-2.51339308564160e+000,-1.09230032055636e+000

2.35883074766574e+005,-2.51339794640891e+000,-1.10750073707312e+000

2.39175879781588e+005,-2.51340276324517e+000,-1.12291204141473e+000

2.42514650641661e+005,-2.51340752874630e+000,-1.13853715698054e+000

2.45900029006080e+005,-2.51341223517637e+000,-1.15437904844554e+000

2.49332665491357e+005,-2.51341687446070e+000,-1.17044072238498e+000

2.52813219796278e+005,-2.51342143817950e+000,-1.18672522790494e+000

2.56342360828676e+005,-2.51342591756185e+000,-1.20323565728308e+000

2.59920766833993e+005,-2.51343030347945e+000,-1.21997514662037e+000

2.63549125525621e+005,-2.51343458644081e+000,-1.23694687650039e+000

2.67228134217075e+005,-2.51343875658569e+000,-1.25415407265943e+000

2.70958499956006e+005,-2.51344280367979e+000,-1.27160000666494e+000

2.74740939660078e+005,-2.51344671710952e+000,-1.28928799660387e+000

2.78576180254757e+005,-2.51345048587707e+000,-1.30722140778085e+000

2.82464958813007e+005,-2.51345409859583e+000,-1.32540365342490e+000

2.86408022696948e+005,-2.51345754348591e+000,-1.34383819540709e+000

2.90406129701488e+005,-2.51346080836998e+000,-1.36252854496467e+000

2.94460048199957e+005,-2.51346388066939e+000,-1.38147826343830e+000

2.98570557291775e+005,-2.51346674740057e+000,-1.40069096301447e+000

3.02738446952187e+005,-2.51346939517140e+000,-1.42017030748113e+000

3.06964518184081e+005,-2.51347181017828e+000,-1.43992001298938e+000

3.11249583171928e+005,-2.51347397820283e+000,-1.45994384882662e+000

3.15594465437872e+005,-2.51347588460960e+000,-1.48024563819675e+000

3.19999999999997e+005,-2.51347751434323e+000,-1.50082925901108e+000

3.24467033532806e+005,-2.51347885192620e+000,-1.52169864468802e+000

3.28996424529938e+005,-2.51347988145654e+000,-1.54285778496207e+000

3.33589043469155e+005,-2.51348058660623e+000,-1.56431072669936e+000

3.38245772979638e+005,-2.51348095061883e+000,-1.58606157472736e+000

3.42967508011610e+005,-2.51348095630811e+000,-1.60811449266797e+000

3.47755156008335e+005,-2.51348058605625e+000,-1.63047370378383e+000

3.52609637080511e+005,-2.51347982181236e+000,-1.65314349183087e+000

3.57531884183106e+005,-2.51347864509076e+000,-1.67612820192285e+000

3.62522843294651e+005,-2.51347703696970e+000,-1.69943224140194e+000

3.67583473599047e+005,-2.51347497808963e+000,-1.72306008072032e+000

3.72714747669902e+005,-2.51347244865154e+000,-1.74701625433156e+000

3.77917651657445e+005,-2.51346942841555e+000,-1.77130536158896e+000

3.83193185478053e+005,-2.51346589669883e+000,-1.79593206765570e+000

3.88542363006410e+005,-2.51346183237368e+000,-1.82090110442371e+000

3.93966212270369e+005,-2.51345721386545e+000,-1.84621727144114e+000

3.99465775648511e+005,-2.51345201914990e+000,-1.87188543685232e+000

4.05042110070485e+005,-2.51344622575080e+000,-1.89791053834417e+000

4.10696287220124e+005,-2.51343981073672e+000,-1.92429758410565e+000

4.16429393741414e+005,-2.51343275071757e+000,-1.95105165379622e+000

4.22242531447321e+005,-2.51342502184118e+000,-1.97817789952488e+000

4.28136817531551e+005,-2.51341659978871e+000,-2.00568154684073e+000

4.34113384783250e+005,-2.51340745977014e+000,-2.03356789573389e+000

4.40173381804713e+005,-2.51339757651909e+000,-2.06184232164717e+000

4.46317973232124e+005,-2.51338692428700e+000,-2.09051027650116e+000

4.52548339959385e+005,-2.51337547683666e+000,-2.11957728973020e+000

4.58865679365059e+005,-2.51336320743539e+000,-2.14904896932915e+000

4.65271205542494e+005,-2.51335008884732e+000,-2.17893100291488e+000

4.71766149533147e+005,-2.51333609332479e+000,-2.20922915880037e+000

4.78351759563174e+005,-2.51332119259945e+000,-2.23994928708043e+000

4.85029301283321e+005,-2.51330535787236e+000,-2.27109732073212e+000

4.91800058012158e+005,-2.51328855980293e+000,-2.30267927673019e+000

4.98665330982714e+005,-2.51327076849781e+000,-2.33470125717446e+000

5.05626439592555e+005,-2.51325195349788e+000,-2.36716945043497e+000

5.12684721657352e+005,-2.51323208376540e+000,-2.40009013230924e+000

5.19841533667984e+005,-2.51321112766950e+000,-2.43346966719724e+000

5.27098251051240e+005,-2.51318905297071e+000,-2.46731450929346e+000

5.34456268434150e+005,-2.51316582680515e+000,-2.50163120379124e+000

5.41916999912011e+005,-2.51314141566690e+000,-2.53642638810980e+000

