Freq.,VOut,OutRef

1.00000000000000e+004,-1.69603070543615e+000,-8.76762753452564e-002

1.01395947979003e+004,-1.69603070608069e+000,-8.89001849186649e-002

1.02811382665607e+004,-1.69603070674194e+000,-9.01411793956217e-002

1.04246576084112e+004,-1.69603070742052e+000,-9.13994972605876e-002

1.05701804056138e+004,-1.69603070811679e+000,-9.26753803291668e-002

1.07177346253629e+004,-1.69603070883112e+000,-9.39690737916074e-002

1.08673486252606e+004,-1.69603070956396e+000,-9.52808262600699e-002

1.10190511587661e+004,-1.69603071031578e+000,-9.66108898168680e-002

1.11728713807222e+004,-1.69603071108682e+000,-9.79595200640501e-002

1.13288388529580e+004,-1.69603071187773e+000,-9.93269761685324e-002

1.14869835499703e+004,-1.69603071268890e+000,-1.00713520916512e-001

1.16473358646846e+004,-1.69603071352066e+000,-1.02119420761886e-001

1.18099266142953e+004,-1.69603071437364e+000,-1.03544945876587e-001

1.19747870461893e+004,-1.69603071524841e+000,-1.04990370202804e-001

1.21419488439505e+004,-1.69603071614512e+000,-1.06455971509422e-001

1.23114441334492e+004,-1.69603071706459e+000,-1.07942031437695e-001

1.24833054890161e+004,-1.69603071800701e+000,-1.09448835564044e-001

1.26575659397028e+004,-1.69603071897311e+000,-1.10976673446835e-001

1.28342589756290e+004,-1.69603071996313e+000,-1.12525838689632e-001

1.30134185544193e+004,-1.69603072097788e+000,-1.14096628989229e-001

1.31950791077289e+004,-1.69603072201765e+000,-1.15689346201491e-001

1.33792755478611e+004,-1.69603072308287e+000,-1.17304296393532e-001

1.35660432744767e+004,-1.69603072417437e+000,-1.18941789902090e-001

1.37554181813974e+004,-1.69603072529242e+000,-1.20602141398620e-001

1.39474366635040e+004,-1.69603072643758e+000,-1.22285669943934e-001

1.41421356237309e+004,-1.69603072761042e+000,-1.23992699052624e-001

1.43395524801583e+004,-1.69603072881140e+000,-1.25723556754135e-001

1.45397251732031e+004,-1.69603073004100e+000,-1.27478575656228e-001

1.47426921729110e+004,-1.69603073129986e+000,-1.29258093007444e-001

1.49484924863494e+004,-1.69603073258850e+000,-1.31062450763428e-001

1.51571656651040e+004,-1.69603073390724e+000,-1.32891995654031e-001

1.53687518128801e+004,-1.69603073525683e+000,-1.34747079244426e-001

1.55832915932100e+004,-1.69603073663752e+000,-1.36628058009647e-001

1.58008262372675e+004,-1.69603073805004e+000,-1.38535293396446e-001

1.60213975517924e+004,-1.69603073949474e+000,-1.40469151897830e-001

1.62450479271247e+004,-1.69603074097225e+000,-1.42430005119579e-001

1.64718203453514e+004,-1.69603074248283e+000,-1.44418229856029e-001

1.67017583885674e+004,-1.69603074402699e+000,-1.46434208156979e-001

1.69349062472505e+004,-1.69603074560529e+000,-1.48478327404536e-001

1.71713087287550e+004,-1.69603074721810e+000,-1.50550980386813e-001

1.74110112659224e+004,-1.69603074886583e+000,-1.52652565373134e-001

1.76540599258131e+004,-1.69603075054879e+000,-1.54783486190936e-001

1.79005014185594e+004,-1.69603075226741e+000,-1.56944152302104e-001

1.81503831063432e+004,-1.69603075402218e+000,-1.59134978881366e-001

1.84037530124975e+004,-1.69603075581306e+000,-1.61356386900244e-001

1.86606598307361e+004,-1.69603075764069e+000,-1.63608803200189e-001

1.89211529345119e+004,-1.69603075950508e+000,-1.65892660581796e-001

1.91852823865052e+004,-1.69603076140653e+000,-1.68208397883639e-001

1.94530989482457e+004,-1.69603076334521e+000,-1.70556460067620e-001

1.97246540898671e+004,-1.69603076532121e+000,-1.72937298304306e-001

1.99999999999999e+004,-1.69603076733460e+000,-1.75351370059993e-001

2.02791895958005e+004,-1.69603076938552e+000,-1.77799139183021e-001

2.05622765331213e+004,-1.69603077147374e+000,-1.80281075995504e-001

2.08493152168224e+004,-1.69603077359928e+000,-1.82797657379604e-001

2.11403608112276e+004,-1.69603077576203e+000,-1.85349366872299e-001

2.14354692507258e+004,-1.69603077796170e+000,-1.87936694756781e-001

2.17346972505211e+004,-1.69603078019787e+000,-1.90560138157757e-001

2.20381023175322e+004,-1.69603078247021e+000,-1.93220201134178e-001

2.23457427614443e+004,-1.69603078477820e+000,-1.95917394777894e-001

2.26576777059159e+004,-1.69603078712137e+000,-1.98652237311080e-001

2.29739670999406e+004,-1.69603078949890e+000,-2.01425254186152e-001

2.32946717293690e+004,-1.69603079190989e+000,-2.04236978186897e-001

2.36198532285905e+004,-1.69603079435362e+000,-2.07087949527268e-001

2.39495740923785e+004,-1.69603079682866e+000,-2.09978715961120e-001

2.42838976879009e+004,-1.69603079933414e+000,-2.12909832879636e-001

2.46228882668982e+004,-1.69603080186860e+000,-2.15881863424291e-001

2.49666109780322e+004,-1.69603080443041e+000,-2.18895378591671e-001

2.53151318794055e+004,-1.69603080701786e+000,-2.21950957343616e-001

2.56685179512580e+004,-1.69603080962909e+000,-2.25049186717669e-001

2.60268371088386e+004,-1.69603081226201e+000,-2.28190661939764e-001

2.63901582154578e+004,-1.69603081491430e+000,-2.31375986538764e-001

2.67585510957221e+004,-1.69603081758330e+000,-2.34605772462658e-001

2.71320865489533e+004,-1.69603082026635e+000,-2.37880640192690e-001

2.75108363627948e+004,-1.69603082296031e+000,-2.41201218866466e-001

2.78948733270080e+004,-1.69603082566176e+000,-2.44568146396046e-001

2.82842712474618e+004,-1.69603082836724e+000,-2.47982069589236e-001

2.86791049603164e+004,-1.69603083107269e+000,-2.51443644276240e-001

2.90794503464061e+004,-1.69603083377387e+000,-2.54953535432745e-001

2.94853843458219e+004,-1.69603083646594e+000,-2.58512417309813e-001

2.98969849726987e+004,-1.69603083914407e+000,-2.62120973559003e-001

3.03143313302078e+004,-1.69603084180251e+000,-2.65779897368553e-001

3.07375036257601e+004,-1.69603084443563e+000,-2.69489891590097e-001

3.11665831864199e+004,-1.69603084703691e+000,-2.73251668878708e-001

3.16016524745350e+004,-1.69603084959955e+000,-2.77065951825346e-001

3.20427951035848e+004,-1.69603085211614e+000,-2.80933473097461e-001

3.24900958542493e+004,-1.69603085457858e+000,-2.84854975579009e-001

3.29436406907028e+004,-1.69603085697849e+000,-2.88831212510273e-001

3.34035167771346e+004,-1.69603085930654e+000,-2.92862947634842e-001

3.38698124945009e+004,-1.69603086155297e+000,-2.96950955343513e-001

3.43426174575100e+004,-1.69603086370710e+000,-3.01096020825015e-001

3.48220225318448e+004,-1.69603086575760e+000,-3.05298940212672e-001

3.53081198516260e+004,-1.69603086769221e+000,-3.09560520740130e-001

3.58010028371187e+004,-1.69603086949813e+000,-3.13881580891866e-001

3.63007662126863e+004,-1.69603087116121e+000,-3.18262950564346e-001

3.68075060249948e+004,-1.69603087266654e+000,-3.22705471220930e-001

3.73213196614721e+004,-1.69603087399838e+000,-3.27209996052509e-001

3.78423058690237e+004,-1.69603087513956e+000,-3.31777390144175e-001

3.83705647730104e+004,-1.69603087607183e+000,-3.36408530637467e-001

3.89061978964912e+004,-1.69603087677584e+000,-3.41104306898050e-001

3.94493081797342e+004,-1.69603087723096e+000,-3.45865620686148e-001

3.99999999999998e+004,-1.69603087741489e+000,-3.50693386330058e-001

4.05583791916010e+004,-1.69603087730432e+000,-3.55588530897281e-001

4.11245530662425e+004,-1.69603087687396e+000,-3.60551994376015e-001

4.16986304336447e+004,-1.69603087609708e+000,-3.65584729851242e-001

4.22807216224550e+004,-1.69603087494528e+000,-3.70687703686852e-001

4.28709385014515e+004,-1.69603087338813e+000,-3.75861895712308e-001

4.34693945010421e+004,-1.69603087139342e+000,-3.81108299406573e-001

4.40762046350642e+004,-1.69603086892671e+000,-3.86427922090593e-001

4.46914855228886e+004,-1.69603086595144e+000,-3.91821785117456e-001

4.53153554118317e+004,-1.69603086242892e+000,-3.97290924065956e-001

4.59479341998812e+004,-1.69603085831767e+000,-4.02836388942733e-001

4.65893434587380e+004,-1.69603085357390e+000,-4.08459244376356e-001

4.72397064571810e+004,-1.69603084815079e+000,-4.14160569826200e-001

4.78991481847569e+004,-1.69603084199890e+000,-4.19941459782771e-001

4.85677953758016e+004,-1.69603083506560e+000,-4.25803023979267e-001

4.92457765337964e+004,-1.69603082729493e+000,-4.31746387603289e-001

4.99332219560642e+004,-1.69603081862765e+000,-4.37772691508538e-001

5.06302637588109e+004,-1.69603080900071e+000,-4.43883092434801e-001

5.13370359025159e+004,-1.69603079834744e+000,-4.50078763225865e-001

5.20536742176771e+004,-1.69603078659679e+000,-4.56360893055419e-001

5.27803164309155e+004,-1.69603077367361e+000,-4.62730687650523e-001

5.35171021914442e+004,-1.69603075949825e+000,-4.69189369521779e-001

5.42641730979066e+004,-1.69603074398620e+000,-4.75738178197056e-001

5.50216727255895e+004,-1.69603072704781e+000,-4.82378370456308e-001

5.57897466540159e+004,-1.69603070858825e+000,-4.89111220569732e-001

5.65685424949235e+004,-1.69603068850673e+000,-4.95938020541998e-001

5.73582099206328e+004,-1.69603066669686e+000,-5.02860080355140e-001

5.81589006928121e+004,-1.69603064304559e+000,-5.09878728220348e-001

5.89707686916437e+004,-1.69603061743339e+000,-5.16995310827696e-001

5.97939699453972e+004,-1.69603058973374e+000,-5.24211193602767e-001

6.06286626604156e+004,-1.69603055981250e+000,-5.31527760967157e-001

6.14750072515201e+004,-1.69603052752781e+000,-5.38946416599486e-001

6.23331663728396e+004,-1.69603049272961e+000,-5.46468583701542e-001

6.32033049490698e+004,-1.69603045525880e+000,-5.54095705271509e-001

6.40855902071694e+004,-1.69603041494742e+000,-5.61829244372973e-001

6.49801917084985e+004,-1.69603037161762e+000,-5.69670684415873e-001

6.58872813814055e+004,-1.69603032508126e+000,-5.77621529436826e-001

6.68070335542691e+004,-1.69603027513945e+000,-5.85683304383861e-001

6.77396249890018e+004,-1.69603022158182e+000,-5.93857555405517e-001

6.86852349150199e+004,-1.69603016418599e+000,-6.02145850144337e-001

6.96440450636895e+004,-1.69603010271703e+000,-6.10549778032099e-001

7.06162397032520e+004,-1.69603003692643e+000,-6.19070950594262e-001

7.16020056742374e+004,-1.69602996655171e+000,-6.27711001751184e-001

7.26015324253724e+004,-1.69602989131552e+000,-6.36471588130105e-001

7.36150120499896e+004,-1.69602981092483e+000,-6.45354389377719e-001

7.46426393229441e+004,-1.69602972507021e+000,-6.54361108477627e-001

7.56846117380472e+004,-1.69602963342482e+000,-6.63493472073473e-001

7.67411295460207e+004,-1.69602953564350e+000,-6.72753230795273e-001

7.78123957929823e+004,-1.69602943136188e+000,-6.82142159590290e-001

7.88986163594682e+004,-1.69602932019522e+000,-6.91662058058691e-001

7.99999999999995e+004,-1.69602920173767e+000,-7.01314750792972e-001

8.11167583832018e+004,-1.69602907556070e+000,-7.11102087724847e-001

8.22491061324848e+004,-1.69602894121220e+000,-7.21025944473147e-001

8.33972608672892e+004,-1.69602879821518e+000,-7.31088222699351e-001

8.45614432449099e+004,-1.69602864606656e+000,-7.41290850465422e-001

8.57418770029029e+004,-1.69602848423573e+000,-7.51635782599487e-001

8.69387890020841e+004,-1.69602831216303e+000,-7.62125001064601e-001

8.81524092701283e+004,-1.69602812925849e+000,-7.72760515333458e-001

8.93829710457770e+004,-1.69602793490013e+000,-7.83544362766993e-001

9.06307108236633e+004,-1.69602772843234e+000,-7.94478608999891e-001

9.18958683997622e+004,-1.69602750916421e+000,-8.05565348330360e-001

9.31786869174758e+004,-1.69602727636764e+000,-8.16806704116321e-001

9.44794129143618e+004,-1.69602702927570e+000,-8.28204829174567e-001

9.57982963695136e+004,-1.69602676708035e+000,-8.39761906189869e-001

9.71355907516031e+004,-1.69602648893063e+000,-8.51480148124850e-001

9.84915530675926e+004,-1.69602619393049e+000,-8.63361798638806e-001

9.98664439121282e+004,-1.69602588113649e+000,-8.75409132511605e-001

1.01260527517622e+005,-1.69602554955546e+000,-8.87624456072920e-001

1.02674071805032e+005,-1.69602519814217e+000,-9.00010107637903e-001

1.04107348435354e+005,-1.69602482579651e+000,-9.12568457949820e-001

1.05560632861831e+005,-1.69602443136132e+000,-9.25301910625536e-001

1.07034204382888e+005,-1.69602401361908e+000,-9.38212902613032e-001

1.08528346195813e+005,-1.69602357128934e+000,-9.51303904649567e-001

1.10043345451179e+005,-1.69602310302558e+000,-9.64577421729596e-001

1.11579493308032e+005,-1.69602260741224e+000,-9.78035993578177e-001

1.13137084989847e+005,-1.69602208296111e+000,-9.91682195132697e-001

1.14716419841265e+005,-1.69602152810832e+000,-1.00551863702783e+000

1.16317801385624e+005,-1.69602094121046e+000,-1.01954796609169e+000

1.17941537383287e+005,-1.69602032054112e+000,-1.03377286584634e+000

1.19587939890794e+005,-1.69601966428679e+000,-1.04819605701625e+000

1.21257325320831e+005,-1.69601897054321e+000,-1.06282029804383e+000

1.22950014503040e+005,-1.69601823731089e+000,-1.07764838561295e+000

1.24666332745679e+005,-1.69601746249113e+000,-1.09268315517884e+000

1.26406609898139e+005,-1.69601664388111e+000,-1.10792748150782e+000

1.28171180414339e+005,-1.69601577916972e+000,-1.12338427922166e+000

1.29960383416997e+005,-1.69601486593242e+000,-1.13905650335320e+000

1.31774562762811e+005,-1.69601390162628e+000,-1.15494714990791e+000

1.33614067108538e+005,-1.69601288358504e+000,-1.17105925643404e+000

1.35479249978003e+005,-1.69601180901345e+000,-1.18739590260206e+000

1.37370469830040e+005,-1.69601067498188e+000,-1.20396021079119e+000

1.39288090127379e+005,-1.69600947842065e+000,-1.22075534668562e+000

1.41232479406504e+005,-1.69600821611394e+000,-1.23778451987968e+000

1.43204011348474e+005,-1.69600688469361e+000,-1.25505098449153e+000

1.45203064850745e+005,-1.69600548063326e+000,-1.27255803978502e+000

1.47230024099979e+005,-1.69600400024111e+000,-1.29030903080388e+000

1.49285278645888e+005,-1.69600243965373e+000,-1.30830734901175e+000

1.51369223476094e+005,-1.69600079482899e+000,-1.32655643294321e+000

1.53482259092041e+005,-1.69599906153865e+000,-1.34505976886707e+000

1.55624791585964e+005,-1.69599723536128e+000,-1.36382089145539e+000

1.57797232718936e+005,-1.69599531167453e+000,-1.38284338446603e+000

1.59999999999999e+005,-1.69599328564732e+000,-1.40213088143331e+000

1.62233516766403e+005,-1.69599115223183e+000,-1.42168706637152e+000

1.64498212264969e+005,-1.69598890615537e+000,-1.44151567448633e+000

1.66794521734578e+005,-1.69598654191181e+000,-1.46162049289951e+000

1.69122886489819e+005,-1.69598405375284e+000,-1.48200536138406e+000

1.71483754005805e+005,-1.69598143567932e+000,-1.50267417310975e+000

1.73877578004168e+005,-1.69597868143188e+000,-1.52363087540156e+000

1.76304818540256e+005,-1.69597578448195e+000,-1.54487947050806e+000

1.78765942091554e+005,-1.69597273802188e+000,-1.56642401638372e+000

1.81261421647326e+005,-1.69596953495557e+000,-1.58826862748150e+000

1.83791736799524e+005,-1.69596616788815e+000,-1.61041747555936e+000

1.86357373834951e+005,-1.69596262911616e+000,-1.63287479049715e+000

1.88958825828723e+005,-1.69595891061713e+000,-1.65564486112835e+000

1.91596592739027e+005,-1.69595500403886e+000,-1.67873203608368e+000

1.94271181503206e+005,-1.69595090068901e+000,-1.70214072464727e+000

1.96983106135185e+005,-1.69594659152392e+000,-1.72587539762757e+000

1.99732887824256e+005,-1.69594206713778e+000,-1.74994058823963e+000

2.02521055035243e+005,-1.69593731775111e+000,-1.77434089300381e+000

2.05348143610063e+005,-1.69593233319958e+000,-1.79908097265561e+000

2.08214696870707e+005,-1.69592710292224e+000,-1.82416555307184e+000

2.11121265723661e+005,-1.69592161594994e+000,-1.84959942620932e+000

2.14068408765776e+005,-1.69591586089334e+000,-1.87538745105894e+000

2.17056692391625e+005,-1.69590982593103e+000,-1.90153455461447e+000

2.20086690902357e+005,-1.69590349879713e+000,-1.92804573285586e+000

2.23158986616063e+005,-1.69589686676930e+000,-1.95492605174792e+000

2.26274169979693e+005,-1.69588991665625e+000,-1.98218064825307e+000

2.29432839682530e+005,-1.69588263478516e+000,-2.00981473136161e+000

2.32635602771247e+005,-1.69587500698915e+000,-2.03783358313564e+000

2.35883074766574e+005,-1.69586701859464e+000,-2.06624255976940e+000

2.39175879781588e+005,-1.69585865440858e+000,-2.09504709266549e+000

2.42514650641661e+005,-1.69584989870547e+000,-2.12425268952736e+000

2.45900029006080e+005,-1.69584073521457e+000,-2.15386493546814e+000

2.49332665491357e+005,-1.69583114710679e+000,-2.18388949413477e+000

2.52813219796278e+005,-1.69582111698177e+000,-2.21433210885026e+000

2.56342360828676e+005,-1.69581062685475e+000,-2.24519860377090e+000

2.59920766833993e+005,-1.69579965814324e+000,-2.27649488506265e+000

2.63549125525621e+005,-1.69578819165398e+000,-2.30822694209185e+000

2.67228134217075e+005,-1.69577620756965e+000,-2.34040084863456e+000

2.70958499956006e+005,-1.69576368543553e+000,-2.37302276410323e+000

2.74740939660078e+005,-1.69575060414608e+000,-2.40609893479061e+000

2.78576180254757e+005,-1.69573694193169e+000,-2.43963569512964e+000

2.82464958813007e+005,-1.69572267634512e+000,-2.47363946897408e+000

2.86408022696948e+005,-1.69570778424792e+000,-2.50811677089421e+000

2.90406129701488e+005,-1.69569224179702e+000,-2.54307420749131e+000

2.94460048199957e+005,-1.69567602443088e+000,-2.57851847873084e+000

2.98570557291775e+005,-1.69565910685604e+000,-2.61445637929233e+000

3.02738446952187e+005,-1.69564146303302e+000,-2.65089479993928e+000

3.06964518184081e+005,-1.69562306616240e+000,-2.68784072890692e+000

3.11249583171928e+005,-1.69560388867114e+000,-2.72530125330675e+000

3.15594465437872e+005,-1.69558390219797e+000,-2.76328356055291e+000

3.19999999999997e+005,-1.69556307757921e+000,-2.80179493980566e+000

3.24467033532806e+005,-1.69554138483443e+000,-2.84084278343304e+000

3.28996424529938e+005,-1.69551879315147e+000,-2.88043458849427e+000

3.33589043469155e+005,-1.69549527087185e+000,-2.92057795823919e+000

3.38245772979638e+005,-1.69547078547515e+000,-2.96128060363146e+000

3.42967508011610e+005,-1.69544530356402e+000,-3.00255034488640e+000

3.47755156008335e+005,-1.69541879084812e+000,-3.04439511303393e+000

3.52609637080511e+005,-1.69539121212820e+000,-3.08682295149698e+000

3.57531884183106e+005,-1.69536253127944e+000,-3.12984201769430e+000

3.62522843294651e+005,-1.69533271123487e+000,-3.17346058466083e+000

3.67583473599047e+005,-1.69530171396767e+000,-3.21768704269084e+000

3.72714747669902e+005,-1.69526950047381e+000,-3.26252990100042e+000

3.77917651657445e+005,-1.69523603075317e+000,-3.30799778941436e+000

3.83193185478053e+005,-1.69520126379120e+000,-3.35409946007062e+000

3.88542363006410e+005,-1.69516515753894e+000,-3.40084378915103e+000

3.93966212270369e+005,-1.69512766889319e+000,-3.44823977863117e+000

3.99465775648511e+005,-1.69508875367542e+000,-3.49629655805455e+000

4.05042110070485e+005,-1.69504836661027e+000,-3.54502338632969e+000

4.10696287220124e+005,-1.69500646130300e+000,-3.59442965355102e+000

4.16429393741414e+005,-1.69496299021638e+000,-3.64452488284225e+000

4.22242531447321e+005,-1.69491790464657e+000,-3.69531873222604e+000

4.28136817531551e+005,-1.69487115469773e+000,-3.74682099651760e+000

4.34113384783250e+005,-1.69482268925636e+000,-3.79904160924268e+000

4.40173381804713e+005,-1.69477245596385e+000,-3.85199064458370e+000

4.46317973232124e+005,-1.69472040118844e+000,-3.90567831934941e+000

4.52548339959385e+005,-1.69466646999580e+000,-3.96011499497389e+000

4.58865679365059e+005,-1.69461060611866e+000,-4.01531117954081e+000

4.65271205542494e+005,-1.69455275192481e+000,-4.07127752983757e+000

4.71766149533147e+005,-1.69449284838428e+000,-4.12802485343654e+000

4.78351759563174e+005,-1.69443083503484e+000,-4.18556411080667e+000

4.85029301283321e+005,-1.69436664994629e+000,-4.24390641745391e+000

4.91800058012158e+005,-1.69430022968331e+000,-4.30306304609296e+000

4.98665330982714e+005,-1.69423150926687e+000,-4.36304542884927e+000

5.05626439592555e+005,-1.69416042213401e+000,-4.42386515949416e+000

5.12684721657352e+005,-1.69408690009605e+000,-4.48553399571132e+000

5.19841533667984e+005,-1.69401087329566e+000,-4.54806386139666e+000

5.27098251051240e+005,-1.69393227016133e+000,-4.61146684899363e+000

5.34456268434150e+005,-1.69385101736139e+000,-4.67575522186042e+000

5.41916999912011e+005,-1.69376703975513e+000,-4.74094141667617e+000

