Freq.,VOut,OutRef

1.00000000000000e+004,-1.74914286976157e+001,-1.15270141203692e-001

1.01395947979003e+004,-1.74914304767523e+001,-1.16878965164007e-001

1.02811382665607e+004,-1.74914323058439e+001,-1.18510235282300e-001

1.04246576084112e+004,-1.74914341862914e+001,-1.20164264378992e-001

1.05701804056138e+004,-1.74914361195345e+001,-1.21841369619763e-001

1.07177346253629e+004,-1.74914381070539e+001,-1.23541872572047e-001

1.08673486252606e+004,-1.74914401503710e+001,-1.25266099271198e-001

1.10190511587661e+004,-1.74914422510500e+001,-1.27014380279692e-001

1.11728713807222e+004,-1.74914444106989e+001,-1.28787050745268e-001

1.13288388529580e+004,-1.74914466309704e+001,-1.30584450471160e-001

1.14869835499703e+004,-1.74914489135637e+001,-1.32406923972314e-001

1.16473358646846e+004,-1.74914512602251e+001,-1.34254820546889e-001

1.18099266142953e+004,-1.74914536727499e+001,-1.36128494336938e-001

1.19747870461893e+004,-1.74914561529837e+001,-1.38028304395591e-001

1.21419488439505e+004,-1.74914587028231e+001,-1.39954614757800e-001

1.23114441334492e+004,-1.74914613242184e+001,-1.41907794502030e-001

1.24833054890161e+004,-1.74914640191735e+001,-1.43888217827039e-001

1.26575659397028e+004,-1.74914667897488e+001,-1.45896264113751e-001

1.28342589756290e+004,-1.74914696380620e+001,-1.47932318002831e-001

1.30134185544193e+004,-1.74914725662898e+001,-1.49996769462865e-001

1.31950791077289e+004,-1.74914755766698e+001,-1.52090013862616e-001

1.33792755478611e+004,-1.74914786715016e+001,-1.54212452047722e-001

1.35660432744767e+004,-1.74914818531494e+001,-1.56364490411205e-001

1.37554181813974e+004,-1.74914851240429e+001,-1.58546540972871e-001

1.39474366635040e+004,-1.74914884866795e+001,-1.60759021453898e-001

1.41421356237309e+004,-1.74914919436266e+001,-1.63002355352078e-001

1.43395524801583e+004,-1.74914954975223e+001,-1.65276972026782e-001

1.45397251732031e+004,-1.74914991510789e+001,-1.67583306770186e-001

1.47426921729110e+004,-1.74915029070838e+001,-1.69921800894439e-001

1.49484924863494e+004,-1.74915067684021e+001,-1.72292901810052e-001

1.51571656651040e+004,-1.74915107379782e+001,-1.74697063109153e-001

1.53687518128801e+004,-1.74915148188391e+001,-1.77134744647195e-001

1.55832915932100e+004,-1.74915190140952e+001,-1.79606412632869e-001

1.58008262372675e+004,-1.74915233269435e+001,-1.82112539708259e-001

1.60213975517924e+004,-1.74915277606702e+001,-1.84653605036722e-001

1.62450479271247e+004,-1.74915323186524e+001,-1.87230094393443e-001

1.64718203453514e+004,-1.74915370043610e+001,-1.89842500251664e-001

1.67017583885674e+004,-1.74915418213633e+001,-1.92491321873244e-001

1.69349062472505e+004,-1.74915467733252e+001,-1.95177065403314e-001

1.71713087287550e+004,-1.74915518640149e+001,-1.97900243955661e-001

1.74110112659224e+004,-1.74915570973043e+001,-2.00661377712867e-001

1.76540599258131e+004,-1.74915624771731e+001,-2.03460994016844e-001

1.79005014185594e+004,-1.74915680077112e+001,-2.06299627465481e-001

1.81503831063432e+004,-1.74915736931212e+001,-2.09177820011540e-001

1.84037530124975e+004,-1.74915795377225e+001,-2.12096121058586e-001

1.86606598307361e+004,-1.74915855459538e+001,-2.15055087558738e-001

1.89211529345119e+004,-1.74915917223765e+001,-2.18055284117074e-001

1.91852823865052e+004,-1.74915980716780e+001,-2.21097283091546e-001

1.94530989482457e+004,-1.74916045986751e+001,-2.24181664693499e-001

1.97246540898671e+004,-1.74916113083177e+001,-2.27309017095487e-001

1.99999999999999e+004,-1.74916182056921e+001,-2.30479936534004e-001

2.02791895958005e+004,-1.74916252960251e+001,-2.33695027416504e-001

2.05622765331213e+004,-1.74916325846874e+001,-2.36954902429105e-001

2.08493152168224e+004,-1.74916400771974e+001,-2.40260182646940e-001

2.11403608112276e+004,-1.74916477792257e+001,-2.43611497641943e-001

2.14354692507258e+004,-1.74916556965987e+001,-2.47009485596265e-001

2.17346972505211e+004,-1.74916638353032e+001,-2.50454793413445e-001

2.20381023175322e+004,-1.74916722014905e+001,-2.53948076832786e-001

2.23457427614443e+004,-1.74916808014804e+001,-2.57490000547322e-001

2.26576777059159e+004,-1.74916896417665e+001,-2.61081238315727e-001

2.29739670999406e+004,-1.74916987290204e+001,-2.64722473082841e-001

2.32946717293690e+004,-1.74917080700965e+001,-2.68414397098969e-001

2.36198532285905e+004,-1.74917176720367e+001,-2.72157712038874e-001

2.39495740923785e+004,-1.74917275420755e+001,-2.75953129125671e-001

2.42838976879009e+004,-1.74917376876458e+001,-2.79801369249664e-001

2.46228882668982e+004,-1.74917481163827e+001,-2.83703163098340e-001

2.49666109780322e+004,-1.74917588361304e+001,-2.87659251275868e-001

2.53151318794055e+004,-1.74917698549465e+001,-2.91670384435451e-001

2.56685179512580e+004,-1.74917811811085e+001,-2.95737323403791e-001

2.60268371088386e+004,-1.74917928231191e+001,-2.99860839310261e-001

2.63901582154578e+004,-1.74918047897121e+001,-3.04041713722834e-001

2.67585510957221e+004,-1.74918170898587e+001,-3.08280738773635e-001

2.71320865489533e+004,-1.74918297327741e+001,-3.12578717294106e-001

2.75108363627948e+004,-1.74918427279225e+001,-3.16936462953303e-001

2.78948733270080e+004,-1.74918560850254e+001,-3.21354800388735e-001

2.82842712474618e+004,-1.74918698140665e+001,-3.25834565347862e-001

2.86791049603164e+004,-1.74918839253001e+001,-3.30376604822634e-001

2.90794503464061e+004,-1.74918984292570e+001,-3.34981777191614e-001

2.94853843458219e+004,-1.74919133367519e+001,-3.39650952361630e-001

2.98969849726987e+004,-1.74919286588912e+001,-3.44385011907106e-001

3.03143313302078e+004,-1.74919444070799e+001,-3.49184849215231e-001

3.07375036257601e+004,-1.74919605930294e+001,-3.54051369632558e-001

3.11665831864199e+004,-1.74919772287653e+001,-3.58985490606510e-001

3.16016524745350e+004,-1.74919943266354e+001,-3.63988141837109e-001

3.20427951035848e+004,-1.74920118993186e+001,-3.69060265420695e-001

3.24900958542493e+004,-1.74920299598317e+001,-3.74202816003270e-001

3.29436406907028e+004,-1.74920485215393e+001,-3.79416760929873e-001

3.34035167771346e+004,-1.74920675981619e+001,-3.84703080394999e-001

3.38698124945009e+004,-1.74920872037854e+001,-3.90062767596462e-001

3.43426174575100e+004,-1.74921073528692e+001,-3.95496828889635e-001

3.48220225318448e+004,-1.74921280602564e+001,-4.01006283942954e-001

3.53081198516260e+004,-1.74921493411830e+001,-4.06592165890714e-001

3.58010028371187e+004,-1.74921712112874e+001,-4.12255521495306e-001

3.63007662126863e+004,-1.74921936866207e+001,-4.17997411300713e-001

3.68075060249948e+004,-1.74922167836562e+001,-4.23818909793981e-001

3.73213196614721e+004,-1.74922405193004e+001,-4.29721105564121e-001

3.78423058690237e+004,-1.74922649109031e+001,-4.35705101462409e-001

3.83705647730104e+004,-1.74922899762676e+001,-4.41772014767730e-001

3.89061978964912e+004,-1.74923157336629e+001,-4.47922977342793e-001

3.94493081797342e+004,-1.74923422018334e+001,-4.54159135803345e-001

3.99999999999998e+004,-1.74923694000112e+001,-4.60481651678136e-001

4.05583791916010e+004,-1.74923973479270e+001,-4.66891701576321e-001

4.11245530662425e+004,-1.74924260658224e+001,-4.73390477351440e-001

4.16986304336447e+004,-1.74924555744611e+001,-4.79979186267590e-001

4.22807216224550e+004,-1.74924858951419e+001,-4.86659051164791e-001

4.28709385014515e+004,-1.74925170497101e+001,-4.93431310629500e-001

4.34693945010421e+004,-1.74925490605708e+001,-5.00297219158968e-001

4.40762046350642e+004,-1.74925819507014e+001,-5.07258047328968e-001

4.46914855228886e+004,-1.74926157436641e+001,-5.14315081964874e-001

4.53153554118317e+004,-1.74926504636199e+001,-5.21469626306692e-001

4.59479341998812e+004,-1.74926861353412e+001,-5.28723000179539e-001

4.65893434587380e+004,-1.74927227842253e+001,-5.36076540164084e-001

4.72397064571810e+004,-1.74927604363089e+001,-5.43531599761153e-001

4.78991481847569e+004,-1.74927991182810e+001,-5.51089549565274e-001

4.85677953758016e+004,-1.74928388574973e+001,-5.58751777431004e-001

4.92457765337964e+004,-1.74928796819950e+001,-5.66519688641137e-001

4.99332219560642e+004,-1.74929216205061e+001,-5.74394706077316e-001

5.06302637588109e+004,-1.74929647024727e+001,-5.82378270387121e-001

5.13370359025159e+004,-1.74930089580616e+001,-5.90471840151135e-001

5.20536742176771e+004,-1.74930544181788e+001,-5.98676892052794e-001

5.27803164309155e+004,-1.74931011144847e+001,-6.06994921041898e-001

5.35171021914442e+004,-1.74931490794091e+001,-6.15427440503988e-001

5.42641730979066e+004,-1.74931983461662e+001,-6.23975982423786e-001

5.50216727255895e+004,-1.74932489487701e+001,-6.32642097550966e-001

5.57897466540159e+004,-1.74933009220502e+001,-6.41427355562402e-001

5.65685424949235e+004,-1.74933543016660e+001,-6.50333345228230e-001

5.73582099206328e+004,-1.74934091241233e+001,-6.59361674569827e-001

5.81589006928121e+004,-1.74934654267893e+001,-6.68513971022001e-001

5.89707686916437e+004,-1.74935232479079e+001,-6.77791881593333e-001

5.97939699453972e+004,-1.74935826266157e+001,-6.87197073021689e-001

6.06286626604156e+004,-1.74936436029567e+001,-6.96731231932613e-001

6.14750072515201e+004,-1.74937062178986e+001,-7.06396064992796e-001

6.23331663728396e+004,-1.74937705133472e+001,-7.16193299064508e-001

6.32033049490698e+004,-1.74938365321626e+001,-7.26124681354101e-001

6.40855902071694e+004,-1.74939043181731e+001,-7.36191979565497e-001

6.49801917084985e+004,-1.74939739161914e+001,-7.46396982044922e-001

6.58872813814055e+004,-1.74940453720282e+001,-7.56741497926569e-001

6.68070335542691e+004,-1.74941187325078e+001,-7.67227357275938e-001

6.77396249890018e+004,-1.74941940454813e+001,-7.77856411232028e-001

6.86852349150199e+004,-1.74942713598414e+001,-7.88630532144004e-001

6.96440450636895e+004,-1.74943507255358e+001,-7.99551613708292e-001

7.06162397032520e+004,-1.74944321935801e+001,-8.10621571103411e-001

7.16020056742374e+004,-1.74945158160716e+001,-8.21842341117539e-001

7.26015324253724e+004,-1.74946016462004e+001,-8.33215882281417e-001

7.36150120499896e+004,-1.74946897382625e+001,-8.44744174990937e-001

7.46426393229441e+004,-1.74947801476707e+001,-8.56429221630174e-001

7.56846117380472e+004,-1.74948729309651e+001,-8.68273046693226e-001

7.67411295460207e+004,-1.74949681458234e+001,-8.80277696899323e-001

7.78123957929823e+004,-1.74950658510705e+001,-8.92445241308360e-001

7.88986163594682e+004,-1.74951661066870e+001,-9.04777771431402e-001

7.99999999999995e+004,-1.74952689738164e+001,-9.17277401340057e-001

8.11167583832018e+004,-1.74953745147730e+001,-9.29946267770275e-001

8.22491061324848e+004,-1.74954827930466e+001,-9.42786530227088e-001

8.33972608672892e+004,-1.74955938733085e+001,-9.55800371081233e-001

8.45614432449099e+004,-1.74957078214145e+001,-9.68989995669022e-001

8.57418770029029e+004,-1.74958247044076e+001,-9.82357632383683e-001

8.69387890020841e+004,-1.74959445905194e+001,-9.95905532767966e-001

8.81524092701283e+004,-1.74960675491701e+001,-1.00963597160326e+000

8.93829710457770e+004,-1.74961936509668e+001,-1.02355124699439e+000

9.06307108236633e+004,-1.74963229677007e+001,-1.03765368045384e+000

9.18958683997622e+004,-1.74964555723423e+001,-1.05194561698493e+000

9.31786869174758e+004,-1.74965915390351e+001,-1.06642942516035e+000

9.44794129143618e+004,-1.74967309430878e+001,-1.08110749720001e+000

9.57982963695136e+004,-1.74968738609641e+001,-1.09598224904878e+000

9.71355907516031e+004,-1.74970203702706e+001,-1.11105612045233e+000

9.84915530675926e+004,-1.74971705497430e+001,-1.12633157503025e+000

9.98664439121282e+004,-1.74973244792295e+001,-1.14181110035277e+000

1.01260527517622e+005,-1.74974822396727e+001,-1.15749720801288e+000

1.02674071805032e+005,-1.74976439130884e+001,-1.17339243370366e+000

1.04107348435354e+005,-1.74978095825420e+001,-1.18949933729149e+000

1.05560632861831e+005,-1.74979793321225e+001,-1.20582050289662e+000

1.07034204382888e+005,-1.74981532469141e+001,-1.22235853896841e+000

1.08528346195813e+005,-1.74983314129639e+001,-1.23911607837201e+000

1.10043345451179e+005,-1.74985139172473e+001,-1.25609577847088e+000

1.11579493308032e+005,-1.74987008476312e+001,-1.27330032121682e+000

1.13137084989847e+005,-1.74988922928318e+001,-1.29073241324619e+000

1.14716419841265e+005,-1.74990883423715e+001,-1.30839478597924e+000

1.16317801385624e+005,-1.74992890865307e+001,-1.32629019572813e+000

1.17941537383287e+005,-1.74994946162973e+001,-1.34442142381066e+000

1.19587939890794e+005,-1.74997050233112e+001,-1.36279127667650e+000

1.21257325320831e+005,-1.74999203998067e+001,-1.38140258603794e+000

1.22950014503040e+005,-1.75001408385498e+001,-1.40025820901716e+000

1.24666332745679e+005,-1.75003664327720e+001,-1.41936102830344e+000

1.26406609898139e+005,-1.75005972761008e+001,-1.43871395232100e+000

1.28171180414339e+005,-1.75008334624843e+001,-1.45831991541977e+000

1.29960383416997e+005,-1.75010750861140e+001,-1.47818187807319e+000

1.31774562762811e+005,-1.75013222413414e+001,-1.49830282710165e+000

1.33614067108538e+005,-1.75015750225912e+001,-1.51868577591241e+000

1.35479249978003e+005,-1.75018335242703e+001,-1.53933376475949e+000

1.37370469830040e+005,-1.75020978406714e+001,-1.56024986103053e+000

1.39288090127379e+005,-1.75023680658734e+001,-1.58143715955572e+000

1.41232479406504e+005,-1.75026442936367e+001,-1.60289878294350e+000

1.43204011348474e+005,-1.75029266172937e+001,-1.62463788194745e+000

1.45203064850745e+005,-1.75032151296358e+001,-1.64665763586118e+000

1.47230024099979e+005,-1.75035099227947e+001,-1.66896125294842e+000

1.49285278645888e+005,-1.75038110881204e+001,-1.69155197090719e+000

1.51369223476094e+005,-1.75041187160539e+001,-1.71443305737176e+000

1.53482259092041e+005,-1.75044328959966e+001,-1.73760781045306e+000

1.55624791585964e+005,-1.75047537161743e+001,-1.76107955932254e+000

1.57797232718936e+005,-1.75050812634982e+001,-1.78485166483976e+000

1.59999999999999e+005,-1.75054156234210e+001,-1.80892752022607e+000

1.62233516766403e+005,-1.75057568797896e+001,-1.83331055178872e+000

1.64498212264969e+005,-1.75061051146944e+001,-1.85800421969454e+000

1.66794521734578e+005,-1.75064604083143e+001,-1.88301201879976e+000

1.69122886489819e+005,-1.75068228387595e+001,-1.90833747953447e+000

1.71483754005805e+005,-1.75071924819101e+001,-1.93398416884711e+000

1.73877578004168e+005,-1.75075694112531e+001,-1.95995569121002e+000

1.76304818540256e+005,-1.75079536977164e+001,-1.98625568968911e+000

1.78765942091554e+005,-1.75083454095003e+001,-2.01288784707723e+000

1.81261421647326e+005,-1.75087446119086e+001,-2.03985588710002e+000

1.83791736799524e+005,-1.75091513671763e+001,-2.06716357568943e+000

1.86357373834951e+005,-1.75095657342983e+001,-2.09481472233063e+000

1.88958825828723e+005,-1.75099877688567e+001,-2.12281318148350e+000

1.91596592739027e+005,-1.75104175228476e+001,-2.15116285408239e+000

1.94271181503206e+005,-1.75108550445093e+001,-2.17986768911295e+000

1.96983106135185e+005,-1.75113003781510e+001,-2.20893168526945e+000

1.99732887824256e+005,-1.75117535639833e+001,-2.23835889269393e+000

2.02521055035243e+005,-1.75122146379497e+001,-2.26815341480053e+000

2.05348143610063e+005,-1.75126836315629e+001,-2.29831941017995e+000

2.08214696870707e+005,-1.75131605717426e+001,-2.32886109459263e+000

2.11121265723661e+005,-1.75136454806579e+001,-2.35978274304668e+000

2.14068408765776e+005,-1.75141383755746e+001,-2.39108869196257e+000

2.17056692391625e+005,-1.75146392687080e+001,-2.42278334142236e+000

2.20086690902357e+005,-1.75151481670807e+001,-2.45487115750970e+000

2.23158986616063e+005,-1.75156650723888e+001,-2.48735667473136e+000

2.26274169979693e+005,-1.75161899808741e+001,-2.52024449852681e+000

2.29432839682530e+005,-1.75167228832055e+001,-2.55353930786274e+000

2.32635602771247e+005,-1.75172637643691e+001,-2.58724585790917e+000

2.35883074766574e+005,-1.75178126035681e+001,-2.62136898279795e+000

2.39175879781588e+005,-1.75183693741332e+001,-2.65591359846110e+000

2.42514650641661e+005,-1.75189340434438e+001,-2.69088470554715e+000

2.45900029006080e+005,-1.75195065728623e+001,-2.72628739240920e+000

2.49332665491357e+005,-1.75200869176794e+001,-2.76212683816964e+000

2.52813219796278e+005,-1.75206750270747e+001,-2.79840831584695e+000

2.56342360828676e+005,-1.75212708440893e+001,-2.83513719555238e+000

2.59920766833993e+005,-1.75218743056150e+001,-2.87231894774394e+000

2.63549125525621e+005,-1.75224853423973e+001,-2.90995914653771e+000

2.67228134217075e+005,-1.75231038790550e+001,-2.94806347306832e+000

2.70958499956006e+005,-1.75237298341165e+001,-2.98663771889840e+000

2.74740939660078e+005,-1.75243631200719e+001,-3.02568778946670e+000

2.78576180254757e+005,-1.75250036434438e+001,-3.06521970757109e+000

2.82464958813007e+005,-1.75256513048744e+001,-3.10523961688164e+000

2.86408022696948e+005,-1.75263059992322e+001,-3.14575378547532e+000

2.90406129701488e+005,-1.75269676157358e+001,-3.18676860938791e+000

2.94460048199957e+005,-1.75276360380964e+001,-3.22829061617491e+000

2.98570557291775e+005,-1.75283111446799e+001,-3.27032646847554e+000

3.02738446952187e+005,-1.75289928086863e+001,-3.31288296757298e+000

3.06964518184081e+005,-1.75296808983491e+001,-3.35596705694285e+000

3.11249583171928e+005,-1.75303752771524e+001,-3.39958582578388e+000

3.15594465437872e+005,-1.75310758040670e+001,-3.44374651252393e+000

3.19999999999997e+005,-1.75317823338047e+001,-3.48845650829261e+000

3.24467033532806e+005,-1.75324947170899e+001,-3.53372336035480e+000

3.28996424529938e+005,-1.75332128009498e+001,-3.57955477549891e+000

3.33589043469155e+005,-1.75339364290203e+001,-3.62595862337000e+000

3.38245772979638e+005,-1.75346654418698e+001,-3.67294293974562e+000

3.42967508011610e+005,-1.75353996773374e+001,-3.72051592974364e+000

3.47755156008335e+005,-1.75361389708877e+001,-3.76868597095958e+000

3.52609637080511e+005,-1.75368831559785e+001,-3.81746161652432e+000

3.57531884183106e+005,-1.75376320644433e+001,-3.86685159808015e+000

3.62522843294651e+005,-1.75383855268859e+001,-3.91686482866748e+000

3.67583473599047e+005,-1.75391433730862e+001,-3.96751040551858e+000

3.72714747669902e+005,-1.75399054324177e+001,-4.01879761275436e+000

3.77917651657445e+005,-1.75406715342736e+001,-4.07073592398033e+000

3.83193185478053e+005,-1.75414415085023e+001,-4.12333500477795e+000

3.88542363006410e+005,-1.75422151858491e+001,-4.17660471508991e+000

3.93966212270369e+005,-1.75429923984052e+001,-4.23055511149649e+000

3.99465775648511e+005,-1.75437729800610e+001,-4.28519644937998e+000

4.05042110070485e+005,-1.75445567669634e+001,-4.34053918498063e+000

4.10696287220124e+005,-1.75453435979758e+001,-4.39659397733830e+000

4.16429393741414e+005,-1.75461333151385e+001,-4.45337169012406e+000

4.22242531447321e+005,-1.75469257641307e+001,-4.51088339336045e+000

4.28136817531551e+005,-1.75477207947300e+001,-4.56914036503272e+000

4.34113384783250e+005,-1.75485182612702e+001,-4.62815409259276e+000

4.40173381804713e+005,-1.75493180230957e+001,-4.68793627435844e+000

4.46317973232124e+005,-1.75501199450111e+001,-4.74849882081104e+000

4.52548339959385e+005,-1.75509238977248e+001,-4.80985385579515e+000

4.58865679365059e+005,-1.75517297582865e+001,-4.87201371762420e+000

4.65271205542494e+005,-1.75525374105166e+001,-4.93499096009711e+000

4.71766149533147e+005,-1.75533467454263e+001,-4.99879835343122e+000

4.78351759563174e+005,-1.75541576616296e+001,-5.06344888511554e+000

4.85029301283321e+005,-1.75549700657432e+001,-5.12895576069270e+000

4.91800058012158e+005,-1.75557838727763e+001,-5.19533240447311e+000

4.98665330982714e+005,-1.75565990065087e+001,-5.26259246018971e+000

5.05626439592555e+005,-1.75574153998555e+001,-5.33074979160021e+000

5.12684721657352e+005,-1.75582329952196e+001,-5.39981848304194e+000

5.19841533667984e+005,-1.75590517448311e+001,-5.46981283994903e+000

5.27098251051240e+005,-1.75598716110722e+001,-5.54074738933694e+000

5.34456268434150e+005,-1.75606925667880e+001,-5.61263688026450e+000

5.41916999912011e+005,-1.75615145955844e+001,-5.68549628427747e+000

