Freq.,VOut,OutRef

1.00000000000000e+004,-1.73716243716518e+001,-1.77191559576731e-001

1.01395947979003e+004,-1.73716255858927e+001,-1.79664891760821e-001

1.02811382665607e+004,-1.73716268342335e+001,-1.82172743171368e-001

1.04246576084112e+004,-1.73716281176306e+001,-1.84715595372856e-001

1.05701804056138e+004,-1.73716294370673e+001,-1.87293936639843e-001

1.07177346253629e+004,-1.73716307935547e+001,-1.89908262048308e-001

1.08673486252606e+004,-1.73716321881319e+001,-1.92559073572767e-001

1.10190511587661e+004,-1.73716336218670e+001,-1.95246880179652e-001

1.11728713807222e+004,-1.73716350958579e+001,-1.97972197926280e-001

1.13288388529580e+004,-1.73716366112339e+001,-2.00735550054741e-001

1.14869835499703e+004,-1.73716381691549e+001,-2.03537467098641e-001

1.16473358646846e+004,-1.73716397708138e+001,-2.06378486978072e-001

1.18099266142953e+004,-1.73716414174371e+001,-2.09259155103175e-001

1.19747870461893e+004,-1.73716431102848e+001,-2.12180024482059e-001

1.21419488439505e+004,-1.73716448506528e+001,-2.15141655820035e-001

1.23114441334492e+004,-1.73716466398729e+001,-2.18144617631097e-001

1.24833054890161e+004,-1.73716484793143e+001,-2.21189486342381e-001

1.26575659397028e+004,-1.73716503703841e+001,-2.24276846408037e-001

1.28342589756290e+004,-1.73716523145290e+001,-2.27407290415619e-001

1.30134185544193e+004,-1.73716543132362e+001,-2.30581419200744e-001

1.31950791077289e+004,-1.73716563680340e+001,-2.33799841962331e-001

1.33792755478611e+004,-1.73716584804936e+001,-2.37063176378062e-001

1.35660432744767e+004,-1.73716606522303e+001,-2.40372048717542e-001

1.37554181813974e+004,-1.73716628849039e+001,-2.43727093968298e-001

1.39474366635040e+004,-1.73716651802210e+001,-2.47128955949768e-001

1.41421356237309e+004,-1.73716675399354e+001,-2.50578287439436e-001

1.43395524801583e+004,-1.73716699658502e+001,-2.54075750293802e-001

1.45397251732031e+004,-1.73716724598186e+001,-2.57622015575522e-001

1.47426921729110e+004,-1.73716750237453e+001,-2.61217763680673e-001

1.49484924863494e+004,-1.73716776595881e+001,-2.64863684466070e-001

1.51571656651040e+004,-1.73716803693596e+001,-2.68560477381145e-001

1.53687518128801e+004,-1.73716831551281e+001,-2.72308851599201e-001

1.55832915932100e+004,-1.73716860190199e+001,-2.76109526152528e-001

1.58008262372675e+004,-1.73716889632198e+001,-2.79963230068854e-001

1.60213975517924e+004,-1.73716919899742e+001,-2.83870702505744e-001

1.62450479271247e+004,-1.73716951015914e+001,-2.87832692894577e-001

1.64718203453514e+004,-1.73716983004442e+001,-2.91849961078128e-001

1.67017583885674e+004,-1.73717015889711e+001,-2.95923277457063e-001

1.69349062472505e+004,-1.73717049696788e+001,-3.00053423132454e-001

1.71713087287550e+004,-1.73717084451431e+001,-3.04241190055719e-001

1.74110112659224e+004,-1.73717120180117e+001,-3.08487381174481e-001

1.76540599258131e+004,-1.73717156910058e+001,-3.12792810586753e-001

1.79005014185594e+004,-1.73717194669218e+001,-3.17158303693217e-001

1.81503831063432e+004,-1.73717233486341e+001,-3.21584697350500e-001

1.84037530124975e+004,-1.73717273390966e+001,-3.26072840029972e-001

1.86606598307361e+004,-1.73717314413450e+001,-3.30623591978841e-001

1.89211529345119e+004,-1.73717356584994e+001,-3.35237825377523e-001

1.91852823865052e+004,-1.73717399937659e+001,-3.39916424507221e-001

1.94530989482457e+004,-1.73717444504399e+001,-3.44660285911571e-001

1.97246540898671e+004,-1.73717490319076e+001,-3.49470318567669e-001

1.99999999999999e+004,-1.73717537416489e+001,-3.54347444057074e-001

2.02791895958005e+004,-1.73717585832403e+001,-3.59292596732329e-001

2.05622765331213e+004,-1.73717635603565e+001,-3.64306723899761e-001

2.08493152168224e+004,-1.73717686767745e+001,-3.69390785987718e-001

2.11403608112276e+004,-1.73717739363749e+001,-3.74545756734046e-001

2.14354692507258e+004,-1.73717793431456e+001,-3.79772623361048e-001

2.17346972505211e+004,-1.73717849011847e+001,-3.85072386762320e-001

2.20381023175322e+004,-1.73717906147031e+001,-3.90446061688974e-001

2.23457427614443e+004,-1.73717964880276e+001,-3.95894676937664e-001

2.26576777059159e+004,-1.73718025256045e+001,-4.01419275541387e-001

2.29739670999406e+004,-1.73718087320021e+001,-4.07020914964270e-001

2.32946717293690e+004,-1.73718151119144e+001,-4.12700667296347e-001

2.36198532285905e+004,-1.73718216701647e+001,-4.18459619452720e-001

2.39495740923785e+004,-1.73718284117084e+001,-4.24298873374521e-001

2.42838976879009e+004,-1.73718353416373e+001,-4.30219546232005e-001

2.46228882668982e+004,-1.73718424651826e+001,-4.36222770632576e-001

2.49666109780322e+004,-1.73718497877188e+001,-4.42309694827800e-001

2.53151318794055e+004,-1.73718573147682e+001,-4.48481482924679e-001

2.56685179512580e+004,-1.73718650520035e+001,-4.54739315102550e-001

2.60268371088386e+004,-1.73718730052531e+001,-4.61084387826877e-001

2.63901582154578e+004,-1.73718811805043e+001,-4.67517914071168e-001

2.67585510957221e+004,-1.73718895839084e+001,-4.74041123536724e-001

2.71320865489533e+004,-1.73718982217841e+001,-4.80655262880715e-001

2.75108363627948e+004,-1.73719071006225e+001,-4.87361595942898e-001

2.78948733270080e+004,-1.73719162270914e+001,-4.94161403975935e-001

2.82842712474618e+004,-1.73719256080403e+001,-5.01055985879439e-001

2.86791049603164e+004,-1.73719352505049e+001,-5.08046658435299e-001

2.90794503464061e+004,-1.73719451617116e+001,-5.15134756550851e-001

2.94853843458219e+004,-1.73719553490834e+001,-5.22321633496539e-001

2.98969849726987e+004,-1.73719658202442e+001,-5.29608661154638e-001

3.03143313302078e+004,-1.73719765830245e+001,-5.36997230264687e-001

3.07375036257601e+004,-1.73719876454666e+001,-5.44488750677248e-001

3.11665831864199e+004,-1.73719990158301e+001,-5.52084651607752e-001

3.16016524745350e+004,-1.73720107025974e+001,-5.59786381892951e-001

3.20427951035848e+004,-1.73720227144798e+001,-5.67595410251668e-001

3.24900958542493e+004,-1.73720350604231e+001,-5.75513225548938e-001

3.29436406907028e+004,-1.73720477496135e+001,-5.83541337061905e-001

3.34035167771346e+004,-1.73720607914840e+001,-5.91681274750870e-001

3.38698124945009e+004,-1.73720741957209e+001,-5.99934589530045e-001

3.43426174575100e+004,-1.73720879722695e+001,-6.08302853547401e-001

3.48220225318448e+004,-1.73721021313416e+001,-6.16787660459912e-001

3.53081198516260e+004,-1.73721166834215e+001,-6.25390625718868e-001

3.58010028371187e+004,-1.73721316392731e+001,-6.34113386855528e-001

3.63007662126863e+004,-1.73721470099471e+001,-6.42957603769376e-001

3.68075060249948e+004,-1.73721628067881e+001,-6.51924959021022e-001

3.73213196614721e+004,-1.73721790414416e+001,-6.61017158128319e-001

3.78423058690237e+004,-1.73721957258620e+001,-6.70235929865697e-001

3.83705647730104e+004,-1.73722128723200e+001,-6.79583026565261e-001

3.89061978964912e+004,-1.73722304934101e+001,-6.89060224424645e-001

3.94493081797342e+004,-1.73722486020591e+001,-6.98669323814326e-001

3.99999999999998e+004,-1.73722672115341e+001,-7.08412149591213e-001

4.05583791916010e+004,-1.73722863354502e+001,-7.18290551416169e-001

4.11245530662425e+004,-1.73723059877798e+001,-7.28306404069933e-001

4.16986304336447e+004,-1.73723261828606e+001,-7.38461607779565e-001

4.22807216224550e+004,-1.73723469354046e+001,-7.48758088543020e-001

4.28709385014515e+004,-1.73723682605072e+001,-7.59197798459264e-001

4.34693945010421e+004,-1.73723901736559e+001,-7.69782716062102e-001

4.40762046350642e+004,-1.73724126907400e+001,-7.80514846657706e-001

4.46914855228886e+004,-1.73724358280596e+001,-7.91396222662556e-001

4.53153554118317e+004,-1.73724596023357e+001,-8.02428903950646e-001

4.59479341998812e+004,-1.73724840307195e+001,-8.13614978197863e-001

4.65893434587380e+004,-1.73725091308029e+001,-8.24956561235096e-001

4.72397064571810e+004,-1.73725349206280e+001,-8.36455797402075e-001

4.78991481847569e+004,-1.73725614186976e+001,-8.48114859905639e-001

4.85677953758016e+004,-1.73725886439859e+001,-8.59935951180585e-001

4.92457765337964e+004,-1.73726166159486e+001,-8.71921303256430e-001

4.99332219560642e+004,-1.73726453545343e+001,-8.84073178124157e-001

5.06302637588109e+004,-1.73726748801945e+001,-8.96393868111228e-001

5.13370359025159e+004,-1.73727052138956e+001,-9.08885696254527e-001

5.20536742176771e+004,-1.73727363771294e+001,-9.21551016682528e-001

5.27803164309155e+004,-1.73727683919249e+001,-9.34392214996996e-001

5.35171021914442e+004,-1.73728012808594e+001,-9.47411708659901e-001

5.42641730979066e+004,-1.73728350670706e+001,-9.60611947384177e-001

5.50216727255895e+004,-1.73728697742678e+001,-9.73995413527297e-001

5.57897466540159e+004,-1.73729054267442e+001,-9.87564622488858e-001

5.65685424949235e+004,-1.73729420493890e+001,-1.00132212311045e+000

5.73582099206328e+004,-1.73729796676988e+001,-1.01527049808364e+000

5.81589006928121e+004,-1.73730183077906e+001,-1.02941236435486e+000

5.89707686916437e+004,-1.73730579964138e+001,-1.04375037353845e+000

5.97939699453972e+004,-1.73730987609625e+001,-1.05828721233257e+000

6.06286626604156e+004,-1.73731406294881e+001,-1.07302560293871e+000

6.14750072515201e+004,-1.73731836307118e+001,-1.08796830348209e+000

6.23331663728396e+004,-1.73732277940372e+001,-1.10311810844154e+000

6.32033049490698e+004,-1.73732731495628e+001,-1.11847784907575e+000

6.40855902071694e+004,-1.73733197280949e+001,-1.13405039385958e+000

6.49801917084985e+004,-1.73733675611601e+001,-1.14983864891956e+000

6.58872813814055e+004,-1.73734166810182e+001,-1.16584555847552e+000

6.68070335542691e+004,-1.73734671206743e+001,-1.18207410528503e+000

6.77396249890018e+004,-1.73735189138924e+001,-1.19852731109056e+000

6.86852349150199e+004,-1.73735720952066e+001,-1.21520823707297e+000

6.96440450636895e+004,-1.73736266999351e+001,-1.23211998430517e+000

7.06162397032520e+004,-1.73736827641915e+001,-1.24926569421269e+000

7.16020056742374e+004,-1.73737403248977e+001,-1.26664854903543e+000

7.26015324253724e+004,-1.73737994197957e+001,-1.28427177229535e+000

7.36150120499896e+004,-1.73738600874600e+001,-1.30213862926609e+000

7.46426393229441e+004,-1.73739223673088e+001,-1.32025242744871e+000

7.56846117380472e+004,-1.73739862996165e+001,-1.33861651704779e+000

7.67411295460207e+004,-1.73740519255244e+001,-1.35723429145490e+000

7.78123957929823e+004,-1.73741192870517e+001,-1.37610918773503e+000

7.88986163594682e+004,-1.73741884271070e+001,-1.39524468711605e+000

7.99999999999995e+004,-1.73742593894983e+001,-1.41464431548302e+000

8.11167583832018e+004,-1.73743322189429e+001,-1.43431164387723e+000

8.22491061324848e+004,-1.73744069610779e+001,-1.45425028899798e+000

8.33972608672892e+004,-1.73744836624685e+001,-1.47446391371118e+000

8.45614432449099e+004,-1.73745623706179e+001,-1.49495622755963e+000

8.57418770029029e+004,-1.73746431339744e+001,-1.51573098728050e+000

8.69387890020841e+004,-1.73747260019402e+001,-1.53679199732580e+000

8.81524092701283e+004,-1.73748110248778e+001,-1.55814311038835e+000

8.93829710457770e+004,-1.73748982541172e+001,-1.57978822793296e+000

9.06307108236633e+004,-1.73749877419610e+001,-1.60173130073232e+000

9.18958683997622e+004,-1.73750795416901e+001,-1.62397632940968e+000

9.31786869174758e+004,-1.73751737075678e+001,-1.64652736498485e+000

9.44794129143618e+004,-1.73752702948431e+001,-1.66938850942834e+000

9.57982963695136e+004,-1.73753693597536e+001,-1.69256391622059e+000

9.71355907516031e+004,-1.73754709595272e+001,-1.71605779091798e+000

9.84915530675926e+004,-1.73755751523826e+001,-1.73987439172286e+000

9.98664439121282e+004,-1.73756819975290e+001,-1.76401803006747e+000

1.01260527517622e+005,-1.73757915551650e+001,-1.78849307119595e+000

1.02674071805032e+005,-1.73759038864755e+001,-1.81330393476137e+000

1.04107348435354e+005,-1.73760190536284e+001,-1.83845509542781e+000

1.05560632861831e+005,-1.73761371197695e+001,-1.86395108348020e+000

1.07034204382888e+005,-1.73762581490155e+001,-1.88979648544597e+000

1.08528346195813e+005,-1.73763822064473e+001,-1.91599594472267e+000

1.10043345451179e+005,-1.73765093581004e+001,-1.94255416221774e+000

1.11579493308032e+005,-1.73766396709538e+001,-1.96947589699800e+000

1.13137084989847e+005,-1.73767732129184e+001,-1.99676596695126e+000

1.14716419841265e+005,-1.73769100528229e+001,-2.02442924945703e+000

1.16317801385624e+005,-1.73770502603987e+001,-2.05247068207239e+000

1.17941537383287e+005,-1.73771939062620e+001,-2.08089526322879e+000

1.19587939890794e+005,-1.73773410618957e+001,-2.10970805294396e+000

1.21257325320831e+005,-1.73774917996279e+001,-2.13891417354703e+000

1.22950014503040e+005,-1.73776461926098e+001,-2.16851881041978e+000

1.24666332745679e+005,-1.73778043147908e+001,-2.19852721275420e+000

1.26406609898139e+005,-1.73779662408922e+001,-2.22894469432589e+000

1.28171180414339e+005,-1.73781320463788e+001,-2.25977663428613e+000

1.29960383416997e+005,-1.73783018074279e+001,-2.29102847797330e+000

1.31774562762811e+005,-1.73784756008973e+001,-2.32270573774425e+000

1.33614067108538e+005,-1.73786535042901e+001,-2.35481399382487e+000

1.35479249978003e+005,-1.73788355957184e+001,-2.38735889518474e+000

1.37370469830040e+005,-1.73790219538638e+001,-2.42034616043498e+000

1.39288090127379e+005,-1.73792126579370e+001,-2.45378157874900e+000

1.41232479406504e+005,-1.73794077876342e+001,-2.48767101081030e+000

1.43204011348474e+005,-1.73796074230917e+001,-2.52202038978694e+000

1.45203064850745e+005,-1.73798116448391e+001,-2.55683572233416e+000

1.47230024099979e+005,-1.73800205337487e+001,-2.59212308962698e+000

1.49285278645888e+005,-1.73802341709852e+001,-2.62788864842276e+000

1.51369223476094e+005,-1.73804526379514e+001,-2.66413863215691e+000

1.53482259092041e+005,-1.73806760162322e+001,-2.70087935207464e+000

1.55624791585964e+005,-1.73809043875386e+001,-2.73811719839309e+000

1.57797232718936e+005,-1.73811378336470e+001,-2.77585864150573e+000

1.59999999999999e+005,-1.73813764363389e+001,-2.81411023322230e+000

1.62233516766403e+005,-1.73816202773383e+001,-2.85287860804907e+000

1.64498212264969e+005,-1.73818694382478e+001,-2.89217048451102e+000

1.66794521734578e+005,-1.73821240004824e+001,-2.93199266651774e+000

1.69122886489819e+005,-1.73823840452038e+001,-2.97235204477303e+000

1.71483754005805e+005,-1.73826496532517e+001,-3.01325559823209e+000

1.73877578004168e+005,-1.73829209050761e+001,-3.05471039560477e+000

1.76304818540256e+005,-1.73831978806673e+001,-3.09672359691057e+000

1.78765942091554e+005,-1.73834806594865e+001,-3.13930245508237e+000

1.81261421647326e+005,-1.73837693203956e+001,-3.18245431762472e+000

1.83791736799524e+005,-1.73840639415875e+001,-3.22618662832421e+000

1.86357373834951e+005,-1.73843646005159e+001,-3.27050692901681e+000

1.88958825828723e+005,-1.73846713738267e+001,-3.31542286141032e+000

1.91596592739027e+005,-1.73849843372891e+001,-3.36094216896621e+000

1.94271181503206e+005,-1.73853035657289e+001,-3.40707269883988e+000

1.96983106135185e+005,-1.73856291329626e+001,-3.45382240388161e+000

1.99732887824256e+005,-1.73859611117337e+001,-3.50119934469886e+000

2.02521055035243e+005,-1.73862995736512e+001,-3.54921169178009e+000

2.05348143610063e+005,-1.73866445891303e+001,-3.59786772768314e+000

2.08214696870707e+005,-1.73869962273368e+001,-3.64717584928681e+000

2.11121265723661e+005,-1.73873545561346e+001,-3.69714457010605e+000

2.14068408765776e+005,-1.73877196420362e+001,-3.74778252267342e+000

2.17056692391625e+005,-1.73880915501595e+001,-3.79909846098413e+000

2.20086690902357e+005,-1.73884703441869e+001,-3.85110126300795e+000

2.23158986616063e+005,-1.73888560863313e+001,-3.90379993326518e+000

2.26274169979693e+005,-1.73892488373073e+001,-3.95720360546711e+000

2.29432839682530e+005,-1.73896486563077e+001,-4.01132154522295e+000

2.32635602771247e+005,-1.73900556009882e+001,-4.06616315280809e+000

2.35883074766574e+005,-1.73904697274571e+001,-4.12173796599799e+000

2.39175879781588e+005,-1.73908910902748e+001,-4.17805566296132e+000

2.42514650641661e+005,-1.73913197424591e+001,-4.23512606521757e+000

2.45900029006080e+005,-1.73917557355004e+001,-4.29295914065054e+000

2.49332665491357e+005,-1.73921991193857e+001,-4.35156500658137e+000

2.52813219796278e+005,-1.73926499426310e+001,-4.41095393289818e+000

2.56342360828676e+005,-1.73931082523247e+001,-4.47113634523798e+000

2.59920766833993e+005,-1.73935740941805e+001,-4.53212282822126e+000

2.63549125525621e+005,-1.73940475126013e+001,-4.59392412873474e+000

2.67228134217075e+005,-1.73945285507539e+001,-4.65655115926265e+000

2.70958499956006e+005,-1.73950172506548e+001,-4.72001500125893e+000

2.74740939660078e+005,-1.73955136532689e+001,-4.78432690856143e+000

2.78576180254757e+005,-1.73960177986186e+001,-4.84949831084382e+000

2.82464958813007e+005,-1.73965297259063e+001,-4.91554081710059e+000

2.86408022696948e+005,-1.73970494736495e+001,-4.98246621916201e+000

2.90406129701488e+005,-1.73975770798277e+001,-5.05028649523739e+000

2.94460048199957e+005,-1.73981125820435e+001,-5.11901381347988e+000

2.98570557291775e+005,-1.73986560176959e+001,-5.18866053557007e+000

3.02738446952187e+005,-1.73992074241667e+001,-5.25923922031657e+000

3.06964518184081e+005,-1.73997668390212e+001,-5.33076262726478e+000

3.11249583171928e+005,-1.74003343002207e+001,-5.40324372031471e+000

3.15594465437872e+005,-1.74009098463492e+001,-5.47669567134106e+000

3.19999999999997e+005,-1.74014935168529e+001,-5.55113186381148e+000

3.24467033532806e+005,-1.74020853522928e+001,-5.62656589639924e+000

3.28996424529938e+005,-1.74026853946096e+001,-5.70301158658848e+000

3.33589043469155e+005,-1.74032936874026e+001,-5.78048297426307e+000

3.38245772979638e+005,-1.74039102762187e+001,-5.85899432528123e+000

3.42967508011610e+005,-1.74045352088561e+001,-5.93856013502699e+000

3.47755156008335e+005,-1.74051685356776e+001,-6.01919513193863e+000

3.52609637080511e+005,-1.74058103099363e+001,-6.10091428100850e+000

3.57531884183106e+005,-1.74064605881122e+001,-6.18373278725275e+000

3.62522843294651e+005,-1.74071194302586e+001,-6.26766609914491e+000

3.67583473599047e+005,-1.74077869003593e+001,-6.35272991201559e+000

3.72714747669902e+005,-1.74084630666948e+001,-6.43894017141032e+000

3.77917651657445e+005,-1.74091480022174e+001,-6.52631307640756e+000

3.83193185478053e+005,-1.74098417849348e+001,-6.61486508289196e+000

3.88542363006410e+005,-1.74105444983017e+001,-6.70461290678410e+000

3.93966212270369e+005,-1.74112562316176e+001,-6.79557352722198e+000

3.99465775648511e+005,-1.74119770804326e+001,-6.88776418969630e+000

4.05042110070485e+005,-1.74127071469577e+001,-6.98120240913788e+000

4.10696287220124e+005,-1.74134465404813e+001,-7.07590597295541e+000

4.16429393741414e+005,-1.74141953777897e+001,-7.17189294402543e+000

4.22242531447321e+005,-1.74149537835923e+001,-7.26918166363472e+000

4.28136817531551e+005,-1.74157218909496e+001,-7.36779075437434e+000

4.34113384783250e+005,-1.74164998417045e+001,-7.46773912298692e+000

4.40173381804713e+005,-1.74172877869148e+001,-7.56904596317040e+000

4.46317973232124e+005,-1.74180858872890e+001,-7.67173075833599e+000

4.52548339959385e+005,-1.74188943136216e+001,-7.77581328432619e+000

4.58865679365059e+005,-1.74197132472298e+001,-7.88131361209178e+000

4.65271205542494e+005,-1.74205428803900e+001,-7.98825211033279e+000

4.71766149533147e+005,-1.74213834167742e+001,-8.09664944810459e+000

4.78351759563174e+005,-1.74222350718852e+001,-8.20652659739269e+000

4.85029301283321e+005,-1.74230980734911e+001,-8.31790483565823e+000

4.91800058012158e+005,-1.74239726620579e+001,-8.43080574835937e+000

4.98665330982714e+005,-1.74248590911808e+001,-8.54525123145065e+000

5.05626439592555e+005,-1.74257576280128e+001,-8.66126349386373e+000

5.12684721657352e+005,-1.74266685536918e+001,-8.77886505997435e+000

5.19841533667984e+005,-1.74275921637650e+001,-8.89807877205779e+000

5.27098251051240e+005,-1.74285287686108e+001,-9.01892779273859e+000

5.34456268434150e+005,-1.74294786938584e+001,-9.14143560743548e+000

5.41916999912011e+005,-1.74304422808047e+001,-9.26562602680879e+000

