Freq.,VOut,OutRef

1.00000000000000e+004,-2.41210989098560e+001,-3.71106546822123e-001

1.01395947979003e+004,-2.41211021979846e+001,-3.76286697996825e-001

1.02811382665607e+004,-2.41211055784935e+001,-3.81539148522111e-001

1.04246576084112e+004,-2.41211090539758e+001,-3.86864907116353e-001

1.05701804056138e+004,-2.41211126270983e+001,-3.92264996550986e-001

1.07177346253629e+004,-2.41211163006017e+001,-3.97740453855527e-001

1.08673486252606e+004,-2.41211200773042e+001,-4.03292330506639e-001

1.10190511587661e+004,-2.41211239601027e+001,-4.08921692635146e-001

1.11728713807222e+004,-2.41211279519751e+001,-4.14629621227008e-001

1.13288388529580e+004,-2.41211320559831e+001,-4.20417212329961e-001

1.14869835499703e+004,-2.41211362752743e+001,-4.26285577260273e-001

1.16473358646846e+004,-2.41211406130839e+001,-4.32235842819763e-001

1.18099266142953e+004,-2.41211450727381e+001,-4.38269151506380e-001

1.19747870461893e+004,-2.41211496576567e+001,-4.44386661731256e-001

1.21419488439505e+004,-2.41211543713545e+001,-4.50589548044959e-001

1.23114441334492e+004,-2.41211592174452e+001,-4.56879001355153e-001

1.24833054890161e+004,-2.41211641996438e+001,-4.63256229156655e-001

1.26575659397028e+004,-2.41211693217689e+001,-4.69722455761424e-001

1.28342589756290e+004,-2.41211745877466e+001,-4.76278922529186e-001

1.30134185544193e+004,-2.41211800016123e+001,-4.82926888107116e-001

1.31950791077289e+004,-2.41211855675148e+001,-4.89667628667022e-001

1.33792755478611e+004,-2.41211912897189e+001,-4.96502438148651e-001

1.35660432744767e+004,-2.41211971726088e+001,-5.03432628505737e-001

1.37554181813974e+004,-2.41212032206912e+001,-5.10459529955208e-001

1.39474366635040e+004,-2.41212094385991e+001,-5.17584491231098e-001

1.41421356237309e+004,-2.41212158310950e+001,-5.24808879839178e-001

1.43395524801583e+004,-2.41212224030746e+001,-5.32134082318333e-001

1.45397251732031e+004,-2.41212291595708e+001,-5.39561504501224e-001

1.47426921729110e+004,-2.41212361057569e+001,-5.47092571784566e-001

1.49484924863494e+004,-2.41212432469508e+001,-5.54728729397389e-001

1.51571656651040e+004,-2.41212505886194e+001,-5.62471442675453e-001

1.53687518128801e+004,-2.41212581363820e+001,-5.70322197340046e-001

1.55832915932100e+004,-2.41212658960154e+001,-5.78282499776889e-001

1.58008262372675e+004,-2.41212738734575e+001,-5.86353877324907e-001

1.60213975517924e+004,-2.41212820748120e+001,-5.94537878563911e-001

1.62450479271247e+004,-2.41212905063535e+001,-6.02836073607560e-001

1.64718203453514e+004,-2.41212991745312e+001,-6.11250054401122e-001

1.67017583885674e+004,-2.41213080859752e+001,-6.19781435020623e-001

1.69349062472505e+004,-2.41213172474998e+001,-6.28431851982243e-001

1.71713087287550e+004,-2.41213266661100e+001,-6.37202964546772e-001

1.74110112659224e+004,-2.41213363490063e+001,-6.46096455035974e-001

1.76540599258131e+004,-2.41213463035900e+001,-6.55114029148715e-001

1.79005014185594e+004,-2.41213565374687e+001,-6.64257416283935e-001

1.81503831063432e+004,-2.41213670584622e+001,-6.73528369867272e-001

1.84037530124975e+004,-2.41213778746084e+001,-6.82928667679237e-001

1.86606598307361e+004,-2.41213889941693e+001,-6.92460112191645e-001

1.89211529345119e+004,-2.41214004256370e+001,-7.02124530908592e-001

1.91852823865052e+004,-2.41214121777402e+001,-7.11923776706655e-001

1.94530989482457e+004,-2.41214242594508e+001,-7.21859728187188e-001

1.97246540898671e+004,-2.41214366799906e+001,-7.31934290026544e-001

1.99999999999999e+004,-2.41214494488378e+001,-7.42149393336012e-001

2.02791895958005e+004,-2.41214625757347e+001,-7.52506996022754e-001

2.05622765331213e+004,-2.41214760706945e+001,-7.63009083158618e-001

2.08493152168224e+004,-2.41214899440091e+001,-7.73657667350712e-001

2.11403608112276e+004,-2.41215042062562e+001,-7.84454789119770e-001

2.14354692507258e+004,-2.41215188683079e+001,-7.95402517282402e-001

2.17346972505211e+004,-2.41215339413384e+001,-8.06502949335902e-001

2.20381023175322e+004,-2.41215494368320e+001,-8.17758211853267e-001

2.23457427614443e+004,-2.41215653665922e+001,-8.29170460879359e-001

2.26576777059159e+004,-2.41215817427501e+001,-8.40741882333049e-001

2.29739670999406e+004,-2.41215985777735e+001,-8.52474692414459e-001

2.32946717293690e+004,-2.41216158844758e+001,-8.64371138020330e-001

2.36198532285905e+004,-2.41216336760261e+001,-8.76433497159215e-001

2.39495740923785e+004,-2.41216519659584e+001,-8.88664079377294e-001

2.42838976879009e+004,-2.41216707681817e+001,-9.01065226187772e-001

2.46228882668982e+004,-2.41216900969900e+001,-9.13639311505720e-001

2.49666109780322e+004,-2.41217099670734e+001,-9.26388742087105e-001

2.53151318794055e+004,-2.41217303935285e+001,-9.39315957975807e-001

2.56685179512580e+004,-2.41217513918692e+001,-9.52423432956827e-001

2.60268371088386e+004,-2.41217729780386e+001,-9.65713675011971e-001

2.63901582154578e+004,-2.41217951684204e+001,-9.79189226784111e-001

2.67585510957221e+004,-2.41218179798508e+001,-9.92852666045946e-001

2.71320865489533e+004,-2.41218414296307e+001,-1.00670660617723e+000

2.75108363627948e+004,-2.41218655355387e+001,-1.02075369664384e+000

2.78948733270080e+004,-2.41218903158436e+001,-1.03499662348650e+000

2.82842712474618e+004,-2.41219157893177e+001,-1.04943810981457e+000

2.86791049603164e+004,-2.41219419752507e+001,-1.06408091630452e+000

2.90794503464061e+004,-2.41219688934634e+001,-1.07892784170792e+000

2.94853843458219e+004,-2.41219965643218e+001,-1.09398172336215e+000

2.98969849726987e+004,-2.41220250087523e+001,-1.10924543771042e+000

3.03143313302078e+004,-2.41220542482564e+001,-1.12472190082593e+000

3.07375036257601e+004,-2.41220843049264e+001,-1.14041406894385e+000

3.11665831864199e+004,-2.41221152014606e+001,-1.15632493900087e+000

3.16016524745350e+004,-2.41221469611803e+001,-1.17245754917797e+000

3.20427951035848e+004,-2.41221796080460e+001,-1.18881497945392e+000

3.24900958542493e+004,-2.41222131666746e+001,-1.20540035216312e+000

3.29436406907028e+004,-2.41222476623571e+001,-1.22221683255842e+000

3.34035167771346e+004,-2.41222831210757e+001,-1.23926762938765e+000

3.38698124945009e+004,-2.41223195695234e+001,-1.25655599546793e+000

3.43426174575100e+004,-2.41223570351220e+001,-1.27408522827397e+000

3.48220225318448e+004,-2.41223955460414e+001,-1.29185867053107e+000

3.53081198516260e+004,-2.41224351312199e+001,-1.30987971081369e+000

3.58010028371187e+004,-2.41224758203839e+001,-1.32815178415311e+000

3.63007662126863e+004,-2.41225176440693e+001,-1.34667837265149e+000

3.68075060249948e+004,-2.41225606336419e+001,-1.36546300610443e+000

3.73213196614721e+004,-2.41226048213202e+001,-1.38450926262748e+000

3.78423058690237e+004,-2.41226502401969e+001,-1.40382076929444e+000

3.83705647730104e+004,-2.41226969242621e+001,-1.42340120277963e+000

3.89061978964912e+004,-2.41227449084268e+001,-1.44325429000858e+000

3.94493081797342e+004,-2.41227942285466e+001,-1.46338380881749e+000

3.99999999999998e+004,-2.41228449214465e+001,-1.48379358861784e+000

4.05583791916010e+004,-2.41228970249458e+001,-1.50448751107078e+000

4.11245530662425e+004,-2.41229505778839e+001,-1.52546951076751e+000

4.16986304336447e+004,-2.41230056201467e+001,-1.54674357591876e+000

4.22807216224550e+004,-2.41230621926930e+001,-1.56831374905116e+000

4.28709385014515e+004,-2.41231203375831e+001,-1.59018412770997e+000

4.34693945010421e+004,-2.41231800980058e+001,-1.61235886517348e+000

4.40762046350642e+004,-2.41232415183080e+001,-1.63484217117074e+000

4.46914855228886e+004,-2.41233046440236e+001,-1.65763831261066e+000

4.53153554118317e+004,-2.41233695219045e+001,-1.68075161431623e+000

4.59479341998812e+004,-2.41234361999500e+001,-1.70418645977012e+000

4.65893434587380e+004,-2.41235047274399e+001,-1.72794729186357e+000

4.72397064571810e+004,-2.41235751549654e+001,-1.75203861365729e+000

4.78991481847569e+004,-2.41236475344628e+001,-1.77646498914965e+000

4.85677953758016e+004,-2.41237219192465e+001,-1.80123104405040e+000

4.92457765337964e+004,-2.41237983640437e+001,-1.82634146656624e+000

4.99332219560642e+004,-2.41238769250295e+001,-1.85180100819119e+000

5.06302637588109e+004,-2.41239576598624e+001,-1.87761448450693e+000

5.13370359025159e+004,-2.41240406277209e+001,-1.90378677599197e+000

5.20536742176771e+004,-2.41241258893411e+001,-1.93032282883571e+000

5.27803164309155e+004,-2.41242135070544e+001,-1.95722765576496e+000

5.35171021914442e+004,-2.41243035448263e+001,-1.98450633687629e+000

5.42641730979066e+004,-2.41243960682965e+001,-2.01216402047571e+000

5.50216727255895e+004,-2.41244911448188e+001,-2.04020592392961e+000

5.57897466540159e+004,-2.41245888435024e+001,-2.06863733452176e+000

5.65685424949235e+004,-2.41246892352541e+001,-2.09746361031784e+000

5.73582099206328e+004,-2.41247923928209e+001,-2.12669018104237e+000

5.81589006928121e+004,-2.41248983908337e+001,-2.15632254895828e+000

5.89707686916437e+004,-2.41250073058513e+001,-2.18636628976000e+000

5.97939699453972e+004,-2.41251192164064e+001,-2.21682705347133e+000

6.06286626604156e+004,-2.41252342030510e+001,-2.24771056535393e+000

6.14750072515201e+004,-2.41253523484034e+001,-2.27902262682266e+000

6.23331663728396e+004,-2.41254737371960e+001,-2.31076911637064e+000

6.32033049490698e+004,-2.41255984563238e+001,-2.34295599050168e+000

6.40855902071694e+004,-2.41257265948934e+001,-2.37558928467152e+000

6.49801917084985e+004,-2.41258582442735e+001,-2.40867511423863e+000

6.58872813814055e+004,-2.41259934981458e+001,-2.44221967542079e+000

6.68070335542691e+004,-2.41261324525562e+001,-2.47622924626331e+000

6.77396249890018e+004,-2.41262752059683e+001,-2.51071018761399e+000

6.86852349150199e+004,-2.41264218593158e+001,-2.54566894410665e+000

6.96440450636895e+004,-2.41265725160574e+001,-2.58111204515374e+000

7.06162397032520e+004,-2.41267272822312e+001,-2.61704610594783e+000

7.16020056742374e+004,-2.41268862665105e+001,-2.65347782847151e+000

7.26015324253724e+004,-2.41270495802604e+001,-2.69041400251504e+000

7.36150120499896e+004,-2.41272173375950e+001,-2.72786150670481e+000

7.46426393229441e+004,-2.41273896554352e+001,-2.76582730953795e+000

7.56846117380472e+004,-2.41275666535674e+001,-2.80431847042950e+000

7.67411295460207e+004,-2.41277484547029e+001,-2.84334214076418e+000

7.78123957929823e+004,-2.41279351845379e+001,-2.88290556496106e+000

7.88986163594682e+004,-2.41281269718141e+001,-2.92301608154503e+000

7.99999999999995e+004,-2.41283239483804e+001,-2.96368112422806e+000

8.11167583832018e+004,-2.41285262492545e+001,-3.00490822300025e+000

8.22491061324848e+004,-2.41287340126857e+001,-3.04670500523030e+000

8.33972608672892e+004,-2.41289473802179e+001,-3.08907919677492e+000

8.45614432449099e+004,-2.41291664967532e+001,-3.13203862309879e+000

8.57418770029029e+004,-2.41293915106166e+001,-3.17559121040453e+000

8.69387890020841e+004,-2.41296225736200e+001,-3.21974498677128e+000

8.81524092701283e+004,-2.41298598411279e+001,-3.26450808330620e+000

8.93829710457770e+004,-2.41301034721226e+001,-3.30988873530376e+000

9.06307108236633e+004,-2.41303536292704e+001,-3.35589528341849e+000

9.18958683997622e+004,-2.41306104789876e+001,-3.40253617484696e+000

9.31786869174758e+004,-2.41308741915073e+001,-3.44981996452158e+000

9.44794129143618e+004,-2.41311449409466e+001,-3.49775531631657e+000

9.57982963695136e+004,-2.41314229053729e+001,-3.54635100426548e+000

9.71355907516031e+004,-2.41317082668721e+001,-3.59561591379173e+000

9.84915530675926e+004,-2.41320012116154e+001,-3.64555904295115e+000

9.98664439121282e+004,-2.41323019299273e+001,-3.69618950368896e+000

1.01260527517622e+005,-2.41326106163532e+001,-3.74751652310894e+000

1.02674071805032e+005,-2.41329274697266e+001,-3.79954944475908e+000

1.04107348435354e+005,-2.41332526932378e+001,-3.85229772992969e+000

1.05560632861831e+005,-2.41335864945002e+001,-3.90577095896879e+000

1.07034204382888e+005,-2.41339290856190e+001,-3.95997883261259e+000

1.08528346195813e+005,-2.41342806832579e+001,-4.01493117333319e+000

1.10043345451179e+005,-2.41346415087068e+001,-4.07063792670358e+000

1.11579493308032e+005,-2.41350117879481e+001,-4.12710916278074e+000

1.13137084989847e+005,-2.41353917517244e+001,-4.18435507750802e+000

1.14716419841265e+005,-2.41357816356043e+001,-4.24238599413798e+000

1.16317801385624e+005,-2.41361816800489e+001,-4.30121236467496e+000

1.17941537383287e+005,-2.41365921304775e+001,-4.36084477134021e+000

1.19587939890794e+005,-2.41370132373334e+001,-4.42129392806058e+000

1.21257325320831e+005,-2.41374452561489e+001,-4.48257068197940e+000

1.22950014503040e+005,-2.41378884476099e+001,-4.54468601499452e+000

1.24666332745679e+005,-2.41383430776205e+001,-4.60765104532164e+000

1.26406609898139e+005,-2.41388094173673e+001,-4.67147702908458e+000

1.28171180414339e+005,-2.41392877433824e+001,-4.73617536193682e+000

1.29960383416997e+005,-2.41397783376072e+001,-4.80175758071043e+000

1.31774562762811e+005,-2.41402814874552e+001,-4.86823536509941e+000

1.33614067108538e+005,-2.41407974858748e+001,-4.93562053937476e+000

1.35479249978003e+005,-2.41413266314116e+001,-5.00392507413478e+000

1.37370469830040e+005,-2.41418692282707e+001,-5.07316108809228e+000

1.39288090127379e+005,-2.41424255863789e+001,-5.14334084989990e+000

1.41232479406504e+005,-2.41429960214467e+001,-5.21447678001467e+000

1.43204011348474e+005,-2.41435808550308e+001,-5.28658145260524e+000

1.45203064850745e+005,-2.41441804145961e+001,-5.35966759750247e+000

1.47230024099979e+005,-2.41447950335784e+001,-5.43374810219493e+000

1.49285278645888e+005,-2.41454250514483e+001,-5.50883601387220e+000

1.51369223476094e+005,-2.41460708137738e+001,-5.58494454151860e+000

1.53482259092041e+005,-2.41467326722861e+001,-5.66208705805589e+000

1.55624791585964e+005,-2.41474109849446e+001,-5.74027710254215e+000

1.57797232718936e+005,-2.41481061160042e+001,-5.81952838242406e+000

1.59999999999999e+005,-2.41488184360835e+001,-5.89985477584785e+000

1.62233516766403e+005,-2.41495483222354e+001,-5.98127033403026e+000

1.64498212264969e+005,-2.41502961580192e+001,-6.06378928368980e+000

1.66794521734578e+005,-2.41510623335758e+001,-6.14742602954280e+000

1.69122886489819e+005,-2.41518472457052e+001,-6.23219515686617e+000

1.71483754005805e+005,-2.41526512979471e+001,-6.31811143412571e+000

1.73877578004168e+005,-2.41534749006658e+001,-6.40518981567715e+000

1.76304818540256e+005,-2.41543184711383e+001,-6.49344544453624e+000

1.78765942091554e+005,-2.41551824336476e+001,-6.58289365522466e+000

1.81261421647326e+005,-2.41560672195806e+001,-6.67354997669016e+000

1.83791736799524e+005,-2.41569732675316e+001,-6.76543013530397e+000

1.86357373834951e+005,-2.41579010234123e+001,-6.85855005793732e+000

1.88958825828723e+005,-2.41588509405678e+001,-6.95292587511763e+000

1.91596592739027e+005,-2.41598234799010e+001,-7.04857392426609e+000

1.94271181503206e+005,-2.41608191100037e+001,-7.14551075301840e+000

1.96983106135185e+005,-2.41618383072977e+001,-7.24375312262818e+000

1.99732887824256e+005,-2.41628815561841e+001,-7.34331801145499e+000

2.02521055035243e+005,-2.41639493492042e+001,-7.44422261853774e+000

2.05348143610063e+005,-2.41650421872093e+001,-7.54648436725239e+000

2.08214696870707e+005,-2.41661605795446e+001,-7.65012090905572e+000

2.11121265723661e+005,-2.41673050442437e+001,-7.75515012731317e+000

2.14068408765776e+005,-2.41684761082377e+001,-7.86159014121237e+000

2.17056692391625e+005,-2.41696743075776e+001,-7.96945930976045e+000

2.20086690902357e+005,-2.41709001876732e+001,-8.07877623586300e+000

2.23158986616063e+005,-2.41721543035464e+001,-8.18955977048566e+000

2.26274169979693e+005,-2.41734372201030e+001,-8.30182901689502e+000

2.29432839682530e+005,-2.41747495124215e+001,-8.41560333497654e+000

2.32635602771247e+005,-2.41760917660609e+001,-8.53090234562827e+000

2.35883074766574e+005,-2.41774645773884e+001,-8.64774593522625e+000

2.39175879781588e+005,-2.41788685539281e+001,-8.76615426015861e+000

2.42514650641661e+005,-2.41803043147304e+001,-8.88614775142590e+000

2.45900029006080e+005,-2.41817724907653e+001,-9.00774711930118e+000

2.49332665491357e+005,-2.41832737253381e+001,-9.13097335804803e+000

2.52813219796278e+005,-2.41848086745301e+001,-9.25584775068969e+000

2.56342360828676e+005,-2.41863780076642e+001,-9.38239187382436e+000

2.59920766833993e+005,-2.41879824077971e+001,-9.51062760248181e+000

2.63549125525621e+005,-2.41896225722381e+001,-9.64057711501396e+000

2.67228134217075e+005,-2.41912992130957e+001,-9.77226289801347e+000

2.70958499956006e+005,-2.41930130578525e+001,-9.90570775125373e+000

2.74740939660078e+005,-2.41947648499703e+001,-1.00409347926411e+001

2.78576180254757e+005,-2.41965553495234e+001,-1.01779674631751e+001

2.82464958813007e+005,-2.41983853338640e+001,-1.03168295319035e+001

2.86408022696948e+005,-2.42002555983176e+001,-1.04575451008696e+001

2.90406129701488e+005,-2.42021669569106e+001,-1.06001386100378e+001

2.94460048199957e+005,-2.42041202431288e+001,-1.07446348421920e+001

2.98570557291775e+005,-2.42061163107099e+001,-1.08910589277950e+001

3.02738446952187e+005,-2.42081560344671e+001,-1.10394363498015e+001

3.06964518184081e+005,-2.42102403111461e+001,-1.11897929484138e+001

3.11249583171928e+005,-2.42123700603148e+001,-1.13421549257697e+001

3.15594465437872e+005,-2.42145462252870e+001,-1.14965488505535e+001

3.19999999999997e+005,-2.42167697740776e+001,-1.16530016625201e+001

3.24467033532806e+005,-2.42190417003915e+001,-1.18115406769213e+001

3.28996424529938e+005,-2.42213630246457e+001,-1.19721935888230e+001

3.33589043469155e+005,-2.42237347950227e+001,-1.21349884773064e+001

3.38245772979638e+005,-2.42261580885572e+001,-1.22999538095382e+001

3.42967508011610e+005,-2.42286340122534e+001,-1.24671184447043e+001

3.47755156008335e+005,-2.42311637042345e+001,-1.26365116377931e+001

3.52609637080511e+005,-2.42337483349217e+001,-1.28081630432215e+001

3.57531884183106e+005,-2.42363891082445e+001,-1.29821027182911e+001

3.62522843294651e+005,-2.42390872628788e+001,-1.31583611264679e+001

3.67583473599047e+005,-2.42418440735146e+001,-1.33369691404734e+001

3.72714747669902e+005,-2.42446608521503e+001,-1.35179580451810e+001

3.77917651657445e+005,-2.42475389494145e+001,-1.37013595403058e+001

3.83193185478053e+005,-2.42504797559124e+001,-1.38872057428824e+001

3.88542363006410e+005,-2.42534847035979e+001,-1.40755291895209e+001

3.93966212270369e+005,-2.42565552671686e+001,-1.42663628384331e+001

3.99465775648511e+005,-2.42596929654831e+001,-1.44597400712239e+001

4.05042110070485e+005,-2.42628993629999e+001,-1.46556946944376e+001

4.10696287220124e+005,-2.42661760712359e+001,-1.48542609408551e+001

4.16429393741414e+005,-2.42695247502445e+001,-1.50554734705356e+001

4.22242531447321e+005,-2.42729471101098e+001,-1.52593673715953e+001

4.28136817531551e+005,-2.42764449124588e+001,-1.54659781607191e+001

4.34113384783250e+005,-2.42800199719874e+001,-1.56753417834004e+001

4.40173381804713e+005,-2.42836741580006e+001,-1.58874946139034e+001

4.46317973232124e+005,-2.42874093959649e+001,-1.61024734549442e+001

4.52548339959385e+005,-2.42912276690725e+001,-1.63203155370863e+001

4.58865679365059e+005,-2.42951310198144e+001,-1.65410585178472e+001

4.65271205542494e+005,-2.42991215515632e+001,-1.67647404805118e+001

4.71766149533147e+005,-2.43032014301621e+001,-1.69913999326510e+001

4.78351759563174e+005,-2.43073728855211e+001,-1.72210758043403e+001

4.85029301283321e+005,-2.43116382132176e+001,-1.74538074460772e+001

4.91800058012158e+005,-2.43159997761006e+001,-1.76896346263947e+001

4.98665330982714e+005,-2.43204600058976e+001,-1.79285975291674e+001

5.05626439592555e+005,-2.43250214048226e+001,-1.81707367506084e+001

5.12684721657352e+005,-2.43296865471848e+001,-1.84160932959544e+001

5.19841533667984e+005,-2.43344580809955e+001,-1.86647085758368e+001

5.27098251051240e+005,-2.43393387295735e+001,-1.89166244023364e+001

5.34456268434150e+005,-2.43443312931474e+001,-1.91718829847187e+001

5.41916999912011e+005,-2.43494386504528e+001,-1.94305269248477e+001

