Freq.,VOut,OutRef

1.00000000000000e+004,-2.15212507580013e+001,-3.08815655103233e-001

1.01395947979003e+004,-2.15212534249868e+001,-3.13126267167041e-001

1.02811382665607e+004,-2.15212561668892e+001,-3.17497040665614e-001

1.04246576084112e+004,-2.15212589858111e+001,-3.21928814892595e-001

1.05701804056138e+004,-2.15212618839140e+001,-3.26422440835499e-001

1.07177346253629e+004,-2.15212648634203e+001,-3.30978781337099e-001

1.08673486252606e+004,-2.15212679266140e+001,-3.35598711262458e-001

1.10190511587661e+004,-2.15212710758437e+001,-3.40283117661028e-001

1.11728713807222e+004,-2.15212743135234e+001,-3.45032899942348e-001

1.13288388529580e+004,-2.15212776421348e+001,-3.49848970040523e-001

1.14869835499703e+004,-2.15212810642293e+001,-3.54732252591594e-001

1.16473358646846e+004,-2.15212845824293e+001,-3.59683685110785e-001

1.18099266142953e+004,-2.15212881994310e+001,-3.64704218167922e-001

1.19747870461893e+004,-2.15212919180058e+001,-3.69794815570580e-001

1.21419488439505e+004,-2.15212957410030e+001,-3.74956454545669e-001

1.23114441334492e+004,-2.15212996713512e+001,-3.80190125927329e-001

1.24833054890161e+004,-2.15213037120612e+001,-3.85496834343802e-001

1.26575659397028e+004,-2.15213078662282e+001,-3.90877598409172e-001

1.28342589756290e+004,-2.15213121370335e+001,-3.96333450917747e-001

1.30134185544193e+004,-2.15213165277477e+001,-4.01865439038200e-001

1.31950791077289e+004,-2.15213210417329e+001,-4.07474624514260e-001

1.33792755478611e+004,-2.15213256824450e+001,-4.13162083866563e-001

1.35660432744767e+004,-2.15213304534367e+001,-4.18928908594235e-001

1.37554181813974e+004,-2.15213353583601e+001,-4.24776205385235e-001

1.39474366635040e+004,-2.15213404009687e+001,-4.30705096326589e-001

1.41421356237309e+004,-2.15213455851219e+001,-4.36716719112628e-001

1.43395524801583e+004,-2.15213509147861e+001,-4.42812227265768e-001

1.45397251732031e+004,-2.15213563940388e+001,-4.48992790352563e-001

1.47426921729110e+004,-2.15213620270714e+001,-4.55259594205677e-001

1.49484924863494e+004,-2.15213678181922e+001,-4.61613841148217e-001

1.51571656651040e+004,-2.15213737718300e+001,-4.68056750221334e-001

1.53687518128801e+004,-2.15213798925370e+001,-4.74589557415445e-001

1.55832915932100e+004,-2.15213861849925e+001,-4.81213515903054e-001

1.58008262372675e+004,-2.15213926540063e+001,-4.87929896277094e-001

1.60213975517924e+004,-2.15213993045225e+001,-4.94739986788047e-001

1.62450479271247e+004,-2.15214061416229e+001,-5.01645093590547e-001

1.64718203453514e+004,-2.15214131705312e+001,-5.08646540988094e-001

1.67017583885674e+004,-2.15214203966164e+001,-5.15745671683156e-001

1.69349062472505e+004,-2.15214278253975e+001,-5.22943847029617e-001

1.71713087287550e+004,-2.15214354625469e+001,-5.30242447291484e-001

1.74110112659224e+004,-2.15214433138952e+001,-5.37642871900525e-001

1.76540599258131e+004,-2.15214513854355e+001,-5.45146539720977e-001

1.79005014185594e+004,-2.15214596833272e+001,-5.52754889316381e-001

1.81503831063432e+004,-2.15214682139019e+001,-5.60469379218533e-001

1.84037530124975e+004,-2.15214769836667e+001,-5.68291488204180e-001

1.86606598307361e+004,-2.15214859993100e+001,-5.76222715570750e-001

1.89211529345119e+004,-2.15214952677061e+001,-5.84264581417999e-001

1.91852823865052e+004,-2.15215047959206e+001,-5.92418626934487e-001

1.94530989482457e+004,-2.15215145912150e+001,-6.00686414684450e-001

1.97246540898671e+004,-2.15215246610531e+001,-6.09069528900414e-001

1.99999999999999e+004,-2.15215350131054e+001,-6.17569575783276e-001

2.02791895958005e+004,-2.15215456552558e+001,-6.26188183797337e-001

2.05622765331213e+004,-2.15215565956067e+001,-6.34927003978729e-001

2.08493152168224e+004,-2.15215678424855e+001,-6.43787710241427e-001

2.11403608112276e+004,-2.15215794044503e+001,-6.52771999690923e-001

2.14354692507258e+004,-2.15215912902966e+001,-6.61881592940345e-001

2.17346972505211e+004,-2.15216035090635e+001,-6.71118234429833e-001

2.20381023175322e+004,-2.15216160700406e+001,-6.80483692752363e-001

2.23457427614443e+004,-2.15216289827746e+001,-6.89979760982446e-001

2.26576777059159e+004,-2.15216422570763e+001,-6.99608257009972e-001

2.29739670999406e+004,-2.15216559030281e+001,-7.09371023874499e-001

2.32946717293690e+004,-2.15216699309910e+001,-7.19269930110927e-001

2.36198532285905e+004,-2.15216843516124e+001,-7.29306870094105e-001

2.39495740923785e+004,-2.15216991758339e+001,-7.39483764387743e-001

2.42838976879009e+004,-2.15217144148990e+001,-7.49802560102323e-001

2.46228882668982e+004,-2.15217300803618e+001,-7.60265231251932e-001

2.49666109780322e+004,-2.15217461840946e+001,-7.70873779121253e-001

2.53151318794055e+004,-2.15217627382973e+001,-7.81630232631327e-001

2.56685179512580e+004,-2.15217797555059e+001,-7.92536648714992e-001

2.60268371088386e+004,-2.15217972486013e+001,-8.03595112694944e-001

2.63901582154578e+004,-2.15218152308193e+001,-8.14807738665121e-001

2.67585510957221e+004,-2.15218337157594e+001,-8.26176669879561e-001

2.71320865489533e+004,-2.15218527173950e+001,-8.37704079145221e-001

2.75108363627948e+004,-2.15218722500831e+001,-8.49392169218481e-001

2.78948733270080e+004,-2.15218923285752e+001,-8.61243173206961e-001

2.82842712474618e+004,-2.15219129680272e+001,-8.73259354979498e-001

2.86791049603164e+004,-2.15219341840103e+001,-8.85443009575177e-001

2.90794503464061e+004,-2.15219559925224e+001,-8.97796463623049e-001

2.94853843458219e+004,-2.15219784099995e+001,-9.10322075762756e-001

2.98969849726987e+004,-2.15220014533268e+001,-9.23022237074719e-001

3.03143313302078e+004,-2.15220251398513e+001,-9.35899371510686e-001

3.07375036257601e+004,-2.15220494873933e+001,-9.48955936333334e-001

3.11665831864199e+004,-2.15220745142597e+001,-9.62194422558228e-001

3.16016524745350e+004,-2.15221002392564e+001,-9.75617355404631e-001

3.20427951035848e+004,-2.15221266817016e+001,-9.89227294747159e-001

3.24900958542493e+004,-2.15221538614392e+001,-1.00302683557731e+000

3.29436406907028e+004,-2.15221817988527e+001,-1.01701860846773e+000

3.34035167771346e+004,-2.15222105148792e+001,-1.03120528004182e+000

3.38698124945009e+004,-2.15222400310241e+001,-1.04558955345076e+000

3.43426174575100e+004,-2.15222703693759e+001,-1.06017416885588e+000

3.48220225318448e+004,-2.15223015526212e+001,-1.07496190391268e+000

3.53081198516260e+004,-2.15223336040604e+001,-1.08995557426806e+000

3.58010028371187e+004,-2.15223665476237e+001,-1.10515803405433e+000

3.63007662126863e+004,-2.15224004078870e+001,-1.12057217639686e+000

3.68075060249948e+004,-2.15224352100894e+001,-1.13620093392176e+000

3.73213196614721e+004,-2.15224709801493e+001,-1.15204727927341e+000

3.78423058690237e+004,-2.15225077446825e+001,-1.16811422563382e+000

3.83705647730104e+004,-2.15225455310198e+001,-1.18440482725264e+000

3.89061978964912e+004,-2.15225843672252e+001,-1.20092217997818e+000

3.94493081797342e+004,-2.15226242821151e+001,-1.21766942179790e+000

3.99999999999998e+004,-2.15226653052766e+001,-1.23464973338299e+000

4.05583791916010e+004,-2.15227074670877e+001,-1.25186633863926e+000

4.11245530662425e+004,-2.15227507987369e+001,-1.26932250526486e+000

4.16986304336447e+004,-2.15227953322436e+001,-1.28702154531247e+000

4.22807216224550e+004,-2.15228411004794e+001,-1.30496681575932e+000

4.28709385014515e+004,-2.15228881371887e+001,-1.32316171908132e+000

4.34693945010421e+004,-2.15229364770110e+001,-1.34160970383516e+000

4.40762046350642e+004,-2.15229861555027e+001,-1.36031426524576e+000

4.46914855228886e+004,-2.15230372091603e+001,-1.37927894579793e+000

4.53153554118317e+004,-2.15230896754429e+001,-1.39850733583851e+000

4.59479341998812e+004,-2.15231435927965e+001,-1.41800307418006e+000

4.65893434587380e+004,-2.15231990006776e+001,-1.43776984871385e+000

4.72397064571810e+004,-2.15232559395780e+001,-1.45781139702745e+000

4.78991481847569e+004,-2.15233144510499e+001,-1.47813150702862e+000

4.85677953758016e+004,-2.15233745777313e+001,-1.49873401757656e+000

4.92457765337964e+004,-2.15234363633725e+001,-1.51962281911768e+000

4.99332219560642e+004,-2.15234998528621e+001,-1.54080185432903e+000

5.06302637588109e+004,-2.15235650922544e+001,-1.56227511876680e+000

5.13370359025159e+004,-2.15236321287970e+001,-1.58404666152215e+000

5.20536742176771e+004,-2.15237010109589e+001,-1.60612058588194e+000

5.27803164309155e+004,-2.15237717884586e+001,-1.62850104999687e+000

5.35171021914442e+004,-2.15238445122940e+001,-1.65119226755526e+000

5.42641730979066e+004,-2.15239192347713e+001,-1.67419850846352e+000

5.50216727255895e+004,-2.15239960095353e+001,-1.69752409953121e+000

5.57897466540159e+004,-2.15240748916001e+001,-1.72117342516541e+000

5.65685424949235e+004,-2.15241559373802e+001,-1.74515092806792e+000

5.73582099206328e+004,-2.15242392047218e+001,-1.76946110994081e+000

5.81589006928121e+004,-2.15243247529351e+001,-1.79410853219810e+000

5.89707686916437e+004,-2.15244126428270e+001,-1.81909781668200e+000

5.97939699453972e+004,-2.15245029367338e+001,-1.84443364638742e+000

6.06286626604156e+004,-2.15245956985548e+001,-1.87012076619088e+000

6.14750072515201e+004,-2.15246909937864e+001,-1.89616398358711e+000

6.23331663728396e+004,-2.15247888895565e+001,-1.92256816943126e+000

6.32033049490698e+004,-2.15248894546592e+001,-1.94933825868696e+000

6.40855902071694e+004,-2.15249927595903e+001,-1.97647925117990e+000

6.49801917084985e+004,-2.15250988765829e+001,-2.00399621236037e+000

6.58872813814055e+004,-2.15252078796436e+001,-2.03189427406858e+000

6.68070335542691e+004,-2.15253198445888e+001,-2.06017863530860e+000

6.77396249890018e+004,-2.15254348490819e+001,-2.08885456302686e+000

6.86852349150199e+004,-2.15255529726704e+001,-2.11792739289848e+000

6.96440450636895e+004,-2.15256742968234e+001,-2.14740253011873e+000

7.06162397032520e+004,-2.15257989049697e+001,-2.17728545020037e+000

7.16020056742374e+004,-2.15259268825357e+001,-2.20758169977892e+000

7.26015324253724e+004,-2.15260583169839e+001,-2.23829689742297e+000

7.36150120499896e+004,-2.15261932978519e+001,-2.26943673445066e+000

7.46426393229441e+004,-2.15263319167910e+001,-2.30100697575323e+000

7.56846117380472e+004,-2.15264742676054e+001,-2.33301346062539e+000

7.67411295460207e+004,-2.15266204462912e+001,-2.36546210360092e+000

7.78123957929823e+004,-2.15267705510762e+001,-2.39835889529613e+000

7.88986163594682e+004,-2.15269246824587e+001,-2.43170990325963e+000

7.99999999999995e+004,-2.15270829432478e+001,-2.46552127282753e+000

8.11167583832018e+004,-2.15272454386021e+001,-2.49979922798836e+000

8.22491061324848e+004,-2.15274122760695e+001,-2.53455007225257e+000

8.33972608672892e+004,-2.15275835656265e+001,-2.56978018952985e+000

8.45614432449099e+004,-2.15277594197176e+001,-2.60549604501386e+000

8.57418770029029e+004,-2.15279399532940e+001,-2.64170418607519e+000

8.69387890020841e+004,-2.15281252838527e+001,-2.67841124316052e+000

8.81524092701283e+004,-2.15283155314751e+001,-2.71562393070046e+000

8.93829710457770e+004,-2.15285108188650e+001,-2.75334904802557e+000

9.06307108236633e+004,-2.15287112713868e+001,-2.79159348029119e+000

9.18958683997622e+004,-2.15289170171024e+001,-2.83036419940948e+000

9.31786869174758e+004,-2.15291281868086e+001,-2.86966826499152e+000

9.44794129143618e+004,-2.15293449140732e+001,-2.90951282529914e+000

9.57982963695136e+004,-2.15295673352711e+001,-2.94990511820456e+000

9.71355907516031e+004,-2.15297955896188e+001,-2.99085247216256e+000

9.84915530675926e+004,-2.15300298192088e+001,-3.03236230719150e+000

9.98664439121282e+004,-2.15302701690436e+001,-3.07444213586539e+000

1.01260527517622e+005,-2.15305167870680e+001,-3.11709956431792e+000

1.02674071805032e+005,-2.15307698242004e+001,-3.16034229325869e+000

1.04107348435354e+005,-2.15310294343641e+001,-3.20417811900138e+000

1.05560632861831e+005,-2.15312957745163e+001,-3.24861493450597e+000

1.07034204382888e+005,-2.15315690046770e+001,-3.29366073043411e+000

1.08528346195813e+005,-2.15318492879558e+001,-3.33932359621943e+000

1.10043345451179e+005,-2.15321367905780e+001,-3.38561172115391e+000

1.11579493308032e+005,-2.15324316819090e+001,-3.43253339548931e+000

1.13137084989847e+005,-2.15327341344777e+001,-3.48009701155708e+000

1.14716419841265e+005,-2.15330443239978e+001,-3.52831106490527e+000

1.16317801385624e+005,-2.15333624293883e+001,-3.57718415545461e+000

1.17941537383287e+005,-2.15336886327915e+001,-3.62672498867621e+000

1.19587939890794e+005,-2.15340231195905e+001,-3.67694237678796e+000

1.21257325320831e+005,-2.15343660784238e+001,-3.72784523997602e+000

1.22950014503040e+005,-2.15347177011991e+001,-3.77944260763739e+000

1.24666332745679e+005,-2.15350781831045e+001,-3.83174361965035e+000

1.26406609898139e+005,-2.15354477226187e+001,-3.88475752766835e+000

1.28171180414339e+005,-2.15358265215191e+001,-3.93849369644364e+000

1.29960383416997e+005,-2.15362147848871e+001,-3.99296160517915e+000

1.31774562762811e+005,-2.15366127211131e+001,-4.04817084891269e+000

1.33614067108538e+005,-2.15370205418986e+001,-4.10413113993144e+000

1.35479249978003e+005,-2.15374384622563e+001,-4.16085230922228e+000

1.37370469830040e+005,-2.15378667005094e+001,-4.21834430795756e+000

1.39288090127379e+005,-2.15383054782875e+001,-4.27661720901955e+000

1.41232479406504e+005,-2.15387550205227e+001,-4.33568120856263e+000

1.43204011348474e+005,-2.15392155554415e+001,-4.39554662761953e+000

1.45203064850745e+005,-2.15396873145578e+001,-4.45622391374946e+000

1.47230024099979e+005,-2.15401705326621e+001,-4.51772364273331e+000

1.49285278645888e+005,-2.15406654478104e+001,-4.58005652031561e+000

1.51369223476094e+005,-2.15411723013115e+001,-4.64323338399820e+000

1.53482259092041e+005,-2.15416913377131e+001,-4.70726520488413e+000

1.55624791585964e+005,-2.15422228047867e+001,-4.77216308957834e+000

1.57797232718936e+005,-2.15427669535125e+001,-4.83793828214387e+000

1.59999999999999e+005,-2.15433240380619e+001,-4.90460216611756e+000

1.62233516766403e+005,-2.15438943157821e+001,-4.97216626658759e+000

1.64498212264969e+005,-2.15444780471779e+001,-5.04064225233490e+000

1.66794521734578e+005,-2.15450754958961e+001,-5.11004193804077e+000

1.69122886489819e+005,-2.15456869287083e+001,-5.18037728656286e+000

1.71483754005805e+005,-2.15463126154959e+001,-5.25166041128306e+000

1.73877578004168e+005,-2.15469528292357e+001,-5.32390357852730e+000

1.76304818540256e+005,-2.15476078459869e+001,-5.39711921006183e+000

1.78765942091554e+005,-2.15482779448804e+001,-5.47131988566770e+000

1.81261421647326e+005,-2.15489634081104e+001,-5.54651834579309e+000

1.83791736799524e+005,-2.15496645209291e+001,-5.62272749428998e+000

1.86357373834951e+005,-2.15503815716440e+001,-5.69996040123370e+000

1.88958825828723e+005,-2.15511148516205e+001,-5.77823030582722e+000

1.91596592739027e+005,-2.15518646552879e+001,-5.85755061939473e+000

1.94271181503206e+005,-2.15526312801509e+001,-5.93793492846375e+000

1.96983106135185e+005,-2.15534150268073e+001,-6.01939699793641e+000

1.99732887824256e+005,-2.15542161989715e+001,-6.10195077435448e+000

2.02521055035243e+005,-2.15550351035052e+001,-6.18561038925600e+000

2.05348143610063e+005,-2.15558720504568e+001,-6.27039016262589e+000

2.08214696870707e+005,-2.15567273531078e+001,-6.35630460644065e+000

2.11121265723661e+005,-2.15576013280305e+001,-6.44336842830818e+000

2.14068408765776e+005,-2.15584942951539e+001,-6.53159653520214e+000

2.17056692391625e+005,-2.15594065778425e+001,-6.62100403729104e+000

2.20086690902357e+005,-2.15603385029849e+001,-6.71160625186094e+000

2.23158986616063e+005,-2.15612904010969e+001,-6.80341870733284e+000

2.26274169979693e+005,-2.15622626064370e+001,-6.89645714737079e+000

2.29432839682530e+005,-2.15632554571362e+001,-6.99073753508305e+000

2.32635602771247e+005,-2.15642692953441e+001,-7.08627605730968e+000

2.35883074766574e+005,-2.15653044673902e+001,-7.18308912900001e+000

2.39175879781588e+005,-2.15663613239622e+001,-7.28119339767252e+000

2.42514650641661e+005,-2.15674402203030e+001,-7.38060574795747e+000

2.45900029006080e+005,-2.15685415164259e+001,-7.48134330621811e+000

2.49332665491357e+005,-2.15696655773496e+001,-7.58342344524568e+000

2.52813219796278e+005,-2.15708127733533e+001,-7.68686378902604e+000

2.56342360828676e+005,-2.15719834802544e+001,-7.79168221757248e+000

2.59920766833993e+005,-2.15731780797065e+001,-7.89789687182016e+000

2.63549125525621e+005,-2.15743969595221e+001,-8.00552615857654e+000

2.67228134217075e+005,-2.15756405140174e+001,-8.11458875552306e+000

2.70958499956006e+005,-2.15769091443830e+001,-8.22510361626146e+000

2.74740939660078e+005,-2.15782032590781e+001,-8.33708997539864e+000

2.78576180254757e+005,-2.15795232742517e+001,-8.45056735366419e+000

2.82464958813007e+005,-2.15808696141888e+001,-8.56555556305245e+000

2.86408022696948e+005,-2.15822427117844e+001,-8.68207471198228e+000

2.90406129701488e+005,-2.15836430090442e+001,-8.80014521046803e+000

2.94460048199957e+005,-2.15850709576124e+001,-8.91978777529248e+000

2.98570557291775e+005,-2.15865270193285e+001,-9.04102343517483e+000

3.02738446952187e+005,-2.15880116668111e+001,-9.16387353592516e+000

3.06964518184081e+005,-2.15895253840710e+001,-9.28835974557751e+000

3.11249583171928e+005,-2.15910686671522e+001,-9.41450405949208e+000

3.15594465437872e+005,-2.15926420248015e+001,-9.54232880541938e+000

3.19999999999997e+005,-2.15942459791668e+001,-9.67185664851707e+000

3.24467033532806e+005,-2.15958810665236e+001,-9.80311059631057e+000

3.28996424529938e+005,-2.15975478380298e+001,-9.93611400358955e+000

3.33589043469155e+005,-2.15992468605081e+001,-1.00708905772320e+001

3.38245772979638e+005,-2.16009787172564e+001,-1.02074643809459e+001

3.42967508011610e+005,-2.16027440088856e+001,-1.03458598399221e+001

3.47755156008335e+005,-2.16045433541829e+001,-1.04861017453897e+001

3.52609637080511e+005,-2.16063773910029e+001,-1.06282152590651e+001

3.57531884183106e+005,-2.16082467771831e+001,-1.07722259174887e+001

3.62522843294651e+005,-2.16101521914844e+001,-1.09181596362406e+001

3.67583473599047e+005,-2.16120943345562e+001,-1.10660427140289e+001

3.72714747669902e+005,-2.16140739299242e+001,-1.12159018366434e+001

3.77917651657445e+005,-2.16160917250014e+001,-1.13677640807695e+001

3.83193185478053e+005,-2.16181484921195e+001,-1.15216569176548e+001

3.88542363006410e+005,-2.16202450295827e+001,-1.16776082166234e+001

3.93966212270369e+005,-2.16223821627393e+001,-1.18356462484342e+001

3.99465775648511e+005,-2.16245607450733e+001,-1.19957996884760e+001

4.05042110070485e+005,-2.16267816593134e+001,-1.21580976197969e+001

4.10696287220124e+005,-2.16290458185579e+001,-1.23225695359645e+001

4.16429393741414e+005,-2.16313541674166e+001,-1.24892453437512e+001

4.22242531447321e+005,-2.16337076831657e+001,-1.26581553656459e+001

4.28136817531551e+005,-2.16361073769177e+001,-1.28293303421839e+001

4.34113384783250e+005,-2.16385542948027e+001,-1.30028014340993e+001

4.40173381804713e+005,-2.16410495191616e+001,-1.31786002242932e+001

4.46317973232124e+005,-2.16435941697502e+001,-1.33567587196192e+001

4.52548339959385e+005,-2.16461894049518e+001,-1.35373093524844e+001

4.58865679365059e+005,-2.16488364229996e+001,-1.37202849822666e+001

4.65271205542494e+005,-2.16515364632059e+001,-1.39057188965448e+001

4.71766149533147e+005,-2.16542908071986e+001,-1.40936448121463e+001

4.78351759563174e+005,-2.16571007801636e+001,-1.42840968760091e+001

4.85029301283321e+005,-2.16599677520923e+001,-1.44771096658600e+001

4.91800058012158e+005,-2.16628931390338e+001,-1.46727181907092e+001

4.98665330982714e+005,-2.16658784043513e+001,-1.48709578911641e+001

5.05626439592555e+005,-2.16689250599809e+001,-1.50718646395598e+001

5.12684721657352e+005,-2.16720346676938e+001,-1.52754747399102e+001

5.19841533667984e+005,-2.16752088403605e+001,-1.54818249276798e+001

5.27098251051240e+005,-2.16784492432171e+001,-1.56909523693770e+001

5.34456268434150e+005,-2.16817575951316e+001,-1.59028946619689e+001

5.41916999912011e+005,-2.16851356698731e+001,-1.61176898321206e+001

