Freq.,VOut,OutRef

1.00000000000000e+004,-2.62480967725032e+001,-1.69339441808590e-001

1.01395947979003e+004,-2.62480986183175e+001,-1.71703074543422e-001

1.02811382665607e+004,-2.62481005159685e+001,-1.74099691423417e-001

1.04246576084112e+004,-2.62481024669099e+001,-1.76529752427800e-001

1.05701804056138e+004,-2.62481044726367e+001,-1.78993723936295e-001

1.07177346253629e+004,-2.62481065346857e+001,-1.81492078815927e-001

1.08673486252606e+004,-2.62481086546365e+001,-1.84025296515952e-001

1.10190511587661e+004,-2.62481108341126e+001,-1.86593863157449e-001

1.11728713807222e+004,-2.62481130747836e+001,-1.89198271620967e-001

1.13288388529580e+004,-2.62481153783653e+001,-1.91839021645591e-001

1.14869835499703e+004,-2.62481177466217e+001,-1.94516619920011e-001

1.16473358646846e+004,-2.62481201813661e+001,-1.97231580180065e-001

1.18099266142953e+004,-2.62481226844622e+001,-1.99984423307312e-001

1.19747870461893e+004,-2.62481252578263e+001,-2.02775677424128e-001

1.21419488439505e+004,-2.62481279034277e+001,-2.05605877996344e-001

1.23114441334492e+004,-2.62481306232915e+001,-2.08475567932236e-001

1.24833054890161e+004,-2.62481334194985e+001,-2.11385297688988e-001

1.26575659397028e+004,-2.62481362941881e+001,-2.14335625373097e-001

1.28342589756290e+004,-2.62481392495595e+001,-2.17327116845611e-001

1.30134185544193e+004,-2.62481422878731e+001,-2.20360345831901e-001

1.31950791077289e+004,-2.62481454114525e+001,-2.23435894027147e-001

1.33792755478611e+004,-2.62481486226863e+001,-2.26554351207594e-001

1.35660432744767e+004,-2.62481519240292e+001,-2.29716315341999e-001

1.37554181813974e+004,-2.62481553180052e+001,-2.32922392699863e-001

1.39474366635040e+004,-2.62481588072082e+001,-2.36173197972856e-001

1.41421356237309e+004,-2.62481623943045e+001,-2.39469354384854e-001

1.43395524801583e+004,-2.62481660820347e+001,-2.42811493812011e-001

1.45397251732031e+004,-2.62481698732160e+001,-2.46200256897565e-001

1.47426921729110e+004,-2.62481737707441e+001,-2.49636293177164e-001

1.49484924863494e+004,-2.62481777775951e+001,-2.53120261197942e-001

1.51571656651040e+004,-2.62481818968281e+001,-2.56652828642638e-001

1.53687518128801e+004,-2.62481861315877e+001,-2.60234672454056e-001

1.55832915932100e+004,-2.62481904851058e+001,-2.63866478961437e-001

1.58008262372675e+004,-2.62481949607040e+001,-2.67548944012571e-001

1.60213975517924e+004,-2.62481995617968e+001,-2.71282773098392e-001

1.62450479271247e+004,-2.62482042918936e+001,-2.75068681487120e-001

1.64718203453514e+004,-2.62482091546010e+001,-2.78907394360555e-001

1.67017583885674e+004,-2.62482141536261e+001,-2.82799646945436e-001

1.69349062472505e+004,-2.62482192927794e+001,-2.86746184650488e-001

1.71713087287550e+004,-2.62482245759765e+001,-2.90747763210062e-001

1.74110112659224e+004,-2.62482300072424e+001,-2.94805148817353e-001

1.76540599258131e+004,-2.62482355907137e+001,-2.98919118273119e-001

1.79005014185594e+004,-2.62482413306413e+001,-3.03090459128220e-001

1.81503831063432e+004,-2.62482472313950e+001,-3.07319969825492e-001

1.84037530124975e+004,-2.62482532974648e+001,-3.11608459855841e-001

1.86606598307361e+004,-2.62482595334657e+001,-3.15956749899698e-001

1.89211529345119e+004,-2.62482659441407e+001,-3.20365671984538e-001

1.91852823865052e+004,-2.62482725343637e+001,-3.24836069636864e-001

1.94530989482457e+004,-2.62482793091440e+001,-3.29368798036391e-001

1.97246540898671e+004,-2.62482862736292e+001,-3.33964724176692e-001

1.99999999999999e+004,-2.62482934331096e+001,-3.38624727021102e-001

2.02791895958005e+004,-2.62483007930216e+001,-3.43349697668221e-001

2.05622765331213e+004,-2.62483083589518e+001,-3.48140539512760e-001

2.08493152168224e+004,-2.62483161366414e+001,-3.52998168412726e-001

2.11403608112276e+004,-2.62483241319897e+001,-3.57923512856664e-001

2.14354692507258e+004,-2.62483323510593e+001,-3.62917514132962e-001

2.17346972505211e+004,-2.62483408000797e+001,-3.67981126503273e-001

2.20381023175322e+004,-2.62483494854521e+001,-3.73115317375598e-001

2.23457427614443e+004,-2.62483584137541e+001,-3.78321067481280e-001

2.26576777059159e+004,-2.62483675917448e+001,-3.83599371051519e-001

2.29739670999406e+004,-2.62483770263688e+001,-3.88951236000569e-001

2.32946717293690e+004,-2.62483867247617e+001,-3.94377684107817e-001

2.36198532285905e+004,-2.62483966942557e+001,-3.99879751200767e-001

2.39495740923785e+004,-2.62484069423842e+001,-4.05458487343931e-001

2.42838976879009e+004,-2.62484174768871e+001,-4.11114957029910e-001

2.46228882668982e+004,-2.62484283057170e+001,-4.16850239367629e-001

2.49666109780322e+004,-2.62484394370443e+001,-4.22665428278645e-001

2.53151318794055e+004,-2.62484508792634e+001,-4.28561632692888e-001

2.56685179512580e+004,-2.62484626409980e+001,-4.34539976749027e-001

2.60268371088386e+004,-2.62484747311084e+001,-4.40601599991194e-001

2.63901582154578e+004,-2.62484871586966e+001,-4.46747657576405e-001

2.67585510957221e+004,-2.62484999331130e+001,-4.52979320480011e-001

2.71320865489533e+004,-2.62485130639637e+001,-4.59297775700092e-001

2.75108363627948e+004,-2.62485265611162e+001,-4.65704226471744e-001

2.78948733270080e+004,-2.62485404347071e+001,-4.72199892478159e-001

2.82842712474618e+004,-2.62485546951484e+001,-4.78786010067942e-001

2.86791049603164e+004,-2.62485693531358e+001,-4.85463832468558e-001

2.90794503464061e+004,-2.62485844196551e+001,-4.92234630010846e-001

2.94853843458219e+004,-2.62485999059903e+001,-4.99099690350145e-001

2.98969849726987e+004,-2.62486158237315e+001,-5.06060318689098e-001

3.03143313302078e+004,-2.62486321847824e+001,-5.13117838009916e-001

3.07375036257601e+004,-2.62486490013689e+001,-5.20273589298896e-001

3.11665831864199e+004,-2.62486662860470e+001,-5.27528931784359e-001

3.16016524745350e+004,-2.62486840517121e+001,-5.34885243165917e-001

3.20427951035848e+004,-2.62487023116068e+001,-5.42343919857055e-001

3.24900958542493e+004,-2.62487210793305e+001,-5.49906377222454e-001

3.29436406907028e+004,-2.62487403688481e+001,-5.57574049820947e-001

3.34035167771346e+004,-2.62487601945000e+001,-5.65348391650271e-001

3.38698124945009e+004,-2.62487805710110e+001,-5.73230876395245e-001

3.43426174575100e+004,-2.62488015135005e+001,-5.81222997676894e-001

3.48220225318448e+004,-2.62488230374920e+001,-5.89326269307101e-001

3.53081198516260e+004,-2.62488451589243e+001,-5.97542225539801e-001

3.58010028371187e+004,-2.62488678941608e+001,-6.05872421332382e-001

3.63007662126863e+004,-2.62488912600010e+001,-6.14318432604825e-001

3.68075060249948e+004,-2.62489152736910e+001,-6.22881856500442e-001

3.73213196614721e+004,-2.62489399529349e+001,-6.31564311652352e-001

3.78423058690237e+004,-2.62489653159058e+001,-6.40367438452978e-001

3.83705647730104e+004,-2.62489913812580e+001,-6.49292899319515e-001

3.89061978964912e+004,-2.62490181681383e+001,-6.58342378971498e-001

3.94493081797342e+004,-2.62490456961985e+001,-6.67517584702128e-001

3.99999999999998e+004,-2.62490739856072e+001,-6.76820246657642e-001

4.05583791916010e+004,-2.62491030570633e+001,-6.86252118117174e-001

4.11245530662425e+004,-2.62491329318078e+001,-6.95814975774188e-001

4.16986304336447e+004,-2.62491636316379e+001,-7.05510620021980e-001

4.22807216224550e+004,-2.62491951789194e+001,-7.15340875240574e-001

4.28709385014515e+004,-2.62492275966010e+001,-7.25307590086718e-001

4.34693945010421e+004,-2.62492609082278e+001,-7.35412637784994e-001

4.40762046350642e+004,-2.62492951379556e+001,-7.45657916422720e-001

4.46914855228886e+004,-2.62493303105651e+001,-7.56045349245159e-001

4.53153554118317e+004,-2.62493664514764e+001,-7.66576884956730e-001

4.59479341998812e+004,-2.62494035867644e+001,-7.77254498019535e-001

4.65893434587380e+004,-2.62494417431734e+001,-7.88080188957838e-001

4.72397064571810e+004,-2.62494809481324e+001,-7.99055984663712e-001

4.78991481847569e+004,-2.62495212297712e+001,-8.10183938702860e-001

4.85677953758016e+004,-2.62495626169359e+001,-8.21466131627618e-001

4.92457765337964e+004,-2.62496051392053e+001,-8.32904671284156e-001

4.99332219560642e+004,-2.62496488269066e+001,-8.44501693131136e-001

5.06302637588109e+004,-2.62496937111329e+001,-8.56259360551357e-001

5.13370359025159e+004,-2.62497398237594e+001,-8.68179865172607e-001

5.20536742176771e+004,-2.62497871974605e+001,-8.80265427184442e-001

5.27803164309155e+004,-2.62498358657274e+001,-8.92518295662669e-001

5.35171021914442e+004,-2.62498858628850e+001,-9.04940748890119e-001

5.42641730979066e+004,-2.62499372241101e+001,-9.17535094684007e-001

5.50216727255895e+004,-2.62499899854493e+001,-9.30303670720627e-001

5.57897466540159e+004,-2.62500441838365e+001,-9.43248844865083e-001

5.65685424949235e+004,-2.62500998571119e+001,-9.56373015501436e-001

5.73582099206328e+004,-2.62501570440398e+001,-9.69678611864218e-001

5.81589006928121e+004,-2.62502157843275e+001,-9.83168094371264e-001

5.89707686916437e+004,-2.62502761186442e+001,-9.96843954958312e-001

5.97939699453972e+004,-2.62503380886394e+001,-1.01070871741617e+000

6.06286626604156e+004,-2.62504017369621e+001,-1.02476493772771e+000

6.14750072515201e+004,-2.62504671072800e+001,-1.03901520440586e+000

6.23331663728396e+004,-2.62505342442985e+001,-1.05346213883408e+000

6.32033049490698e+004,-2.62506031937801e+001,-1.06810839560820e+000

6.40855902071694e+004,-2.62506740025634e+001,-1.08295666287730e+000

6.49801917084985e+004,-2.62507467185825e+001,-1.09800966268923e+000

6.58872813814055e+004,-2.62508213908864e+001,-1.11327015133352e+000

6.68070335542691e+004,-2.62508980696584e+001,-1.12874091968689e+000

6.77396249890018e+004,-2.62509768062349e+001,-1.14442479356075e+000

6.86852349150199e+004,-2.62510576531248e+001,-1.16032463404790e+000

6.96440450636895e+004,-2.62511406640287e+001,-1.17644333787077e+000

7.06162397032520e+004,-2.62512258938575e+001,-1.19278383773061e+000

7.16020056742374e+004,-2.62513133987513e+001,-1.20934910265828e+000

7.26015324253724e+004,-2.62514032360979e+001,-1.22614213836334e+000

7.36150120499896e+004,-2.62514954645511e+001,-1.24316598758654e+000

7.46426393229441e+004,-2.62515901440488e+001,-1.26042373045300e+000

7.56846117380472e+004,-2.62516873358306e+001,-1.27791848482319e+000

7.67411295460207e+004,-2.62517871024551e+001,-1.29565340664864e+000

7.78123957929823e+004,-2.62518895078170e+001,-1.31363169032530e+000

7.88986163594682e+004,-2.62519946171636e+001,-1.33185656904961e+000

7.99999999999995e+004,-2.62521024971106e+001,-1.35033131517444e+000

8.11167583832018e+004,-2.62522132156576e+001,-1.36905924056646e+000

8.22491061324848e+004,-2.62523268422031e+001,-1.38804369696470e+000

8.33972608672892e+004,-2.62524434475585e+001,-1.40728807633851e+000

8.45614432449099e+004,-2.62525631039618e+001,-1.42679581124806e+000

8.57418770029029e+004,-2.62526858850900e+001,-1.44657037520693e+000

8.69387890020841e+004,-2.62528118660711e+001,-1.46661528304299e+000

8.81524092701283e+004,-2.62529411234954e+001,-1.48693409126439e+000

8.93829710457770e+004,-2.62530737354247e+001,-1.50753039842456e+000

9.06307108236633e+004,-2.62532097814023e+001,-1.52840784548943e+000

9.18958683997622e+004,-2.62533493424598e+001,-1.54957011620815e+000

9.31786869174758e+004,-2.62534925011248e+001,-1.57102093748422e+000

9.44794129143618e+004,-2.62536393414255e+001,-1.59276407975049e+000

9.57982963695136e+004,-2.62537899488953e+001,-1.61480335734631e+000

9.71355907516031e+004,-2.62539444105753e+001,-1.63714262889737e+000

9.84915530675926e+004,-2.62541028150156e+001,-1.65978579770041e+000

9.98664439121282e+004,-2.62542652522749e+001,-1.68273681211015e+000

1.01260527517622e+005,-2.62544318139187e+001,-1.70599966593111e+000

1.02674071805032e+005,-2.62546025930150e+001,-1.72957839881571e+000

1.04107348435354e+005,-2.62547776841296e+001,-1.75347709666382e+000

1.05560632861831e+005,-2.62549571833176e+001,-1.77769989203271e+000

1.07034204382888e+005,-2.62551411881150e+001,-1.80225096454875e+000

1.08528346195813e+005,-2.62553297975264e+001,-1.82713454133013e+000

1.10043345451179e+005,-2.62555231120115e+001,-1.85235489741421e+000

1.11579493308032e+005,-2.62557212334693e+001,-1.87791635619409e+000

1.13137084989847e+005,-2.62559242652195e+001,-1.90382328986598e+000

1.14716419841265e+005,-2.62561323119822e+001,-1.93008011988292e+000

1.16317801385624e+005,-2.62563454798540e+001,-1.95669131742288e+000

1.17941537383287e+005,-2.62565638762828e+001,-1.98366140386623e+000

1.19587939890794e+005,-2.62567876100390e+001,-2.01099495128663e+000

1.21257325320831e+005,-2.62570167911840e+001,-2.03869658295713e+000

1.22950014503040e+005,-2.62572515310367e+001,-2.06677097386753e+000

1.24666332745679e+005,-2.62574919421360e+001,-2.09522285126193e+000

1.26406609898139e+005,-2.62577381382012e+001,-2.12405699518982e+000

1.28171180414339e+005,-2.62579902340886e+001,-2.15327823907936e+000

1.29960383416997e+005,-2.62582483457460e+001,-2.18289147032749e+000

1.31774562762811e+005,-2.62585125901633e+001,-2.21290163091273e+000

1.33614067108538e+005,-2.62587830853202e+001,-2.24331371803060e+000

1.35479249978003e+005,-2.62590599501307e+001,-2.27413278475388e+000

1.37370469830040e+005,-2.62593433043847e+001,-2.30536394071838e+000

1.39288090127379e+005,-2.62596332686854e+001,-2.33701235283629e+000

1.41232479406504e+005,-2.62599299643851e+001,-2.36908324603878e+000

1.43204011348474e+005,-2.62602335135161e+001,-2.40158190405097e+000

1.45203064850745e+005,-2.62605440387193e+001,-2.43451367019897e+000

1.47230024099979e+005,-2.62608616631701e+001,-2.46788394825174e+000

1.49285278645888e+005,-2.62611865104997e+001,-2.50169820330075e+000

1.51369223476094e+005,-2.62615187047150e+001,-2.53596196267822e+000

1.53482259092041e+005,-2.62618583701146e+001,-2.57068081691624e+000

1.55624791585964e+005,-2.62622056312020e+001,-2.60586042075057e+000

1.57797232718936e+005,-2.62625606125967e+001,-2.64150649416618e+000

1.59999999999999e+005,-2.62629234389415e+001,-2.67762482349573e+000

1.62233516766403e+005,-2.62632942348092e+001,-2.71422126256183e+000

1.64498212264969e+005,-2.62636731246051e+001,-2.75130173387672e+000

1.66794521734578e+005,-2.62640602324686e+001,-2.78887222989184e+000

1.69122886489819e+005,-2.62644556821730e+001,-2.82693881430629e+000

1.71483754005805e+005,-2.62648595970228e+001,-2.86550762343376e+000

1.73877578004168e+005,-2.62652720997511e+001,-2.90458486762853e+000

1.76304818540256e+005,-2.62656933124145e+001,-2.94417683277745e+000

1.78765942091554e+005,-2.62661233562887e+001,-2.98428988185367e+000

1.81261421647326e+005,-2.62665623517625e+001,-3.02493045654121e+000

1.83791736799524e+005,-2.62670104182329e+001,-3.06610507892523e+000

1.86357373834951e+005,-2.62674676740001e+001,-3.10782035325749e+000

1.88958825828723e+005,-2.62679342361634e+001,-3.15008296779071e+000

1.91596592739027e+005,-2.62684102205186e+001,-3.19289969669175e+000

1.94271181503206e+005,-2.62688957414567e+001,-3.23627740202918e+000

1.96983106135185e+005,-2.62693909118663e+001,-3.28022303583811e+000

1.99732887824256e+005,-2.62698958430368e+001,-3.32474364226758e+000

2.02521055035243e+005,-2.62704106445668e+001,-3.36984635980567e+000

2.05348143610063e+005,-2.62709354242756e+001,-3.41553842358825e+000

2.08214696870707e+005,-2.62714702881194e+001,-3.46182716778792e+000

2.11121265723661e+005,-2.62720153401126e+001,-3.50872002809027e+000

2.14068408765776e+005,-2.62725706822557e+001,-3.55622454424877e+000

2.17056692391625e+005,-2.62731364144687e+001,-3.60434836272806e+000

2.20086690902357e+005,-2.62737126345322e+001,-3.65309923942782e+000

2.23158986616063e+005,-2.62742994380365e+001,-3.70248504249186e+000

2.26274169979693e+005,-2.62748969183391e+001,-3.75251375519954e+000

2.29432839682530e+005,-2.62755051665314e+001,-3.80319347893929e+000

2.32635602771247e+005,-2.62761242714157e+001,-3.85453243626361e+000

2.35883074766574e+005,-2.62767543194927e+001,-3.90653897402203e+000

2.39175879781588e+005,-2.62773953949603e+001,-3.95922156657373e+000

2.42514650641661e+005,-2.62780475797255e+001,-4.01258881907326e+000

2.45900029006080e+005,-2.62787109534275e+001,-4.06664947083286e+000

2.49332665491357e+005,-2.62793855934760e+001,-4.12141239875134e+000

2.52813219796278e+005,-2.62800715751031e+001,-4.17688662081269e+000

2.56342360828676e+005,-2.62807689714295e+001,-4.23308129964908e+000

2.59920766833993e+005,-2.62814778535474e+001,-4.29000574616216e+000

2.63549125525621e+005,-2.62821982906188e+001,-4.34766942320171e+000

2.67228134217075e+005,-2.62829303499907e+001,-4.40608194929688e+000

2.70958499956006e+005,-2.62836740973280e+001,-4.46525310243357e+000

2.74740939660078e+005,-2.62844295967630e+001,-4.52519282387502e+000

2.78576180254757e+005,-2.62851969110649e+001,-4.58591122201923e+000

2.82464958813007e+005,-2.62859761018267e+001,-4.64741857628786e+000

2.86408022696948e+005,-2.62867672296713e+001,-4.70972534104329e+000

2.90406129701488e+005,-2.62875703544778e+001,-4.77284214952266e+000

2.94460048199957e+005,-2.62883855356262e+001,-4.83677981778918e+000

2.98570557291775e+005,-2.62892128322632e+001,-4.90154934869039e+000

3.02738446952187e+005,-2.62900523035867e+001,-4.96716193581792e+000

3.06964518184081e+005,-2.62909040091517e+001,-5.03362896746256e+000

3.11249583171928e+005,-2.62917680091950e+001,-5.10096203055929e+000

3.15594465437872e+005,-2.62926443649809e+001,-5.16917291461318e+000

3.19999999999997e+005,-2.62935331391662e+001,-5.23827361560195e+000

3.24467033532806e+005,-2.62944343961851e+001,-5.30827633984810e+000

3.28996424529938e+005,-2.62953482026533e+001,-5.37919350785295e+000

3.33589043469155e+005,-2.62962746277921e+001,-5.45103775808869e+000

3.38245772979638e+005,-2.62972137438698e+001,-5.52382195073949e+000

3.42967508011610e+005,-2.62981656266626e+001,-5.59755917138858e+000

3.47755156008335e+005,-2.62991303559326e+001,-5.67226273464349e+000

3.52609637080511e+005,-2.63001080159231e+001,-5.74794618769455e+000

3.57531884183106e+005,-2.63010986958707e+001,-5.82462331380162e+000

3.62522843294651e+005,-2.63021024905327e+001,-5.90230813570492e+000

3.67583473599047e+005,-2.63031195007301e+001,-5.98101491895340e+000

3.72714747669902e+005,-2.63041498339044e+001,-6.06075817514904e+000

3.77917651657445e+005,-2.63051936046885e+001,-6.14155266510123e+000

3.83193185478053e+005,-2.63062509354897e+001,-6.22341340188930e+000

3.88542363006410e+005,-2.63073219570845e+001,-6.30635565383031e+000

3.93966212270369e+005,-2.63084068092243e+001,-6.39039494734858e+000

3.99465775648511e+005,-2.63095056412508e+001,-6.47554706974603e+000

4.05042110070485e+005,-2.63106186127205e+001,-6.56182807187204e+000

4.10696287220124e+005,-2.63117458940371e+001,-6.64925427069189e+000

4.16429393741414e+005,-2.63128876670905e+001,-6.73784225175208e+000

4.22242531447321e+005,-2.63140441259022e+001,-6.82760887154492e+000

4.28136817531551e+005,-2.63152154772757e+001,-6.91857125977103e+000

4.34113384783250e+005,-2.63164019414510e+001,-7.01074682150190e+000

4.40173381804713e+005,-2.63176037527626e+001,-7.10415323924294e+000

4.46317973232124e+005,-2.63188211602993e+001,-7.19880847490135e+000

4.52548339959385e+005,-2.63200544285660e+001,-7.29473077165781e+000

4.58865679365059e+005,-2.63213038381464e+001,-7.39193865574851e+000

4.65271205542494e+005,-2.63225696863656e+001,-7.49045093815827e+000

4.71766149533147e+005,-2.63238522879514e+001,-7.59028671622842e+000

4.78351759563174e+005,-2.63251519756958e+001,-7.69146537518575e+000

4.85029301283321e+005,-2.63264691011130e+001,-7.79400658959374e+000

4.91800058012158e+005,-2.63278040350960e+001,-7.89793032473253e+000

4.98665330982714e+005,-2.63291571685706e+001,-8.00325683791168e+000

5.05626439592555e+005,-2.63305289131450e+001,-8.11000667972165e+000

5.12684721657352e+005,-2.63319197017576e+001,-8.21820069522648e+000

5.19841533667984e+005,-2.63333299893197e+001,-8.32786002510658e+000

5.27098251051240e+005,-2.63347602533549e+001,-8.43900610675354e+000

5.34456268434150e+005,-2.63362109946349e+001,-8.55166067532451e+000

5.41916999912011e+005,-2.63376827378107e+001,-8.66584576476010e+000

