Freq.,VOut,OutRef

1.00000000000000e+004,-2.32824787302709e+001,-5.30814985393386e-001

1.01395947979003e+004,-2.32824844358251e+001,-5.38224398985243e-001

1.02811382665607e+004,-2.32824903016900e+001,-5.45737223451608e-001

1.04246576084112e+004,-2.32824963323670e+001,-5.53354901477281e-001

1.05701804056138e+004,-2.32825025324842e+001,-5.61078895848191e-001

1.07177346253629e+004,-2.32825089067989e+001,-5.68910689733124e-001

1.08673486252606e+004,-2.32825154602024e+001,-5.76851786962620e-001

1.10190511587661e+004,-2.32825221977226e+001,-5.84903712319947e-001

1.11728713807222e+004,-2.32825291245289e+001,-5.93068011827495e-001

1.13288388529580e+004,-2.32825362459351e+001,-6.01346253045308e-001

1.14869835499703e+004,-2.32825435674046e+001,-6.09740025367037e-001

1.16473358646846e+004,-2.32825510945532e+001,-6.18250940324529e-001

1.18099266142953e+004,-2.32825588331547e+001,-6.26880631893614e-001

1.19747870461893e+004,-2.32825667891444e+001,-6.35630756805792e-001

1.21419488439505e+004,-2.32825749686241e+001,-6.44502994862914e-001

1.23114441334492e+004,-2.32825833778665e+001,-6.53499049257876e-001

1.24833054890161e+004,-2.32825920233201e+001,-6.62620646898294e-001

1.26575659397028e+004,-2.32826009116140e+001,-6.71869538734213e-001

1.28342589756290e+004,-2.32826100495631e+001,-6.81247500092156e-001

1.30134185544193e+004,-2.32826194441731e+001,-6.90756331011962e-001

1.31950791077289e+004,-2.32826291026459e+001,-7.00397856588845e-001

1.33792755478611e+004,-2.32826390323853e+001,-7.10173927320525e-001

1.35660432744767e+004,-2.32826492410021e+001,-7.20086419458398e-001

1.37554181813974e+004,-2.32826597363204e+001,-7.30137235363484e-001

1.39474366635040e+004,-2.32826705263835e+001,-7.40328303867398e-001

1.41421356237309e+004,-2.32826816194593e+001,-7.50661580639946e-001

1.43395524801583e+004,-2.32826930240477e+001,-7.61139048556972e-001

1.45397251732031e+004,-2.32827047488863e+001,-7.71762718078739e-001

1.47426921729110e+004,-2.32827168029569e+001,-7.82534627630671e-001

1.49484924863494e+004,-2.32827291954929e+001,-7.93456843988336e-001

1.51571656651040e+004,-2.32827419359861e+001,-8.04531462668815e-001

1.53687518128801e+004,-2.32827550341934e+001,-8.15760608329533e-001

1.55832915932100e+004,-2.32827685001449e+001,-8.27146435167202e-001

1.58008262372675e+004,-2.32827823441510e+001,-8.38691127327068e-001

1.60213975517924e+004,-2.32827965768105e+001,-8.50396899316015e-001

1.62450479271247e+004,-2.32828112090182e+001,-8.62265996419664e-001

1.64718203453514e+004,-2.32828262519738e+001,-8.74300695127119e-001

1.67017583885674e+004,-2.32828417171896e+001,-8.86503303560552e-001

1.69349062472505e+004,-2.32828576164998e+001,-8.98876161911466e-001

1.71713087287550e+004,-2.32828739620691e+001,-9.11421642879594e-001

1.74110112659224e+004,-2.32828907664019e+001,-9.24142152123679e-001

1.76540599258131e+004,-2.32829080423519e+001,-9.37040128711603e-001

1.79005014185594e+004,-2.32829258031316e+001,-9.50118045580278e-001

1.81503831063432e+004,-2.32829440623224e+001,-9.63378410002313e-001

1.84037530124975e+004,-2.32829628338847e+001,-9.76823764055325e-001

1.86606598307361e+004,-2.32829821321682e+001,-9.90456685102067e-001

1.89211529345119e+004,-2.32830019719234e+001,-1.00427978627202e+000

1.91852823865052e+004,-2.32830223683118e+001,-1.01829571695365e+000

1.94530989482457e+004,-2.32830433369179e+001,-1.03250716329070e+000

1.97246540898671e+004,-2.32830648937605e+001,-1.04691684868539e+000

1.99999999999999e+004,-2.32830870553049e+001,-1.06152753430958e+000

2.02791895958005e+004,-2.32831098384754e+001,-1.07634201961978e+000

2.05622765331213e+004,-2.32831332606677e+001,-1.09136314288284e+000

2.08493152168224e+004,-2.32831573397618e+001,-1.10659378170483e+000

2.11403608112276e+004,-2.32831820941357e+001,-1.12203685356935e+000

2.14354692507258e+004,-2.32832075426790e+001,-1.13769531638196e+000

2.17346972505211e+004,-2.32832337048070e+001,-1.15357216902043e+000

2.20381023175322e+004,-2.32832606004750e+001,-1.16967045189508e+000

2.23457427614443e+004,-2.32832882501933e+001,-1.18599324751448e+000

2.26576777059159e+004,-2.32833166750427e+001,-1.20254368105701e+000

2.29739670999406e+004,-2.32833458966897e+001,-1.21932492095347e+000

2.32946717293690e+004,-2.32833759374029e+001,-1.23634017947501e+000

2.36198532285905e+004,-2.32834068200695e+001,-1.25359271332765e+000

2.39495740923785e+004,-2.32834385682123e+001,-1.27108582425647e+000

2.42838976879009e+004,-2.32834712060070e+001,-1.28882285965686e+000

2.46228882668982e+004,-2.32835047583000e+001,-1.30680721319322e+000

2.49666109780322e+004,-2.32835392506272e+001,-1.32504232542519e+000

2.53151318794055e+004,-2.32835747092321e+001,-1.34353168444401e+000

2.56685179512580e+004,-2.32836111610861e+001,-1.36227882651336e+000

2.60268371088386e+004,-2.32836486339076e+001,-1.38128733672175e+000

2.63901582154578e+004,-2.32836871561826e+001,-1.40056084964043e+000

2.67585510957221e+004,-2.32837267571860e+001,-1.42010304999196e+000

2.71320865489533e+004,-2.32837674670024e+001,-1.43991767332575e+000

2.75108363627948e+004,-2.32838093165488e+001,-1.46000850670150e+000

2.78948733270080e+004,-2.32838523375968e+001,-1.48037938938265e+000

2.82842712474618e+004,-2.32838965627959e+001,-1.50103421353781e+000

2.86791049603164e+004,-2.32839420256977e+001,-1.52197692495054e+000

2.90794503464061e+004,-2.32839887607795e+001,-1.54321152373812e+000

2.94853843458219e+004,-2.32840368034706e+001,-1.56474206507889e+000

2.98969849726987e+004,-2.32840861901768e+001,-1.58657265994989e+000

3.03143313302078e+004,-2.32841369583077e+001,-1.60870747587042e+000

3.07375036257601e+004,-2.32841891463033e+001,-1.63115073765915e+000

3.11665831864199e+004,-2.32842427936620e+001,-1.65390672819542e+000

3.16016524745350e+004,-2.32842979409692e+001,-1.67697978919367e+000

3.20427951035848e+004,-2.32843546299261e+001,-1.70037432198496e+000

3.24900958542493e+004,-2.32844129033802e+001,-1.72409478830917e+000

3.29436406907028e+004,-2.32844728053558e+001,-1.74814571111491e+000

3.34035167771346e+004,-2.32845343810856e+001,-1.77253167537090e+000

3.38698124945009e+004,-2.32845976770429e+001,-1.79725732888565e+000

3.43426174575100e+004,-2.32846627409752e+001,-1.82232738313719e+000

3.48220225318448e+004,-2.32847296219374e+001,-1.84774661411264e+000

3.53081198516260e+004,-2.32847983703273e+001,-1.87351986315681e+000

3.58010028371187e+004,-2.32848690379215e+001,-1.89965203783087e+000

3.63007662126863e+004,-2.32849416779111e+001,-1.92614811278241e+000

3.68075060249948e+004,-2.32850163449402e+001,-1.95301313062308e+000

3.73213196614721e+004,-2.32850930951438e+001,-1.98025220281774e+000

3.78423058690237e+004,-2.32851719861874e+001,-2.00787051058343e+000

3.83705647730104e+004,-2.32852530773076e+001,-2.03587330579680e+000

3.89061978964912e+004,-2.32853364293528e+001,-2.06426591191612e+000

3.94493081797342e+004,-2.32854221048264e+001,-2.09305372490729e+000

3.99999999999998e+004,-2.32855101679297e+001,-2.12224221418596e+000

4.05583791916010e+004,-2.32856006846069e+001,-2.15183692356526e+000

4.11245530662425e+004,-2.32856937225897e+001,-2.18184347221797e+000

4.16986304336447e+004,-2.32857893514450e+001,-2.21226755564515e+000

4.22807216224550e+004,-2.32858876426222e+001,-2.24311494665864e+000

4.28709385014515e+004,-2.32859886695019e+001,-2.27439149637153e+000

4.34693945010421e+004,-2.32860925074462e+001,-2.30610313520083e+000

4.40762046350642e+004,-2.32861992338502e+001,-2.33825587387857e+000

4.46914855228886e+004,-2.32863089281938e+001,-2.37085580447693e+000

4.53153554118317e+004,-2.32864216720959e+001,-2.40390910143996e+000

4.59479341998812e+004,-2.32865375493690e+001,-2.43742202262852e+000

4.65893434587380e+004,-2.32866566460756e+001,-2.47140091037448e+000

4.72397064571810e+004,-2.32867790505855e+001,-2.50585219254720e+000

4.78991481847569e+004,-2.32869048536346e+001,-2.54078238362866e+000

4.85677953758016e+004,-2.32870341483850e+001,-2.57619808580018e+000

4.92457765337964e+004,-2.32871670304863e+001,-2.61210599004040e+000

4.99332219560642e+004,-2.32873035981388e+001,-2.64851287723239e+000

5.06302637588109e+004,-2.32874439521573e+001,-2.68542561928281e+000

5.13370359025159e+004,-2.32875881960368e+001,-2.72285118025165e+000

5.20536742176771e+004,-2.32877364360199e+001,-2.76079661749092e+000

5.27803164309155e+004,-2.32878887811646e+001,-2.79926908279666e+000

5.35171021914442e+004,-2.32880453434149e+001,-2.83827582356881e+000

5.42641730979066e+004,-2.32882062376721e+001,-2.87782418398412e+000

5.50216727255895e+004,-2.32883715818674e+001,-2.91792160617797e+000

5.57897466540159e+004,-2.32885414970370e+001,-2.95857563143726e+000

5.65685424949235e+004,-2.32887161073975e+001,-2.99979390140407e+000

5.73582099206328e+004,-2.32888955404239e+001,-3.04158415928989e+000

5.81589006928121e+004,-2.32890799269288e+001,-3.08395425109944e+000

5.89707686916437e+004,-2.32892694011427e+001,-3.12691212686597e+000

5.97939699453972e+004,-2.32894641007968e+001,-3.17046584189649e+000

6.06286626604156e+004,-2.32896641672069e+001,-3.21462355802772e+000

6.14750072515201e+004,-2.32898697453588e+001,-3.25939354489196e+000

6.23331663728396e+004,-2.32900809839958e+001,-3.30478418119277e+000

6.32033049490698e+004,-2.32902980357072e+001,-3.35080395599227e+000

6.40855902071694e+004,-2.32905210570195e+001,-3.39746147000789e+000

6.49801917084985e+004,-2.32907502084881e+001,-3.44476543691858e+000

6.58872813814055e+004,-2.32909856547913e+001,-3.49272468468249e+000

6.68070335542691e+004,-2.32912275648262e+001,-3.54134815686391e+000

6.77396249890018e+004,-2.32914761118056e+001,-3.59064491397027e+000

6.86852349150199e+004,-2.32917314733572e+001,-3.64062413479899e+000

6.96440450636895e+004,-2.32919938316243e+001,-3.69129511779540e+000

7.06162397032520e+004,-2.32922633733678e+001,-3.74266728241895e+000

7.16020056742374e+004,-2.32925402900709e+001,-3.79475017052017e+000

7.26015324253724e+004,-2.32928247780445e+001,-3.84755344772760e+000

7.36150120499896e+004,-2.32931170385343e+001,-3.90108690484462e+000

7.46426393229441e+004,-2.32934172778304e+001,-3.95536045925526e+000

7.56846117380472e+004,-2.32937257073781e+001,-4.01038415634071e+000

7.67411295460207e+004,-2.32940425438898e+001,-4.06616817090558e+000

7.78123957929823e+004,-2.32943680094599e+001,-4.12272280861319e+000

7.88986163594682e+004,-2.32947023316796e+001,-4.18005850743187e+000

7.99999999999995e+004,-2.32950457437550e+001,-4.23818583908987e+000

8.11167583832018e+004,-2.32953984846257e+001,-4.29711551054130e+000

8.22491061324848e+004,-2.32957607990853e+001,-4.35685836544148e+000

8.33972608672892e+004,-2.32961329379034e+001,-4.41742538563251e+000

8.45614432449099e+004,-2.32965151579497e+001,-4.47882769263851e+000

8.57418770029029e+004,-2.32969077223184e+001,-4.54107654917171e+000

8.69387890020841e+004,-2.32973109004553e+001,-4.60418336064893e+000

8.81524092701283e+004,-2.32977249682855e+001,-4.66815967671817e+000

8.93829710457770e+004,-2.32981502083433e+001,-4.73301719279605e+000

9.06307108236633e+004,-2.32985869099027e+001,-4.79876775161609e+000

9.18958683997622e+004,-2.32990353691094e+001,-4.86542334478842e+000

9.31786869174758e+004,-2.32994958891149e+001,-4.93299611437100e+000

9.44794129143618e+004,-2.32999687802110e+001,-5.00149835445168e+000

9.57982963695136e+004,-2.33004543599654e+001,-5.07094251274321e+000

9.71355907516031e+004,-2.33009529533597e+001,-5.14134119219037e+000

9.84915530675926e+004,-2.33014648929272e+001,-5.21270715258964e+000

9.98664439121282e+004,-2.33019905188925e+001,-5.28505331222227e+000

1.01260527517622e+005,-2.33025301793123e+001,-5.35839274950125e+000

1.02674071805032e+005,-2.33030842302166e+001,-5.43273870463253e+000

1.04107348435354e+005,-2.33036530357518e+001,-5.50810458129066e+000

1.05560632861831e+005,-2.33042369683238e+001,-5.58450394831050e+000

1.07034204382888e+005,-2.33048364087424e+001,-5.66195054139474e+000

1.08528346195813e+005,-2.33054517463673e+001,-5.74045826483854e+000

1.10043345451179e+005,-2.33060833792533e+001,-5.82004119327178e+000

1.11579493308032e+005,-2.33067317142983e+001,-5.90071357341987e+000

1.13137084989847e+005,-2.33073971673901e+001,-5.98248982588427e+000

1.14716419841265e+005,-2.33080801635556e+001,-6.06538454694346e+000

1.16317801385624e+005,-2.33087811371099e+001,-6.14941251037503e+000

1.17941537383287e+005,-2.33095005318060e+001,-6.23458866930177e+000

1.19587939890794e+005,-2.33102388009858e+001,-6.32092815805985e+000

1.21257325320831e+005,-2.33109964077314e+001,-6.40844629409343e+000

1.22950014503040e+005,-2.33117738250173e+001,-6.49715857987572e+000

1.24666332745679e+005,-2.33125715358630e+001,-6.58708070485729e+000

1.26406609898139e+005,-2.33133900334869e+001,-6.67822854744453e+000

1.28171180414339e+005,-2.33142298214607e+001,-6.77061817700815e+000

1.29960383416997e+005,-2.33150914138646e+001,-6.86426585592602e+000

1.31774562762811e+005,-2.33159753354433e+001,-6.95918804165836e+000

1.33614067108538e+005,-2.33168821217636e+001,-7.05540138886024e+000

1.35479249978003e+005,-2.33178123193722e+001,-7.15292275153170e+000

1.37370469830040e+005,-2.33187664859556e+001,-7.25176918520812e+000

1.39288090127379e+005,-2.33197451905005e+001,-7.35195794919193e+000

1.41232479406504e+005,-2.33207490134560e+001,-7.45350650882934e+000

1.43204011348474e+005,-2.33217785468980e+001,-7.55643253783120e+000

1.45203064850745e+005,-2.33228343946944e+001,-7.66075392064444e+000

1.47230024099979e+005,-2.33239171726732e+001,-7.76648875487233e+000

1.49285278645888e+005,-2.33250275087921e+001,-7.87365535374848e+000

1.51369223476094e+005,-2.33261660433119e+001,-7.98227224866512e+000

1.53482259092041e+005,-2.33273334289714e+001,-8.09235819175887e+000

1.55624791585964e+005,-2.33285303311662e+001,-8.20393215855715e+000

1.57797232718936e+005,-2.33297574281313e+001,-8.31701335068509e+000

1.59999999999999e+005,-2.33310154111267e+001,-8.43162119863829e+000

1.62233516766403e+005,-2.33323049846290e+001,-8.54777536462108e+000

1.64498212264969e+005,-2.33336268665257e+001,-8.66549574545512e+000

1.66794521734578e+005,-2.33349817883169e+001,-8.78480247555738e+000

1.69122886489819e+005,-2.33363704953217e+001,-8.90571592999396e+000

1.71483754005805e+005,-2.33377937468914e+001,-9.02825672760773e+000

1.73877578004168e+005,-2.33392523166299e+001,-9.15244573422328e+000

1.76304818540256e+005,-2.33407469926216e+001,-9.27830406593385e+000

1.78765942091554e+005,-2.33422785776682e+001,-9.40585309246620e+000

1.81261421647326e+005,-2.33438478895344e+001,-9.53511444063064e+000

1.83791736799524e+005,-2.33454557612034e+001,-9.66610999785493e+000

1.86357373834951e+005,-2.33471030411439e+001,-9.79886191580273e+000

1.88958825828723e+005,-2.33487905935882e+001,-9.93339261408014e+000

1.91596592739027e+005,-2.33505192988235e+001,-1.00697247840282e+001

1.94271181503206e+005,-2.33522900534959e+001,-1.02078813926037e+001

1.96983106135185e+005,-2.33541037709301e+001,-1.03478856863482e+001

1.99732887824256e+005,-2.33559613814639e+001,-1.04897611954442e+001

2.02521055035243e+005,-2.33578638328000e+001,-1.06335317378589e+001

2.05348143610063e+005,-2.33598120903750e+001,-1.07792214235747e+001

2.08214696870707e+005,-2.33618071377478e+001,-1.09268546589039e+001

2.11121265723661e+005,-2.33638499770082e+001,-1.10764561508878e+001

2.14068408765776e+005,-2.33659416292066e+001,-1.12280509117757e+001

2.17056692391625e+005,-2.33680831348063e+001,-1.13816642635832e+001

2.20086690902357e+005,-2.33702755541597e+001,-1.15373218427257e+001

2.23158986616063e+005,-2.33725199680095e+001,-1.16950496047225e+001

2.26274169979693e+005,-2.33748174780164e+001,-1.18548738289687e+001

2.29432839682530e+005,-2.33771692073144e+001,-1.20168211235692e+001

2.32635602771247e+005,-2.33795763010949e+001,-1.21809184302288e+001

2.35883074766574e+005,-2.33820399272210e+001,-1.23471930291939e+001

2.39175879781588e+005,-2.33845612768735e+001,-1.25156725442366e+001

2.42514650641661e+005,-2.33871415652293e+001,-1.26863849476764e+001

2.45900029006080e+005,-2.33897820321739e+001,-1.28593585654295e+001

2.49332665491357e+005,-2.33924839430493e+001,-1.30346220820766e+001

2.52813219796278e+005,-2.33952485894375e+001,-1.32122045459435e+001

2.56342360828676e+005,-2.33980772899824e+001,-1.33921353741784e+001

2.59920766833993e+005,-2.34009713912489e+001,-1.35744443578204e+001

2.63549125525621e+005,-2.34039322686230e+001,-1.37591616668451e+001

2.67228134217075e+005,-2.34069613272512e+001,-1.39463178551760e+001

2.70958499956006e+005,-2.34100600030211e+001,-1.41359438656486e+001

2.74740939660078e+005,-2.34132297635853e+001,-1.43280710349141e+001

2.78576180254757e+005,-2.34164721094262e+001,-1.45227310982691e+001

2.82464958813007e+005,-2.34197885749661e+001,-1.47199561943952e+001

2.86408022696948e+005,-2.34231807297195e+001,-1.49197788699966e+001

2.90406129701488e+005,-2.34266501794901e+001,-1.51222320843169e+001

2.94460048199957e+005,-2.34301985676129e+001,-1.53273492135196e+001

2.98570557291775e+005,-2.34338275762398e+001,-1.55351640549188e+001

3.02738446952187e+005,-2.34375389276706e+001,-1.57457108310395e+001

3.06964518184081e+005,-2.34413343857276e+001,-1.59590241934923e+001

3.11249583171928e+005,-2.34452157571753e+001,-1.61751392266450e+001

3.15594465437872e+005,-2.34491848931831e+001,-1.63940914510723e+001

3.19999999999997e+005,-2.34532436908312e+001,-1.66159168267685e+001

3.24467033532806e+005,-2.34573940946592e+001,-1.68406517561015e+001

3.28996424529938e+005,-2.34616380982565e+001,-1.70683330864933e+001

3.33589043469155e+005,-2.34659777458920e+001,-1.72989981128073e+001

3.38245772979638e+005,-2.34704151341845e+001,-1.75326845794255e+001

3.42967508011610e+005,-2.34749524138106e+001,-1.77694306819973e+001

3.47755156008335e+005,-2.34795917912484e+001,-1.80092750688428e+001

3.52609637080511e+005,-2.34843355305572e+001,-1.82522568419926e+001

3.57531884183106e+005,-2.34891859551893e+001,-1.84984155578484e+001

3.62522843294651e+005,-2.34941454498333e+001,-1.87477912274473e+001

3.67583473599047e+005,-2.34992164622861e+001,-1.90004243163125e+001

3.72714747669902e+005,-2.35044015053519e+001,-1.92563557438777e+001

3.77917651657445e+005,-2.35097031587654e+001,-1.95156268824669e+001

3.83193185478053e+005,-2.35151240711368e+001,-1.97782795558176e+001

3.88542363006410e+005,-2.35206669619163e+001,-2.00443560371323e+001

3.93966212270369e+005,-2.35263346233746e+001,-2.03138990466458e+001

3.99465775648511e+005,-2.35321299225970e+001,-2.05869517486950e+001

4.05042110070485e+005,-2.35380558034891e+001,-2.08635577482818e+001

4.10696287220124e+005,-2.35441152887886e+001,-2.11437610871143e+001

4.16429393741414e+005,-2.35503114820823e+001,-2.14276062391209e+001

4.22242531447321e+005,-2.35566475698244e+001,-2.17151381054238e+001

4.28136817531551e+005,-2.35631268233521e+001,-2.20064020087666e+001

4.34113384783250e+005,-2.35697526008958e+001,-2.23014436873868e+001

4.40173381804713e+005,-2.35765283495803e+001,-2.26003092883262e+001

4.46317973232124e+005,-2.35834576074133e+001,-2.29030453601746e+001

4.52548339959385e+005,-2.35905440052575e+001,-2.32096988452410e+001

4.58865679365059e+005,-2.35977912687838e+001,-2.35203170711477e+001

4.65271205542494e+005,-2.36052032203991e+001,-2.38349477418452e+001

4.71766149533147e+005,-2.36127837811495e+001,-2.41536389280434e+001

4.78351759563174e+005,-2.36205369725899e+001,-2.44764390570595e+001

4.85029301283321e+005,-2.36284669186206e+001,-2.48033969020801e+001

4.91800058012158e+005,-2.36365778472846e+001,-2.51345615708393e+001

4.98665330982714e+005,-2.36448740925225e+001,-2.54699824937091e+001

5.05626439592555e+005,-2.36533600958812e+001,-2.58097094112110e+001

5.12684721657352e+005,-2.36620404081723e+001,-2.61537923609431e+001

5.19841533667984e+005,-2.36709196910765e+001,-2.65022816639302e+001

5.27098251051240e+005,-2.36800027186897e+001,-2.68552279104012e+001

5.34456268434150e+005,-2.36892943790070e+001,-2.72126819449937e+001

5.41916999912011e+005,-2.36987996753409e+001,-2.75746948513970e+001

