Freq.,VOut,OutRef

1.00000000000000e+004,-2.02427781186976e+001,-3.11519722101819e-001

1.01395947979003e+004,-2.02427805267133e+001,-3.15868117050808e-001

1.02811382665607e+004,-2.02427830023731e+001,-3.20277202370886e-001

1.04246576084112e+004,-2.02427855475754e+001,-3.24747824802890e-001

1.05701804056138e+004,-2.02427881642721e+001,-3.29280842889705e-001

1.07177346253629e+004,-2.02427908544698e+001,-3.33877127135281e-001

1.08673486252606e+004,-2.02427936202310e+001,-3.38537560178135e-001

1.10190511587661e+004,-2.02427964636765e+001,-3.43263036951677e-001

1.11728713807222e+004,-2.02427993869860e+001,-3.48054464861224e-001

1.13288388529580e+004,-2.02428023924004e+001,-3.52912763954427e-001

1.14869835499703e+004,-2.02428054822236e+001,-3.57838867096558e-001

1.16473358646846e+004,-2.02428086588238e+001,-3.62833720149065e-001

1.18099266142953e+004,-2.02428119246353e+001,-3.67898282150863e-001

1.19747870461893e+004,-2.02428152821609e+001,-3.73033525497693e-001

1.21419488439505e+004,-2.02428187339733e+001,-3.78240436131508e-001

1.23114441334492e+004,-2.02428222827173e+001,-3.83520013725735e-001

1.24833054890161e+004,-2.02428259311116e+001,-3.88873271876272e-001

1.26575659397028e+004,-2.02428296819508e+001,-3.94301238295319e-001

1.28342589756290e+004,-2.02428335381082e+001,-3.99804955005292e-001

1.30134185544193e+004,-2.02428375025371e+001,-4.05385478538061e-001

1.31950791077289e+004,-2.02428415782732e+001,-4.11043880137580e-001

1.33792755478611e+004,-2.02428457684377e+001,-4.16781245959884e-001

1.35660432744767e+004,-2.02428500762384e+001,-4.22598677283583e-001

1.37554181813974e+004,-2.02428545049733e+001,-4.28497290715111e-001

1.39474366635040e+004,-2.02428590580325e+001,-4.34478218405081e-001

1.41421356237309e+004,-2.02428637389004e+001,-4.40542608260937e-001

1.43395524801583e+004,-2.02428685511594e+001,-4.46691624165078e-001

1.45397251732031e+004,-2.02428734984916e+001,-4.52926446195734e-001

1.47426921729110e+004,-2.02428785846818e+001,-4.59248270852980e-001

1.49484924863494e+004,-2.02428838136210e+001,-4.65658311282008e-001

1.51571656651040e+004,-2.02428891893085e+001,-4.72157797506275e-001

1.53687518128801e+004,-2.02428947158552e+001,-4.78747976659427e-001

1.55832915932100e+004,-2.02429003974870e+001,-4.85430113222042e-001

1.58008262372675e+004,-2.02429062385476e+001,-4.92205489260396e-001

1.60213975517924e+004,-2.02429122435018e+001,-4.99075404669848e-001

1.62450479271247e+004,-2.02429184169391e+001,-5.06041177420952e-001

1.64718203453514e+004,-2.02429247635769e+001,-5.13104143808010e-001

1.67017583885674e+004,-2.02429312882641e+001,-5.20265658703347e-001

1.69349062472505e+004,-2.02429379959847e+001,-5.27527095812077e-001

1.71713087287550e+004,-2.02429448918619e+001,-5.34889847930344e-001

1.74110112659224e+004,-2.02429519811614e+001,-5.42355327212391e-001

1.76540599258131e+004,-2.02429592692956e+001,-5.49924965432444e-001

1.79005014185594e+004,-2.02429667618277e+001,-5.57600214258220e-001

1.81503831063432e+004,-2.02429744644754e+001,-5.65382545524283e-001

1.84037530124975e+004,-2.02429823831162e+001,-5.73273451506199e-001

1.86606598307361e+004,-2.02429905237907e+001,-5.81274445205297e-001

1.89211529345119e+004,-2.02429988927076e+001,-5.89387060632478e-001

1.91852823865052e+004,-2.02430074962481e+001,-5.97612853095782e-001

1.94530989482457e+004,-2.02430163409712e+001,-6.05953399493832e-001

1.97246540898671e+004,-2.02430254336178e+001,-6.14410298611817e-001

1.99999999999999e+004,-2.02430347811162e+001,-6.22985171422318e-001

2.02791895958005e+004,-2.02430443905871e+001,-6.31679661387571e-001

2.05622765331213e+004,-2.02430542693489e+001,-6.40495434770735e-001

2.08493152168224e+004,-2.02430644249231e+001,-6.49434180946346e-001

2.11403608112276e+004,-2.02430748650400e+001,-6.58497612715449e-001

2.14354692507258e+004,-2.02430855976439e+001,-6.67687466629490e-001

2.17346972505211e+004,-2.02430966308997e+001,-6.77005503313195e-001

2.20381023175322e+004,-2.02431079731985e+001,-6.86453507792034e-001

2.23457427614443e+004,-2.02431196331636e+001,-6.96033289829697e-001

2.26576777059159e+004,-2.02431316196573e+001,-7.05746684261535e-001

2.29739670999406e+004,-2.02431439417872e+001,-7.15595551338947e-001

2.32946717293690e+004,-2.02431566089124e+001,-7.25581777076525e-001

2.36198532285905e+004,-2.02431696306513e+001,-7.35707273600660e-001

2.39495740923785e+004,-2.02431830168880e+001,-7.45973979507682e-001

2.42838976879009e+004,-2.02431967777795e+001,-7.56383860221873e-001

2.46228882668982e+004,-2.02432109237634e+001,-7.66938908362540e-001

2.49666109780322e+004,-2.02432254655651e+001,-7.77641144111819e-001

2.53151318794055e+004,-2.02432404142062e+001,-7.88492615589525e-001

2.56685179512580e+004,-2.02432557810120e+001,-7.99495399232359e-001

2.60268371088386e+004,-2.02432715776195e+001,-8.10651600177666e-001

2.63901582154578e+004,-2.02432878159868e+001,-8.21963352652557e-001

2.67585510957221e+004,-2.02433045084003e+001,-8.33432820367973e-001

2.71320865489533e+004,-2.02433216674852e+001,-8.45062196915915e-001

2.75108363627948e+004,-2.02433393062130e+001,-8.56853706174751e-001

2.78948733270080e+004,-2.02433574379119e+001,-8.68809602718911e-001

2.82842712474618e+004,-2.02433760762758e+001,-8.80932172229711e-001

2.86791049603164e+004,-2.02433952353745e+001,-8.93223731918824e-001

2.90794503464061e+004,-2.02434149296633e+001,-9.05686630949038e-001

2.94853843458219e+004,-2.02434351739936e+001,-9.18323250866686e-001

2.98969849726987e+004,-2.02434559836234e+001,-9.31136006035771e-001

3.03143313302078e+004,-2.02434773742278e+001,-9.44127344078315e-001

3.07375036257601e+004,-2.02434993619107e+001,-9.57299746320973e-001

3.11665831864199e+004,-2.02435219632157e+001,-9.70655728246174e-001

3.16016524745350e+004,-2.02435451951377e+001,-9.84197839949297e-001

3.20427951035848e+004,-2.02435690751353e+001,-9.97928666600591e-001

3.24900958542493e+004,-2.02435936211424e+001,-1.01185082891574e+000

3.29436406907028e+004,-2.02436188515813e+001,-1.02596698362691e+000

3.34035167771346e+004,-2.02436447853752e+001,-1.04027982396363e+000

3.38698124945009e+004,-2.02436714419611e+001,-1.05479208013978e+000

3.43426174575100e+004,-2.02436988413041e+001,-1.06950651984211e+000

3.48220225318448e+004,-2.02437270039103e+001,-1.08442594873004e+000

3.53081198516260e+004,-2.02437559508414e+001,-1.09955321093716e+000

3.58010028371187e+004,-2.02437857037288e+001,-1.11489118958094e+000

3.63007662126863e+004,-2.02438162847888e+001,-1.13044280727775e+000

3.68075060249948e+004,-2.02438477168375e+001,-1.14621102666408e+000

3.73213196614721e+004,-2.02438800233064e+001,-1.16219885092356e+000

3.78423058690237e+004,-2.02439132282580e+001,-1.17840932432013e+000

3.83705647730104e+004,-2.02439473564023e+001,-1.19484553273912e+000

3.89061978964912e+004,-2.02439824331132e+001,-1.21151060423126e+000

3.94493081797342e+004,-2.02440184844458e+001,-1.22840770956496e+000

3.99999999999998e+004,-2.02440555371534e+001,-1.24554006278628e+000

4.05583791916010e+004,-2.02440936187052e+001,-1.26291092178155e+000

4.11245530662425e+004,-2.02441327573050e+001,-1.28052358885042e+000

4.16986304336447e+004,-2.02441729819089e+001,-1.29838141128176e+000

4.22807216224550e+004,-2.02442143222451e+001,-1.31648778193847e+000

4.28709385014515e+004,-2.02442568088328e+001,-1.33484613984780e+000

4.34693945010421e+004,-2.02443004730020e+001,-1.35345997079865e+000

4.40762046350642e+004,-2.02443453469139e+001,-1.37233280794455e+000

4.46914855228886e+004,-2.02443914635814e+001,-1.39146823241371e+000

4.53153554118317e+004,-2.02444388568905e+001,-1.41086987392632e+000

4.59479341998812e+004,-2.02444875616210e+001,-1.43054141141824e+000

4.65893434587380e+004,-2.02445376134696e+001,-1.45048657367033e+000

4.72397064571810e+004,-2.02445890490714e+001,-1.47070913994528e+000

4.78991481847569e+004,-2.02446419060232e+001,-1.49121294063126e+000

4.85677953758016e+004,-2.02446962229068e+001,-1.51200185789264e+000

4.92457765337964e+004,-2.02447520393127e+001,-1.53307982632683e+000

4.99332219560642e+004,-2.02448093958642e+001,-1.55445083362771e+000

5.06302637588109e+004,-2.02448683342426e+001,-1.57611892125700e+000

5.13370359025159e+004,-2.02449288972118e+001,-1.59808818512124e+000

5.20536742176771e+004,-2.02449911286442e+001,-1.62036277625681e+000

5.27803164309155e+004,-2.02450550735470e+001,-1.64294690152125e+000

5.35171021914442e+004,-2.02451207780887e+001,-1.66584482429035e+000

5.42641730979066e+004,-2.02451882896256e+001,-1.68906086516559e+000

5.50216727255895e+004,-2.02452576567304e+001,-1.71259940268380e+000

5.57897466540159e+004,-2.02453289292194e+001,-1.73646487403844e+000

5.65685424949235e+004,-2.02454021581812e+001,-1.76066177580397e+000

5.73582099206328e+004,-2.02454773960057e+001,-1.78519466467038e+000

5.81589006928121e+004,-2.02455546964135e+001,-1.81006815818295e+000

5.89707686916437e+004,-2.02456341144858e+001,-1.83528693548834e+000

5.97939699453972e+004,-2.02457157066944e+001,-1.86085573809069e+000

6.06286626604156e+004,-2.02457995309332e+001,-1.88677937061194e+000

6.14750072515201e+004,-2.02458856465487e+001,-1.91306270156019e+000

6.23331663728396e+004,-2.02459741143721e+001,-1.93971066410559e+000

6.32033049490698e+004,-2.02460649967512e+001,-1.96672825686309e+000

6.40855902071694e+004,-2.02461583575830e+001,-1.99412054468240e+000

6.49801917084985e+004,-2.02462542623466e+001,-2.02189265944490e+000

6.58872813814055e+004,-2.02463527781367e+001,-2.05004980086721e+000

6.68070335542691e+004,-2.02464539736969e+001,-2.07859723731505e+000

6.77396249890018e+004,-2.02465579194545e+001,-2.10754030661880e+000

6.86852349150199e+004,-2.02466646875541e+001,-2.13688441690273e+000

6.96440450636895e+004,-2.02467743518932e+001,-2.16663504741599e+000

7.06162397032520e+004,-2.02468869881567e+001,-2.19679774937573e+000

7.16020056742374e+004,-2.02470026738528e+001,-2.22737814681359e+000

7.26015324253724e+004,-2.02471214883486e+001,-2.25838193743255e+000

7.36150120499896e+004,-2.02472435129059e+001,-2.28981489347016e+000

7.46426393229441e+004,-2.02473688307177e+001,-2.32168286256951e+000

7.56846117380472e+004,-2.02474975269445e+001,-2.35399176865819e+000

7.67411295460207e+004,-2.02476296887510e+001,-2.38674761283442e+000

7.78123957929823e+004,-2.02477654053432e+001,-2.41995647426134e+000

7.88986163594682e+004,-2.02479047680046e+001,-2.45362451107053e+000

7.99999999999995e+004,-2.02480478701344e+001,-2.48775796127086e+000

8.11167583832018e+004,-2.02481948072835e+001,-2.52236314366861e+000

8.22491061324848e+004,-2.02483456771924e+001,-2.55744645879349e+000

8.33972608672892e+004,-2.02485005798281e+001,-2.59301438983512e+000

8.45614432449099e+004,-2.02486596174214e+001,-2.62907350358596e+000

8.57418770029029e+004,-2.02488228945039e+001,-2.66563045139572e+000

8.69387890020841e+004,-2.02489905179446e+001,-2.70269197013275e+000

8.81524092701283e+004,-2.02491625969876e+001,-2.74026488315466e+000

8.93829710457770e+004,-2.02493392432878e+001,-2.77835610129122e+000

9.06307108236633e+004,-2.02495205709474e+001,-2.81697262383288e+000

9.18958683997622e+004,-2.02497066965526e+001,-2.85612153953187e+000

9.31786869174758e+004,-2.02498977392084e+001,-2.89581002761438e+000

9.44794129143618e+004,-2.02500938205746e+001,-2.93604535880000e+000

9.57982963695136e+004,-2.02502950649004e+001,-2.97683489633627e+000

9.71355907516031e+004,-2.02505015990584e+001,-3.01818609704179e+000

9.84915530675926e+004,-2.02507135525793e+001,-3.06010651236158e+000

9.98664439121282e+004,-2.02509310576842e+001,-3.10260378943580e+000

1.01260527517622e+005,-2.02511542493176e+001,-3.14568567218035e+000

1.02674071805032e+005,-2.02513832651791e+001,-3.18936000238055e+000

1.04107348435354e+005,-2.02516182457545e+001,-3.23363472079907e+000

1.05560632861831e+005,-2.02518593343459e+001,-3.27851786829804e+000

1.07034204382888e+005,-2.02521066771010e+001,-3.32401758697627e+000

1.08528346195813e+005,-2.02523604230415e+001,-3.37014212132205e+000

1.10043345451179e+005,-2.02526207240907e+001,-3.41689981938180e+000

1.11579493308032e+005,-2.02528877350993e+001,-3.46429913394724e+000

1.13137084989847e+005,-2.02531616138711e+001,-3.51234862375914e+000

1.14716419841265e+005,-2.02534425211866e+001,-3.56105695473021e+000

1.16317801385624e+005,-2.02537306208262e+001,-3.61043290118832e+000

1.17941537383287e+005,-2.02540260795915e+001,-3.66048534713984e+000

1.19587939890794e+005,-2.02543290673256e+001,-3.71122328755459e+000

1.21257325320831e+005,-2.02546397569324e+001,-3.76265582967408e+000

1.22950014503040e+005,-2.02549583243933e+001,-3.81479219434289e+000

1.24666332745679e+005,-2.02552849487844e+001,-3.86764171736580e+000

1.26406609898139e+005,-2.02556198122904e+001,-3.92121385089080e+000

1.28171180414339e+005,-2.02559631002180e+001,-3.97551816481955e+000

1.29960383416997e+005,-2.02563150010083e+001,-4.03056434824748e+000

1.31774562762811e+005,-2.02566757062462e+001,-4.08636221093326e+000

1.33614067108538e+005,-2.02570454106699e+001,-4.14292168480145e+000

1.35479249978003e+005,-2.02574243121782e+001,-4.20025282547676e+000

1.37370469830040e+005,-2.02578126118360e+001,-4.25836581385497e+000

1.39288090127379e+005,-2.02582105138797e+001,-4.31727095770918e+000

1.41232479406504e+005,-2.02586182257198e+001,-4.37697869333519e+000

1.43204011348474e+005,-2.02590359579427e+001,-4.43749958723668e+000

1.45203064850745e+005,-2.02594639243119e+001,-4.49884433785197e+000

1.47230024099979e+005,-2.02599023417671e+001,-4.56102377732506e+000

1.49285278645888e+005,-2.02603514304230e+001,-4.62404887332214e+000

1.51369223476094e+005,-2.02608114135666e+001,-4.68793073089523e+000

1.53482259092041e+005,-2.02612825176538e+001,-4.75268059439605e+000

1.55624791585964e+005,-2.02617649723058e+001,-4.81830984944173e+000

1.57797232718936e+005,-2.02622590103046e+001,-4.88483002493270e+000

1.59999999999999e+005,-2.02627648675883e+001,-4.95225279512808e+000

1.62233516766403e+005,-2.02632827832464e+001,-5.02058998177775e+000

1.64498212264969e+005,-2.02638129995147e+001,-5.08985355631542e+000

1.66794521734578e+005,-2.02643557617718e+001,-5.16005564211233e+000

1.69122886489819e+005,-2.02649113185349e+001,-5.23120851679612e+000

1.71483754005805e+005,-2.02654799214576e+001,-5.30332461463551e+000

1.73877578004168e+005,-2.02660618253287e+001,-5.37641652899353e+000

1.76304818540256e+005,-2.02666572880720e+001,-5.45049701485069e+000

1.78765942091554e+005,-2.02672665707495e+001,-5.52557899140073e+000

1.81261421647326e+005,-2.02678899375655e+001,-5.60167554472018e+000

1.83791736799524e+005,-2.02685276558752e+001,-5.67879993051386e+000

1.86357373834951e+005,-2.02691799961947e+001,-5.75696557693927e+000

1.88958825828723e+005,-2.02698472322168e+001,-5.83618608750831e+000

1.91596592739027e+005,-2.02705296408298e+001,-5.91647524407234e+000

1.94271181503206e+005,-2.02712275021415e+001,-5.99784700988760e+000

1.96983106135185e+005,-2.02719410995087e+001,-6.08031553276608e+000

1.99732887824256e+005,-2.02726707195730e+001,-6.16389514830927e+000

2.02521055035243e+005,-2.02734166523027e+001,-6.24860038322975e+000

2.05348143610063e+005,-2.02741791910419e+001,-6.33444595875779e+000

2.08214696870707e+005,-2.02749586325686e+001,-6.42144679413559e+000

2.11121265723661e+005,-2.02757552771600e+001,-6.50961801020002e+000

2.14068408765776e+005,-2.02765694286682e+001,-6.59897493305050e+000

2.17056692391625e+005,-2.02774013946054e+001,-6.68953309780760e+000

2.20086690902357e+005,-2.02782514862399e+001,-6.78130825245599e+000

2.23158986616063e+005,-2.02791200187043e+001,-6.87431636177566e+000

2.26274169979693e+005,-2.02800073111147e+001,-6.96857361135846e+000

2.29432839682530e+005,-2.02809136867046e+001,-7.06409641170797e+000

2.32635602771247e+005,-2.02818394729715e+001,-7.16090140242383e+000

2.35883074766574e+005,-2.02827850018385e+001,-7.25900545646602e+000

2.39175879781588e+005,-2.02837506098314e+001,-7.35842568449818e+000

2.42514650641661e+005,-2.02847366382723e+001,-7.45917943930749e+000

2.45900029006080e+005,-2.02857434334895e+001,-7.56128432029815e+000

2.49332665491357e+005,-2.02867713470462e+001,-7.66475817805501e+000

2.52813219796278e+005,-2.02878207359866e+001,-7.76961911897382e+000

2.56342360828676e+005,-2.02888919631023e+001,-7.87588550995498e+000

2.59920766833993e+005,-2.02899853972182e+001,-7.98357598315576e+000

2.63549125525621e+005,-2.02911014134991e+001,-8.09270944079682e+000

2.67228134217075e+005,-2.02922403937778e+001,-8.20330506001800e+000

2.70958499956006e+005,-2.02934027269051e+001,-8.31538229777846e+000

2.74740939660078e+005,-2.02945888091229e+001,-8.42896089579556e+000

2.78576180254757e+005,-2.02957990444596e+001,-8.54406088551579e+000

2.82464958813007e+005,-2.02970338451495e+001,-8.66070259311437e+000

2.86408022696948e+005,-2.02982936320770e+001,-8.77890664451326e+000

2.90406129701488e+005,-2.02995788352446e+001,-8.89869397041394e+000

2.94460048199957e+005,-2.03008898942658e+001,-9.02008581133790e+000

2.98570557291775e+005,-2.03022272588837e+001,-9.14310372266598e+000

3.02738446952187e+005,-2.03035913895149e+001,-9.26776957967129e+000

3.06964518184081e+005,-2.03049827578189e+001,-9.39410558253810e+000

3.11249583171928e+005,-2.03064018472932e+001,-9.52213426135767e+000

3.15594465437872e+005,-2.03078491538949e+001,-9.65187848109587e+000

3.19999999999997e+005,-2.03093251866871e+001,-9.78336144652346e+000

3.24467033532806e+005,-2.03108304685121e+001,-9.91660670710145e+000

3.28996424529938e+005,-2.03123655366893e+001,-1.00516381618151e+001

3.33589043469155e+005,-2.03139309437391e+001,-1.01884800639476e+001

3.38245772979638e+005,-2.03155272581318e+001,-1.03271570257870e+001

3.42967508011610e+005,-2.03171550650610e+001,-1.04676940232590e+001

3.47755156008335e+005,-2.03188149672417e+001,-1.06101164004772e+001

3.52609637080511e+005,-2.03205075857324e+001,-1.07544498742061e+001

3.57531884183106e+005,-2.03222335607800e+001,-1.09007205382275e+001

3.62522843294651e+005,-2.03239935526885e+001,-1.10489548676052e+001

3.67583473599047e+005,-2.03257882427089e+001,-1.11991797228422e+001

3.72714747669902e+005,-2.03276183339511e+001,-1.13514223539226e+001

3.77917651657445e+005,-2.03294845523165e+001,-1.15057104042342e+001

3.83193185478053e+005,-2.03313876474510e+001,-1.16620719143652e+001

3.88542363006410e+005,-2.03333283937163e+001,-1.18205353257711e+001

3.93966212270369e+005,-2.03353075911808e+001,-1.19811294843064e+001

3.99465775648511e+005,-2.03373260666270e+001,-1.21438836436162e+001

4.05042110070485e+005,-2.03393846745761e+001,-1.23088274683866e+001

4.10696287220124e+005,-2.03414842983285e+001,-1.24759910374460e+001

4.16429393741414e+005,-2.03436258510188e+001,-1.26454048467183e+001

4.22242531447321e+005,-2.03458102766851e+001,-1.28170998120222e+001

4.28136817531551e+005,-2.03480385513513e+001,-1.29911072717170e+001

4.34113384783250e+005,-2.03503116841217e+001,-1.31674589891899e+001

4.40173381804713e+005,-2.03526307182868e+001,-1.33461871551862e+001

4.46317973232124e+005,-2.03549967324398e+001,-1.35273243899775e+001

4.52548339959385e+005,-2.03574108416027e+001,-1.37109037453712e+001

4.58865679365059e+005,-2.03598741983609e+001,-1.38969587065566e+001

4.65271205542494e+005,-2.03623879940065e+001,-1.40855231937896e+001

4.71766149533147e+005,-2.03649534596883e+001,-1.42766315639144e+001

4.78351759563174e+005,-2.03675718675693e+001,-1.44703186117241e+001

4.85029301283321e+005,-2.03702445319886e+001,-1.46666195711567e+001

4.91800058012158e+005,-2.03729728106308e+001,-1.48655701163317e+001

4.98665330982714e+005,-2.03757581056981e+001,-1.50672063624233e+001

5.05626439592555e+005,-2.03786018650877e+001,-1.52715648663727e+001

5.12684721657352e+005,-2.03815055835731e+001,-1.54786826274403e+001

5.19841533667984e+005,-2.03844708039879e+001,-1.56885970875968e+001

5.27098251051240e+005,-2.03874991184131e+001,-1.59013461317551e+001

5.34456268434150e+005,-2.03905921693666e+001,-1.61169680878423e+001

5.41916999912011e+005,-2.03937516509952e+001,-1.63355017267121e+001

