Freq.,VOut,OutRef

1.00000000000000e+004,-2.07004594087628e+001,-3.43892988114381e-001

1.01395947979003e+004,-2.07004620769559e+001,-3.48693291416817e-001

1.02811382665607e+004,-2.07004648201073e+001,-3.53560593258441e-001

1.04246576084112e+004,-2.07004676403212e+001,-3.58495828428696e-001

1.05701804056138e+004,-2.07004705397609e+001,-3.63499944746513e-001

1.07177346253629e+004,-2.07004735206501e+001,-3.68573903241439e-001

1.08673486252606e+004,-2.07004765852750e+001,-3.73718678335952e-001

1.10190511587661e+004,-2.07004797359860e+001,-3.78935258031695e-001

1.11728713807222e+004,-2.07004829751991e+001,-3.84224644099780e-001

1.13288388529580e+004,-2.07004863053980e+001,-3.89587852270648e-001

1.14869835499703e+004,-2.07004897291361e+001,-3.95025912426950e-001

1.16473358646846e+004,-2.07004932490382e+001,-4.00539868802019e-001

1.18099266142953e+004,-2.07004968678030e+001,-4.06130780176886e-001

1.19747870461893e+004,-2.07005005882042e+001,-4.11799720085514e-001

1.21419488439505e+004,-2.07005044130935e+001,-4.17547777016093e-001

1.23114441334492e+004,-2.07005083454024e+001,-4.23376054619461e-001

1.24833054890161e+004,-2.07005123881444e+001,-4.29285671920796e-001

1.26575659397028e+004,-2.07005165444176e+001,-4.35277763530593e-001

1.28342589756290e+004,-2.07005208174065e+001,-4.41353479863556e-001

1.30134185544193e+004,-2.07005252103848e+001,-4.47513987354721e-001

1.31950791077289e+004,-2.07005297267180e+001,-4.53760468684354e-001

1.33792755478611e+004,-2.07005343698654e+001,-4.60094122999930e-001

1.35660432744767e+004,-2.07005391433836e+001,-4.66516166147103e-001

1.37554181813974e+004,-2.07005440509281e+001,-4.73027830900433e-001

1.39474366635040e+004,-2.07005490962571e+001,-4.79630367196327e-001

1.41421356237309e+004,-2.07005542832335e+001,-4.86325042372085e-001

1.43395524801583e+004,-2.07005596158285e+001,-4.93113141406706e-001

1.45397251732031e+004,-2.07005650981243e+001,-4.99995967163729e-001

1.47426921729110e+004,-2.07005707343170e+001,-5.06974840641025e-001

1.49484924863494e+004,-2.07005765287201e+001,-5.14051101219420e-001

1.51571656651040e+004,-2.07005824857674e+001,-5.21226106918761e-001

1.53687518128801e+004,-2.07005886100171e+001,-5.28501234652880e-001

1.55832915932100e+004,-2.07005949061541e+001,-5.35877880495144e-001

1.58008262372675e+004,-2.07006013789945e+001,-5.43357459938526e-001

1.60213975517924e+004,-2.07006080334886e+001,-5.50941408167140e-001

1.62450479271247e+004,-2.07006148747252e+001,-5.58631180326523e-001

1.64718203453514e+004,-2.07006219079350e+001,-5.66428251799819e-001

1.67017583885674e+004,-2.07006291384944e+001,-5.74334118487983e-001

1.69349062472505e+004,-2.07006365719301e+001,-5.82350297090708e-001

1.71713087287550e+004,-2.07006442139230e+001,-5.90478325395228e-001

1.74110112659224e+004,-2.07006520703120e+001,-5.98719762566620e-001

1.76540599258131e+004,-2.07006601470992e+001,-6.07076189441688e-001

1.79005014185594e+004,-2.07006684504539e+001,-6.15549208829036e-001

1.81503831063432e+004,-2.07006769867171e+001,-6.24140445810507e-001

1.84037530124975e+004,-2.07006857624067e+001,-6.32851548048236e-001

1.86606598307361e+004,-2.07006947842219e+001,-6.41684186096387e-001

1.89211529345119e+004,-2.07007040590487e+001,-6.50640053713312e-001

1.91852823865052e+004,-2.07007135939645e+001,-6.59720868184977e-001

1.94530989482457e+004,-2.07007233962440e+001,-6.68928370644327e-001

1.97246540898671e+004,-2.07007334733638e+001,-6.78264326402142e-001

1.99999999999999e+004,-2.07007438330090e+001,-6.87730525276640e-001

2.02791895958005e+004,-2.07007544830780e+001,-6.97328781931632e-001

2.05622765331213e+004,-2.07007654316887e+001,-7.07060936216950e-001

2.08493152168224e+004,-2.07007766871850e+001,-7.16928853513636e-001

2.11403608112276e+004,-2.07007882581420e+001,-7.26934425085075e-001

2.14354692507258e+004,-2.07008001533734e+001,-7.37079568430192e-001

2.17346972505211e+004,-2.07008123819373e+001,-7.47366227644006e-001

2.20381023175322e+004,-2.07008249531431e+001,-7.57796373781059e-001

2.23457427614443e+004,-2.07008378765586e+001,-7.68372005224559e-001

2.26576777059159e+004,-2.07008511620167e+001,-7.79095148060603e-001

2.29739670999406e+004,-2.07008648196231e+001,-7.89967856454760e-001

2.32946717293690e+004,-2.07008788597634e+001,-8.00992213038542e-001

2.36198532285905e+004,-2.07008932931105e+001,-8.12170329296917e-001

2.39495740923785e+004,-2.07009081306334e+001,-8.23504345959703e-001

2.42838976879009e+004,-2.07009233836038e+001,-8.34996433404579e-001

2.46228882668982e+004,-2.07009390636059e+001,-8.46648792057030e-001

2.49666109780322e+004,-2.07009551825437e+001,-8.58463652802227e-001

2.53151318794055e+004,-2.07009717526505e+001,-8.70443277397568e-001

2.56685179512580e+004,-2.07009887864970e+001,-8.82589958894280e-001

2.60268371088386e+004,-2.07010062970013e+001,-8.94906022061635e-001

2.63901582154578e+004,-2.07010242974379e+001,-9.07393823816950e-001

2.67585510957221e+004,-2.07010428014472e+001,-9.20055753664176e-001

2.71320865489533e+004,-2.07010618230456e+001,-9.32894234132675e-001

2.75108363627948e+004,-2.07010813766357e+001,-9.45911721226881e-001

2.78948733270080e+004,-2.07011014770166e+001,-9.59110704878290e-001

2.82842712474618e+004,-2.07011221393944e+001,-9.72493709405292e-001

2.86791049603164e+004,-2.07011433793936e+001,-9.86063293976532e-001

2.90794503464061e+004,-2.07011652130680e+001,-9.99822053082748e-001

2.94853843458219e+004,-2.07011876569121e+001,-1.01377261701174e+000

2.98969849726987e+004,-2.07012107278734e+001,-1.02791765233321e+000

3.03143313302078e+004,-2.07012344433640e+001,-1.04225986238447e+000

3.07375036257601e+004,-2.07012588212732e+001,-1.05680198776713e+000

3.11665831864199e+004,-2.07012838799804e+001,-1.07154680684673e+000

3.16016524745350e+004,-2.07013096383679e+001,-1.08649713626029e+000

3.20427951035848e+004,-2.07013361158344e+001,-1.10165583142888e+000

3.24900958542493e+004,-2.07013633323088e+001,-1.11702578707807e+000

3.29436406907028e+004,-2.07013913082640e+001,-1.13260993776290e+000

3.34035167771346e+004,-2.07014200647315e+001,-1.14841125840152e+000

3.38698124945009e+004,-2.07014496233160e+001,-1.16443276481291e+000

3.43426174575100e+004,-2.07014800062107e+001,-1.18067751426263e+000

3.48220225318448e+004,-2.07015112362127e+001,-1.19714860601481e+000

3.53081198516260e+004,-2.07015433367389e+001,-1.21384918189143e+000

3.58010028371187e+004,-2.07015763318421e+001,-1.23078242683691e+000

3.63007662126863e+004,-2.07016102462278e+001,-1.24795156949088e+000

3.68075060249948e+004,-2.07016451052712e+001,-1.26535988276720e+000

3.73213196614721e+004,-2.07016809350346e+001,-1.28301068443946e+000

3.78423058690237e+004,-2.07017177622854e+001,-1.30090733773382e+000

3.83705647730104e+004,-2.07017556145142e+001,-1.31905325192889e+000

3.89061978964912e+004,-2.07017945199537e+001,-1.33745188296327e+000

3.94493081797342e+004,-2.07018345075977e+001,-1.35610673404812e+000

3.99999999999998e+004,-2.07018756072208e+001,-1.37502135628900e+000

4.05583791916010e+004,-2.07019178493985e+001,-1.39419934931428e+000

4.11245530662425e+004,-2.07019612655274e+001,-1.41364436191054e+000

4.16986304336447e+004,-2.07020058878468e+001,-1.43336009266383e+000

4.22807216224550e+004,-2.07020517494596e+001,-1.45335029061196e+000

4.28709385014515e+004,-2.07020988843545e+001,-1.47361875590086e+000

4.34693945010421e+004,-2.07021473274283e+001,-1.49416934044877e+000

4.40762046350642e+004,-2.07021971145090e+001,-1.51500594861941e+000

4.46914855228886e+004,-2.07022482823794e+001,-1.53613253790130e+000

4.53153554118317e+004,-2.07023008688004e+001,-1.55755311959562e+000

4.59479341998812e+004,-2.07023549125362e+001,-1.57927175951029e+000

4.65893434587380e+004,-2.07024104533790e+001,-1.60129257866264e+000

4.72397064571810e+004,-2.07024675321744e+001,-1.62361975399060e+000

4.78991481847569e+004,-2.07025261908479e+001,-1.64625751906873e+000

4.85677953758016e+004,-2.07025864724310e+001,-1.66921016483527e+000

4.92457765337964e+004,-2.07026484210887e+001,-1.69248204032535e+000

4.99332219560642e+004,-2.07027120821472e+001,-1.71607755341099e+000

5.06302637588109e+004,-2.07027775021223e+001,-1.74000117155187e+000

5.13370359025159e+004,-2.07028447287478e+001,-1.76425742255011e+000

5.20536742176771e+004,-2.07029138110055e+001,-1.78885089531717e+000

5.27803164309155e+004,-2.07029847991549e+001,-1.81378624064467e+000

5.35171021914442e+004,-2.07030577447637e+001,-1.83906817198674e+000

5.42641730979066e+004,-2.07031327007394e+001,-1.86470146624753e+000

5.50216727255895e+004,-2.07032097213606e+001,-1.89069096457759e+000

5.57897466540159e+004,-2.07032888623095e+001,-1.91704157318035e+000

5.65685424949235e+004,-2.07033701807051e+001,-1.94375826412277e+000

5.73582099206328e+004,-2.07034537351361e+001,-1.97084607615808e+000

5.81589006928121e+004,-2.07035395856957e+001,-1.99831011555381e+000

5.89707686916437e+004,-2.07036277940160e+001,-2.02615555692928e+000

5.97939699453972e+004,-2.07037184233032e+001,-2.05438764410131e+000

6.06286626604156e+004,-2.07038115383739e+001,-2.08301169093755e+000

6.14750072515201e+004,-2.07039072056909e+001,-2.11203308221857e+000

6.23331663728396e+004,-2.07040054934008e+001,-2.14145727450843e+000

6.32033049490698e+004,-2.07041064713718e+001,-2.17128979703226e+000

6.40855902071694e+004,-2.07042102112312e+001,-2.20153625256390e+000

6.49801917084985e+004,-2.07043167864050e+001,-2.23220231832177e+000

6.58872813814055e+004,-2.07044262721565e+001,-2.26329374687113e+000

6.68070335542691e+004,-2.07045387456267e+001,-2.29481636703753e+000

6.77396249890018e+004,-2.07046542858749e+001,-2.32677608482662e+000

6.86852349150199e+004,-2.07047729739189e+001,-2.35917888435440e+000

6.96440450636895e+004,-2.07048948927775e+001,-2.39203082878386e+000

7.06162397032520e+004,-2.07050201275117e+001,-2.42533806127294e+000

7.16020056742374e+004,-2.07051487652677e+001,-2.45910680592831e+000

7.26015324253724e+004,-2.07052808953199e+001,-2.49334336877013e+000

7.36150120499896e+004,-2.07054166091140e+001,-2.52805413870546e+000

7.46426393229441e+004,-2.07055560003113e+001,-2.56324558850932e+000

7.56846117380472e+004,-2.07056991648330e+001,-2.59892427581517e+000

7.67411295460207e+004,-2.07058462009047e+001,-2.63509684411601e+000

7.78123957929823e+004,-2.07059972091018e+001,-2.67177002377264e+000

7.88986163594682e+004,-2.07061522923953e+001,-2.70895063303193e+000

7.99999999999995e+004,-2.07063115561966e+001,-2.74664557905587e+000

8.11167583832018e+004,-2.07064751084051e+001,-2.78486185895760e+000

8.22491061324848e+004,-2.07066430594535e+001,-2.82360656084911e+000

8.33972608672892e+004,-2.07068155223552e+001,-2.86288686489854e+000

8.45614432449099e+004,-2.07069926127507e+001,-2.90271004439695e+000

8.57418770029029e+004,-2.07071744489554e+001,-2.94308346683514e+000

8.69387890020841e+004,-2.07073611520061e+001,-2.98401459499208e+000

8.81524092701283e+004,-2.07075528457093e+001,-3.02551098803248e+000

8.93829710457770e+004,-2.07077496566878e+001,-3.06758030261672e+000

9.06307108236633e+004,-2.07079517144289e+001,-3.11023029402066e+000

9.18958683997622e+004,-2.07081591513317e+001,-3.15346881726697e+000

9.31786869174758e+004,-2.07083721027545e+001,-3.19730382826961e+000

9.44794129143618e+004,-2.07085907070626e+001,-3.24174338498869e+000

9.57982963695136e+004,-2.07088151056753e+001,-3.28679564859857e+000

9.71355907516031e+004,-2.07090454431134e+001,-3.33246888466829e+000

9.84915530675926e+004,-2.07092818670456e+001,-3.37877146435579e+000

9.98664439121282e+004,-2.07095245283359e+001,-3.42571186561578e+000

1.01260527517622e+005,-2.07097735810895e+001,-3.47329867442056e+000

1.02674071805032e+005,-2.07100291826992e+001,-3.52154058599693e+000

1.04107348435354e+005,-2.07102914938907e+001,-3.57044640607779e+000

1.05560632861831e+005,-2.07105606787682e+001,-3.62002505216926e+000

1.07034204382888e+005,-2.07108369048589e+001,-3.67028555483417e+000

1.08528346195813e+005,-2.07111203431574e+001,-3.72123705899273e+000

1.10043345451179e+005,-2.07114111681694e+001,-3.77288882524137e+000

1.11579493308032e+005,-2.07117095579542e+001,-3.82525023118957e+000

1.13137084989847e+005,-2.07120156941679e+001,-3.87833077281575e+000

1.14716419841265e+005,-2.07123297621041e+001,-3.93214006584459e+000

1.16317801385624e+005,-2.07126519507357e+001,-3.98668784714350e+000

1.17941537383287e+005,-2.07129824527547e+001,-4.04198397614254e+000

1.19587939890794e+005,-2.07133214646113e+001,-4.09803843627737e+000

1.21257325320831e+005,-2.07136691865529e+001,-4.15486133645488e+000

1.22950014503040e+005,-2.07140258226615e+001,-4.21246291254553e+000

1.24666332745679e+005,-2.07143915808904e+001,-4.27085352890057e+000

1.26406609898139e+005,-2.07147666731004e+001,-4.33004367989902e+000

1.28171180414339e+005,-2.07151513150947e+001,-4.39004399151968e+000

1.29960383416997e+005,-2.07155457266531e+001,-4.45086522294783e+000

1.31774562762811e+005,-2.07159501315650e+001,-4.51251826820965e+000

1.33614067108538e+005,-2.07163647576623e+001,-4.57501415784172e+000

1.35479249978003e+005,-2.07167898368508e+001,-4.63836406059403e+000

1.37370469830040e+005,-2.07172256051406e+001,-4.70257928516997e+000

1.39288090127379e+005,-2.07176723026770e+001,-4.76767128200229e+000

1.41232479406504e+005,-2.07181301737690e+001,-4.83365164507024e+000

1.43204011348474e+005,-2.07185994669186e+001,-4.90053211375676e+000

1.45203064850745e+005,-2.07190804348490e+001,-4.96832457474796e+000

1.47230024099979e+005,-2.07195733345320e+001,-5.03704106397848e+000

1.49285278645888e+005,-2.07200784272162e+001,-5.10669376862194e+000

1.51369223476094e+005,-2.07205959784538e+001,-5.17729502913116e+000

1.53482259092041e+005,-2.07211262581282e+001,-5.24885734132698e+000

1.55624791585964e+005,-2.07216695404813e+001,-5.32139335854084e+000

1.57797232718936e+005,-2.07222261041415e+001,-5.39491589381043e+000

1.59999999999999e+005,-2.07227962321519e+001,-5.46943792213287e+000

1.62233516766403e+005,-2.07233802119996e+001,-5.54497258277423e+000

1.64498212264969e+005,-2.07239783356459e+001,-5.62153318164130e+000

1.66794521734578e+005,-2.07245908995575e+001,-5.69913319371431e+000

1.69122886489819e+005,-2.07252182047399e+001,-5.77778626554440e+000

1.71483754005805e+005,-2.07258605567722e+001,-5.85750621781744e+000

1.73877578004168e+005,-2.07265182658448e+001,-5.93830704798611e+000

1.76304818540256e+005,-2.07271916467987e+001,-6.02020293297133e+000

1.78765942091554e+005,-2.07278810191692e+001,-6.10320823193717e+000

1.81261421647326e+005,-2.07285867072319e+001,-6.18733748913848e+000

1.83791736799524e+005,-2.07293090400536e+001,-6.27260543684356e+000

1.86357373834951e+005,-2.07300483515466e+001,-6.35902699833593e+000

1.88958825828723e+005,-2.07308049805292e+001,-6.44661729099285e+000

1.91596592739027e+005,-2.07315792707902e+001,-6.53539162944439e+000

1.94271181503206e+005,-2.07323715711611e+001,-6.62536552881459e+000

1.96983106135185e+005,-2.07331822355932e+001,-6.71655470804419e+000

1.99732887824256e+005,-2.07340116232433e+001,-6.80897509329775e+000

2.02521055035243e+005,-2.07348600985668e+001,-6.90264282145404e+000

2.05348143610063e+005,-2.07357280314190e+001,-6.99757424368160e+000

2.08214696870707e+005,-2.07366157971663e+001,-7.09378592910004e+000

2.11121265723661e+005,-2.07375237768068e+001,-7.19129466852568e+000

2.14068408765776e+005,-2.07384523571023e+001,-7.29011747830381e+000

2.17056692391625e+005,-2.07394019307206e+001,-7.39027160422430e+000

2.20086690902357e+005,-2.07403728963915e+001,-7.49177452552349e+000

2.23158986616063e+005,-2.07413656590744e+001,-7.59464395896779e+000

2.26274169979693e+005,-2.07423806301405e+001,-7.69889786302072e+000

2.29432839682530e+005,-2.07434182275697e+001,-7.80455444209012e+000

2.32635602771247e+005,-2.07444788761623e+001,-7.91163215085490e+000

2.35883074766574e+005,-2.07455630077675e+001,-8.02014969866846e+000

2.39175879781588e+005,-2.07466710615285e+001,-8.13012605403592e+000

2.42514650641661e+005,-2.07478034841461e+001,-8.24158044916456e+000

2.45900029006080e+005,-2.07489607301603e+001,-8.35453238458037e+000

2.49332665491357e+005,-2.07501432622518e+001,-8.46900163381173e+000

2.52813219796278e+005,-2.07513515515637e+001,-8.58500824813283e+000

2.56342360828676e+005,-2.07525860780438e+001,-8.70257256136375e+000

2.59920766833993e+005,-2.07538473308099e+001,-8.82171519472396e+000

2.63549125525621e+005,-2.07551358085360e+001,-8.94245706173129e+000

2.67228134217075e+005,-2.07564520198630e+001,-9.06481937314423e+000

2.70958499956006e+005,-2.07577964838325e+001,-9.18882364194020e+000

2.74740939660078e+005,-2.07591697303456e+001,-9.31449168832342e+000

2.78576180254757e+005,-2.07605723006462e+001,-9.44184564475789e+000

2.82464958813007e+005,-2.07620047478309e+001,-9.57090796101711e+000

2.86408022696948e+005,-2.07634676373836e+001,-9.70170140924455e+000

2.90406129701488e+005,-2.07649615477379e+001,-9.83424908901787e+000

2.94460048199957e+005,-2.07664870708659e+001,-9.96857443240872e+000

2.98570557291775e+005,-2.07680448128940e+001,-1.01047012090316e+001

3.02738446952187e+005,-2.07696353947469e+001,-1.02426535310733e+001

3.06964518184081e+005,-2.07712594528186e+001,-1.03824558582949e+001

3.11249583171928e+005,-2.07729176396718e+001,-1.05241330029985e+001

3.15594465437872e+005,-2.07746106247649e+001,-1.06677101349510e+001

3.19999999999997e+005,-2.07763390952070e+001,-1.08132127862550e+001

3.24467033532806e+005,-2.07781037565410e+001,-1.09606668561612e+001

3.28996424529938e+005,-2.07799053335538e+001,-1.11100986158113e+001

3.33589043469155e+005,-2.07817445711151e+001,-1.12615347129040e+001

3.38245772979638e+005,-2.07836222350420e+001,-1.14150021762775e+001

3.42967508011610e+005,-2.07855391129920e+001,-1.15705284203972e+001

3.47755156008335e+005,-2.07874960153813e+001,-1.17281412497435e+001

3.52609637080511e+005,-2.07894937763302e+001,-1.18878688630905e+001

3.57531884183106e+005,-2.07915332546326e+001,-1.20497398576673e+001

3.62522843294651e+005,-2.07936153347522e+001,-1.22137832331958e+001

3.67583473599047e+005,-2.07957409278409e+001,-1.23800283957966e+001

3.72714747669902e+005,-2.07979109727830e+001,-1.25485051617572e+001

3.77917651657445e+005,-2.08001264372602e+001,-1.27192437611544e+001

3.83193185478053e+005,-2.08023883188396e+001,-1.28922748413254e+001

3.88542363006410e+005,-2.08046976460832e+001,-1.30676294701809e+001

3.93966212270369e+005,-2.08070554796766e+001,-1.32453391393561e+001

3.99465775648511e+005,-2.08094629135780e+001,-1.34254357671910e+001

4.05042110070485e+005,-2.08119210761856e+001,-1.36079517015385e+001

4.10696287220124e+005,-2.08144311315222e+001,-1.37929197223938e+001

4.16429393741414e+005,-2.08169942804363e+001,-1.39803730443392e+001

4.22242531447321e+005,-2.08196117618194e+001,-1.41703453188047e+001

4.28136817531551e+005,-2.08222848538373e+001,-1.43628706361362e+001

4.34113384783250e+005,-2.08250148751754e+001,-1.45579835274705e+001

4.40173381804713e+005,-2.08278031862965e+001,-1.47557189664133e+001

4.46317973232124e+005,-2.08306511907104e+001,-1.49561123705185e+001

4.52548339959385e+005,-2.08335603362542e+001,-1.51591996025640e+001

4.58865679365059e+005,-2.08365321163825e+001,-1.53650169716257e+001

4.65271205542494e+005,-2.08395680714665e+001,-1.55736012339436e+001

4.71766149533147e+005,-2.08426697901010e+001,-1.57849895935817e+001

4.78351759563174e+005,-2.08458389104188e+001,-1.59992197028776e+001

4.85029301283321e+005,-2.08490771214111e+001,-1.62163296626834e+001

4.91800058012158e+005,-2.08523861642536e+001,-1.64363580223931e+001

4.98665330982714e+005,-2.08557678336375e+001,-1.66593437797585e+001

5.05626439592555e+005,-2.08592239791043e+001,-1.68853263804900e+001

5.12684721657352e+005,-2.08627565063837e+001,-1.71143457176440e+001

5.19841533667984e+005,-2.08663673787344e+001,-1.73464421307921e+001

5.27098251051240e+005,-2.08700586182868e+001,-1.75816564049756e+001

5.34456268434150e+005,-2.08738323073869e+001,-1.78200297694375e+001

5.41916999912011e+005,-2.08776905899411e+001,-1.80616038961393e+001

