Freq.,VOut,OutRef

1.00000000000000e+004,-1.48929455849293e+001,-1.07274408127866e-001

1.01395947979003e+004,-1.48929466662444e+001,-1.08771726866481e-001

1.02811382665607e+004,-1.48929477779208e+001,-1.10289939918754e-001

1.04246576084112e+004,-1.48929489208097e+001,-1.11829338642407e-001

1.05701804056138e+004,-1.48929500957859e+001,-1.13390218449962e-001

1.07177346253629e+004,-1.48929513037495e+001,-1.14972878859647e-001

1.08673486252606e+004,-1.48929525456252e+001,-1.16577623559010e-001

1.10190511587661e+004,-1.48929538223635e+001,-1.18204760458450e-001

1.11728713807222e+004,-1.48929551349416e+001,-1.19854601752633e-001

1.13288388529580e+004,-1.48929564843642e+001,-1.21527463975165e-001

1.14869835499703e+004,-1.48929578716639e+001,-1.23223668062983e-001

1.16473358646846e+004,-1.48929592979018e+001,-1.24943539415206e-001

1.18099266142953e+004,-1.48929607641690e+001,-1.26687407954723e-001

1.19747870461893e+004,-1.48929622715874e+001,-1.28455608187873e-001

1.21419488439505e+004,-1.48929638213096e+001,-1.30248479273466e-001

1.23114441334492e+004,-1.48929654145206e+001,-1.32066365082267e-001

1.24833054890161e+004,-1.48929670524388e+001,-1.33909614262027e-001

1.26575659397028e+004,-1.48929687363157e+001,-1.35778580309174e-001

1.28342589756290e+004,-1.48929704674389e+001,-1.37673621624246e-001

1.30134185544193e+004,-1.48929722471309e+001,-1.39595101590438e-001

1.31950791077289e+004,-1.48929740767517e+001,-1.41543388635822e-001

1.33792755478611e+004,-1.48929759576990e+001,-1.43518856304287e-001

1.35660432744767e+004,-1.48929778914093e+001,-1.45521883327855e-001

1.37554181813974e+004,-1.48929798793596e+001,-1.47552853692284e-001

1.39474366635040e+004,-1.48929819230673e+001,-1.49612156717566e-001

1.41421356237309e+004,-1.48929840240928e+001,-1.51700187121792e-001

1.43395524801583e+004,-1.48929861840394e+001,-1.53817345103926e-001

1.45397251732031e+004,-1.48929884045556e+001,-1.55964036410888e-001

1.47426921729110e+004,-1.48929906873351e+001,-1.58140672420278e-001

1.49484924863494e+004,-1.48929930341191e+001,-1.60347670213224e-001

1.51571656651040e+004,-1.48929954466972e+001,-1.62585452654275e-001

1.53687518128801e+004,-1.48929979269087e+001,-1.64854448469990e-001

1.55832915932100e+004,-1.48930004766441e+001,-1.67155092327947e-001

1.58008262372675e+004,-1.48930030978463e+001,-1.69487824920923e-001

1.60213975517924e+004,-1.48930057925121e+001,-1.71853093045409e-001

1.62450479271247e+004,-1.48930085626942e+001,-1.74251349686180e-001

1.64718203453514e+004,-1.48930114105016e+001,-1.76683054104482e-001

1.67017583885674e+004,-1.48930143381023e+001,-1.79148671915419e-001

1.69349062472505e+004,-1.48930173477241e+001,-1.81648675184096e-001

1.71713087287550e+004,-1.48930204416569e+001,-1.84183542503416e-001

1.74110112659224e+004,-1.48930236222540e+001,-1.86753759090719e-001

1.76540599258131e+004,-1.48930268919334e+001,-1.89359816876106e-001

1.79005014185594e+004,-1.48930302531807e+001,-1.92002214588544e-001

1.81503831063432e+004,-1.48930337085501e+001,-1.94681457854407e-001

1.84037530124975e+004,-1.48930372606660e+001,-1.97398059289207e-001

1.86606598307361e+004,-1.48930409122263e+001,-2.00152538587644e-001

1.89211529345119e+004,-1.48930446660024e+001,-2.02945422628402e-001

1.91852823865052e+004,-1.48930485248433e+001,-2.05777245559958e-001

1.94530989482457e+004,-1.48930524916756e+001,-2.08648548910888e-001

1.97246540898671e+004,-1.48930565695078e+001,-2.11559881677463e-001

1.99999999999999e+004,-1.48930607614303e+001,-2.14511800435608e-001

2.02791895958005e+004,-1.48930650706196e+001,-2.17504869432444e-001

2.05622765331213e+004,-1.48930695003390e+001,-2.20539660699302e-001

2.08493152168224e+004,-1.48930740539423e+001,-2.23616754146928e-001

2.11403608112276e+004,-1.48930787348751e+001,-2.26736737680266e-001

2.14354692507258e+004,-1.48930835466780e+001,-2.29900207297984e-001

2.17346972505211e+004,-1.48930884929890e+001,-2.33107767206188e-001

2.20381023175322e+004,-1.48930935775456e+001,-2.36360029925323e-001

2.23457427614443e+004,-1.48930988041887e+001,-2.39657616401234e-001

2.26576777059159e+004,-1.48931041768637e+001,-2.43001156120875e-001

2.29739670999406e+004,-1.48931096996248e+001,-2.46391287220744e-001

2.32946717293690e+004,-1.48931153766368e+001,-2.49828656609055e-001

2.36198532285905e+004,-1.48931212121788e+001,-2.53313920074784e-001

2.39495740923785e+004,-1.48931272106470e+001,-2.56847742410034e-001

2.42838976879009e+004,-1.48931333765574e+001,-2.60430797530186e-001

2.46228882668982e+004,-1.48931397145496e+001,-2.64063768591478e-001

2.49666109780322e+004,-1.48931462293899e+001,-2.67747348114372e-001

2.53151318794055e+004,-1.48931529259742e+001,-2.71482238108483e-001

2.56685179512580e+004,-1.48931598093319e+001,-2.75269150197110e-001

2.60268371088386e+004,-1.48931668846295e+001,-2.79108805741041e-001

2.63901582154578e+004,-1.48931741571737e+001,-2.83001935970875e-001

2.67585510957221e+004,-1.48931816324155e+001,-2.86949282112145e-001

2.71320865489533e+004,-1.48931893159537e+001,-2.90951595520016e-001

2.75108363627948e+004,-1.48931972135389e+001,-2.95009637809457e-001

2.78948733270080e+004,-1.48932053310776e+001,-2.99124180987877e-001

2.82842712474618e+004,-1.48932136746357e+001,-3.03296007594532e-001

2.86791049603164e+004,-1.48932222504435e+001,-3.07525910831176e-001

2.90794503464061e+004,-1.48932310648991e+001,-3.11814694707764e-001

2.94853843458219e+004,-1.48932401245731e+001,-3.16163174176070e-001

2.98969849726987e+004,-1.48932494362132e+001,-3.20572175273434e-001

3.03143313302078e+004,-1.48932590067485e+001,-3.25042535266149e-001

3.07375036257601e+004,-1.48932688432941e+001,-3.29575102793017e-001

3.11665831864199e+004,-1.48932789531559e+001,-3.34170738010730e-001

3.16016524745350e+004,-1.48932893438359e+001,-3.38830312741797e-001

3.20427951035848e+004,-1.48933000230362e+001,-3.43554710624641e-001

3.24900958542493e+004,-1.48933109986650e+001,-3.48344827261341e-001

3.29436406907028e+004,-1.48933222788413e+001,-3.53201570372161e-001

3.34035167771346e+004,-1.48933338719002e+001,-3.58125859947414e-001

3.38698124945009e+004,-1.48933457863986e+001,-3.63118628403897e-001

3.43426174575100e+004,-1.48933580311203e+001,-3.68180820739381e-001

3.48220225318448e+004,-1.48933706150822e+001,-3.73313394691726e-001

3.53081198516260e+004,-1.48933835475393e+001,-3.78517320900185e-001

3.58010028371187e+004,-1.48933968379914e+001,-3.83793583062865e-001

3.63007662126863e+004,-1.48934104961884e+001,-3.89143178103285e-001

3.68075060249948e+004,-1.48934245321369e+001,-3.94567116330859e-001

3.73213196614721e+004,-1.48934389561061e+001,-4.00066421609242e-001

3.78423058690237e+004,-1.48934537786344e+001,-4.05642131521226e-001

3.83705647730104e+004,-1.48934690105355e+001,-4.11295297540444e-001

3.89061978964912e+004,-1.48934846629059e+001,-4.17026985196331e-001

3.94493081797342e+004,-1.48935007471306e+001,-4.22838274250650e-001

3.99999999999998e+004,-1.48935172748902e+001,-4.28730258868851e-001

4.05583791916010e+004,-1.48935342581684e+001,-4.34704047792770e-001

4.11245530662425e+004,-1.48935517092586e+001,-4.40760764517704e-001

4.16986304336447e+004,-1.48935696407713e+001,-4.46901547470437e-001

4.22807216224550e+004,-1.48935880656411e+001,-4.53127550187312e-001

4.28709385014515e+004,-1.48936069971352e+001,-4.59439941491974e-001

4.34693945010421e+004,-1.48936264488595e+001,-4.65839905681670e-001

4.40762046350642e+004,-1.48936464347675e+001,-4.72328642704191e-001

4.46914855228886e+004,-1.48936669691676e+001,-4.78907368345766e-001

4.53153554118317e+004,-1.48936880667311e+001,-4.85577314415958e-001

4.59479341998812e+004,-1.48937097425004e+001,-4.92339728931908e-001

4.65893434587380e+004,-1.48937320118970e+001,-4.99195876309065e-001

4.72397064571810e+004,-1.48937548907300e+001,-5.06147037547776e-001

4.78991481847569e+004,-1.48937783952040e+001,-5.13194510426190e-001

4.85677953758016e+004,-1.48938025419284e+001,-5.20339609688473e-001

4.92457765337964e+004,-1.48938273479251e+001,-5.27583667239800e-001

4.99332219560642e+004,-1.48938528306379e+001,-5.34928032340112e-001

5.06302637588109e+004,-1.48938790079410e+001,-5.42374071795381e-001

5.13370359025159e+004,-1.48939058981474e+001,-5.49923170159565e-001

5.20536742176771e+004,-1.48939335200188e+001,-5.57576729924901e-001

5.27803164309155e+004,-1.48939618927740e+001,-5.65336171723509e-001

5.35171021914442e+004,-1.48939910360980e+001,-5.73202934526040e-001

5.42641730979066e+004,-1.48940209701512e+001,-5.81178475839178e-001

5.50216727255895e+004,-1.48940517155786e+001,-5.89264271909520e-001

5.57897466540159e+004,-1.48940832935191e+001,-5.97461817920632e-001

5.65685424949235e+004,-1.48941157256148e+001,-6.05772628198588e-001

5.73582099206328e+004,-1.48941490340201e+001,-6.14198236414185e-001

5.81589006928121e+004,-1.48941832414114e+001,-6.22740195784616e-001

5.89707686916437e+004,-1.48942183709955e+001,-6.31400079281695e-001

5.97939699453972e+004,-1.48942544465204e+001,-6.40179479831471e-001

6.06286626604156e+004,-1.48942914922830e+001,-6.49080010525149e-001

6.14750072515201e+004,-1.48943295331394e+001,-6.58103304820802e-001

6.23331663728396e+004,-1.48943685945136e+001,-6.67251016753116e-001

6.32033049490698e+004,-1.48944087024070e+001,-6.76524821138441e-001

6.40855902071694e+004,-1.48944498834069e+001,-6.85926413782995e-001

6.49801917084985e+004,-1.48944921646959e+001,-6.95457511691794e-001

6.58872813814055e+004,-1.48945355740606e+001,-7.05119853274381e-001

6.68070335542691e+004,-1.48945801398999e+001,-7.14915198556625e-001

6.77396249890018e+004,-1.48946258912342e+001,-7.24845329387025e-001

6.86852349150199e+004,-1.48946728577129e+001,-7.34912049647265e-001

6.96440450636895e+004,-1.48947210696236e+001,-7.45117185460450e-001

7.06162397032520e+004,-1.48947705578986e+001,-7.55462585402685e-001

7.16020056742374e+004,-1.48948213541236e+001,-7.65950120711013e-001

7.26015324253724e+004,-1.48948734905447e+001,-7.76581685493853e-001

7.36150120499896e+004,-1.48949270000753e+001,-7.87359196941895e-001

7.46426393229441e+004,-1.48949819163028e+001,-7.98284595536873e-001

7.56846117380472e+004,-1.48950382734949e+001,-8.09359845264112e-001

7.67411295460207e+004,-1.48950961066057e+001,-8.20586933820611e-001

7.78123957929823e+004,-1.48951554512808e+001,-8.31967872827590e-001

7.88986163594682e+004,-1.48952163438621e+001,-8.43504698040812e-001

7.99999999999995e+004,-1.48952788213929e+001,-8.55199469559845e-001

8.11167583832018e+004,-1.48953429216211e+001,-8.67054272043296e-001

8.22491061324848e+004,-1.48954086830025e+001,-8.79071214916253e-001

8.33972608672892e+004,-1.48954761447039e+001,-8.91252432584203e-001

8.45614432449099e+004,-1.48955453466043e+001,-9.03600084643873e-001

8.57418770029029e+004,-1.48956163292968e+001,-9.16116356096572e-001

8.69387890020841e+004,-1.48956891340882e+001,-9.28803457562550e-001

8.81524092701283e+004,-1.48957638029993e+001,-9.41663625490466e-001

8.93829710457770e+004,-1.48958403787628e+001,-9.54699122376682e-001

9.06307108236633e+004,-1.48959189048218e+001,-9.67912236976747e-001

9.18958683997622e+004,-1.48959994253256e+001,-9.81305284523976e-001

9.31786869174758e+004,-1.48960819851263e+001,-9.94880606944288e-001

9.44794129143618e+004,-1.48961666297726e+001,-1.00864057307713e+000

9.57982963695136e+004,-1.48962534055034e+001,-1.02258757889465e+000

9.71355907516031e+004,-1.48963423592401e+001,-1.03672404772197e+000

9.84915530675926e+004,-1.48964335385772e+001,-1.05105243046350e+000

9.98664439121282e+004,-1.48965269917719e+001,-1.06557520582746e+000

1.01260527517622e+005,-1.48966227677321e+001,-1.08029488055447e+000

1.02674071805032e+005,-1.48967209160027e+001,-1.09521398964924e+000

1.04107348435354e+005,-1.48968214867513e+001,-1.11033509661388e+000

1.05560632861831e+005,-1.48969245307506e+001,-1.12566079368821e+000

1.07034204382888e+005,-1.48970300993609e+001,-1.14119370208835e+000

1.08528346195813e+005,-1.48971382445094e+001,-1.15693647225671e+000

1.10043345451179e+005,-1.48972490186687e+001,-1.17289178411020e+000

1.11579493308032e+005,-1.48973624748327e+001,-1.18906234729785e+000

1.13137084989847e+005,-1.48974786664908e+001,-1.20545090146266e+000

1.14716419841265e+005,-1.48975976476001e+001,-1.22206021651113e+000

1.16317801385624e+005,-1.48977194725554e+001,-1.23889309288838e+000

1.17941537383287e+005,-1.48978441961571e+001,-1.25595236186052e+000

1.19587939890794e+005,-1.48979718735768e+001,-1.27324088580816e+000

1.21257325320831e+005,-1.48981025603205e+001,-1.29076155852609e+000

1.22950014503040e+005,-1.48982363121894e+001,-1.30851730553498e+000

1.24666332745679e+005,-1.48983731852390e+001,-1.32651108440092e+000

1.26406609898139e+005,-1.48985132357342e+001,-1.34474588507019e+000

1.28171180414339e+005,-1.48986565201035e+001,-1.36322473021316e+000

1.29960383416997e+005,-1.48988030948896e+001,-1.38195067558392e+000

1.31774562762811e+005,-1.48989530166975e+001,-1.40092681039233e+000

1.33614067108538e+005,-1.48991063421402e+001,-1.42015625769332e+000

1.35479249978003e+005,-1.48992631277818e+001,-1.43964217479074e+000

1.37370469830040e+005,-1.48994234300771e+001,-1.45938775366073e+000

1.39288090127379e+005,-1.48995873053090e+001,-1.47939622139250e+000

1.41232479406504e+005,-1.48997548095235e+001,-1.49967084064965e+000

1.43204011348474e+005,-1.48999259984614e+001,-1.52021491015198e+000

1.45203064850745e+005,-1.49001009274864e+001,-1.54103176518198e+000

1.47230024099979e+005,-1.49002796515124e+001,-1.56212477811234e+000

1.49285278645888e+005,-1.49004622249265e+001,-1.58349735896086e+000

1.51369223476094e+005,-1.49006487015094e+001,-1.60515295597098e+000

1.53482259092041e+005,-1.49008391343539e+001,-1.62709505622045e+000

1.55624791585964e+005,-1.49010335757797e+001,-1.64932718626122e+000

1.57797232718936e+005,-1.49012320772470e+001,-1.67185291278733e+000

1.59999999999999e+005,-1.49014346892656e+001,-1.69467584333915e+000

1.62233516766403e+005,-1.49016414613040e+001,-1.71779962703773e+000

1.64498212264969e+005,-1.49018524416940e+001,-1.74122795535907e+000

1.66794521734578e+005,-1.49020676775343e+001,-1.76496456294330e+000

1.69122886489819e+005,-1.49022872145921e+001,-1.78901322844264e+000

1.71483754005805e+005,-1.49025110972022e+001,-1.81337777540998e+000

1.73877578004168e+005,-1.49027393681645e+001,-1.83806207323078e+000

1.76304818540256e+005,-1.49029720686404e+001,-1.86307003809792e+000

1.78765942091554e+005,-1.49032092380472e+001,-1.88840563403009e+000

1.81261421647326e+005,-1.49034509139520e+001,-1.91407287393810e+000

1.83791736799524e+005,-1.49036971319639e+001,-1.94007582074079e+000

1.86357373834951e+005,-1.49039479256262e+001,-1.96641858852626e+000

1.88958825828723e+005,-1.49042033263081e+001,-1.99310534376787e+000

1.91596592739027e+005,-1.49044633630961e+001,-2.02014030658934e+000

1.94271181503206e+005,-1.49047280626855e+001,-2.04752775208603e+000

1.96983106135185e+005,-1.49049974492726e+001,-2.07527201169700e+000

1.99732887824256e+005,-1.49052715444483e+001,-2.10337747463524e+000

2.02521055035243e+005,-1.49055503670913e+001,-2.13184858937238e+000

2.05348143610063e+005,-1.49058339332651e+001,-2.16068986518215e+000

2.08214696870707e+005,-1.49061222561148e+001,-2.18990587373994e+000

2.11121265723661e+005,-1.49064153457680e+001,-2.21950125078075e+000

2.14068408765776e+005,-1.49067132092370e+001,-2.24948069781673e+000

2.17056692391625e+005,-1.49070158503257e+001,-2.27984898391260e+000

2.20086690902357e+005,-1.49073232695387e+001,-2.31061094751978e+000

2.23158986616063e+005,-1.49076354639955e+001,-2.34177149837081e+000

2.26274169979693e+005,-1.49079524273485e+001,-2.37333561942921e+000

2.29432839682530e+005,-1.49082741497066e+001,-2.40530836890080e+000

2.32635602771247e+005,-1.49086006175637e+001,-2.43769488229936e+000

2.35883074766574e+005,-1.49089318137331e+001,-2.47050037456991e+000

2.39175879781588e+005,-1.49092677172890e+001,-2.50373014226770e+000

2.42514650641661e+005,-1.49096083035136e+001,-2.53738956578836e+000

2.45900029006080e+005,-1.49099535438522e+001,-2.57148411165551e+000

2.49332665491357e+005,-1.49103034058761e+001,-2.60601933485264e+000

2.52813219796278e+005,-1.49106578532526e+001,-2.64100088120872e+000

2.56342360828676e+005,-1.49110168457251e+001,-2.67643448982729e+000

2.59920766833993e+005,-1.49113803391005e+001,-2.71232599556061e+000

2.63549125525621e+005,-1.49117482852465e+001,-2.74868133152589e+000

2.67228134217075e+005,-1.49121206320992e+001,-2.78550653165736e+000

2.70958499956006e+005,-1.49124973236796e+001,-2.82280773329763e+000

2.74740939660078e+005,-1.49128783001209e+001,-2.86059117981752e+000

2.78576180254757e+005,-1.49132634977060e+001,-2.89886322326866e+000

2.82464958813007e+005,-1.49136528489167e+001,-2.93763032705733e+000

2.86408022696948e+005,-1.49140462824921e+001,-2.97689906864347e+000

2.90406129701488e+005,-1.49144437235003e+001,-3.01667614225570e+000

2.94460048199957e+005,-1.49148450934193e+001,-3.05696836162027e+000

2.98570557291775e+005,-1.49152503102307e+001,-3.09778266270009e+000

3.02738446952187e+005,-1.49156592885241e+001,-3.13912610643927e+000

3.06964518184081e+005,-1.49160719396129e+001,-3.18100588151000e+000

3.11249583171928e+005,-1.49164881716618e+001,-3.22342930705404e+000

3.15594465437872e+005,-1.49169078898247e+001,-3.26640383542094e+000

3.19999999999997e+005,-1.49173309963950e+001,-3.30993705489056e+000

3.24467033532806e+005,-1.49177573909651e+001,-3.35403669238533e+000

3.28996424529938e+005,-1.49181869705977e+001,-3.39871061615728e+000

3.33589043469155e+005,-1.49186196300073e+001,-3.44396683845635e+000

3.38245772979638e+005,-1.49190552617512e+001,-3.48981351816723e+000

3.42967508011610e+005,-1.49194937564302e+001,-3.53625896341774e+000

3.47755156008335e+005,-1.49199350028991e+001,-3.58331163415086e+000

3.52609637080511e+005,-1.49203788884849e+001,-3.63098014465778e+000

3.57531884183106e+005,-1.49208252992139e+001,-3.67927326607097e+000

3.62522843294651e+005,-1.49212741200461e+001,-3.72819992881047e+000

3.67583473599047e+005,-1.49217252351167e+001,-3.77776922498611e+000

3.72714747669902e+005,-1.49221785279837e+001,-3.82799041074546e+000

3.77917651657445e+005,-1.49226338818817e+001,-3.87887290857476e+000

3.83193185478053e+005,-1.49230911799806e+001,-3.93042630954105e+000

3.88542363006410e+005,-1.49235503056481e+001,-3.98266037548451e+000

3.93966212270369e+005,-1.49240111427164e+001,-4.03558504114996e+000

3.99465775648511e+005,-1.49244735757519e+001,-4.08921041626276e+000

4.05042110070485e+005,-1.49249374903260e+001,-4.14354678754849e+000

4.10696287220124e+005,-1.49254027732888e+001,-4.19860462069189e+000

4.16429393741414e+005,-1.49258693130416e+001,-4.25439456224194e+000

4.22242531447321e+005,-1.49263369998108e+001,-4.31092744145702e+000

4.28136817531551e+005,-1.49268057259198e+001,-4.36821427209664e+000

4.34113384783250e+005,-1.49272753860600e+001,-4.42626625415738e+000

4.40173381804713e+005,-1.49277458775587e+001,-4.48509477555699e+000

4.46317973232124e+005,-1.49282171006445e+001,-4.54471141376849e+000

4.52548339959385e+005,-1.49286889587084e+001,-4.60512793740460e+000

4.58865679365059e+005,-1.49291613585611e+001,-4.66635630775799e+000

4.65271205542494e+005,-1.49296342106845e+001,-4.72840868030018e+000

4.71766149533147e+005,-1.49301074294780e+001,-4.79129740613858e+000

4.78351759563174e+005,-1.49305809334988e+001,-4.85503503344138e+000

4.85029301283321e+005,-1.49310546456947e+001,-4.91963430882865e+000

4.91800058012158e+005,-1.49315284936306e+001,-4.98510817873703e+000

4.98665330982714e+005,-1.49320024097068e+001,-5.05146979076091e+000

5.05626439592555e+005,-1.49324763313695e+001,-5.11873249497436e+000

5.12684721657352e+005,-1.49329502013131e+001,-5.18690984523941e+000

5.19841533667984e+005,-1.49334239676735e+001,-5.25601560050469e+000

5.27098251051240e+005,-1.49338975842129e+001,-5.32606372609859e+000

5.34456268434150e+005,-1.49343710104958e+001,-5.39706839502303e+000

5.41916999912011e+005,-1.49348442120550e+001,-5.46904398925186e+000

