Freq.,VOut,OutRef

1.00000000000000e+004,-1.71811921462459e+001,-1.49687842974561e-001

1.01395947979003e+004,-1.71811944810593e+001,-1.51777033515621e-001

1.02811382665607e+004,-1.71811968814309e+001,-1.53895372205965e-001

1.04246576084112e+004,-1.71811993491991e+001,-1.56043265266885e-001

1.05701804056138e+004,-1.71812018862535e+001,-1.58221124560804e-001

1.07177346253629e+004,-1.71812044945370e+001,-1.60429367669902e-001

1.08673486252606e+004,-1.71812071760464e+001,-1.62668417975039e-001

1.10190511587661e+004,-1.71812099328345e+001,-1.64938704734254e-001

1.11728713807222e+004,-1.71812127670115e+001,-1.67240663165316e-001

1.13288388529580e+004,-1.71812156807466e+001,-1.69574734524896e-001

1.14869835499703e+004,-1.71812186762696e+001,-1.71941366193223e-001

1.16473358646846e+004,-1.71812217558724e+001,-1.74341011758608e-001

1.18099266142953e+004,-1.71812249219113e+001,-1.76774131100675e-001

1.19747870461893e+004,-1.71812281768080e+001,-1.79241190478182e-001

1.21419488439505e+004,-1.71812315230521e+001,-1.81742662613462e-001

1.23114441334492e+004,-1.71812349632025e+001,-1.84279026786450e-001

1.24833054890161e+004,-1.71812384998898e+001,-1.86850768916715e-001

1.26575659397028e+004,-1.71812421358177e+001,-1.89458381661807e-001

1.28342589756290e+004,-1.71812458737655e+001,-1.92102364502936e-001

1.30134185544193e+004,-1.71812497165899e+001,-1.94783223842648e-001

1.31950791077289e+004,-1.71812536672274e+001,-1.97501473096554e-001

1.33792755478611e+004,-1.71812577286965e+001,-2.00257632789563e-001

1.35660432744767e+004,-1.71812619040994e+001,-2.03052230652930e-001

1.37554181813974e+004,-1.71812661966251e+001,-2.05885801723434e-001

1.39474366635040e+004,-1.71812706095514e+001,-2.08758888439706e-001

1.41421356237309e+004,-1.71812751462473e+001,-2.11672040746233e-001

1.43395524801583e+004,-1.71812798101758e+001,-2.14625816191722e-001

1.45397251732031e+004,-1.71812846048960e+001,-2.17620780036524e-001

1.47426921729110e+004,-1.71812895340664e+001,-2.20657505353004e-001

1.49484924863494e+004,-1.71812946014470e+001,-2.23736573134326e-001

1.51571656651040e+004,-1.71812998109025e+001,-2.26858572400443e-001

1.53687518128801e+004,-1.71813051664052e+001,-2.30024100305971e-001

1.55832915932100e+004,-1.71813106720374e+001,-2.33233762253093e-001

1.58008262372675e+004,-1.71813163319955e+001,-2.36488171996677e-001

1.60213975517924e+004,-1.71813221505919e+001,-2.39787951764776e-001

1.62450479271247e+004,-1.71813281322591e+001,-2.43133732366208e-001

1.64718203453514e+004,-1.71813342815522e+001,-2.46526153311215e-001

1.67017583885674e+004,-1.71813406031532e+001,-2.49965862923737e-001

1.69349062472505e+004,-1.71813471018739e+001,-2.53453518462268e-001

1.71713087287550e+004,-1.71813537826591e+001,-2.56989786241088e-001

1.74110112659224e+004,-1.71813606505914e+001,-2.60575341746709e-001

1.76540599258131e+004,-1.71813677108935e+001,-2.64210869767798e-001

1.79005014185594e+004,-1.71813749689333e+001,-2.67897064511963e-001

1.81503831063432e+004,-1.71813824302270e+001,-2.71634629736649e-001

1.84037530124975e+004,-1.71813901004434e+001,-2.75424278875970e-001

1.86606598307361e+004,-1.71813979854082e+001,-2.79266735166992e-001

1.89211529345119e+004,-1.71814060911084e+001,-2.83162731781361e-001

1.91852823865052e+004,-1.71814144236962e+001,-2.87113011958168e-001

1.94530989482457e+004,-1.71814229894936e+001,-2.91118329137163e-001

1.97246540898671e+004,-1.71814317949974e+001,-2.95179447092810e-001

1.99999999999999e+004,-1.71814408468835e+001,-2.99297140072323e-001

2.02791895958005e+004,-1.71814501520121e+001,-3.03472192930905e-001

2.05622765331213e+004,-1.71814597174321e+001,-3.07705401276846e-001

2.08493152168224e+004,-1.71814695503871e+001,-3.11997571608208e-001

2.11403608112276e+004,-1.71814796583198e+001,-3.16349521457074e-001

2.14354692507258e+004,-1.71814900488775e+001,-3.20762079537284e-001

2.17346972505211e+004,-1.71815007299184e+001,-3.25236085884826e-001

2.20381023175322e+004,-1.71815117095160e+001,-3.29772392012897e-001

2.23457427614443e+004,-1.71815229959658e+001,-3.34371861055516e-001

2.26576777059159e+004,-1.71815345977911e+001,-3.39035367921858e-001

2.29739670999406e+004,-1.71815465237488e+001,-3.43763799448244e-001

2.32946717293690e+004,-1.71815587828358e+001,-3.48558054554096e-001

2.36198532285905e+004,-1.71815713842954e+001,-3.53419044395369e-001

2.39495740923785e+004,-1.71815843376238e+001,-3.58347692527204e-001

2.42838976879009e+004,-1.71815976525770e+001,-3.63344935057687e-001

2.46228882668982e+004,-1.71816113391774e+001,-3.68411720813528e-001

2.49666109780322e+004,-1.71816254077213e+001,-3.73549011501609e-001

2.53151318794055e+004,-1.71816398687854e+001,-3.78757781874146e-001

2.56685179512580e+004,-1.71816547332351e+001,-3.84039019893695e-001

2.60268371088386e+004,-1.71816700122315e+001,-3.89393726902795e-001

2.63901582154578e+004,-1.71816857172393e+001,-3.94822917792138e-001

2.67585510957221e+004,-1.71817018600348e+001,-4.00327621175120e-001

2.71320865489533e+004,-1.71817184527143e+001,-4.05908879555226e-001

2.75108363627948e+004,-1.71817355077018e+001,-4.11567749507665e-001

2.78948733270080e+004,-1.71817530377582e+001,-4.17305301850062e-001

2.82842712474618e+004,-1.71817710559900e+001,-4.23122621823880e-001

2.86791049603164e+004,-1.71817895758578e+001,-4.29020809272174e-001

2.90794503464061e+004,-1.71818086111860e+001,-4.35000978822618e-001

2.94853843458219e+004,-1.71818281761717e+001,-4.41064260069514e-001

2.98969849726987e+004,-1.71818482853947e+001,-4.47211797758512e-001

3.03143313302078e+004,-1.71818689538273e+001,-4.53444751973046e-001

3.07375036257601e+004,-1.71818901968443e+001,-4.59764298320603e-001

3.11665831864199e+004,-1.71819120302328e+001,-4.66171628126006e-001

3.16016524745350e+004,-1.71819344702036e+001,-4.72667948617157e-001

3.20427951035848e+004,-1.71819575334013e+001,-4.79254483121275e-001

3.24900958542493e+004,-1.71819812369156e+001,-4.85932471258034e-001

3.29436406907028e+004,-1.71820055982921e+001,-4.92703169134104e-001

3.34035167771346e+004,-1.71820306355443e+001,-4.99567849541011e-001

3.38698124945009e+004,-1.71820563671654e+001,-5.06527802151856e-001

3.43426174575100e+004,-1.71820828121394e+001,-5.13584333723882e-001

3.48220225318448e+004,-1.71821099899543e+001,-5.20738768297679e-001

3.53081198516260e+004,-1.71821379206140e+001,-5.27992447399969e-001

3.58010028371187e+004,-1.71821666246515e+001,-5.35346730246459e-001

3.63007662126863e+004,-1.71821961231413e+001,-5.42802993950101e-001

3.68075060249948e+004,-1.71822264377134e+001,-5.50362633723924e-001

3.73213196614721e+004,-1.71822575905661e+001,-5.58027063090271e-001

3.78423058690237e+004,-1.71822896044804e+001,-5.65797714089006e-001

3.83705647730104e+004,-1.71823225028338e+001,-5.73676037487894e-001

3.89061978964912e+004,-1.71823563096144e+001,-5.81663502993385e-001

3.94493081797342e+004,-1.71823910494363e+001,-5.89761599460141e-001

3.99999999999998e+004,-1.71824267475536e+001,-5.97971835108559e-001

4.05583791916010e+004,-1.71824634298760e+001,-6.06295737733228e-001

4.11245530662425e+004,-1.71825011229843e+001,-6.14734854921753e-001

4.16986304336447e+004,-1.71825398541459e+001,-6.23290754268118e-001

4.22807216224550e+004,-1.71825796513308e+001,-6.31965023587297e-001

4.28709385014515e+004,-1.71826205432279e+001,-6.40759271136067e-001

4.34693945010421e+004,-1.71826625592616e+001,-6.49675125825988e-001

4.40762046350642e+004,-1.71827057296086e+001,-6.58714237442313e-001

4.46914855228886e+004,-1.71827500852146e+001,-6.67878276865312e-001

4.53153554118317e+004,-1.71827956578119e+001,-6.77168936284608e-001

4.59479341998812e+004,-1.71828424799371e+001,-6.86587929419214e-001

4.65893434587380e+004,-1.71828905849484e+001,-6.96136991738633e-001

4.72397064571810e+004,-1.71829400070443e+001,-7.05817880678195e-001

4.78991481847569e+004,-1.71829907812813e+001,-7.15632375862470e-001

4.85677953758016e+004,-1.71830429435928e+001,-7.25582279320539e-001

4.92457765337964e+004,-1.71830965308077e+001,-7.35669415706867e-001

4.99332219560642e+004,-1.71831515806697e+001,-7.45895632518735e-001

5.06302637588109e+004,-1.71832081318559e+001,-7.56262800315171e-001

5.13370359025159e+004,-1.71832662239964e+001,-7.66772812934754e-001

5.20536742176771e+004,-1.71833258976944e+001,-7.77427587711455e-001

5.27803164309155e+004,-1.71833871945450e+001,-7.88229065691656e-001

5.35171021914442e+004,-1.71834501571558e+001,-7.99179211850530e-001

5.42641730979066e+004,-1.71835148291667e+001,-8.10280015304628e-001

5.50216727255895e+004,-1.71835812552702e+001,-8.21533489526378e-001

5.57897466540159e+004,-1.71836494812314e+001,-8.32941672556882e-001

5.65685424949235e+004,-1.71837195539084e+001,-8.44506627216982e-001

5.73582099206328e+004,-1.71837915212733e+001,-8.56230441314919e-001

5.81589006928121e+004,-1.71838654324317e+001,-8.68115227856164e-001

5.89707686916437e+004,-1.71839413376444e+001,-8.80163125248984e-001

5.97939699453972e+004,-1.71840192883466e+001,-8.92376297510396e-001

6.06286626604156e+004,-1.71840993371697e+001,-9.04756934464878e-001

6.14750072515201e+004,-1.71841815379608e+001,-9.17307251950125e-001

6.23331663728396e+004,-1.71842659458033e+001,-9.30029492010214e-001

6.32033049490698e+004,-1.71843526170373e+001,-9.42925923095993e-001

6.40855902071694e+004,-1.71844416092794e+001,-9.55998840255397e-001

6.49801917084985e+004,-1.71845329814430e+001,-9.69250565324955e-001

6.58872813814055e+004,-1.71846267937574e+001,-9.82683447120124e-001

6.68070335542691e+004,-1.71847231077876e+001,-9.96299861616642e-001

6.77396249890018e+004,-1.71848219864531e+001,-1.01010221213729e+000

6.86852349150199e+004,-1.71849234940467e+001,-1.02409292952861e+000

6.96440450636895e+004,-1.71850276962528e+001,-1.03827447233683e+000

7.06162397032520e+004,-1.71851346601651e+001,-1.05264932698252e+000

7.16020056742374e+004,-1.71852444543040e+001,-1.06722000792878e+000

7.26015324253724e+004,-1.71853571486334e+001,-1.08198905784691e+000

7.36150120499896e+004,-1.71854728145764e+001,-1.09695904777998e+000

7.46426393229441e+004,-1.71855915250312e+001,-1.11213257730100e+000

7.56846117380472e+004,-1.71857133543852e+001,-1.12751227466812e+000

7.67411295460207e+004,-1.71858383785289e+001,-1.14310079697577e+000

7.78123957929823e+004,-1.71859666748691e+001,-1.15890083030209e+000

7.88986163594682e+004,-1.71860983223402e+001,-1.17491508985387e+000

7.99999999999995e+004,-1.71862334014155e+001,-1.19114632010357e+000

8.11167583832018e+004,-1.71863719941164e+001,-1.20759729492888e+000

8.22491061324848e+004,-1.71865141840209e+001,-1.22427081774204e+000

8.33972608672892e+004,-1.71866600562709e+001,-1.24116972162002e+000

8.45614432449099e+004,-1.71868096975779e+001,-1.25829686942729e+000

8.57418770029029e+004,-1.71869631962263e+001,-1.27565515393986e+000

8.69387890020841e+004,-1.71871206420770e+001,-1.29324749795953e+000

8.81524092701283e+004,-1.71872821265674e+001,-1.31107685443062e+000

8.93829710457770e+004,-1.71874477427106e+001,-1.32914620654956e+000

9.06307108236633e+004,-1.71876175850923e+001,-1.34745856787297e+000

9.18958683997622e+004,-1.71877917498659e+001,-1.36601698242325e+000

9.31786869174758e+004,-1.71879703347450e+001,-1.38482452479117e+000

9.44794129143618e+004,-1.71881534389940e+001,-1.40388430023586e+000

9.57982963695136e+004,-1.71883411634160e+001,-1.42319944478409e+000

9.71355907516031e+004,-1.71885336103381e+001,-1.44277312532727e+000

9.84915530675926e+004,-1.71887308835949e+001,-1.46260853971642e+000

9.98664439121282e+004,-1.71889330885072e+001,-1.48270891686011e+000

1.01260527517622e+005,-1.71891403318603e+001,-1.50307751681782e+000

1.02674071805032e+005,-1.71893527218769e+001,-1.52371763089680e+000

1.04107348435354e+005,-1.71895703681883e+001,-1.54463258174958e+000

1.05560632861831e+005,-1.71897933818016e+001,-1.56582572347400e+000

1.07034204382888e+005,-1.71900218750633e+001,-1.58730044171375e+000

1.08528346195813e+005,-1.71902559616196e+001,-1.60906015376588e+000

1.10043345451179e+005,-1.71904957563726e+001,-1.63110830868769e+000

1.11579493308032e+005,-1.71907413754326e+001,-1.65344838741640e+000

1.13137084989847e+005,-1.71909929360665e+001,-1.67608390288728e+000

1.14716419841265e+005,-1.71912505566420e+001,-1.69901840016489e+000

1.16317801385624e+005,-1.71915143565665e+001,-1.72225545658172e+000

1.17941537383287e+005,-1.71917844562231e+001,-1.74579868188505e+000

1.19587939890794e+005,-1.71920609769007e+001,-1.76965171839807e+000

1.21257325320831e+005,-1.71923440407193e+001,-1.79381824119146e+000

1.22950014503040e+005,-1.71926337705517e+001,-1.81830195827145e+000

1.24666332745679e+005,-1.71929302899382e+001,-1.84310661078151e+000

1.26406609898139e+005,-1.71932337229980e+001,-1.86823597322488e+000

1.28171180414339e+005,-1.71935441943340e+001,-1.89369385370349e+000

1.29960383416997e+005,-1.71938618289331e+001,-1.91948409418106e+000

1.31774562762811e+005,-1.71941867520603e+001,-1.94561057076772e+000

1.33614067108538e+005,-1.71945190891484e+001,-1.97207719403107e+000

1.35479249978003e+005,-1.71948589656804e+001,-1.99888790933543e+000

1.37370469830040e+005,-1.71952065070681e+001,-2.02604669720983e+000

1.39288090127379e+005,-1.71955618385234e+001,-2.05355757375029e+000

1.41232479406504e+005,-1.71959250849249e+001,-2.08142459105537e+000

1.43204011348474e+005,-1.71962963706785e+001,-2.10965183769938e+000

1.45203064850745e+005,-1.71966758195720e+001,-2.13824343924658e+000

1.47230024099979e+005,-1.71970635546241e+001,-2.16720355880804e+000

1.49285278645888e+005,-1.71974596979281e+001,-2.19653639764236e+000

1.51369223476094e+005,-1.71978643704892e+001,-2.22624619580824e+000

1.53482259092041e+005,-1.71982776920573e+001,-2.25633723286433e+000

1.55624791585964e+005,-1.71986997809535e+001,-2.28681382862731e+000

1.57797232718936e+005,-1.71991307538916e+001,-2.31768034398586e+000

1.59999999999999e+005,-1.71995707257953e+001,-2.34894118177443e+000

1.62233516766403e+005,-1.72000198096090e+001,-2.38060078771097e+000

1.64498212264969e+005,-1.72004781161052e+001,-2.41266365140495e+000

1.66794521734578e+005,-1.72009457536873e+001,-2.44513430742866e+000

1.69122886489819e+005,-1.72014228281874e+001,-2.47801733646921e+000

1.71483754005805e+005,-1.72019094426613e+001,-2.51131736655169e+000

1.73877578004168e+005,-1.72024056971800e+001,-2.54503907434399e+000

1.76304818540256e+005,-1.72029116886173e+001,-2.57918718654449e+000

1.78765942091554e+005,-1.72034275104360e+001,-2.61376648135427e+000

1.81261421647326e+005,-1.72039532524706e+001,-2.64878179003924e+000

1.83791736799524e+005,-1.72044890007098e+001,-2.68423799858383e+000

1.86357373834951e+005,-1.72050348370768e+001,-2.72014004943747e+000

1.88958825828723e+005,-1.72055908392094e+001,-2.75649294336039e+000

1.91596592739027e+005,-1.72061570802406e+001,-2.79330174136664e+000

1.94271181503206e+005,-1.72067336285794e+001,-2.83057156677163e+000

1.96983106135185e+005,-1.72073205476930e+001,-2.86830760734121e+000

1.99732887824256e+005,-1.72079178958919e+001,-2.90651511754794e+000

2.02521055035243e+005,-1.72085257261171e+001,-2.94519942093505e+000

2.05348143610063e+005,-1.72091440857314e+001,-2.98436591258889e+000

2.08214696870707e+005,-1.72097730163151e+001,-3.02402006172283e+000

2.11121265723661e+005,-1.72104125534671e+001,-3.06416741437132e+000

2.14068408765776e+005,-1.72110627266125e+001,-3.10481359619593e+000

2.17056692391625e+005,-1.72117235588167e+001,-3.14596431540399e+000

2.20086690902357e+005,-1.72123950666084e+001,-3.18762536577867e+000

2.23158986616063e+005,-1.72130772598112e+001,-3.22980262982007e+000

2.26274169979693e+005,-1.72137701413849e+001,-3.27250208199775e+000

2.29432839682530e+005,-1.72144737072782e+001,-3.31572979211170e+000

2.32635602771247e+005,-1.72151879462933e+001,-3.35949192876138e+000

2.35883074766574e+005,-1.72159128399629e+001,-3.40379476291959e+000

2.39175879781588e+005,-1.72166483624417e+001,-3.44864467160876e+000

2.42514650641661e+005,-1.72173944804119e+001,-3.49404814167886e+000

2.45900029006080e+005,-1.72181511530056e+001,-3.54001177367816e+000

2.49332665491357e+005,-1.72189183317426e+001,-3.58654228581954e+000

2.52813219796278e+005,-1.72196959604868e+001,-3.63364651803192e+000

2.56342360828676e+005,-1.72204839754204e+001,-3.68133143609597e+000

2.59920766833993e+005,-1.72212823050379e+001,-3.72960413585720e+000

2.63549125525621e+005,-1.72220908701600e+001,-3.77847184750904e+000

2.67228134217075e+005,-1.72229095839682e+001,-3.82794193994380e+000

2.70958499956006e+005,-1.72237383520613e+001,-3.87802192516024e+000

2.74740939660078e+005,-1.72245770725337e+001,-3.92871946272307e+000

2.78576180254757e+005,-1.72254256360770e+001,-3.98004236426846e+000

2.82464958813007e+005,-1.72262839261039e+001,-4.03199859804317e+000

2.86408022696948e+005,-1.72271518188975e+001,-4.08459629347360e+000

2.90406129701488e+005,-1.72280291837826e+001,-4.13784374575408e+000

2.94460048199957e+005,-1.72289158833229e+001,-4.19174942044706e+000

2.98570557291775e+005,-1.72298117735418e+001,-4.24632195808462e+000

3.02738446952187e+005,-1.72307167041683e+001,-4.30157017876343e+000

3.06964518184081e+005,-1.72316305189074e+001,-4.35750308672473e+000

3.11249583171928e+005,-1.72325530557342e+001,-4.41412987490764e+000

3.15594465437872e+005,-1.72334841472135e+001,-4.47145992946966e+000

3.19999999999997e+005,-1.72344236208425e+001,-4.52950283426201e+000

3.24467033532806e+005,-1.72353712994172e+001,-4.58826837525376e+000

3.28996424529938e+005,-1.72363270014216e+001,-4.64776654489256e+000

3.33589043469155e+005,-1.72372905414398e+001,-4.70800754639608e+000

3.38245772979638e+005,-1.72382617305895e+001,-4.76900179796292e+000

3.42967508011610e+005,-1.72392403769762e+001,-4.83075993689750e+000

3.47755156008335e+005,-1.72402262861677e+001,-4.89329282363822e+000

3.52609637080511e+005,-1.72412192616871e+001,-4.95661154568252e+000

3.57531884183106e+005,-1.72422191055243e+001,-5.02072742140309e+000

3.62522843294651e+005,-1.72432256186636e+001,-5.08565200374646e+000

3.67583473599047e+005,-1.72442386016272e+001,-5.15139708380829e+000

3.72714747669902e+005,-1.72452578550324e+001,-5.21797469428193e+000

3.77917651657445e+005,-1.72462831801625e+001,-5.28539711277225e+000

3.83193185478053e+005,-1.72473143795474e+001,-5.35367686497385e+000

3.88542363006410e+005,-1.72483512575559e+001,-5.42282672770715e+000

3.93966212270369e+005,-1.72493936209955e+001,-5.49285973181122e+000

3.99465775648511e+005,-1.72504412797184e+001,-5.56378916489210e+000

4.05042110070485e+005,-1.72514940472341e+001,-5.63562857392328e+000

4.10696287220124e+005,-1.72525517413246e+001,-5.70839176769864e+000

4.16429393741414e+005,-1.72536141846620e+001,-5.78209281913901e+000

4.22242531447321e+005,-1.72546812054272e+001,-5.85674606745171e+000

4.28136817531551e+005,-1.72557526379260e+001,-5.93236612014681e+000

4.34113384783250e+005,-1.72568283232046e+001,-6.00896785491102e+000

4.40173381804713e+005,-1.72579081096596e+001,-6.08656642134154e+000

4.46317973232124e+005,-1.72589918536429e+001,-6.16517724254799e+000

4.52548339959385e+005,-1.72600794200598e+001,-6.24481601662225e+000

4.58865679365059e+005,-1.72611706829584e+001,-6.32549871798386e+000

4.65271205542494e+005,-1.72622655261104e+001,-6.40724159860695e+000

4.71766149533147e+005,-1.72633638435793e+001,-6.49006118913496e+000

4.78351759563174e+005,-1.72644655402788e+001,-6.57397429988964e+000

4.85029301283321e+005,-1.72655705325168e+001,-6.65899802178199e+000

4.91800058012158e+005,-1.72666787485261e+001,-6.74514972713393e+000

4.98665330982714e+005,-1.72677901289799e+001,-6.83244707041830e+000

5.05626439592555e+005,-1.72689046274926e+001,-6.92090798892578e+000

5.12684721657352e+005,-1.72700222111035e+001,-7.01055070336775e+000

5.19841533667984e+005,-1.72711428607443e+001,-7.10139371842523e+000

5.27098251051240e+005,-1.72722665716890e+001,-7.19345582325179e+000

5.34456268434150e+005,-1.72733933539873e+001,-7.28675609194089e+000

5.41916999912011e+005,-1.72745232328784e+001,-7.38131388396693e+000

