Freq.,VOut,OutRef

1.00000000000000e+004,-2.15294995712306e+001,-3.95725294766356e-001

1.01395947979003e+004,-2.15295033969043e+001,-4.01249017758162e-001

1.02811382665607e+004,-2.15295073300500e+001,-4.06849832236267e-001

1.04246576084112e+004,-2.15295113736842e+001,-4.12528813644914e-001

1.05701804056138e+004,-2.15295155309086e+001,-4.18287052409517e-001

1.07177346253629e+004,-2.15295198049113e+001,-4.24125654146943e-001

1.08673486252606e+004,-2.15295241989698e+001,-4.30045739875536e-001

1.10190511587661e+004,-2.15295287164534e+001,-4.36048446227836e-001

1.11728713807222e+004,-2.15295333608260e+001,-4.42134925666577e-001

1.13288388529580e+004,-2.15295381356483e+001,-4.48306346706927e-001

1.14869835499703e+004,-2.15295430445809e+001,-4.54563894135249e-001

1.16473358646846e+004,-2.15295480913868e+001,-4.60908769238383e-001

1.18099266142953e+004,-2.15295532799345e+001,-4.67342190028944e-001

1.19747870461893e+004,-2.15295586142007e+001,-4.73865391479915e-001

1.21419488439505e+004,-2.15295640982734e+001,-4.80479625756759e-001

1.23114441334492e+004,-2.15295697363553e+001,-4.87186162457243e-001

1.24833054890161e+004,-2.15295755327664e+001,-4.93986288853154e-001

1.26575659397028e+004,-2.15295814919478e+001,-5.00881310133890e-001

1.28342589756290e+004,-2.15295876184649e+001,-5.07872549654389e-001

1.30134185544193e+004,-2.15295939170107e+001,-5.14961349186756e-001

1.31950791077289e+004,-2.15296003924096e+001,-5.22149069175065e-001

1.33792755478611e+004,-2.15296070496209e+001,-5.29437088994126e-001

1.35660432744767e+004,-2.15296138937426e+001,-5.36826807208528e-001

1.37554181813974e+004,-2.15296209300154e+001,-5.44319641842113e-001

1.39474366635040e+004,-2.15296281638263e+001,-5.51917030643411e-001

1.41421356237309e+004,-2.15296356007130e+001,-5.59620431358729e-001

1.43395524801583e+004,-2.15296432463680e+001,-5.67431322009939e-001

1.45397251732031e+004,-2.15296511066429e+001,-5.75351201171516e-001

1.47426921729110e+004,-2.15296591875528e+001,-5.83381588257056e-001

1.49484924863494e+004,-2.15296674952807e+001,-5.91524023805550e-001

1.51571656651040e+004,-2.15296760361828e+001,-5.99780069770715e-001

1.53687518128801e+004,-2.15296848167919e+001,-6.08151309821063e-001

1.55832915932100e+004,-2.15296938438241e+001,-6.16639349633418e-001

1.58008262372675e+004,-2.15297031241826e+001,-6.25245817200133e-001

1.60213975517924e+004,-2.15297126649632e+001,-6.33972363135048e-001

1.62450479271247e+004,-2.15297224734600e+001,-6.42820660984650e-001

1.64718203453514e+004,-2.15297325571702e+001,-6.51792407544340e-001

1.67017583885674e+004,-2.15297429238004e+001,-6.60889323177200e-001

1.69349062472505e+004,-2.15297535812722e+001,-6.70113152139174e-001

1.71713087287550e+004,-2.15297645377277e+001,-6.79465662906442e-001

1.74110112659224e+004,-2.15297758015364e+001,-6.88948648508145e-001

1.76540599258131e+004,-2.15297873813007e+001,-6.98563926864651e-001

1.79005014185594e+004,-2.15297992858628e+001,-7.08313341128365e-001

1.81503831063432e+004,-2.15298115243112e+001,-7.18198760029713e-001

1.84037530124975e+004,-2.15298241059873e+001,-7.28222078228353e-001

1.86606598307361e+004,-2.15298370404928e+001,-7.38385216667132e-001

1.89211529345119e+004,-2.15298503376965e+001,-7.48690122935315e-001

1.91852823865052e+004,-2.15298640077420e+001,-7.59138771628833e-001

1.94530989482457e+004,-2.15298780610545e+001,-7.69733164724183e-001

1.97246540898671e+004,-2.15298925083498e+001,-7.80475331950072e-001

1.99999999999999e+004,-2.15299073606409e+001,-7.91367331167670e-001

2.02791895958005e+004,-2.15299226292474e+001,-8.02411248755037e-001

2.05622765331213e+004,-2.15299383258031e+001,-8.13609199995892e-001

2.08493152168224e+004,-2.15299544622649e+001,-8.24963329474499e-001

2.11403608112276e+004,-2.15299710509214e+001,-8.36475811475404e-001

2.14354692507258e+004,-2.15299881044029e+001,-8.48148850386423e-001

2.17346972505211e+004,-2.15300056356894e+001,-8.59984681110626e-001

2.20381023175322e+004,-2.15300236581211e+001,-8.71985569480781e-001

2.23457427614443e+004,-2.15300421854081e+001,-8.84153812679674e-001

2.26576777059159e+004,-2.15300612316402e+001,-8.96491739665721e-001

2.29739670999406e+004,-2.15300808112976e+001,-9.09001711605643e-001

2.32946717293690e+004,-2.15301009392613e+001,-9.21686122310646e-001

2.36198532285905e+004,-2.15301216308244e+001,-9.34547398677772e-001

2.39495740923785e+004,-2.15301429017025e+001,-9.47588001141159e-001

2.42838976879009e+004,-2.15301647680463e+001,-9.60810424122710e-001

2.46228882668982e+004,-2.15301872464524e+001,-9.74217196493785e-001

2.49666109780322e+004,-2.15302103539762e+001,-9.87810882039279e-001

2.53151318794055e+004,-2.15302341081439e+001,-1.00159407992995e+000

2.56685179512580e+004,-2.15302585269651e+001,-1.01556942519924e+000

2.60268371088386e+004,-2.15302836289464e+001,-1.02973958922653e+000

2.63901582154578e+004,-2.15303094331046e+001,-1.04410728022584e+000

2.67585510957221e+004,-2.15303359589801e+001,-1.05867524374224e+000

2.71320865489533e+004,-2.15303632266516e+001,-1.07344626315217e+000

2.75108363627948e+004,-2.15303912567505e+001,-1.08842316017161e+000

2.78948733270080e+004,-2.15304200704752e+001,-1.10360879537013e+000

2.82842712474618e+004,-2.15304496896072e+001,-1.11900606869154e+000

2.86791049603164e+004,-2.15304801365258e+001,-1.13461791997977e+000

2.90794503464061e+004,-2.15305114342251e+001,-1.15044732951110e+000

2.94853843458219e+004,-2.15305436063298e+001,-1.16649731853621e+000

2.98969849726987e+004,-2.15305766771121e+001,-1.18277094982352e+000

3.03143313302078e+004,-2.15306106715092e+001,-1.19927132821349e+000

3.07375036257601e+004,-2.15306456151410e+001,-1.21600160117727e+000

3.11665831864199e+004,-2.15306815343280e+001,-1.23296495938287e+000

3.16016524745350e+004,-2.15307184561102e+001,-1.25016463726751e+000

3.20427951035848e+004,-2.15307564082659e+001,-1.26760391361719e+000

3.24900958542493e+004,-2.15307954193319e+001,-1.28528611215251e+000

3.29436406907028e+004,-2.15308355186223e+001,-1.30321460212369e+000

3.34035167771346e+004,-2.15308767362505e+001,-1.32139279890738e+000

3.38698124945009e+004,-2.15309191031489e+001,-1.33982416461744e+000

3.43426174575100e+004,-2.15309626510914e+001,-1.35851220871628e+000

3.48220225318448e+004,-2.15310074127150e+001,-1.37746048863663e+000

3.53081198516260e+004,-2.15310534215425e+001,-1.39667261041050e+000

3.58010028371187e+004,-2.15311007120055e+001,-1.41615222930401e+000

3.63007662126863e+004,-2.15311493194684e+001,-1.43590305046002e+000

3.68075060249948e+004,-2.15311992802525e+001,-1.45592882954769e+000

3.73213196614721e+004,-2.15312506316606e+001,-1.47623337342036e+000

3.78423058690237e+004,-2.15313034120029e+001,-1.49682054077840e+000

3.83705647730104e+004,-2.15313576606225e+001,-1.51769424284321e+000

3.89061978964912e+004,-2.15314134179224e+001,-1.53885844403278e+000

3.94493081797342e+004,-2.15314707253926e+001,-1.56031716265180e+000

3.99999999999998e+004,-2.15315296256381e+001,-1.58207447158312e+000

4.05583791916010e+004,-2.15315901624069e+001,-1.60413449898965e+000

4.11245530662425e+004,-2.15316523806199e+001,-1.62650142902400e+000

4.16986304336447e+004,-2.15317163264000e+001,-1.64917950254277e+000

4.22807216224550e+004,-2.15317820471033e+001,-1.67217301783249e+000

4.28709385014515e+004,-2.15318495913494e+001,-1.69548633133950e+000

4.34693945010421e+004,-2.15319190090540e+001,-1.71912385840912e+000

4.40762046350642e+004,-2.15319903514610e+001,-1.74309007403260e+000

4.46914855228886e+004,-2.15320636711758e+001,-1.76738951360055e+000

4.53153554118317e+004,-2.15321390221996e+001,-1.79202677366493e+000

4.59479341998812e+004,-2.15322164599635e+001,-1.81700651270795e+000

4.65893434587380e+004,-2.15322960413642e+001,-1.84233345191927e+000

4.72397064571810e+004,-2.15323778248006e+001,-1.86801237598015e+000

4.78991481847569e+004,-2.15324618702097e+001,-1.89404813385591e+000

4.85677953758016e+004,-2.15325482391052e+001,-1.92044563959538e+000

4.92457765337964e+004,-2.15326369946154e+001,-1.94720987313734e+000

4.99332219560642e+004,-2.15327282015228e+001,-1.97434588112745e+000

5.06302637588109e+004,-2.15328219263033e+001,-2.00185877773925e+000

5.13370359025159e+004,-2.15329182371681e+001,-2.02975374550435e+000

5.20536742176771e+004,-2.15330172041040e+001,-2.05803603615108e+000

5.27803164309155e+004,-2.15331188989168e+001,-2.08671097144886e+000

5.35171021914442e+004,-2.15332233952736e+001,-2.11578394406128e+000

5.42641730979066e+004,-2.15333307687472e+001,-2.14526041840750e+000

5.50216727255895e+004,-2.15334410968608e+001,-2.17514593152815e+000

5.57897466540159e+004,-2.15335544591332e+001,-2.20544609396290e+000

5.65685424949235e+004,-2.15336709371252e+001,-2.23616659063252e+000

5.73582099206328e+004,-2.15337906144872e+001,-2.26731318172863e+000

5.81589006928121e+004,-2.15339135770063e+001,-2.29889170361319e+000

5.89707686916437e+004,-2.15340399126556e+001,-2.33090806972198e+000

5.97939699453972e+004,-2.15341697116437e+001,-2.36336827147888e+000

6.06286626604156e+004,-2.15343030664646e+001,-2.39627837921457e+000

6.14750072515201e+004,-2.15344400719490e+001,-2.42964454309519e+000

6.23331663728396e+004,-2.15345808253162e+001,-2.46347299405612e+000

6.32033049490698e+004,-2.15347254262267e+001,-2.49777004474454e+000

6.40855902071694e+004,-2.15348739768353e+001,-2.53254209046854e+000

6.49801917084985e+004,-2.15350265818455e+001,-2.56779561015384e+000

6.58872813814055e+004,-2.15351833485642e+001,-2.60353716730760e+000

6.68070335542691e+004,-2.15353443869572e+001,-2.63977341098958e+000

6.77396249890018e+004,-2.15355098097058e+001,-2.67651107678958e+000

6.86852349150199e+004,-2.15356797322628e+001,-2.71375698781462e+000

6.96440450636895e+004,-2.15358542729112e+001,-2.75151805568000e+000

7.06162397032520e+004,-2.15360335528218e+001,-2.78980128150989e+000

7.16020056742374e+004,-2.15362176961120e+001,-2.82861375694423e+000

7.26015324253724e+004,-2.15364068299055e+001,-2.86796266515291e+000

7.36150120499896e+004,-2.15366010843918e+001,-2.90785528185804e+000

7.46426393229441e+004,-2.15368005928873e+001,-2.94829897636170e+000

7.56846117380472e+004,-2.15370054918958e+001,-2.98930121258292e+000

7.67411295460207e+004,-2.15372159211701e+001,-3.03086955010036e+000

7.78123957929823e+004,-2.15374320237739e+001,-3.07301164520436e+000

7.88986163594682e+004,-2.15376539461441e+001,-3.11573525195359e+000

7.99999999999995e+004,-2.15378818381532e+001,-3.15904822324302e+000

8.11167583832018e+004,-2.15381158531723e+001,-3.20295851187606e+000

8.22491061324848e+004,-2.15383561481343e+001,-3.24747417164608e+000

8.33972608672892e+004,-2.15386028835970e+001,-3.29260335842749e+000

8.45614432449099e+004,-2.15388562238069e+001,-3.33835433127087e+000

8.57418770029029e+004,-2.15391163367624e+001,-3.38473545351056e+000

8.69387890020841e+004,-2.15393833942778e+001,-3.43175519387793e+000

8.81524092701283e+004,-2.15396575720465e+001,-3.47942212762499e+000

8.93829710457770e+004,-2.15399390497047e+001,-3.52774493765576e+000

9.06307108236633e+004,-2.15402280108949e+001,-3.57673241566842e+000

9.18958683997622e+004,-2.15405246433288e+001,-3.62639346330503e+000

9.31786869174758e+004,-2.15408291388502e+001,-3.67673709331298e+000

9.44794129143618e+004,-2.15411416934976e+001,-3.72777243071593e+000

9.57982963695136e+004,-2.15414625075662e+001,-3.77950871399568e+000

9.71355907516031e+004,-2.15417917856696e+001,-3.83195529628477e+000

9.84915530675926e+004,-2.15421297368008e+001,-3.88512164657178e+000

9.98664439121282e+004,-2.15424765743924e+001,-3.93901735091781e+000

1.01260527517622e+005,-2.15428325163767e+001,-3.99365211368641e+000

1.02674071805032e+005,-2.15431977852441e+001,-4.04903575878715e+000

1.04107348435354e+005,-2.15435726081012e+001,-4.10517823093296e+000

1.05560632861831e+005,-2.15439572167281e+001,-4.16208959691222e+000

1.07034204382888e+005,-2.15443518476339e+001,-4.21978004687816e+000

1.08528346195813e+005,-2.15447567421122e+001,-4.27825989565230e+000

1.10043345451179e+005,-2.15451721462944e+001,-4.33753958404753e+000

1.11579493308032e+005,-2.15455983112019e+001,-4.39762968020977e+000

1.13137084989847e+005,-2.15460354927980e+001,-4.45854088097730e+000

1.14716419841265e+005,-2.15464839520367e+001,-4.52028401326310e+000

1.16317801385624e+005,-2.15469439549117e+001,-4.58287003545808e+000

1.17941537383287e+005,-2.15474157725025e+001,-4.64631003885721e+000

1.19587939890794e+005,-2.15478996810201e+001,-4.71061524911123e+000

1.21257325320831e+005,-2.15483959618500e+001,-4.77579702770421e+000

1.22950014503040e+005,-2.15489049015940e+001,-4.84186687345695e+000

1.24666332745679e+005,-2.15494267921109e+001,-4.90883642406285e+000

1.26406609898139e+005,-2.15499619305540e+001,-4.97671745765113e+000

1.28171180414339e+005,-2.15505106194083e+001,-5.04552189438472e+000

1.29960383416997e+005,-2.15510731665249e+001,-5.11526179809216e+000

1.31774562762811e+005,-2.15516498851545e+001,-5.18594937793538e+000

1.33614067108538e+005,-2.15522410939777e+001,-5.25759699011648e+000

1.35479249978003e+005,-2.15528471171356e+001,-5.33021713962394e+000

1.37370469830040e+005,-2.15534682842568e+001,-5.40382248202250e+000

1.39288090127379e+005,-2.15541049304840e+001,-5.47842582528781e+000

1.41232479406504e+005,-2.15547573964984e+001,-5.55404013168660e+000

1.43204011348474e+005,-2.15554260285430e+001,-5.63067851970920e+000

1.45203064850745e+005,-2.15561111784440e+001,-5.70835426605160e+000

1.47230024099979e+005,-2.15568132036318e+001,-5.78708080765351e+000

1.49285278645888e+005,-2.15575324671604e+001,-5.86687174379278e+000

1.51369223476094e+005,-2.15582693377256e+001,-5.94774083824051e+000

1.53482259092041e+005,-2.15590241896834e+001,-6.02970202147770e+000

1.55624791585964e+005,-2.15597974030674e+001,-6.11276939297819e+000

1.57797232718936e+005,-2.15605893636058e+001,-6.19695722355899e+000

1.59999999999999e+005,-2.15614004627393e+001,-6.28227995780101e+000

1.62233516766403e+005,-2.15622310976385e+001,-6.36875221654546e+000

1.64498212264969e+005,-2.15630816712231e+001,-6.45638879946399e+000

1.66794521734578e+005,-2.15639525921810e+001,-6.54520468771057e+000

1.69122886489819e+005,-2.15648442749905e+001,-6.63521504665382e+000

1.71483754005805e+005,-2.15657571399436e+001,-6.72643522869500e+000

1.73877578004168e+005,-2.15666916131717e+001,-6.81888077617405e+000

1.76304818540256e+005,-2.15676481266752e+001,-6.91256742436440e+000

1.78765942091554e+005,-2.15686271183565e+001,-7.00751110456204e+000

1.81261421647326e+005,-2.15696290320567e+001,-7.10372794726877e+000

1.83791736799524e+005,-2.15706543175981e+001,-7.20123428547368e+000

1.86357373834951e+005,-2.15717034308317e+001,-7.30004665803463e+000

1.88958825828723e+005,-2.15727768336914e+001,-7.40018181316040e+000

1.91596592739027e+005,-2.15738749942552e+001,-7.50165671199753e+000

1.94271181503206e+005,-2.15749983868145e+001,-7.60448853232259e+000

1.96983106135185e+005,-2.15761474919519e+001,-7.70869467234041e+000

1.99732887824256e+005,-2.15773227966287e+001,-7.81429275459097e+000

2.02521055035243e+005,-2.15785247942839e+001,-7.92130062996503e+000

2.05348143610063e+005,-2.15797539849430e+001,-8.02973638182894e+000

2.08214696870707e+005,-2.15810108753412e+001,-8.13961833025947e+000

2.11121265723661e+005,-2.15822959790591e+001,-8.25096503638912e+000

2.14068408765776e+005,-2.15836098166729e+001,-8.36379530685924e+000

2.17056692391625e+005,-2.15849529159214e+001,-8.47812819838353e+000

2.20086690902357e+005,-2.15863258118886e+001,-8.59398302241768e+000

2.23158986616063e+005,-2.15877290472048e+001,-8.71137934993548e+000

2.26274169979693e+005,-2.15891631722670e+001,-8.83033701630854e+000

2.29432839682530e+005,-2.15906287454788e+001,-8.95087612628769e+000

2.32635602771247e+005,-2.15921263335126e+001,-9.07301705908150e+000

2.35883074766574e+005,-2.15936565115933e+001,-9.19678047353149e+000

2.39175879781588e+005,-2.15952198638068e+001,-9.32218731337618e+000

2.42514650641661e+005,-2.15968169834325e+001,-9.44925881260253e+000

2.45900029006080e+005,-2.15984484733020e+001,-9.57801650087900e+000

2.49332665491357e+005,-2.16001149461854e+001,-9.70848220906274e+000

2.52813219796278e+005,-2.16018170252053e+001,-9.84067807477836e+000

2.56342360828676e+005,-2.16035553442801e+001,-9.97462654805797e+000

2.59920766833993e+005,-2.16053305485980e+001,-1.01103503970382e+001

2.63549125525621e+005,-2.16071432951222e+001,-1.02478727137039e+001

2.67228134217075e+005,-2.16089942531282e+001,-1.03872169196740e+001

2.70958499956006e+005,-2.16108841047744e+001,-1.05284067720158e+001

2.74740939660078e+005,-2.16128135457070e+001,-1.06714663690830e+001

2.78576180254757e+005,-2.16147832856992e+001,-1.08164201563657e+001

2.82464958813007e+005,-2.16167940493262e+001,-1.09632929323421e+001

2.86408022696948e+005,-2.16188465766766e+001,-1.11121098543223e+001

2.90406129701488e+005,-2.16209416241000e+001,-1.12628964442723e+001

2.94460048199957e+005,-2.16230799649917e+001,-1.14156785946081e+001

2.98570557291775e+005,-2.16252623906155e+001,-1.15704825739470e+001

3.02738446952187e+005,-2.16274897109638e+001,-1.17273350328050e+001

3.06964518184081e+005,-2.16297627556558e+001,-1.18862630092285e+001

3.11249583171928e+005,-2.16320823748740e+001,-1.20472939343470e+001

3.15594465437872e+005,-2.16344494403379e+001,-1.22104556378351e+001

3.19999999999997e+005,-2.16368648463166e+001,-1.23757763532708e+001

3.24467033532806e+005,-2.16393295106783e+001,-1.25432847233783e+001

3.28996424529938e+005,-2.16418443759777e+001,-1.27130098051418e+001

3.33589043469155e+005,-2.16444104105795e+001,-1.28849810747777e+001

3.38245772979638e+005,-2.16470286098187e+001,-1.30592284325534e+001

3.42967508011610e+005,-2.16496999971962e+001,-1.32357822074410e+001

3.47755156008335e+005,-2.16524256256094e+001,-1.34146731615909e+001

3.52609637080511e+005,-2.16552065786169e+001,-1.35959324946174e+001

3.57531884183106e+005,-2.16580439717355e+001,-1.37795918476818e+001

3.62522843294651e+005,-2.16609389537696e+001,-1.39656833073629e+001

3.67583473599047e+005,-2.16638927081712e+001,-1.41542394093039e+001

3.72714747669902e+005,-2.16669064544297e+001,-1.43452931416256e+001

3.77917651657445e+005,-2.16699814494890e+001,-1.45388779480951e+001

3.83193185478053e+005,-2.16731189891924e+001,-1.47350277310411e+001

3.88542363006410e+005,-2.16763204097516e+001,-1.49337768540072e+001

3.93966212270369e+005,-2.16795870892411e+001,-1.51351601441340e+001

3.99465775648511e+005,-2.16829204491129e+001,-1.53392128942621e+001

4.05042110070485e+005,-2.16863219557333e+001,-1.55459708647490e+001

4.10696287220124e+005,-2.16897931219378e+001,-1.57554702849942e+001

4.16429393741414e+005,-2.16933355086034e+001,-1.59677478546631e+001

4.22242531447321e+005,-2.16969507262365e+001,-1.61828407446085e+001

4.28136817531551e+005,-2.17006404365749e+001,-1.64007865974809e+001

4.34113384783250e+005,-2.17044063542007e+001,-1.66216235280252e+001

4.40173381804713e+005,-2.17082502481653e+001,-1.68453901230587e+001

4.46317973232124e+005,-2.17121739436212e+001,-1.70721254411290e+001

4.52548339959385e+005,-2.17161793234619e+001,-1.73018690118452e+001

4.58865679365059e+005,-2.17202683299665e+001,-1.75346608348847e+001

4.65271205542494e+005,-2.17244429664478e+001,-1.77705413786684e+001

4.71766149533147e+005,-2.17287052989021e+001,-1.80095515787077e+001

4.78351759563174e+005,-2.17330574576598e+001,-1.82517328356186e+001

4.85029301283321e+005,-2.17375016390336e+001,-1.84971270128020e+001

4.91800058012158e+005,-2.17420401069651e+001,-1.87457764337927e+001

4.98665330982714e+005,-2.17466751946652e+001,-1.89977238792725e+001

5.05626439592555e+005,-2.17514093062504e+001,-1.92530125837496e+001

5.12684721657352e+005,-2.17562449183705e+001,-1.95116862319041e+001

5.19841533667984e+005,-2.17611845818279e+001,-1.97737889545978e+001

5.27098251051240e+005,-2.17662309231866e+001,-2.00393653245514e+001

5.34456268434150e+005,-2.17713866463697e+001,-2.03084603516846e+001

5.41916999912011e+005,-2.17766545342447e+001,-2.05811194781234e+001

