Freq.,VOut,OutRef

1.00000000000000e+004,-2.21076065933553e+001,-2.48138614124048e-001

1.01395947979003e+004,-2.21076084375988e+001,-2.51602296274738e-001

1.02811382665607e+004,-2.21076103336476e+001,-2.55114320978051e-001

1.04246576084112e+004,-2.21076122829555e+001,-2.58675362705430e-001

1.05701804056138e+004,-2.21076142870173e+001,-2.62286105325843e-001

1.07177346253629e+004,-2.21076163473696e+001,-2.65947242238947e-001

1.08673486252606e+004,-2.21076184655919e+001,-2.69659476508912e-001

1.10190511587661e+004,-2.21076206433082e+001,-2.73423520994233e-001

1.11728713807222e+004,-2.21076228821878e+001,-2.77240098487433e-001

1.13288388529580e+004,-2.21076251839465e+001,-2.81109941853089e-001

1.14869835499703e+004,-2.21076275503489e+001,-2.85033794162527e-001

1.16473358646846e+004,-2.21076299832082e+001,-2.89012408843256e-001

1.18099266142953e+004,-2.21076324843887e+001,-2.93046549816248e-001

1.19747870461893e+004,-2.21076350558070e+001,-2.97136991644275e-001

1.21419488439505e+004,-2.21076376994329e+001,-3.01284519680019e-001

1.23114441334492e+004,-2.21076404172921e+001,-3.05489930212687e-001

1.24833054890161e+004,-2.21076432114660e+001,-3.09754030624873e-001

1.26575659397028e+004,-2.21076460840950e+001,-3.14077639539877e-001

1.28342589756290e+004,-2.21076490373791e+001,-3.18461586982564e-001

1.30134185544193e+004,-2.21076520735797e+001,-3.22906714536538e-001

1.31950791077289e+004,-2.21076551950214e+001,-3.27413875501785e-001

1.33792755478611e+004,-2.21076584040943e+001,-3.31983935058450e-001

1.35660432744767e+004,-2.21076617032547e+001,-3.36617770432509e-001

1.37554181813974e+004,-2.21076650950279e+001,-3.41316271060870e-001

1.39474366635040e+004,-2.21076685820097e+001,-3.46080338760818e-001

1.41421356237309e+004,-2.21076721668683e+001,-3.50910887902001e-001

1.43395524801583e+004,-2.21076758523465e+001,-3.55808845579474e-001

1.45397251732031e+004,-2.21076796412640e+001,-3.60775151788991e-001

1.47426921729110e+004,-2.21076835365188e+001,-3.65810759607298e-001

1.49484924863494e+004,-2.21076875410900e+001,-3.70916635372409e-001

1.51571656651040e+004,-2.21076916580399e+001,-3.76093758864666e-001

1.53687518128801e+004,-2.21076958905162e+001,-3.81343123495206e-001

1.55832915932100e+004,-2.21077002417544e+001,-3.86665736493465e-001

1.58008262372675e+004,-2.21077047150804e+001,-3.92062619097753e-001

1.60213975517924e+004,-2.21077093139128e+001,-3.97534806747336e-001

1.62450479271247e+004,-2.21077140417654e+001,-4.03083349281960e-001

1.64718203453514e+004,-2.21077189022503e+001,-4.08709311135874e-001

1.67017583885674e+004,-2.21077238990798e+001,-4.14413771544013e-001

1.69349062472505e+004,-2.21077290360699e+001,-4.20197824741892e-001

1.71713087287550e+004,-2.21077343171430e+001,-4.26062580174131e-001

1.74110112659224e+004,-2.21077397463307e+001,-4.32009162704490e-001

1.76540599258131e+004,-2.21077453277765e+001,-4.38038712827934e-001

1.79005014185594e+004,-2.21077510657399e+001,-4.44152386884212e-001

1.81503831063432e+004,-2.21077569645982e+001,-4.50351357278909e-001

1.84037530124975e+004,-2.21077630288512e+001,-4.56636812700937e-001

1.86606598307361e+004,-2.21077692631232e+001,-4.63009958350084e-001

1.89211529345119e+004,-2.21077756721675e+001,-4.69472016161354e-001

1.91852823865052e+004,-2.21077822608692e+001,-4.76024225035955e-001

1.94530989482457e+004,-2.21077890342497e+001,-4.82667841072853e-001

1.97246540898671e+004,-2.21077959974691e+001,-4.89404137807486e-001

1.99999999999999e+004,-2.21078031558314e+001,-4.96234406449594e-001

2.02791895958005e+004,-2.21078105147876e+001,-5.03159956124501e-001

2.05622765331213e+004,-2.21078180799398e+001,-5.10182114121021e-001

2.08493152168224e+004,-2.21078258570458e+001,-5.17302226137663e-001

2.11403608112276e+004,-2.21078338520228e+001,-5.24521656537713e-001

2.14354692507258e+004,-2.21078420709521e+001,-5.31841788601991e-001

2.17346972505211e+004,-2.21078505200835e+001,-5.39264024788830e-001

2.20381023175322e+004,-2.21078592058399e+001,-5.46789786996299e-001

2.23457427614443e+004,-2.21078681348219e+001,-5.54420516828416e-001

2.26576777059159e+004,-2.21078773138127e+001,-5.62157675862197e-001

2.29739670999406e+004,-2.21078867497834e+001,-5.70002745922291e-001

2.32946717293690e+004,-2.21078964498974e+001,-5.77957229356737e-001

2.36198532285905e+004,-2.21079064215163e+001,-5.86022649315738e-001

2.39495740923785e+004,-2.21079166722049e+001,-5.94200550035412e-001

2.42838976879009e+004,-2.21079272097371e+001,-6.02492497125834e-001

2.46228882668982e+004,-2.21079380421007e+001,-6.10900077860470e-001

2.49666109780322e+004,-2.21079491775044e+001,-6.19424901470564e-001

2.53151318794055e+004,-2.21079606243827e+001,-6.28068599445766e-001

2.56685179512580e+004,-2.21079723914027e+001,-6.36832825831990e-001

2.60268371088386e+004,-2.21079844874697e+001,-6.45719257542384e-001

2.63901582154578e+004,-2.21079969217346e+001,-6.54729594662447e-001

2.67585510957221e+004,-2.21080097035993e+001,-6.63865560768217e-001

2.71320865489533e+004,-2.21080228427245e+001,-6.73128903239427e-001

2.75108363627948e+004,-2.21080363490361e+001,-6.82521393585030e-001

2.78948733270080e+004,-2.21080502327321e+001,-6.92044827769205e-001

2.82842712474618e+004,-2.21080645042905e+001,-7.01701026537199e-001

2.86791049603164e+004,-2.21080791744762e+001,-7.11491835755030e-001

2.90794503464061e+004,-2.21080942543492e+001,-7.21419126742729e-001

2.94853843458219e+004,-2.21081097552718e+001,-7.31484796621400e-001

2.98969849726987e+004,-2.21081256889173e+001,-7.41690768656374e-001

3.03143313302078e+004,-2.21081420672776e+001,-7.52038992611011e-001

3.07375036257601e+004,-2.21081589026724e+001,-7.62531445099705e-001

3.11665831864199e+004,-2.21081762077572e+001,-7.73170129950548e-001

3.16016524745350e+004,-2.21081939955322e+001,-7.83957078567971e-001

3.20427951035848e+004,-2.21082122793520e+001,-7.94894350301656e-001

3.24900958542493e+004,-2.21082310729344e+001,-8.05984032818983e-001

3.29436406907028e+004,-2.21082503903701e+001,-8.17228242485075e-001

3.34035167771346e+004,-2.21082702461320e+001,-8.28629124744260e-001

3.38698124945009e+004,-2.21082906550862e+001,-8.40188854504890e-001

3.43426174575100e+004,-2.21083116325015e+001,-8.51909636534634e-001

3.48220225318448e+004,-2.21083331940598e+001,-8.63793705854778e-001

3.53081198516260e+004,-2.21083553558675e+001,-8.75843328140629e-001

3.58010028371187e+004,-2.21083781344657e+001,-8.88060800130021e-001

3.63007662126863e+004,-2.21084015468422e+001,-9.00448450031129e-001

3.68075060249948e+004,-2.21084256104423e+001,-9.13008637939994e-001

3.73213196614721e+004,-2.21084503431812e+001,-9.25743756259841e-001

3.78423058690237e+004,-2.21084757634558e+001,-9.38656230126329e-001

3.83705647730104e+004,-2.21085018901566e+001,-9.51748517839100e-001

3.89061978964912e+004,-2.21085287426813e+001,-9.65023111295637e-001

3.94493081797342e+004,-2.21085563409466e+001,-9.78482536431135e-001

3.99999999999998e+004,-2.21085847054022e+001,-9.92129353665893e-001

4.05583791916010e+004,-2.21086138570438e+001,-1.00596615835385e+000

4.11245530662425e+004,-2.21086438174270e+001,-1.01999558123841e+000

4.16986304336447e+004,-2.21086746086815e+001,-1.03422028891288e+000

4.22807216224550e+004,-2.21087062535255e+001,-1.04864298428667e+000

4.28709385014515e+004,-2.21087387752800e+001,-1.06326640705681e+000

4.34693945010421e+004,-2.21087721978841e+001,-1.07809333418260e+000

4.40762046350642e+004,-2.21088065459105e+001,-1.09312658036792e+000

4.46914855228886e+004,-2.21088418445808e+001,-1.10836899854764e+000

4.53153554118317e+004,-2.21088781197816e+001,-1.12382348038067e+000

4.59479341998812e+004,-2.21089153980807e+001,-1.13949295674525e+000

4.65893434587380e+004,-2.21089537067439e+001,-1.15538039824415e+000

4.72397064571810e+004,-2.21089930737517e+001,-1.17148881571071e+000

4.78991481847569e+004,-2.21090335278172e+001,-1.18782126072225e+000

4.85677953758016e+004,-2.21090750984025e+001,-1.20438082612144e+000

4.92457765337964e+004,-2.21091178157381e+001,-1.22117064653796e+000

4.99332219560642e+004,-2.21091617108403e+001,-1.23819389891882e+000

5.06302637588109e+004,-2.21092068155299e+001,-1.25545380306485e+000

5.13370359025159e+004,-2.21092531624517e+001,-1.27295362217087e+000

5.20536742176771e+004,-2.21093007850932e+001,-1.29069666337076e+000

5.27803164309155e+004,-2.21093497178048e+001,-1.30868627829204e+000

5.35171021914442e+004,-2.21093999958195e+001,-1.32692586361005e+000

5.42641730979066e+004,-2.21094516552734e+001,-1.34541886161407e+000

5.50216727255895e+004,-2.21095047332264e+001,-1.36416876077308e+000

5.57897466540159e+004,-2.21095592676831e+001,-1.38317909631249e+000

5.65685424949235e+004,-2.21096152976146e+001,-1.40245345079241e+000

5.73582099206328e+004,-2.21096728629796e+001,-1.42199545469292e+000

5.81589006928121e+004,-2.21097320047471e+001,-1.44180878700673e+000

5.89707686916437e+004,-2.21097927649183e+001,-1.46189717583474e+000

5.97939699453972e+004,-2.21098551865495e+001,-1.48226439898938e+000

6.06286626604156e+004,-2.21099193137752e+001,-1.50291428460209e+000

6.14750072515201e+004,-2.21099851918315e+001,-1.52385071173714e+000

6.23331663728396e+004,-2.21100528670791e+001,-1.54507761101347e+000

6.32033049490698e+004,-2.21101223870284e+001,-1.56659896522715e+000

6.40855902071694e+004,-2.21101938003626e+001,-1.58841880998513e+000

6.49801917084985e+004,-2.21102671569631e+001,-1.61054123434063e+000

6.58872813814055e+004,-2.21103425079336e+001,-1.63297038143824e+000

6.68070335542691e+004,-2.21104199056256e+001,-1.65571044916001e+000

6.77396249890018e+004,-2.21104994036635e+001,-1.67876569078302e+000

6.86852349150199e+004,-2.21105810569703e+001,-1.70214041563774e+000

6.96440450636895e+004,-2.21106649217930e+001,-1.72583898977697e+000

7.06162397032520e+004,-2.21107510557291e+001,-1.74986583664607e+000

7.16020056742374e+004,-2.21108395177522e+001,-1.77422543776365e+000

7.26015324253724e+004,-2.21109303682385e+001,-1.79892233340640e+000

7.36150120499896e+004,-2.21110236689937e+001,-1.82396112329828e+000

7.46426393229441e+004,-2.21111194832787e+001,-1.84934646731012e+000

7.56846117380472e+004,-2.21112178758373e+001,-1.87508308616111e+000

7.67411295460207e+004,-2.21113189129223e+001,-1.90117576213101e+000

7.78123957929823e+004,-2.21114226623227e+001,-1.92762933977409e+000

7.88986163594682e+004,-2.21115291933904e+001,-1.95444872664332e+000

7.99999999999995e+004,-2.21116385770673e+001,-1.98163889402031e+000

8.11167583832018e+004,-2.21117508859122e+001,-2.00920487765031e+000

8.22491061324848e+004,-2.21118661941275e+001,-2.03715177848609e+000

8.33972608672892e+004,-2.21119845775861e+001,-2.06548476343805e+000

8.45614432449099e+004,-2.21121061138580e+001,-2.09420906613114e+000

8.57418770029029e+004,-2.21122308822369e+001,-2.12332998766929e+000

8.69387890020841e+004,-2.21123589637666e+001,-2.15285289740795e+000

8.81524092701283e+004,-2.21124904412670e+001,-2.18278323373236e+000

8.93829710457770e+004,-2.21126253993601e+001,-2.21312650484635e+000

9.06307108236633e+004,-2.21127639244954e+001,-2.24388828956680e+000

9.18958683997622e+004,-2.21129061049757e+001,-2.27507423812761e+000

9.31786869174758e+004,-2.21130520309813e+001,-2.30669007299154e+000

9.44794129143618e+004,-2.21132017945950e+001,-2.33874158967173e+000

9.57982963695136e+004,-2.21133554898260e+001,-2.37123465756134e+000

9.71355907516031e+004,-2.21135132126331e+001,-2.40417522077384e+000

9.84915530675926e+004,-2.21136750609482e+001,-2.43756929899057e+000

9.98664439121282e+004,-2.21138411346983e+001,-2.47142298832205e+000

1.01260527517622e+005,-2.21140115358274e+001,-2.50574246217668e+000

1.02674071805032e+005,-2.21141863683176e+001,-2.54053397214159e+000

1.04107348435354e+005,-2.21143657382092e+001,-2.57580384887563e+000

1.05560632861831e+005,-2.21145497536202e+001,-2.61155850301277e+000

1.07034204382888e+005,-2.21147385247654e+001,-2.64780442607894e+000

1.08528346195813e+005,-2.21149321639737e+001,-2.68454819142227e+000

1.10043345451179e+005,-2.21151307857050e+001,-2.72179645515452e+000

1.11579493308032e+005,-2.21153345065667e+001,-2.75955595711001e+000

1.13137084989847e+005,-2.21155434453278e+001,-2.79783352181665e+000

1.14716419841265e+005,-2.21157577229330e+001,-2.83663605948476e+000

1.16317801385624e+005,-2.21159774625156e+001,-2.87597056700968e+000

1.17941537383287e+005,-2.21162027894086e+001,-2.91584412899392e+000

1.19587939890794e+005,-2.21164338311553e+001,-2.95626391878633e+000

1.21257325320831e+005,-2.21166707175184e+001,-2.99723719953920e+000

1.22950014503040e+005,-2.21169135804880e+001,-3.03877132528679e+000

1.24666332745679e+005,-2.21171625542876e+001,-3.08087374204263e+000

1.26406609898139e+005,-2.21174177753801e+001,-3.12355198892094e+000

1.28171180414339e+005,-2.21176793824713e+001,-3.16681369927857e+000

1.29960383416997e+005,-2.21179475165122e+001,-3.21066660188227e+000

1.31774562762811e+005,-2.21182223207010e+001,-3.25511852210048e+000

1.33614067108538e+005,-2.21185039404824e+001,-3.30017738312179e+000

1.35479249978003e+005,-2.21187925235460e+001,-3.34585120720063e+000

1.37370469830040e+005,-2.21190882198239e+001,-3.39214811693243e+000

1.39288090127379e+005,-2.21193911814864e+001,-3.43907633655797e+000

1.41232479406504e+005,-2.21197015629364e+001,-3.48664419330041e+000

1.43204011348474e+005,-2.21200195208030e+001,-3.53486011873513e+000

1.45203064850745e+005,-2.21203452139333e+001,-3.58373265019401e+000

1.47230024099979e+005,-2.21206788033837e+001,-3.63327043220589e+000

1.49285278645888e+005,-2.21210204524096e+001,-3.68348221797491e+000

1.51369223476094e+005,-2.21213703264544e+001,-3.73437687089833e+000

1.53482259092041e+005,-2.21217285931377e+001,-3.78596336612455e+000

1.55624791585964e+005,-2.21220954222426e+001,-3.83825079215510e+000

1.57797232718936e+005,-2.21224709857023e+001,-3.89124835248924e+000

1.59999999999999e+005,-2.21228554575861e+001,-3.94496536731708e+000

1.62233516766403e+005,-2.21232490140859e+001,-3.99941127525746e+000

1.64498212264969e+005,-2.21236518335014e+001,-4.05459563514881e+000

1.66794521734578e+005,-2.21240640962260e+001,-4.11052812788784e+000

1.69122886489819e+005,-2.21244859847331e+001,-4.16721855832454e+000

1.71483754005805e+005,-2.21249176835625e+001,-4.22467685720968e+000

1.73877578004168e+005,-2.21253593793077e+001,-4.28291308320008e+000

1.76304818540256e+005,-2.21258112606047e+001,-4.34193742492151e+000

1.78765942091554e+005,-2.21262735181212e+001,-4.40176020309215e+000

1.81261421647326e+005,-2.21267463445481e+001,-4.46239187270699e+000

1.83791736799524e+005,-2.21272299345932e+001,-4.52384302528571e+000

1.86357373834951e+005,-2.21277244849767e+001,-4.58612439118494e+000

1.88958825828723e+005,-2.21282301944296e+001,-4.64924684197672e+000

1.91596592739027e+005,-2.21287472636956e+001,-4.71322139289470e+000

1.94271181503206e+005,-2.21292758955359e+001,-4.77805920534799e+000

1.96983106135185e+005,-2.21298162947388e+001,-4.84377158950601e+000

1.99732887824256e+005,-2.21303686681329e+001,-4.91037000695363e+000

2.02521055035243e+005,-2.21309332246065e+001,-4.97786607341810e+000

2.05348143610063e+005,-2.21315101751307e+001,-5.04627156156816e+000

2.08214696870707e+005,-2.21320997327904e+001,-5.11559840388709e+000

2.11121265723661e+005,-2.21327021128206e+001,-5.18585869561829e+000

2.14068408765776e+005,-2.21333175326503e+001,-5.25706469778566e+000

2.17056692391625e+005,-2.21339462119538e+001,-5.32922884028700e+000

2.20086690902357e+005,-2.21345883727104e+001,-5.40236372506181e+000

2.23158986616063e+005,-2.21352442392735e+001,-5.47648212933186e+000

2.26274169979693e+005,-2.21359140384478e+001,-5.55159700891559e+000

2.29432839682530e+005,-2.21365979995785e+001,-5.62772150161334e+000

2.32635602771247e+005,-2.21372963546493e+001,-5.70486893066457e+000

2.35883074766574e+005,-2.21380093383934e+001,-5.78305280827421e+000

2.39175879781588e+005,-2.21387371884152e+001,-5.86228683920753e+000

2.42514650641661e+005,-2.21394801453254e+001,-5.94258492445224e+000

2.45900029006080e+005,-2.21402384528892e+001,-6.02396116494285e+000

2.49332665491357e+005,-2.21410123581882e+001,-6.10642986534937e+000

2.52813219796278e+005,-2.21418021117967e+001,-6.19000553792442e+000

2.56342360828676e+005,-2.21426079679731e+001,-6.27470290640702e+000

2.59920766833993e+005,-2.21434301848674e+001,-6.36053690997974e+000

2.63549125525621e+005,-2.21442690247443e+001,-6.44752270727740e+000

2.67228134217075e+005,-2.21451247542229e+001,-6.53567568043996e+000

2.70958499956006e+005,-2.21459976445348e+001,-6.62501143921073e+000

2.74740939660078e+005,-2.21468879717983e+001,-6.71554582507046e+000

2.78576180254757e+005,-2.21477960173120e+001,-6.80729491540847e+000

2.82464958813007e+005,-2.21487220678666e+001,-6.90027502772096e+000

2.86408022696948e+005,-2.21496664160756e+001,-6.99450272383604e+000

2.90406129701488e+005,-2.21506293607256e+001,-7.08999481415748e+000

2.94460048199957e+005,-2.21516112071456e+001,-7.18676836192426e+000

2.98570557291775e+005,-2.21526122675974e+001,-7.28484068747925e+000

3.02738446952187e+005,-2.21536328616844e+001,-7.38422937254236e+000

3.06964518184081e+005,-2.21546733167825e+001,-7.48495226448230e+000

3.11249583171928e+005,-2.21557339684896e+001,-7.58702748058169e+000

3.15594465437872e+005,-2.21568151610972e+001,-7.69047341228948e+000

3.19999999999997e+005,-2.21579172480812e+001,-7.79530872945561e+000

3.24467033532806e+005,-2.21590405926136e+001,-7.90155238454231e+000

3.28996424529938e+005,-2.21601855680948e+001,-8.00922361680455e+000

3.33589043469155e+005,-2.21613525587053e+001,-8.11834195643792e+000

3.38245772979638e+005,-2.21625419599785e+001,-8.22892722868362e+000

3.42967508011610e+005,-2.21637541793920e+001,-8.34099955788962e+000

3.47755156008335e+005,-2.21649896369795e+001,-8.45457937151967e+000

3.52609637080511e+005,-2.21662487659611e+001,-8.56968740410654e+000

3.57531884183106e+005,-2.21675320133926e+001,-8.68634470114392e+000

3.62522843294651e+005,-2.21688398408333e+001,-8.80457262291258e+000

3.67583473599047e+005,-2.21701727250311e+001,-8.92439284823671e+000

3.72714747669902e+005,-2.21715311586259e+001,-9.04582737816490e+000

3.77917651657445e+005,-2.21729156508689e+001,-9.16889853957285e+000

3.83193185478053e+005,-2.21743267283587e+001,-9.29362898868454e+000

3.88542363006410e+005,-2.21757649357931e+001,-9.42004171450655e+000

3.93966212270369e+005,-2.21772308367361e+001,-9.54816004217468e+000

3.99465775648511e+005,-2.21787250143989e+001,-9.67800763620852e+000

4.05042110070485e+005,-2.21802480724354e+001,-9.80960850367247e+000

4.10696287220124e+005,-2.21818006357506e+001,-9.94298699723999e+000

4.16429393741414e+005,-2.21833833513219e+001,-1.00781678181601e+001

4.22242531447321e+005,-2.21849968890316e+001,-1.02151760191257e+001

4.28136817531551e+005,-2.21866419425121e+001,-1.03540370070389e+001

4.34113384783250e+005,-2.21883192300005e+001,-1.04947765456774e+001

4.40173381804713e+005,-2.21900294952042e+001,-1.06374207582570e+001

4.46317973232124e+005,-2.21917735081759e+001,-1.07819961298930e+001

4.52548339959385e+005,-2.21935520661971e+001,-1.09285295099582e+001

4.58865679365059e+005,-2.21953659946713e+001,-1.10770481143397e+001

4.65271205542494e+005,-2.21972161480235e+001,-1.12275795275937e+001

4.71766149533147e+005,-2.21991034106093e+001,-1.13801517049993e+001

4.78351759563174e+005,-2.22010286976291e+001,-1.15347929745118e+001

4.85029301283321e+005,-2.22029929560507e+001,-1.16915320386171e+001

4.91800058012158e+005,-2.22049971655375e+001,-1.18503979760885e+001

4.98665330982714e+005,-2.22070423393831e+001,-1.20114202436453e+001

5.05626439592555e+005,-2.22091295254513e+001,-1.21746286775166e+001

5.12684721657352e+005,-2.22112598071231e+001,-1.23400534949108e+001

5.19841533667984e+005,-2.22134343042478e+001,-1.25077252953912e+001

5.27098251051240e+005,-2.22156541741002e+001,-1.26776750621602e+001

5.34456268434150e+005,-2.22179206123437e+001,-1.28499341632526e+001

5.41916999912011e+005,-2.22202348539977e+001,-1.30245343526389e+001

