Freq.,VOut,OutRef

1.00000000000000e+004,-1.74173022058752e+000,-6.11735614644839e-002

1.01395947979003e+004,-1.74173024255604e+000,-6.20275061008695e-002

1.02811382665607e+004,-1.74173026514056e+000,-6.28933710874310e-002

1.04246576084112e+004,-1.74173028835839e+000,-6.37713228135296e-002

1.05701804056138e+004,-1.74173031222750e+000,-6.46615299909531e-002

1.07177346253629e+004,-1.74173033676596e+000,-6.55641636867963e-002

1.08673486252606e+004,-1.74173036199249e+000,-6.64793973561741e-002

1.10190511587661e+004,-1.74173038792642e+000,-6.74074068738944e-002

1.11728713807222e+004,-1.74173041458735e+000,-6.83483705707158e-002

1.13288388529580e+004,-1.74173044199575e+000,-6.93024692647293e-002

1.14869835499703e+004,-1.74173047017238e+000,-7.02698862988305e-002

1.16473358646846e+004,-1.74173049913895e+000,-7.12508075722416e-002

1.18099266142953e+004,-1.74173052891722e+000,-7.22454215825306e-002

1.19747870461893e+004,-1.74173055953015e+000,-7.32539194537428e-002

1.21419488439505e+004,-1.74173059100090e+000,-7.42764949798094e-002

1.23114441334492e+004,-1.74173062335356e+000,-7.53133446578477e-002

1.24833054890161e+004,-1.74173065661252e+000,-7.63646677287475e-002

1.26575659397028e+004,-1.74173069080328e+000,-7.74306662121229e-002

1.28342589756290e+004,-1.74173072595192e+000,-7.85115449464055e-002

1.30134185544193e+004,-1.74173076208489e+000,-7.96075116315563e-002

1.31950791077289e+004,-1.74173079922986e+000,-8.07187768629932e-002

1.33792755478611e+004,-1.74173083741506e+000,-8.18455541757683e-002

1.35660432744767e+004,-1.74173087666930e+000,-8.29880600861087e-002

1.37554181813974e+004,-1.74173091702271e+000,-8.41465141286390e-002

1.39474366635040e+004,-1.74173095850559e+000,-8.53211389051704e-002

1.41421356237309e+004,-1.74173100114981e+000,-8.65121601195037e-002

1.43395524801583e+004,-1.74173104498726e+000,-8.77198066301350e-002

1.45397251732031e+004,-1.74173109005158e+000,-8.89443104834024e-002

1.47426921729110e+004,-1.74173113637666e+000,-9.01859069684150e-002

1.49484924863494e+004,-1.74173118399793e+000,-9.14448346529476e-002

1.51571656651040e+004,-1.74173123295104e+000,-9.27213354388937e-002

1.53687518128801e+004,-1.74173128327329e+000,-9.40156545988385e-002

1.55832915932100e+004,-1.74173133500282e+000,-9.53280408291049e-002

1.58008262372675e+004,-1.74173138817882e+000,-9.66587462959217e-002

1.60213975517924e+004,-1.74173144284114e+000,-9.80080266866577e-002

1.62450479271247e+004,-1.74173149903135e+000,-9.93761412522456e-002

1.64718203453514e+004,-1.74173155679180e+000,-1.00763352862947e-001

1.67017583885674e+004,-1.74173161616632e+000,-1.02169928054713e-001

1.69349062472505e+004,-1.74173167719962e+000,-1.03596137084275e-001

1.71713087287550e+004,-1.74173173993742e+000,-1.05042253980070e-001

1.74110112659224e+004,-1.74173180442740e+000,-1.06508556589466e-001

1.76540599258131e+004,-1.74173187071808e+000,-1.07995326638852e-001

1.79005014185594e+004,-1.74173193885920e+000,-1.09502849785563e-001

1.81503831063432e+004,-1.74173200890232e+000,-1.11031415669861e-001

1.84037530124975e+004,-1.74173208089983e+000,-1.12581317975430e-001

1.86606598307361e+004,-1.74173215490598e+000,-1.14152854480853e-001

1.89211529345119e+004,-1.74173223097633e+000,-1.15746327119580e-001

1.91852823865052e+004,-1.74173230916798e+000,-1.17362042037023e-001

1.94530989482457e+004,-1.74173238953977e+000,-1.19000309647396e-001

1.97246540898671e+004,-1.74173247215166e+000,-1.20661444698787e-001

1.99999999999999e+004,-1.74173255706571e+000,-1.22345766326647e-001

2.02791895958005e+004,-1.74173264434524e+000,-1.24053598119901e-001

2.05622765331213e+004,-1.74173273405594e+000,-1.25785268177657e-001

2.08493152168224e+004,-1.74173282626469e+000,-1.27541109178881e-001

2.11403608112276e+004,-1.74173292104013e+000,-1.29321458443177e-001

2.14354692507258e+004,-1.74173301845326e+000,-1.31126657991001e-001

2.17346972505211e+004,-1.74173311857657e+000,-1.32957054616690e-001

2.20381023175322e+004,-1.74173322148464e+000,-1.34812999949774e-001

2.23457427614443e+004,-1.74173332725406e+000,-1.36694850524295e-001

2.26576777059159e+004,-1.74173343596343e+000,-1.38602967846043e-001

2.29739670999406e+004,-1.74173354769362e+000,-1.40537718462239e-001

2.32946717293690e+004,-1.74173366252747e+000,-1.42499474032249e-001

2.36198532285905e+004,-1.74173378055023e+000,-1.44488611397604e-001

2.39495740923785e+004,-1.74173390184905e+000,-1.46505512656767e-001

2.42838976879009e+004,-1.74173402651388e+000,-1.48550565233331e-001

2.46228882668982e+004,-1.74173415463669e+000,-1.50624161955299e-001

2.49666109780322e+004,-1.74173428631220e+000,-1.52726701126847e-001

2.53151318794055e+004,-1.74173442163734e+000,-1.54858586606487e-001

2.56685179512580e+004,-1.74173456071193e+000,-1.57020227882524e-001

2.60268371088386e+004,-1.74173470363810e+000,-1.59212040153876e-001

2.63901582154578e+004,-1.74173485052085e+000,-1.61434444407028e-001

2.67585510957221e+004,-1.74173500146796e+000,-1.63687867497708e-001

2.71320865489533e+004,-1.74173515659015e+000,-1.65972742230994e-001

2.75108363627948e+004,-1.74173531600060e+000,-1.68289507448764e-001

2.78948733270080e+004,-1.74173547981607e+000,-1.70638608106170e-001

2.82842712474618e+004,-1.74173564815581e+000,-1.73020495363636e-001

2.86791049603164e+004,-1.74173582114248e+000,-1.75435626668925e-001

2.90794503464061e+004,-1.74173599890207e+000,-1.77884465844325e-001

2.94853843458219e+004,-1.74173618156336e+000,-1.80367483179994e-001

2.98969849726987e+004,-1.74173636925898e+000,-1.82885155516800e-001

3.03143313302078e+004,-1.74173656212459e+000,-1.85437966343638e-001

3.07375036257601e+004,-1.74173676029956e+000,-1.88026405885857e-001

3.11665831864199e+004,-1.74173696392682e+000,-1.90650971199923e-001

3.16016524745350e+004,-1.74173717315287e+000,-1.93312166269156e-001

3.20427951035848e+004,-1.74173738812804e+000,-1.96010502098680e-001

3.24900958542493e+004,-1.74173760900645e+000,-1.98746496813689e-001

3.29436406907028e+004,-1.74173783594599e+000,-2.01520675758640e-001

3.34035167771346e+004,-1.74173806910894e+000,-2.04333571594815e-001

3.38698124945009e+004,-1.74173830866125e+000,-2.07185724405983e-001

3.43426174575100e+004,-1.74173855477314e+000,-2.10077681799215e-001

3.48220225318448e+004,-1.74173880761931e+000,-2.13009999007625e-001

3.53081198516260e+004,-1.74173906737862e+000,-2.15983238999086e-001

3.58010028371187e+004,-1.74173933423430e+000,-2.18997972583309e-001

3.63007662126863e+004,-1.74173960837444e+000,-2.22054778516741e-001

3.68075060249948e+004,-1.74173988999130e+000,-2.25154243619229e-001

3.73213196614721e+004,-1.74174017928244e+000,-2.28296962878103e-001

3.78423058690237e+004,-1.74174047644967e+000,-2.31483539569453e-001

3.83705647730104e+004,-1.74174078170003e+000,-2.34714585366448e-001

3.89061978964912e+004,-1.74174109524558e+000,-2.37990720458669e-001

3.94493081797342e+004,-1.74174141730338e+000,-2.41312573669848e-001

3.99999999999998e+004,-1.74174174809579e+000,-2.44680782577259e-001

4.05583791916010e+004,-1.74174208785028e+000,-2.48095993633611e-001

4.11245530662425e+004,-1.74174243680002e+000,-2.51558862287334e-001

4.16986304336447e+004,-1.74174279518352e+000,-2.55070053110548e-001

4.22807216224550e+004,-1.74174316324472e+000,-2.58630239924011e-001

4.28709385014515e+004,-1.74174354123344e+000,-2.62240105924589e-001

4.34693945010421e+004,-1.74174392940529e+000,-2.65900343814415e-001

4.40762046350642e+004,-1.74174432802176e+000,-2.69611655933565e-001

4.46914855228886e+004,-1.74174473735036e+000,-2.73374754392698e-001

4.53153554118317e+004,-1.74174515766433e+000,-2.77190361210454e-001

4.59479341998812e+004,-1.74174558924348e+000,-2.81059208445579e-001

4.65893434587380e+004,-1.74174603237357e+000,-2.84982038340271e-001

4.72397064571810e+004,-1.74174648734701e+000,-2.88959603458031e-001

4.78991481847569e+004,-1.74174695446227e+000,-2.92992666828026e-001

4.85677953758016e+004,-1.74174743402471e+000,-2.97082002087684e-001

4.92457765337964e+004,-1.74174792634590e+000,-3.01228393631992e-001

4.99332219560642e+004,-1.74174843174419e+000,-3.05432636759747e-001

5.06302637588109e+004,-1.74174895054473e+000,-3.09695537824064e-001

5.13370359025159e+004,-1.74174948307954e+000,-3.14017914385300e-001

5.20536742176771e+004,-1.74175002968734e+000,-3.18400595366593e-001

5.27803164309155e+004,-1.74175059071400e+000,-3.22844421208430e-001

5.35171021914442e+004,-1.74175116651197e+000,-3.27350244031389e-001

5.42641730979066e+004,-1.74175175744116e+000,-3.31918927791596e-001

5.50216727255895e+004,-1.74175236386825e+000,-3.36551348448548e-001

5.57897466540159e+004,-1.74175298616736e+000,-3.41248394126849e-001

5.65685424949235e+004,-1.74175362471938e+000,-3.46010965287665e-001

5.73582099206328e+004,-1.74175427991263e+000,-3.50839974894829e-001

5.81589006928121e+004,-1.74175495214262e+000,-3.55736348588673e-001

5.89707686916437e+004,-1.74175564181184e+000,-3.60701024861344e-001

5.97939699453972e+004,-1.74175634933011e+000,-3.65734955231776e-001

6.06286626604156e+004,-1.74175707511425e+000,-3.70839104426607e-001

6.14750072515201e+004,-1.74175781958852e+000,-3.76014450559091e-001

6.23331663728396e+004,-1.74175858318393e+000,-3.81261985317423e-001

6.32033049490698e+004,-1.74175936633864e+000,-3.86582714147205e-001

6.40855902071694e+004,-1.74176016949798e+000,-3.91977656441835e-001

6.49801917084985e+004,-1.74176099311387e+000,-3.97447845735703e-001

6.58872813814055e+004,-1.74176183764514e+000,-4.02994329896500e-001

6.68070335542691e+004,-1.74176270355732e+000,-4.08618171322070e-001

6.77396249890018e+004,-1.74176359132233e+000,-4.14320447141538e-001

6.86852349150199e+004,-1.74176450141879e+000,-4.20102249414523e-001

6.96440450636895e+004,-1.74176543433115e+000,-4.25964685339357e-001

7.06162397032520e+004,-1.74176639055007e+000,-4.31908877458659e-001

7.16020056742374e+004,-1.74176737057203e+000,-4.37935963869182e-001

7.26015324253724e+004,-1.74176837489890e+000,-4.44047098438155e-001

7.36150120499896e+004,-1.74176940403790e+000,-4.50243451015826e-001

7.46426393229441e+004,-1.74177045850126e+000,-4.56526207656495e-001

7.56846117380472e+004,-1.74177153880585e+000,-4.62896570839422e-001

7.67411295460207e+004,-1.74177264547270e+000,-4.69355759696356e-001

7.78123957929823e+004,-1.74177377902697e+000,-4.75905010235521e-001

7.88986163594682e+004,-1.74177493999699e+000,-4.82545575576359e-001

7.99999999999995e+004,-1.74177612891431e+000,-4.89278726182063e-001

8.11167583832018e+004,-1.74177734631285e+000,-4.96105750097476e-001

8.22491061324848e+004,-1.74177859272862e+000,-5.03027953188922e-001

8.33972608672892e+004,-1.74177986869884e+000,-5.10046659390013e-001

8.45614432449099e+004,-1.74178117476161e+000,-5.17163210946350e-001

8.57418770029029e+004,-1.74178251145498e+000,-5.24378968668583e-001

8.69387890020841e+004,-1.74178387931651e+000,-5.31695312183844e-001

8.81524092701283e+004,-1.74178527888208e+000,-5.39113640196355e-001

8.93829710457770e+004,-1.74178671068541e+000,-5.46635370745594e-001

9.06307108236633e+004,-1.74178817525713e+000,-5.54261941471903e-001

9.18958683997622e+004,-1.74178967312360e+000,-5.61994809885228e-001

9.31786869174758e+004,-1.74179120480628e+000,-5.69835453635097e-001

9.44794129143618e+004,-1.74179277082007e+000,-5.77785370789567e-001

9.57982963695136e+004,-1.74179437167294e+000,-5.85846080110097e-001

9.71355907516031e+004,-1.74179600786406e+000,-5.94019121338665e-001

9.84915530675926e+004,-1.74179767988267e+000,-6.02306055483667e-001

9.98664439121282e+004,-1.74179938820702e+000,-6.10708465109598e-001

1.01260527517622e+005,-1.74180113330256e+000,-6.19227954633771e-001

1.02674071805032e+005,-1.74180291562052e+000,-6.27866150626017e-001

1.04107348435354e+005,-1.74180473559633e+000,-6.36624702110849e-001

1.05560632861831e+005,-1.74180659364801e+000,-6.45505280874908e-001

1.07034204382888e+005,-1.74180849017408e+000,-6.54509581781145e-001

1.08528346195813e+005,-1.74181042555191e+000,-6.63639323083175e-001

1.10043345451179e+005,-1.74181240013567e+000,-6.72896246746731e-001

1.11579493308032e+005,-1.74181441425417e+000,-6.82282118775687e-001

1.13137084989847e+005,-1.74181646820880e+000,-6.91798729541158e-001

1.14716419841265e+005,-1.74181856227084e+000,-7.01447894118161e-001

1.16317801385624e+005,-1.74182069667952e+000,-7.11231452622617e-001

1.17941537383287e+005,-1.74182287163900e+000,-7.21151270558651e-001

1.19587939890794e+005,-1.74182508731613e+000,-7.31209239165464e-001

1.21257325320831e+005,-1.74182734383737e+000,-7.41407275773671e-001

1.22950014503040e+005,-1.74182964128576e+000,-7.51747324164976e-001

1.24666332745679e+005,-1.74183197969833e+000,-7.62231354935564e-001

1.26406609898139e+005,-1.74183435906224e+000,-7.72861365869060e-001

1.28171180414339e+005,-1.74183677931205e+000,-7.83639382310213e-001

1.29960383416997e+005,-1.74183924032588e+000,-7.94567457547256e-001

1.31774562762811e+005,-1.74184174192201e+000,-8.05647673198227e-001

1.33614067108538e+005,-1.74184428385489e+000,-8.16882139605743e-001

1.35479249978003e+005,-1.74184686581140e+000,-8.28272996233141e-001

1.37370469830040e+005,-1.74184948740667e+000,-8.39822412071851e-001

1.39288090127379e+005,-1.74185214817991e+000,-8.51532586050743e-001

1.41232479406504e+005,-1.74185484759006e+000,-8.63405747453713e-001

1.43204011348474e+005,-1.74185758501122e+000,-8.75444156343625e-001

1.45203064850745e+005,-1.74186035972778e+000,-8.87650103992981e-001

1.47230024099979e+005,-1.74186317092994e+000,-9.00025913318710e-001

1.49285278645888e+005,-1.74186601770823e+000,-9.12573939328377e-001

1.51369223476094e+005,-1.74186889904868e+000,-9.25296569568978e-001

1.53482259092041e+005,-1.74187181382730e+000,-9.38196224584692e-001

1.55624791585964e+005,-1.74187476080462e+000,-9.51275358382000e-001

1.57797232718936e+005,-1.74187773861998e+000,-9.64536458901510e-001

1.59999999999999e+005,-1.74188074578568e+000,-9.77982048497764e-001

1.62233516766403e+005,-1.74188378068089e+000,-9.91614684426778e-001

1.64498212264969e+005,-1.74188684154581e+000,-1.00543695933950e+000

1.66794521734578e+005,-1.74188992647500e+000,-1.01945150178614e+000

1.69122886489819e+005,-1.74189303341102e+000,-1.03366097672701e+000

1.71483754005805e+005,-1.74189616013788e+000,-1.04806808605075e+000

1.73877578004168e+005,-1.74189930427426e+000,-1.06267556910265e+000

1.76304818540256e+005,-1.74190246326641e+000,-1.07748620322126e+000

1.78765942091554e+005,-1.74190563438143e+000,-1.09250280428116e+000

1.81261421647326e+005,-1.74190881469988e+000,-1.10772822724887e+000

1.83791736799524e+005,-1.74191200110839e+000,-1.12316536674414e+000

1.86357373834951e+005,-1.74191519029242e+000,-1.13881715761238e+000

1.88958825828723e+005,-1.74191837872862e+000,-1.15468657550520e+000

1.91596592739027e+005,-1.74192156267743e+000,-1.17077663747053e+000

1.94271181503206e+005,-1.74192473817482e+000,-1.18709040255449e+000

1.96983106135185e+005,-1.74192790102493e+000,-1.20363097240999e+000

1.99732887824256e+005,-1.74193104679218e+000,-1.22040149191563e+000

2.02521055035243e+005,-1.74193417079298e+000,-1.23740514980778e+000

2.05348143610063e+005,-1.74193726808792e+000,-1.25464517931959e+000

2.08214696870707e+005,-1.74194033347371e+000,-1.27212485883081e+000

2.11121265723661e+005,-1.74194336147512e+000,-1.28984751252917e+000

2.14068408765776e+005,-1.74194634633658e+000,-1.30781651108302e+000

2.17056692391625e+005,-1.74194928201457e+000,-1.32603527232062e+000

2.20086690902357e+005,-1.74195216216887e+000,-1.34450726192724e+000

2.23158986616063e+005,-1.74195498015502e+000,-1.36323599414506e+000

2.26274169979693e+005,-1.74195772901590e+000,-1.38222503249177e+000

2.29432839682530e+005,-1.74196040147376e+000,-1.40147799048503e+000

2.32635602771247e+005,-1.74196298992232e+000,-1.42099853238059e+000

2.35883074766574e+005,-1.74196548641872e+000,-1.44079037392203e+000

2.39175879781588e+005,-1.74196788267584e+000,-1.46085728310038e+000

2.42514650641661e+005,-1.74197017005444e+000,-1.48120308092695e+000

2.45900029006080e+005,-1.74197233955560e+000,-1.50183164221692e+000

2.49332665491357e+005,-1.74197438181311e+000,-1.52274689638581e+000

2.52813219796278e+005,-1.74197628708620e+000,-1.54395282825545e+000

2.56342360828676e+005,-1.74197804525221e+000,-1.56545347887444e+000

2.59920766833993e+005,-1.74197964579950e+000,-1.58725294634922e+000

2.63549125525621e+005,-1.74198107782044e+000,-1.60935538668756e+000

2.67228134217075e+005,-1.74198233000485e+000,-1.63176501465252e+000

2.70958499956006e+005,-1.74198339063306e+000,-1.65448610463219e+000

2.74740939660078e+005,-1.74198424756984e+000,-1.67752299151683e+000

2.78576180254757e+005,-1.74198488825787e+000,-1.70088007159219e+000

2.82464958813007e+005,-1.74198529971183e+000,-1.72456180344238e+000

2.86408022696948e+005,-1.74198546851250e+000,-1.74857270886689e+000

2.90406129701488e+005,-1.74198538080098e+000,-1.77291737380772e+000

2.94460048199957e+005,-1.74198502227344e+000,-1.79760044929056e+000

2.98570557291775e+005,-1.74198437817549e+000,-1.82262665237770e+000

3.02738446952187e+005,-1.74198343329744e+000,-1.84800076713234e+000

3.06964518184081e+005,-1.74198217196876e+000,-1.87372764559734e+000

3.11249583171928e+005,-1.74198057805399e+000,-1.89981220878337e+000

3.15594465437872e+005,-1.74197863494748e+000,-1.92625944767225e+000

3.19999999999997e+005,-1.74197632556925e+000,-1.95307442423073e+000

3.24467033532806e+005,-1.74197363236045e+000,-1.98026227243766e+000

3.28996424529938e+005,-1.74197053727911e+000,-2.00782819932321e+000

3.33589043469155e+005,-1.74196702179605e+000,-2.03577748602067e+000

3.38245772979638e+005,-1.74196306689056e+000,-2.06411548883076e+000

3.42967508011610e+005,-1.74195865304655e+000,-2.09284764029922e+000

3.47755156008335e+005,-1.74195376024830e+000,-2.12197945030534e+000

3.52609637080511e+005,-1.74194836797660e+000,-2.15151650716535e+000

3.57531884183106e+005,-1.74194245520445e+000,-2.18146447874734e+000

3.62522843294651e+005,-1.74193600039320e+000,-2.21182911359894e+000

3.67583473599047e+005,-1.74192898148786e+000,-2.24261624208956e+000

3.72714747669902e+005,-1.74192137591317e+000,-2.27383177756411e+000

3.77917651657445e+005,-1.74191316056879e+000,-2.30548171751074e+000

3.83193185478053e+005,-1.74190431182466e+000,-2.33757214474258e+000

3.88542363006410e+005,-1.74189480551599e+000,-2.37010922859200e+000

3.93966212270369e+005,-1.74188461693800e+000,-2.40309922611994e+000

3.99465775648511e+005,-1.74187372084053e+000,-2.43654848333818e+000

4.05042110070485e+005,-1.74186209142175e+000,-2.47046343644742e+000

4.10696287220124e+005,-1.74184970232222e+000,-2.50485061308790e+000

4.16429393741414e+005,-1.74183652661800e+000,-2.53971663360618e+000

4.22242531447321e+005,-1.74182253681340e+000,-2.57506821233716e+000

4.28136817531551e+005,-1.74180770483342e+000,-2.61091215889988e+000

4.34113384783250e+005,-1.74179200201529e+000,-2.64725537951127e+000

4.40173381804713e+005,-1.74177539909959e+000,-2.68410487831428e+000

4.46317973232124e+005,-1.74175786622087e+000,-2.72146775872290e+000

4.52548339959385e+005,-1.74173937289742e+000,-2.75935122478355e+000

4.58865679365059e+005,-1.74171988802026e+000,-2.79776258255450e+000

4.65271205542494e+005,-1.74169937984161e+000,-2.83670924150186e+000

4.71766149533147e+005,-1.74167781596234e+000,-2.87619871591413e+000

4.78351759563174e+005,-1.74165516331876e+000,-2.91623862633480e+000

4.85029301283321e+005,-1.74163138816843e+000,-2.95683670101402e+000

4.91800058012158e+005,-1.74160645607509e+000,-2.99800077737936e+000

4.98665330982714e+005,-1.74158033189285e+000,-3.03973880352573e+000

5.05626439592555e+005,-1.74155297974905e+000,-3.08205883972776e+000

5.12684721657352e+005,-1.74152436302631e+000,-3.12496905997029e+000

5.19841533667984e+005,-1.74149444434385e+000,-3.16847775350093e+000

5.27098251051240e+005,-1.74146318553719e+000,-3.21259332640549e+000

5.34456268434150e+005,-1.74143054763727e+000,-3.25732430320432e+000

5.41916999912011e+005,-1.74139649084792e+000,-3.30267932847300e+000

