Freq.,VOut,OutRef

1.00000000000000e+004,-6.03608470492867e+000,-1.11847054826989e-001

1.01395947979003e+004,-6.03608496629698e+000,-1.13408318550348e-001

1.02811382665607e+004,-6.03608523499936e+000,-1.14991374030850e-001

1.04246576084112e+004,-6.03608551124125e+000,-1.16596525356277e-001

1.05701804056138e+004,-6.03608579523351e+000,-1.18224080857170e-001

1.07177346253629e+004,-6.03608608719350e+000,-1.19874353158499e-001

1.08673486252606e+004,-6.03608638734397e+000,-1.21547659248420e-001

1.10190511587661e+004,-6.03608669591454e+000,-1.23244320531296e-001

1.11728713807222e+004,-6.03608701314029e+000,-1.24964662897177e-001

1.13288388529580e+004,-6.03608733926422e+000,-1.26709016771592e-001

1.14869835499703e+004,-6.03608767453457e+000,-1.28477717196077e-001

1.16473358646846e+004,-6.03608801920786e+000,-1.30271103873905e-001

1.18099266142953e+004,-6.03608837354651e+000,-1.32089521251500e-001

1.19747870461893e+004,-6.03608873782147e+000,-1.33933318569420e-001

1.21419488439505e+004,-6.03608911231010e+000,-1.35802849942665e-001

1.23114441334492e+004,-6.03608949729842e+000,-1.37698474416097e-001

1.24833054890161e+004,-6.03608989307970e+000,-1.39620556043682e-001

1.26575659397028e+004,-6.03609029995575e+000,-1.41569463949975e-001

1.28342589756290e+004,-6.03609071823658e+000,-1.43545572405785e-001

1.30134185544193e+004,-6.03609114824098e+000,-1.45549260895590e-001

1.31950791077289e+004,-6.03609159029648e+000,-1.47580914193812e-001

1.33792755478611e+004,-6.03609204473953e+000,-1.49640922435895e-001

1.35660432744767e+004,-6.03609251191651e+000,-1.51729681191598e-001

1.37554181813974e+004,-6.03609299218259e+000,-1.53847591545547e-001

1.39474366635040e+004,-6.03609348590344e+000,-1.55995060166775e-001

1.41421356237309e+004,-6.03609399345447e+000,-1.58172499392606e-001

1.43395524801583e+004,-6.03609451522197e+000,-1.60380327301081e-001

1.45397251732031e+004,-6.03609505160224e+000,-1.62618967798364e-001

1.47426921729110e+004,-6.03609560300285e+000,-1.64888850693142e-001

1.49484924863494e+004,-6.03609616984317e+000,-1.67190411777600e-001

1.51571656651040e+004,-6.03609675255337e+000,-1.69524092918300e-001

1.53687518128801e+004,-6.03609735157593e+000,-1.71890342131976e-001

1.55832915932100e+004,-6.03609796736534e+000,-1.74289613676643e-001

1.58008262372675e+004,-6.03609860038915e+000,-1.76722368131570e-001

1.60213975517924e+004,-6.03609925112706e+000,-1.79189072494420e-001

1.62450479271247e+004,-6.03609992007274e+000,-1.81690200259005e-001

1.64718203453514e+004,-6.03610060773270e+000,-1.84226231516724e-001

1.67017583885674e+004,-6.03610131462819e+000,-1.86797653036590e-001

1.69349062472505e+004,-6.03610204129447e+000,-1.89404958365330e-001

1.71713087287550e+004,-6.03610278828126e+000,-1.92048647920651e-001

1.74110112659224e+004,-6.03610355615382e+000,-1.94729229082586e-001

1.76540599258131e+004,-6.03610434549264e+000,-1.97447216292541e-001

1.79005014185594e+004,-6.03610515689457e+000,-2.00203131148880e-001

1.81503831063432e+004,-6.03610599097235e+000,-2.02997502509756e-001

1.84037530124975e+004,-6.03610684835610e+000,-2.05830866587349e-001

1.86606598307361e+004,-6.03610772969255e+000,-2.08703767057163e-001

1.89211529345119e+004,-6.03610863564657e+000,-2.11616755154909e-001

1.91852823865052e+004,-6.03610956690137e+000,-2.14570389781076e-001

1.94530989482457e+004,-6.03611052415841e+000,-2.17565237612189e-001

1.97246540898671e+004,-6.03611150813861e+000,-2.20601873202932e-001

1.99999999999999e+004,-6.03611251958252e+000,-2.23680879096285e-001

2.02791895958005e+004,-6.03611355925099e+000,-2.26802845933541e-001

2.05622765331213e+004,-6.03611462792548e+000,-2.29968372567387e-001

2.08493152168224e+004,-6.03611572640881e+000,-2.33178066173602e-001

2.11403608112276e+004,-6.03611685552550e+000,-2.36432542366631e-001

2.14354692507258e+004,-6.03611801612280e+000,-2.39732425313780e-001

2.17346972505211e+004,-6.03611920907068e+000,-2.43078347856643e-001

2.20381023175322e+004,-6.03612043526296e+000,-2.46470951626261e-001

2.23457427614443e+004,-6.03612169561764e+000,-2.49910887166946e-001

2.26576777059159e+004,-6.03612299107721e+000,-2.53398814059851e-001

2.29739670999406e+004,-6.03612432261045e+000,-2.56935401041489e-001

2.32946717293690e+004,-6.03612569121144e+000,-2.60521326137711e-001

2.36198532285905e+004,-6.03612709790169e+000,-2.64157276784299e-001

2.39495740923785e+004,-6.03612854373004e+000,-2.67843949959769e-001

2.42838976879009e+004,-6.03613002977356e+000,-2.71582052315421e-001

2.46228882668982e+004,-6.03613155713846e+000,-2.75372300307520e-001

2.49666109780322e+004,-6.03613312696027e+000,-2.79215420333872e-001

2.53151318794055e+004,-6.03613474040547e+000,-2.83112148866114e-001

2.56685179512580e+004,-6.03613639867160e+000,-2.87063232590806e-001

2.60268371088386e+004,-6.03613810298791e+000,-2.91069428550353e-001

2.63901582154578e+004,-6.03613985461702e+000,-2.95131504279956e-001

2.67585510957221e+004,-6.03614165485496e+000,-2.99250237955402e-001

2.71320865489533e+004,-6.03614350503205e+000,-3.03426418537816e-001

2.75108363627948e+004,-6.03614540651452e+000,-3.07660845917911e-001

2.78948733270080e+004,-6.03614736070430e+000,-3.11954331069906e-001

2.82842712474618e+004,-6.03614936904082e+000,-3.16307696199156e-001

2.86791049603164e+004,-6.03615143300158e+000,-3.20721774895843e-001

2.90794503464061e+004,-6.03615355410277e+000,-3.25197412292800e-001

2.94853843458219e+004,-6.03615573390103e+000,-3.29735465217850e-001

2.98969849726987e+004,-6.03615797399332e+000,-3.34336802359546e-001

3.03143313302078e+004,-6.03616027601921e+000,-3.39002304420185e-001

3.07375036257601e+004,-6.03616264166072e+000,-3.43732864286774e-001

3.11665831864199e+004,-6.03616507264407e+000,-3.48529387192469e-001

3.16016524745350e+004,-6.03616757074032e+000,-3.53392790885391e-001

3.20427951035848e+004,-6.03617013776696e+000,-3.58324005796391e-001

3.24900958542493e+004,-6.03617277558814e+000,-3.63323975215294e-001

3.29436406907028e+004,-6.03617548611669e+000,-3.68393655460265e-001

3.34035167771346e+004,-6.03617827131496e+000,-3.73534016055179e-001

3.38698124945009e+004,-6.03618113319554e+000,-3.78746039911169e-001

3.43426174575100e+004,-6.03618407382291e+000,-3.84030723504127e-001

3.48220225318448e+004,-6.03618709531443e+000,-3.89389077059355e-001

3.53081198516260e+004,-6.03619019984158e+000,-3.94822124736429e-001

3.58010028371187e+004,-6.03619338963127e+000,-4.00330904817164e-001

3.63007662126863e+004,-6.03619666696695e+000,-4.05916469894737e-001

3.68075060249948e+004,-6.03620003418973e+000,-4.11579887068909e-001

3.73213196614721e+004,-6.03620349370003e+000,-4.17322238138204e-001

3.78423058690237e+004,-6.03620704795873e+000,-4.23144619796610e-001

3.83705647730104e+004,-6.03621069948828e+000,-4.29048143836460e-001

3.89061978964912e+004,-6.03621445087407e+000,-4.35033937349386e-001

3.94493081797342e+004,-6.03621830476608e+000,-4.41103142929270e-001

3.99999999999998e+004,-6.03622226387986e+000,-4.47256918881499e-001

4.05583791916010e+004,-6.03622633099814e+000,-4.53496439432093e-001

4.11245530662425e+004,-6.03623050897192e+000,-4.59822894940772e-001

4.16986304336447e+004,-6.03623480072229e+000,-4.66237492113936e-001

4.22807216224550e+004,-6.03623920924141e+000,-4.72741454224716e-001

4.28709385014515e+004,-6.03624373759418e+000,-4.79336021331239e-001

4.34693945010421e+004,-6.03624838891944e+000,-4.86022450501140e-001

4.40762046350642e+004,-6.03625316643167e+000,-4.92802016035381e-001

4.46914855228886e+004,-6.03625807342224e+000,-4.99676009697321e-001

4.53153554118317e+004,-6.03626311326049e+000,-5.06645740945923e-001

4.59479341998812e+004,-6.03626828939613e+000,-5.13712537164091e-001

4.65893434587380e+004,-6.03627360535954e+000,-5.20877743901318e-001

4.72397064571810e+004,-6.03627906476388e+000,-5.28142725109045e-001

4.78991481847569e+004,-6.03628467130649e+000,-5.35508863383407e-001

4.85677953758016e+004,-6.03629042876983e+000,-5.42977560212320e-001

4.92457765337964e+004,-6.03629634102342e+000,-5.50550236221277e-001

4.99332219560642e+004,-6.03630241202482e+000,-5.58228331425126e-001

5.06302637588109e+004,-6.03630864582154e+000,-5.66013305479886e-001

5.13370359025159e+004,-6.03631504655150e+000,-5.73906637943494e-001

5.20536742176771e+004,-6.03632161844522e+000,-5.81909828531334e-001

5.27803164309155e+004,-6.03632836582671e+000,-5.90024397381182e-001

5.35171021914442e+004,-6.03633529311469e+000,-5.98251885318195e-001

5.42641730979066e+004,-6.03634240482410e+000,-6.06593854123348e-001

5.50216727255895e+004,-6.03634970556712e+000,-6.15051886804810e-001

5.57897466540159e+004,-6.03635720005416e+000,-6.23627587875556e-001

5.65685424949235e+004,-6.03636489309518e+000,-6.32322583627705e-001

5.73582099206328e+004,-6.03637278960074e+000,-6.41138522416160e-001

5.81589006928121e+004,-6.03638089458308e+000,-6.50077074940228e-001

5.89707686916437e+004,-6.03638921315643e+000,-6.59139934536243e-001

5.97939699453972e+004,-6.03639775053880e+000,-6.68328817461909e-001

6.06286626604156e+004,-6.03640651205192e+000,-6.77645463195416e-001

6.14750072515201e+004,-6.03641550312246e+000,-6.87091634729987e-001

6.23331663728396e+004,-6.03642472928232e+000,-6.96669118874865e-001

6.32033049490698e+004,-6.03643419616914e+000,-7.06379726561241e-001

6.40855902071694e+004,-6.03644390952695e+000,-7.16225293146028e-001

6.49801917084985e+004,-6.03645387520607e+000,-7.26207678725926e-001

6.58872813814055e+004,-6.03646409916334e+000,-7.36328768450316e-001

6.68070335542691e+004,-6.03647458746241e+000,-7.46590472837635e-001

6.77396249890018e+004,-6.03648534627309e+000,-7.56994728098832e-001

6.86852349150199e+004,-6.03649638187143e+000,-7.67543496460990e-001

6.96440450636895e+004,-6.03650770063906e+000,-7.78238766495145e-001

7.06162397032520e+004,-6.03651930906257e+000,-7.89082553449068e-001

7.16020056742374e+004,-6.03653121373270e+000,-8.00076899582350e-001

7.26015324253724e+004,-6.03654342134315e+000,-8.11223874505964e-001

7.36150120499896e+004,-6.03655593868957e+000,-8.22525575524873e-001

7.46426393229441e+004,-6.03656877266763e+000,-8.33984127986040e-001

7.56846117380472e+004,-6.03658193027169e+000,-8.45601685627637e-001

7.67411295460207e+004,-6.03659541859253e+000,-8.57380430934628e-001

7.78123957929823e+004,-6.03660924481505e+000,-8.69322575497965e-001

7.88986163594682e+004,-6.03662341621590e+000,-8.81430360375405e-001

7.99999999999995e+004,-6.03663794016017e+000,-8.93706056460204e-001

8.11167583832018e+004,-6.03665282409858e+000,-9.06151964851442e-001

8.22491061324848e+004,-6.03666807556363e+000,-9.18770417228187e-001

8.33972608672892e+004,-6.03668370216576e+000,-9.31563776230401e-001

8.45614432449099e+004,-6.03669971158886e+000,-9.44534435842488e-001

8.57418770029029e+004,-6.03671611158576e+000,-9.57684821780844e-001

8.69387890020841e+004,-6.03673290997287e+000,-9.71017391887572e-001

8.81524092701283e+004,-6.03675011462454e+000,-9.84534636528313e-001

8.93829710457770e+004,-6.03676773346693e+000,-9.98239078994425e-001

9.06307108236633e+004,-6.03678577447171e+000,-1.01213327590923e+000

9.18958683997622e+004,-6.03680424564848e+000,-1.02621981764198e+000

9.31786869174758e+004,-6.03682315503727e+000,-1.04050132872499e+000

9.44794129143618e+004,-6.03684251070051e+000,-1.05498046827457e+000

9.57982963695136e+004,-6.03686232071368e+000,-1.06965993042210e+000

9.71355907516031e+004,-6.03688259315628e+000,-1.08454244474561e+000

9.84915530675926e+004,-6.03690333610157e+000,-1.09963077670847e+000

9.98664439121282e+004,-6.03692455760560e+000,-1.11492772810727e+000

1.01260527517622e+005,-6.03694626569579e+000,-1.13043613752079e+000

1.02674071805032e+005,-6.03696846835854e+000,-1.14615888076941e+000

1.04107348435354e+005,-6.03699117352635e+000,-1.16209887137719e+000

1.05560632861831e+005,-6.03701438906382e+000,-1.17825906104401e+000

1.07034204382888e+005,-6.03703812275315e+000,-1.19464244012181e+000

1.08528346195813e+005,-6.03706238227816e+000,-1.21125203810135e+000

1.10043345451179e+005,-6.03708717520832e+000,-1.22809092410172e+000

1.11579493308032e+005,-6.03711250898111e+000,-1.24516220737161e+000

1.13137084989847e+005,-6.03713839088365e+000,-1.26246903779668e+000

1.14716419841265e+005,-6.03716482803356e+000,-1.28001460641384e+000

1.16317801385624e+005,-6.03719182735833e+000,-1.29780214593822e+000

1.17941537383287e+005,-6.03721939557415e+000,-1.31583493129321e+000

1.19587939890794e+005,-6.03724753916319e+000,-1.33411628015523e+000

1.21257325320831e+005,-6.03727626435014e+000,-1.35264955350365e+000

1.22950014503040e+005,-6.03730557707745e+000,-1.37143815618289e+000

1.24666332745679e+005,-6.03733548297918e+000,-1.39048553747457e+000

1.26406609898139e+005,-6.03736598735397e+000,-1.40979519168059e+000

1.28171180414339e+005,-6.03739709513667e+000,-1.42937065871539e+000

1.29960383416997e+005,-6.03742881086870e+000,-1.44921552471167e+000

1.31774562762811e+005,-6.03746113866692e+000,-1.46933342263849e+000

1.33614067108538e+005,-6.03749408219158e+000,-1.48972803292953e+000

1.35479249978003e+005,-6.03752764461251e+000,-1.51040308412716e+000

1.37370469830040e+005,-6.03756182857449e+000,-1.53136235353664e+000

1.39288090127379e+005,-6.03759663616049e+000,-1.55260966789853e+000

1.41232479406504e+005,-6.03763206885436e+000,-1.57414890407135e+000

1.43204011348474e+005,-6.03766812750132e+000,-1.59598398973323e+000

1.45203064850745e+005,-6.03770481226778e+000,-1.61811890409584e+000

1.47230024099979e+005,-6.03774212259910e+000,-1.64055767863742e+000

1.49285278645888e+005,-6.03778005717634e+000,-1.66330439785085e+000

1.51369223476094e+005,-6.03781861387136e+000,-1.68636320001069e+000

1.53482259092041e+005,-6.03785778970058e+000,-1.70973827795710e+000

1.55624791585964e+005,-6.03789758077725e+000,-1.73343387990032e+000

1.57797232718936e+005,-6.03793798226239e+000,-1.75745431024282e+000

1.59999999999999e+005,-6.03797898831442e+000,-1.78180393042201e+000

1.62233516766403e+005,-6.03802059203680e+000,-1.80648715977726e+000

1.64498212264969e+005,-6.03806278542550e+000,-1.83150847643156e+000

1.66794521734578e+005,-6.03810555931388e+000,-1.85687241820280e+000

1.69122886489819e+005,-6.03814890331687e+000,-1.88258358353435e+000

1.71483754005805e+005,-6.03819280577401e+000,-1.90864663244922e+000

1.73877578004168e+005,-6.03823725369109e+000,-1.93506628752977e+000

1.76304818540256e+005,-6.03828223268050e+000,-1.96184733492229e+000

1.78765942091554e+005,-6.03832772690069e+000,-1.98899462536748e+000

1.81261421647326e+005,-6.03837371899442e+000,-2.01651307525764e+000

1.83791736799524e+005,-6.03842019002615e+000,-2.04440766772037e+000

1.86357373834951e+005,-6.03846711941852e+000,-2.07268345373076e+000

1.88958825828723e+005,-6.03851448488777e+000,-2.10134555325253e+000

1.91596592739027e+005,-6.03856226237876e+000,-2.13039915640701e+000

1.94271181503206e+005,-6.03861042599916e+000,-2.15984952467330e+000

1.96983106135185e+005,-6.03865894795276e+000,-2.18970199211892e+000

1.99732887824256e+005,-6.03870779847314e+000,-2.21996196665873e+000

2.02521055035243e+005,-6.03875694575603e+000,-2.25063493134915e+000

2.05348143610063e+005,-6.03880635589222e+000,-2.28172644571094e+000

2.08214696870707e+005,-6.03885599279971e+000,-2.31324214708664e+000

2.11121265723661e+005,-6.03890581815641e+000,-2.34518775202864e+000

2.14068408765776e+005,-6.03895579133252e+000,-2.37756905772215e+000

2.17056692391625e+005,-6.03900586932336e+000,-2.41039194344059e+000

2.20086690902357e+005,-6.03905600668270e+000,-2.44366237203423e+000

2.23158986616063e+005,-6.03910615545632e+000,-2.47738639145219e+000

2.26274169979693e+005,-6.03915626511638e+000,-2.51157013630062e+000

2.29432839682530e+005,-6.03920628249661e+000,-2.54621982943126e+000

2.32635602771247e+005,-6.03925615172838e+000,-2.58134178356595e+000

2.35883074766574e+005,-6.03930581417773e+000,-2.61694240295520e+000

2.39175879781588e+005,-6.03935520838395e+000,-2.65302818506787e+000

2.42514650641661e+005,-6.03940426999887e+000,-2.68960572231734e+000

2.45900029006080e+005,-6.03945293172831e+000,-2.72668170381768e+000

2.49332665491357e+005,-6.03950112327456e+000,-2.76426291717487e+000

2.52813219796278e+005,-6.03954877128086e+000,-2.80235625030868e+000

2.56342360828676e+005,-6.03959579927782e+000,-2.84096869330554e+000

2.59920766833993e+005,-6.03964212763136e+000,-2.88010734030450e+000

2.63549125525621e+005,-6.03968767349300e+000,-2.91977939141207e+000

2.67228134217075e+005,-6.03973235075237e+000,-2.95999215464631e+000

2.70958499956006e+005,-6.03977606999150e+000,-3.00075304791098e+000

2.74740939660078e+005,-6.03981873844188e+000,-3.04206960099598e+000

2.78576180254757e+005,-6.03986025994359e+000,-3.08394945760602e+000

2.82464958813007e+005,-6.03990053490685e+000,-3.12640037741450e+000

2.86408022696948e+005,-6.03993946027606e+000,-3.16943023814292e+000

2.90406129701488e+005,-6.03997692949618e+000,-3.21304703766310e+000

2.94460048199957e+005,-6.04001283248173e+000,-3.25725889612324e+000

2.98570557291775e+005,-6.04004705558787e+000,-3.30207405809538e+000

3.02738446952187e+005,-6.04007948158438e+000,-3.34750089474233e+000

3.06964518184081e+005,-6.04010998963159e+000,-3.39354790600492e+000

3.11249583171928e+005,-6.04013845525858e+000,-3.44022372280682e+000

3.15594465437872e+005,-6.04016475034399e+000,-3.48753710927660e+000

3.19999999999997e+005,-6.04018874309829e+000,-3.53549696498551e+000

3.24467033532806e+005,-6.04021029804868e+000,-3.58411232719904e+000

3.28996424529938e+005,-6.04022927602540e+000,-3.63339237314286e+000

3.33589043469155e+005,-6.04024553414966e+000,-3.68334642228150e+000

3.38245772979638e+005,-6.04025892582343e+000,-3.73398393860725e+000

3.42967508011610e+005,-6.04026930071998e+000,-3.78531453294100e+000

3.47755156008335e+005,-6.04027650477625e+000,-3.83734796524065e+000

3.52609637080511e+005,-6.04028038018512e+000,-3.89009414692115e+000

3.57531884183106e+005,-6.04028076538910e+000,-3.94356314317934e+000

3.62522843294651e+005,-6.04027749507385e+000,-3.99776517532949e+000

3.67583473599047e+005,-6.04027040016192e+000,-4.05271062314361e+000

3.72714747669902e+005,-6.04025930780608e+000,-4.10841002719896e+000

3.77917651657445e+005,-6.04024404138255e+000,-4.16487409123188e+000

3.83193185478053e+005,-6.04022442048259e+000,-4.22211368449888e+000

3.88542363006410e+005,-6.04020026090350e+000,-4.28013984414188e+000

3.93966212270369e+005,-6.04017137463803e+000,-4.33896377756075e+000

3.99465775648511e+005,-6.04013756986138e+000,-4.39859686479356e+000

4.05042110070485e+005,-6.04009865091670e+000,-4.45905066090151e+000

4.10696287220124e+005,-6.04005441829720e+000,-4.52033689836408e+000

4.16429393741414e+005,-6.04000466862608e+000,-4.58246748947977e+000

4.22242531447321e+005,-6.03994919463253e+000,-4.64545452877881e+000

4.28136817531551e+005,-6.03988778512436e+000,-4.70931029544325e+000

4.34113384783250e+005,-6.03982022495648e+000,-4.77404725574132e+000

4.40173381804713e+005,-6.03974629499501e+000,-4.83967806547251e+000

4.46317973232124e+005,-6.03966577207677e+000,-4.90621557242705e+000

4.52548339959385e+005,-6.03957842896330e+000,-4.97367281886284e+000

4.58865679365059e+005,-6.03948403429011e+000,-5.04206304399724e+000

4.65271205542494e+005,-6.03938235250938e+000,-5.11139968652164e+000

4.71766149533147e+005,-6.03927314382737e+000,-5.18169638713449e+000

4.78351759563174e+005,-6.03915616413477e+000,-5.25296699109983e+000

4.85029301283321e+005,-6.03903116493095e+000,-5.32522555083111e+000

4.91800058012158e+005,-6.03889789324077e+000,-5.39848632850368e+000

4.98665330982714e+005,-6.03875609152455e+000,-5.47276379869704e+000

5.05626439592555e+005,-6.03860549758048e+000,-5.54807265107142e+000

5.12684721657352e+005,-6.03844584443889e+000,-5.62442779308027e+000

5.19841533667984e+005,-6.03827686024945e+000,-5.70184435271965e+000

5.27098251051240e+005,-6.03809826815911e+000,-5.78033768132253e+000

5.34456268434150e+005,-6.03790978618283e+000,-5.85992335639305e+000

5.41916999912011e+005,-6.03771112706475e+000,-5.94061718449194e+000

