Freq.,VOut,OutRef

1.00000000000000e+004,-1.04427385494738e+000,-8.80921192242779e-002

1.01395947979003e+004,-1.04427385969043e+000,-8.93218351470320e-002

1.02811382665607e+004,-1.04427386456606e+000,-9.05687170834076e-002

1.04246576084112e+004,-1.04427386957761e+000,-9.18330046567929e-002

1.05701804056138e+004,-1.04427387472903e+000,-9.31149408313144e-002

1.07177346253629e+004,-1.04427388002415e+000,-9.44147719640346e-002

1.08673486252606e+004,-1.04427388546694e+000,-9.57327478513018e-002

1.10190511587661e+004,-1.04427389106160e+000,-9.70691217745635e-002

1.11728713807222e+004,-1.04427389681197e+000,-9.84241505534923e-002

1.13288388529580e+004,-1.04427390272273e+000,-9.97980945880333e-002

1.14869835499703e+004,-1.04427390879830e+000,-1.01191217915374e-001

1.16473358646846e+004,-1.04427391504291e+000,-1.02603788259636e-001

1.18099266142953e+004,-1.04427392146156e+000,-1.04036077077944e-001

1.19747870461893e+004,-1.04427392805882e+000,-1.05488359619893e-001

1.21419488439505e+004,-1.04427393483965e+000,-1.06960914975396e-001

1.23114441334492e+004,-1.04427394180923e+000,-1.08454026128616e-001

1.24833054890161e+004,-1.04427394897264e+000,-1.09967980015646e-001

1.26575659397028e+004,-1.04427395633535e+000,-1.11503067575797e-001

1.28342589756290e+004,-1.04427396390260e+000,-1.13059583811541e-001

1.30134185544193e+004,-1.04427397168024e+000,-1.14637827839565e-001

1.31950791077289e+004,-1.04427397967394e+000,-1.16238102953824e-001

1.33792755478611e+004,-1.04427398788956e+000,-1.17860716681418e-001

1.35660432744767e+004,-1.04427399633330e+000,-1.19505980839919e-001

1.37554181813974e+004,-1.04427400501144e+000,-1.21174211600196e-001

1.39474366635040e+004,-1.04427401393019e+000,-1.22865729547115e-001

1.41421356237309e+004,-1.04427402309635e+000,-1.24580859737162e-001

1.43395524801583e+004,-1.04427403251672e+000,-1.26319931765150e-001

1.45397251732031e+004,-1.04427404219789e+000,-1.28083279828052e-001

1.47426921729110e+004,-1.04427405214739e+000,-1.29871242783140e-001

1.49484924863494e+004,-1.04427406237224e+000,-1.31684164220262e-001

1.51571656651040e+004,-1.04427407287996e+000,-1.33522392523753e-001

1.53687518128801e+004,-1.04427408367854e+000,-1.35386280938468e-001

1.55832915932100e+004,-1.04427409477558e+000,-1.37276187642190e-001

1.58008262372675e+004,-1.04427410617925e+000,-1.39192475810248e-001

1.60213975517924e+004,-1.04427411789803e+000,-1.41135513685480e-001

1.62450479271247e+004,-1.04427412994011e+000,-1.43105674653286e-001

1.64718203453514e+004,-1.04427414231469e+000,-1.45103337305769e-001

1.67017583885674e+004,-1.04427415503044e+000,-1.47128885522334e-001

1.69349062472505e+004,-1.04427416809659e+000,-1.49182708538697e-001

1.71713087287550e+004,-1.04427418152281e+000,-1.51265201021075e-001

1.74110112659224e+004,-1.04427419531861e+000,-1.53376763146443e-001

1.76540599258131e+004,-1.04427420949394e+000,-1.55517800674957e-001

1.79005014185594e+004,-1.04427422405908e+000,-1.57688725028950e-001

1.81503831063432e+004,-1.04427423902450e+000,-1.59889953373299e-001

1.84037530124975e+004,-1.04427425440082e+000,-1.62121908694820e-001

1.86606598307361e+004,-1.04427427019915e+000,-1.64385019882012e-001

1.89211529345119e+004,-1.04427428643074e+000,-1.66679721809828e-001

1.91852823865052e+004,-1.04427430310705e+000,-1.69006455422075e-001

1.94530989482457e+004,-1.04427432024015e+000,-1.71365667813773e-001

1.97246540898671e+004,-1.04427433784195e+000,-1.73757812322095e-001

1.99999999999999e+004,-1.04427435592505e+000,-1.76183348608289e-001

2.02791895958005e+004,-1.04427437450214e+000,-1.78642742749143e-001

2.05622765331213e+004,-1.04427439358626e+000,-1.81136467324659e-001

2.08493152168224e+004,-1.04427441319086e+000,-1.83665001509545e-001

2.11403608112276e+004,-1.04427443332970e+000,-1.86228831164716e-001

2.14354692507258e+004,-1.04427445401676e+000,-1.88828448931639e-001

2.17346972505211e+004,-1.04427447526643e+000,-1.91464354325509e-001

2.20381023175322e+004,-1.04427449709346e+000,-1.94137053831520e-001

2.23457427614443e+004,-1.04427451951302e+000,-1.96847061002030e-001

2.26576777059159e+004,-1.04427454254054e+000,-1.99594896555238e-001

2.29739670999406e+004,-1.04427456619176e+000,-2.02381088476401e-001

2.32946717293690e+004,-1.04427459048293e+000,-2.05206172115877e-001

2.36198532285905e+004,-1.04427461543061e+000,-2.08070690294919e-001

2.39495740923785e+004,-1.04427464105186e+000,-2.10975193407486e-001

2.42838976879009e+004,-1.04427466736392e+000,-2.13920239528527e-001

2.46228882668982e+004,-1.04427469438446e+000,-2.16906394518887e-001

2.49666109780322e+004,-1.04427472213182e+000,-2.19934232133319e-001

2.53151318794055e+004,-1.04427475062459e+000,-2.23004334132267e-001

2.56685179512580e+004,-1.04427477988153e+000,-2.26117290394363e-001

2.60268371088386e+004,-1.04427480992217e+000,-2.29273699025344e-001

2.63901582154578e+004,-1.04427484076640e+000,-2.32474166476576e-001

2.67585510957221e+004,-1.04427487243439e+000,-2.35719307660748e-001

2.71320865489533e+004,-1.04427490494690e+000,-2.39009746067795e-001

2.75108363627948e+004,-1.04427493832510e+000,-2.42346113886790e-001

2.78948733270080e+004,-1.04427497259049e+000,-2.45729052125746e-001

2.82842712474618e+004,-1.04427500776522e+000,-2.49159210734624e-001

2.86791049603164e+004,-1.04427504387180e+000,-2.52637248730499e-001

2.90794503464061e+004,-1.04427508093307e+000,-2.56163834323939e-001

2.94853843458219e+004,-1.04427511897259e+000,-2.59739645045613e-001

2.98969849726987e+004,-1.04427515801423e+000,-2.63365367878130e-001

3.03143313302078e+004,-1.04427519808231e+000,-2.67041699386133e-001

3.07375036257601e+004,-1.04427523920170e+000,-2.70769345850958e-001

3.11665831864199e+004,-1.04427528139777e+000,-2.74549023404383e-001

3.16016524745350e+004,-1.04427532469609e+000,-2.78381458168723e-001

3.20427951035848e+004,-1.04427536912322e+000,-2.82267386391088e-001

3.24900958542493e+004,-1.04427541470563e+000,-2.86207554590876e-001

3.29436406907028e+004,-1.04427546147072e+000,-2.90202719695724e-001

3.34035167771346e+004,-1.04427550944601e+000,-2.94253649192951e-001

3.38698124945009e+004,-1.04427555865963e+000,-2.98361121271978e-001

3.43426174575100e+004,-1.04427560914028e+000,-3.02525924974852e-001

3.48220225318448e+004,-1.04427566091696e+000,-3.06748860347891e-001

3.53081198516260e+004,-1.04427571401906e+000,-3.11030738595252e-001

3.58010028371187e+004,-1.04427576847666e+000,-3.15372382231198e-001

3.63007662126863e+004,-1.04427582432002e+000,-3.19774625241781e-001

3.68075060249948e+004,-1.04427588158000e+000,-3.24238313240619e-001

3.73213196614721e+004,-1.04427594028772e+000,-3.28764303633814e-001

3.78423058690237e+004,-1.04427600047488e+000,-3.33353465781688e-001

3.83705647730104e+004,-1.04427606217333e+000,-3.38006681167144e-001

3.89061978964912e+004,-1.04427612541542e+000,-3.42724843562472e-001

3.94493081797342e+004,-1.04427619023387e+000,-3.47508859201006e-001

3.99999999999998e+004,-1.04427625666158e+000,-3.52359646951482e-001

4.05583791916010e+004,-1.04427632473193e+000,-3.57278138491710e-001

4.11245530662425e+004,-1.04427639447842e+000,-3.62265278488548e-001

4.16986304336447e+004,-1.04427646593493e+000,-3.67322024777483e-001

4.22807216224550e+004,-1.04427653913531e+000,-3.72449348546992e-001

4.28709385014515e+004,-1.04427661411393e+000,-3.77648234521848e-001

4.34693945010421e+004,-1.04427669090497e+000,-3.82919681154290e-001

4.40762046350642e+004,-1.04427676954282e+000,-3.88264700812697e-001

4.46914855228886e+004,-1.04427685006194e+000,-3.93684319975897e-001

4.53153554118317e+004,-1.04427693249696e+000,-3.99179579427801e-001

4.59479341998812e+004,-1.04427701688214e+000,-4.04751534459554e-001

4.65893434587380e+004,-1.04427710325185e+000,-4.10401255067276e-001

4.72397064571810e+004,-1.04427719164005e+000,-4.16129826160079e-001

4.78991481847569e+004,-1.04427728208084e+000,-4.21938347763148e-001

4.85677953758016e+004,-1.04427737460775e+000,-4.27827935231092e-001

4.92457765337964e+004,-1.04427746925391e+000,-4.33799719460271e-001

4.99332219560642e+004,-1.04427756605215e+000,-4.39854847102276e-001

5.06302637588109e+004,-1.04427766503458e+000,-4.45994480786490e-001

5.13370359025159e+004,-1.04427776623269e+000,-4.52219799339277e-001

5.20536742176771e+004,-1.04427786967728e+000,-4.58531998009285e-001

5.27803164309155e+004,-1.04427797539829e+000,-4.64932288695432e-001

5.35171021914442e+004,-1.04427808342458e+000,-4.71421900179676e-001

5.42641730979066e+004,-1.04427819378403e+000,-4.78002078358541e-001

5.50216727255895e+004,-1.04427830650315e+000,-4.84674086483308e-001

5.57897466540159e+004,-1.04427842160712e+000,-4.91439205399012e-001

5.65685424949235e+004,-1.04427853911964e+000,-4.98298733789311e-001

5.73582099206328e+004,-1.04427865906265e+000,-5.05253988423888e-001

5.81589006928121e+004,-1.04427878145621e+000,-5.12306304409438e-001

5.89707686916437e+004,-1.04427890631838e+000,-5.19457035443377e-001

5.97939699453972e+004,-1.04427903366493e+000,-5.26707554072876e-001

6.06286626604156e+004,-1.04427916350917e+000,-5.34059251955048e-001

6.14750072515201e+004,-1.04427929586166e+000,-5.41513540123079e-001

6.23331663728396e+004,-1.04427943073019e+000,-5.49071849252990e-001

6.32033049490698e+004,-1.04427956811928e+000,-5.56735629938449e-001

6.40855902071694e+004,-1.04427970802996e+000,-5.64506352964836e-001

6.49801917084985e+004,-1.04427985045972e+000,-5.72385509589961e-001

6.58872813814055e+004,-1.04427999540180e+000,-5.80374611827976e-001

6.68070335542691e+004,-1.04428014284534e+000,-5.88475192735304e-001

6.77396249890018e+004,-1.04428029277463e+000,-5.96688806705410e-001

6.86852349150199e+004,-1.04428044516897e+000,-6.05017029761002e-001

6.96440450636895e+004,-1.04428060000226e+000,-6.13461459855892e-001

7.06162397032520e+004,-1.04428075724272e+000,-6.22023717176865e-001

7.16020056742374e+004,-1.04428091685212e+000,-6.30705444454308e-001

7.26015324253724e+004,-1.04428107878566e+000,-6.39508307271654e-001

7.36150120499896e+004,-1.04428124299143e+000,-6.48433994383110e-001

7.46426393229441e+004,-1.04428140940981e+000,-6.57484218034247e-001

7.56846117380472e+004,-1.04428157797312e+000,-6.66660714287147e-001

7.67411295460207e+004,-1.04428174860471e+000,-6.75965243350994e-001

7.78123957929823e+004,-1.04428192121888e+000,-6.85399589914437e-001

7.88986163594682e+004,-1.04428209571979e+000,-6.94965563486284e-001

7.99999999999995e+004,-1.04428227200113e+000,-7.04664998737693e-001

8.11167583832018e+004,-1.04428244994536e+000,-7.14499755850919e-001

8.22491061324848e+004,-1.04428262942267e+000,-7.24471720873355e-001

8.33972608672892e+004,-1.04428281029085e+000,-7.34582806072861e-001

8.45614432449099e+004,-1.04428299239381e+000,-7.44834950303463e-001

8.57418770029029e+004,-1.04428317556124e+000,-7.55230119371169e-001

8.69387890020841e+004,-1.04428335960743e+000,-7.65770306408262e-001

8.81524092701283e+004,-1.04428354433042e+000,-7.76457532250417e-001

8.93829710457770e+004,-1.04428372951107e+000,-7.87293845820391e-001

9.06307108236633e+004,-1.04428391491195e+000,-7.98281324516875e-001

9.18958683997622e+004,-1.04428410027625e+000,-8.09422074608150e-001

9.31786869174758e+004,-1.04428428532673e+000,-8.20718231631765e-001

9.44794129143618e+004,-1.04428446976438e+000,-8.32171960799386e-001

9.57982963695136e+004,-1.04428465326740e+000,-8.43785457407260e-001

9.71355907516031e+004,-1.04428483548958e+000,-8.55560947253351e-001

9.84915530675926e+004,-1.04428501605908e+000,-8.67500687058689e-001

9.98664439121282e+004,-1.04428519457704e+000,-8.79606964895815e-001

1.01260527517622e+005,-1.04428537061598e+000,-8.91882100622220e-001

1.02674071805032e+005,-1.04428554371816e+000,-9.04328446321483e-001

1.04107348435354e+005,-1.04428571339404e+000,-9.16948386748113e-001

1.05560632861831e+005,-1.04428587912055e+000,-9.29744339781014e-001

1.07034204382888e+005,-1.04428604033916e+000,-9.42718756881903e-001

1.08528346195813e+005,-1.04428619645399e+000,-9.55874123560561e-001

1.10043345451179e+005,-1.04428634682996e+000,-9.69212959847030e-001

1.11579493308032e+005,-1.04428649079060e+000,-9.82737820769124e-001

1.13137084989847e+005,-1.04428662761587e+000,-9.96451296838758e-001

1.14716419841265e+005,-1.04428675654015e+000,-1.01035601454259e+000

1.16317801385624e+005,-1.04428687674941e+000,-1.02445463684326e+000

1.17941537383287e+005,-1.04428698737927e+000,-1.03874986368268e+000

1.19587939890794e+005,-1.04428708751222e+000,-1.05324443249721e+000

1.21257325320831e+005,-1.04428717617489e+000,-1.06794111873780e+000

1.22950014503040e+005,-1.04428725233546e+000,-1.08284273639793e+000

1.24666332745679e+005,-1.04428731490058e+000,-1.09795213854916e+000

1.26406609898139e+005,-1.04428736271258e+000,-1.11327221788472e+000

1.28171180414339e+005,-1.04428739454633e+000,-1.12880590726952e+000

1.29960383416997e+005,-1.04428740910589e+000,-1.14455618030026e+000

1.31774562762811e+005,-1.04428740502134e+000,-1.16052605187169e+000

1.33614067108538e+005,-1.04428738084509e+000,-1.17671857875293e+000

1.35479249978003e+005,-1.04428733504845e+000,-1.19313686016938e+000

1.37370469830040e+005,-1.04428726601807e+000,-1.20978403839558e+000

1.39288090127379e+005,-1.04428717205157e+000,-1.22666329935646e+000

1.41232479406504e+005,-1.04428705135407e+000,-1.24377787323541e+000

1.43204011348474e+005,-1.04428690203380e+000,-1.26113103509388e+000

1.45203064850745e+005,-1.04428672209790e+000,-1.27872610549756e+000

1.47230024099979e+005,-1.04428650944801e+000,-1.29656645115365e+000

1.49285278645888e+005,-1.04428626187572e+000,-1.31465548555682e+000

1.51369223476094e+005,-1.04428597705793e+000,-1.33299666964386e+000

1.53482259092041e+005,-1.04428565255191e+000,-1.35159351246012e+000

1.55624791585964e+005,-1.04428528579045e+000,-1.37044957183312e+000

1.57797232718936e+005,-1.04428487407673e+000,-1.38956845505846e+000

1.59999999999999e+005,-1.04428441457889e+000,-1.40895381959475e+000

1.62233516766403e+005,-1.04428390432495e+000,-1.42860937376854e+000

1.64498212264969e+005,-1.04428334019682e+000,-1.44853887749191e+000

1.66794521734578e+005,-1.04428271892495e+000,-1.46874614298762e+000

1.69122886489819e+005,-1.04428203708244e+000,-1.48923503552729e+000

1.71483754005805e+005,-1.04428129107883e+000,-1.51000947418047e+000

1.73877578004168e+005,-1.04428047715428e+000,-1.53107343257429e+000

1.76304818540256e+005,-1.04427959137304e+000,-1.55243093966477e+000

1.78765942091554e+005,-1.04427862961713e+000,-1.57408608052038e+000

1.81261421647326e+005,-1.04427758757990e+000,-1.59604299711594e+000

1.83791736799524e+005,-1.04427646075932e+000,-1.61830588913957e+000

1.86357373834951e+005,-1.04427524445092e+000,-1.64087901481280e+000

1.88958825828723e+005,-1.04427393374126e+000,-1.66376669172033e+000

1.91596592739027e+005,-1.04427252350066e+000,-1.68697329765469e+000

1.94271181503206e+005,-1.04427100837595e+000,-1.71050327147286e+000

1.96983106135185e+005,-1.04426938278342e+000,-1.73436111396575e+000

1.99732887824256e+005,-1.04426764090128e+000,-1.75855138874036e+000

2.02521055035243e+005,-1.04426577666206e+000,-1.78307872311693e+000

2.05348143610063e+005,-1.04426378374533e+000,-1.80794780903735e+000

2.08214696870707e+005,-1.04426165556959e+000,-1.83316340398888e+000

2.11121265723661e+005,-1.04425938528497e+000,-1.85873033194112e+000

2.14068408765776e+005,-1.04425696576499e+000,-1.88465348429718e+000

2.17056692391625e+005,-1.04425438959883e+000,-1.91093782085897e+000

2.20086690902357e+005,-1.04425164908320e+000,-1.93758837080744e+000

2.23158986616063e+005,-1.04424873621448e+000,-1.96461023369668e+000

2.26274169979693e+005,-1.04424564268040e+000,-1.99200858046348e+000

2.29432839682530e+005,-1.04424235985201e+000,-2.01978865445160e+000

2.32635602771247e+005,-1.04423887877546e+000,-2.04795577245111e+000

2.35883074766574e+005,-1.04423519016365e+000,-2.07651532575352e+000

2.39175879781588e+005,-1.04423128438823e+000,-2.10547278122160e+000

2.42514650641661e+005,-1.04422715147100e+000,-2.13483368237616e+000

2.45900029006080e+005,-1.04422278107575e+000,-2.16460365049768e+000

2.49332665491357e+005,-1.04421816250008e+000,-2.19478838574337e+000

2.52813219796278e+005,-1.04421328466681e+000,-2.22539366828306e+000

2.56342360828676e+005,-1.04420813611586e+000,-2.25642535944823e+000

2.59920766833993e+005,-1.04420270499585e+000,-2.28788940289980e+000

2.63549125525621e+005,-1.04419697905578e+000,-2.31979182581152e+000

2.67228134217075e+005,-1.04419094563680e+000,-2.35213874007053e+000

2.70958499956006e+005,-1.04418459166386e+000,-2.38493634349506e+000

2.74740939660078e+005,-1.04417790363734e+000,-2.41819092106932e+000

2.78576180254757e+005,-1.04417086762494e+000,-2.45190884619506e+000

2.82464958813007e+005,-1.04416346925339e+000,-2.48609658196134e+000

2.86408022696948e+005,-1.04415569370002e+000,-2.52076068243143e+000

2.90406129701488e+005,-1.04414752568473e+000,-2.55590779394815e+000

2.94460048199957e+005,-1.04413894946166e+000,-2.59154465645590e+000

2.98570557291775e+005,-1.04412994881097e+000,-2.62767810484223e+000

3.02738446952187e+005,-1.04412050703047e+000,-2.66431507029650e+000

3.06964518184081e+005,-1.04411060692745e+000,-2.70146258168796e+000

3.11249583171928e+005,-1.04410023081036e+000,-2.73912776696108e+000

3.15594465437872e+005,-1.04408936048044e+000,-2.77731785455135e+000

3.19999999999997e+005,-1.04407797722331e+000,-2.81604017481795e+000

3.24467033532806e+005,-1.04406606180052e+000,-2.85530216149770e+000

3.28996424529938e+005,-1.04405359444105e+000,-2.89511135317644e+000

3.33589043469155e+005,-1.04404055483256e+000,-2.93547539478111e+000

3.38245772979638e+005,-1.04402692211274e+000,-2.97640203909084e+000

3.42967508011610e+005,-1.04401267486038e+000,-3.01789914826817e+000

3.47755156008335e+005,-1.04399779108631e+000,-3.05997469541028e+000

3.52609637080511e+005,-1.04398224822417e+000,-3.10263676612106e+000

3.57531884183106e+005,-1.04396602312108e+000,-3.14589356010249e+000

3.62522843294651e+005,-1.04394909202782e+000,-3.18975339276856e+000

3.67583473599047e+005,-1.04393143058913e+000,-3.23422469687858e+000

3.72714747669902e+005,-1.04391301383331e+000,-3.27931602419346e+000

3.77917651657445e+005,-1.04389381616204e+000,-3.32503604715175e+000

3.83193185478053e+005,-1.04387381133913e+000,-3.37139356057010e+000

3.88542363006410e+005,-1.04385297247981e+000,-3.41839748336297e+000

3.93966212270369e+005,-1.04383127203878e+000,-3.46605686028768e+000

3.99465775648511e+005,-1.04380868179836e+000,-3.51438086371108e+000

4.05042110070485e+005,-1.04378517285606e+000,-3.56337879539891e+000

4.10696287220124e+005,-1.04376071561147e+000,-3.61306008833056e+000

4.16429393741414e+005,-1.04373527975295e+000,-3.66343430853606e+000

4.22242531447321e+005,-1.04370883424344e+000,-3.71451115695880e+000

4.28136817531551e+005,-1.04368134730585e+000,-3.76630047134306e+000

4.34113384783250e+005,-1.04365278640788e+000,-3.81881222814560e+000

4.40173381804713e+005,-1.04362311824602e+000,-3.87205654447449e+000

4.46317973232124e+005,-1.04359230872890e+000,-3.92604368005387e+000

4.52548339959385e+005,-1.04356032296007e+000,-3.98078403921445e+000

4.58865679365059e+005,-1.04352712521979e+000,-4.03628817291268e+000

4.65271205542494e+005,-1.04349267894615e+000,-4.09256678077679e+000

4.71766149533147e+005,-1.04345694671536e+000,-4.14963071318120e+000

4.78351759563174e+005,-1.04341989022121e+000,-4.20749097334962e+000

4.85029301283321e+005,-1.04338147025350e+000,-4.26615871948898e+000

4.91800058012158e+005,-1.04334164667579e+000,-4.32564526695027e+000

4.98665330982714e+005,-1.04330037840194e+000,-4.38596209042399e+000

5.05626439592555e+005,-1.04325762337185e+000,-4.44712082616260e+000

5.12684721657352e+005,-1.04321333852614e+000,-4.50913327423824e+000

5.19841533667984e+005,-1.04316747977985e+000,-4.57201140083053e+000

5.27098251051240e+005,-1.04312000199477e+000,-4.63576734054896e+000

5.34456268434150e+005,-1.04307085895129e+000,-4.70041339878772e+000

5.41916999912011e+005,-1.04302000331846e+000,-4.76596205411579e+000

