Freq.,VOut,OutRef

1.00000000000000e+004,-7.49926713540374e+000,-8.48661297277404e-002

1.01395947979003e+004,-7.49926776959725e+000,-8.60507006120745e-002

1.02811382665607e+004,-7.49926842159481e+000,-8.72518025614064e-002

1.04246576084112e+004,-7.49926909189531e+000,-8.84696661331498e-002

1.05701804056138e+004,-7.49926978101168e+000,-8.97045250939709e-002

1.07177346253629e+004,-7.49927048947178e+000,-9.09566164600099e-002

1.08673486252606e+004,-7.49927121781712e+000,-9.22261805542164e-002

1.10190511587661e+004,-7.49927196660538e+000,-9.35134610369683e-002

1.11728713807222e+004,-7.49927273640922e+000,-9.48187049636370e-002

1.13288388529580e+004,-7.49927352781718e+000,-9.61421628283264e-002

1.14869835499703e+004,-7.49927434143486e+000,-9.74840886063473e-002

1.16473358646846e+004,-7.49927517788425e+000,-9.88447398098330e-002

1.18099266142953e+004,-7.49927603780468e+000,-1.00224377533500e-001

1.19747870461893e+004,-7.49927692185359e+000,-1.01623266502272e-001

1.21419488439505e+004,-7.49927783070679e+000,-1.03041675122688e-001

1.23114441334492e+004,-7.49927876505851e+000,-1.04479875537318e-001

1.24833054890161e+004,-7.49927972562284e+000,-1.05938143669289e-001

1.26575659397028e+004,-7.49928071313335e+000,-1.07416759281641e-001

1.28342589756290e+004,-7.49928172834433e+000,-1.08916006024799e-001

1.30134185544193e+004,-7.49928277203107e+000,-1.10436171492645e-001

1.31950791077289e+004,-7.49928384499012e+000,-1.11977547278619e-001

1.33792755478611e+004,-7.49928494804098e+000,-1.13540429023824e-001

1.35660432744767e+004,-7.49928608202503e+000,-1.15125116483769e-001

1.37554181813974e+004,-7.49928724780764e+000,-1.16731913575641e-001

1.39474366635040e+004,-7.49928844627825e+000,-1.18361128438143e-001

1.41421356237309e+004,-7.49928967835068e+000,-1.20013073493330e-001

1.43395524801583e+004,-7.49929094496447e+000,-1.21688065500306e-001

1.45397251732031e+004,-7.49929224708536e+000,-1.23386425616550e-001

1.47426921729110e+004,-7.49929358570546e+000,-1.25108479461773e-001

1.49484924863494e+004,-7.49929496184521e+000,-1.26854557171661e-001

1.51571656651040e+004,-7.49929637655235e+000,-1.28624993470758e-001

1.53687518128801e+004,-7.49929783090442e+000,-1.30420127724777e-001

1.55832915932100e+004,-7.49929932600912e+000,-1.32240304007242e-001

1.58008262372675e+004,-7.49930086300425e+000,-1.34085871168941e-001

1.60213975517924e+004,-7.49930244305920e+000,-1.35957182899838e-001

1.62450479271247e+004,-7.49930406737605e+000,-1.37854597794024e-001

1.64718203453514e+004,-7.49930573719030e+000,-1.39778479416924e-001

1.67017583885674e+004,-7.49930745377138e+000,-1.41729196376577e-001

1.69349062472505e+004,-7.49930921842391e+000,-1.43707122390046e-001

1.71713087287550e+004,-7.49931103248879e+000,-1.45712636353388e-001

1.74110112659224e+004,-7.49931289734355e+000,-1.47746122414666e-001

1.76540599258131e+004,-7.49931481440452e+000,-1.49807970039626e-001

1.79005014185594e+004,-7.49931678512665e+000,-1.51898574091615e-001

1.81503831063432e+004,-7.49931881100503e+000,-1.54018334901814e-001

1.84037530124975e+004,-7.49932089357656e+000,-1.56167658340732e-001

1.86606598307361e+004,-7.49932303441993e+000,-1.58346955900209e-001

1.89211529345119e+004,-7.49932523515775e+000,-1.60556644763718e-001

1.91852823865052e+004,-7.49932749745708e+000,-1.62797147887848e-001

1.94530989482457e+004,-7.49932982303136e+000,-1.65068894076733e-001

1.97246540898671e+004,-7.49933221364068e+000,-1.67372318066766e-001

1.99999999999999e+004,-7.49933467109387e+000,-1.69707860601968e-001

2.02791895958005e+004,-7.49933719724926e+000,-1.72075968519010e-001

2.05622765331213e+004,-7.49933979401666e+000,-1.74477094825554e-001

2.08493152168224e+004,-7.49934246335800e+000,-1.76911698788735e-001

2.11403608112276e+004,-7.49934520728914e+000,-1.79380246016336e-001

2.14354692507258e+004,-7.49934802788109e+000,-1.81883208544227e-001

2.17346972505211e+004,-7.49935092726170e+000,-1.84421064922022e-001

2.20381023175322e+004,-7.49935390761741e+000,-1.86994300299108e-001

2.23457427614443e+004,-7.49935697119404e+000,-1.89603406518032e-001

2.26576777059159e+004,-7.49936012029891e+000,-1.92248882201852e-001

2.29739670999406e+004,-7.49936335730270e+000,-1.94931232842574e-001

2.32946717293690e+004,-7.49936668464051e+000,-1.97650970898900e-001

2.36198532285905e+004,-7.49937010481392e+000,-2.00408615886162e-001

2.39495740923785e+004,-7.49937362039253e+000,-2.03204694472309e-001

2.42838976879009e+004,-7.49937723401647e+000,-2.06039740569620e-001

2.46228882668982e+004,-7.49938094839696e+000,-2.08914295438856e-001

2.49666109780322e+004,-7.49938476631938e+000,-2.11828907780883e-001

2.53151318794055e+004,-7.49938869064473e+000,-2.14784133837612e-001

2.56685179512580e+004,-7.49939272431125e+000,-2.17780537494991e-001

2.60268371088386e+004,-7.49939687033724e+000,-2.20818690380266e-001

2.63901582154578e+004,-7.49940113182255e+000,-2.23899171967507e-001

2.67585510957221e+004,-7.49940551195065e+000,-2.27022569682673e-001

2.71320865489533e+004,-7.49941001399117e+000,-2.30189479006156e-001

2.75108363627948e+004,-7.49941464130191e+000,-2.33400503580216e-001

2.78948733270080e+004,-7.49941939733127e+000,-2.36656255316575e-001

2.82842712474618e+004,-7.49942428562016e+000,-2.39957354507353e-001

2.86791049603164e+004,-7.49942930980498e+000,-2.43304429931958e-001

2.90794503464061e+004,-7.49943447361950e+000,-2.46698118971340e-001

2.94853843458219e+004,-7.49943978089758e+000,-2.50139067720289e-001

2.98969849726987e+004,-7.49944523557585e+000,-2.53627931099883e-001

3.03143313302078e+004,-7.49945084169628e+000,-2.57165372973316e-001

3.07375036257601e+004,-7.49945660340831e+000,-2.60752066266088e-001

3.11665831864199e+004,-7.49946252497232e+000,-2.64388693078525e-001

3.16016524745350e+004,-7.49946861076185e+000,-2.68075944809071e-001

3.20427951035848e+004,-7.49947486526684e+000,-2.71814522272129e-001

3.24900958542493e+004,-7.49948129309607e+000,-2.75605135822790e-001

3.29436406907028e+004,-7.49948789898067e+000,-2.79448505476789e-001

3.34035167771346e+004,-7.49949468777628e+000,-2.83345361039674e-001

3.38698124945009e+004,-7.49950166446727e+000,-2.87296442226367e-001

3.43426174575100e+004,-7.49950883416881e+000,-2.91302498794551e-001

3.48220225318448e+004,-7.49951620213067e+000,-2.95364290669807e-001

3.53081198516260e+004,-7.49952377374027e+000,-2.99482588076028e-001

3.58010028371187e+004,-7.49953155452631e+000,-3.03658171665626e-001

3.63007662126863e+004,-7.49953955016145e+000,-3.07891832656570e-001

3.68075060249948e+004,-7.49954776646654e+000,-3.12184372960362e-001

3.73213196614721e+004,-7.49955620941370e+000,-3.16536605321367e-001

3.78423058690237e+004,-7.49956488512990e+000,-3.20949353452577e-001

3.83705647730104e+004,-7.49957379990100e+000,-3.25423452171252e-001

3.89061978964912e+004,-7.49958296017457e+000,-3.29959747543801e-001

3.94493081797342e+004,-7.49959237256492e+000,-3.34559097019152e-001

3.99999999999998e+004,-7.49960204385570e+000,-3.39222369576785e-001

4.05583791916010e+004,-7.49961198100475e+000,-3.43950445866499e-001

4.11245530662425e+004,-7.49962219114728e+000,-3.48744218355459e-001

4.16986304336447e+004,-7.49963268160043e+000,-3.53604591472619e-001

4.22807216224550e+004,-7.49964345986714e+000,-3.58532481756395e-001

4.28709385014515e+004,-7.49965453364032e+000,-3.63528818003390e-001

4.34693945010421e+004,-7.49966591080691e+000,-3.68594541419207e-001

4.40762046350642e+004,-7.49967759945225e+000,-3.73730605768844e-001

4.46914855228886e+004,-7.49968960786453e+000,-3.78937977528522e-001

4.53153554118317e+004,-7.49970194453862e+000,-3.84217636042379e-001

4.59479341998812e+004,-7.49971461818122e+000,-3.89570573673430e-001

4.65893434587380e+004,-7.49972763771464e+000,-3.94997795964331e-001

4.72397064571810e+004,-7.49974101228164e+000,-4.00500321792140e-001

4.78991481847569e+004,-7.49975475125005e+000,-4.06079183527699e-001

4.85677953758016e+004,-7.49976886421696e+000,-4.11735427197805e-001

4.92457765337964e+004,-7.49978336101381e+000,-4.17470112643332e-001

4.99332219560642e+004,-7.49979825171054e+000,-4.23284313685763e-001

5.06302637588109e+004,-7.49981354662085e+000,-4.29179118286969e-001

5.13370359025159e+004,-7.49982925630639e+000,-4.35155628717086e-001

5.20536742176771e+004,-7.49984539158183e+000,-4.41214961719462e-001

5.27803164309155e+004,-7.49986196351920e+000,-4.47358248679818e-001

5.35171021914442e+004,-7.49987898345321e+000,-4.53586635791330e-001

5.42641730979066e+004,-7.49989646298547e+000,-4.59901284227597e-001

5.50216727255895e+004,-7.49991441398957e+000,-4.66303370311312e-001

5.57897466540159e+004,-7.49993284861583e+000,-4.72794085686284e-001

5.65685424949235e+004,-7.49995177929559e+000,-4.79374637492499e-001

5.73582099206328e+004,-7.49997121874663e+000,-4.86046248536293e-001

5.81589006928121e+004,-7.49999117997714e+000,-4.92810157468881e-001

5.89707686916437e+004,-7.50001167629079e+000,-4.99667618960816e-001

5.97939699453972e+004,-7.50003272129132e+000,-5.06619903877406e-001

6.06286626604156e+004,-7.50005432888672e+000,-5.13668299460628e-001

6.14750072515201e+004,-7.50007651329409e+000,-5.20814109503735e-001

6.23331663728396e+004,-7.50009928904370e+000,-5.28058654534086e-001

6.32033049490698e+004,-7.50012267098339e+000,-5.35403271993542e-001

6.40855902071694e+004,-7.50014667428284e+000,-5.42849316418793e-001

6.49801917084985e+004,-7.50017131443754e+000,-5.50398159624811e-001

6.58872813814055e+004,-7.50019660727268e+000,-5.58051190888459e-001

6.68070335542691e+004,-7.50022256894692e+000,-5.65809817133915e-001

6.77396249890018e+004,-7.50024921595619e+000,-5.73675463114580e-001

6.86852349150199e+004,-7.50027656513672e+000,-5.81649571604220e-001

6.96440450636895e+004,-7.50030463366902e+000,-5.89733603577359e-001

7.06162397032520e+004,-7.50033343907988e+000,-5.97929038404314e-001

7.16020056742374e+004,-7.50036299924617e+000,-6.06237374032801e-001

7.26015324253724e+004,-7.50039333239661e+000,-6.14660127183181e-001

7.36150120499896e+004,-7.50042445711462e+000,-6.23198833533664e-001

7.46426393229441e+004,-7.50045639233990e+000,-6.31855047915042e-001

7.56846117380472e+004,-7.50048915737008e+000,-6.40630344501412e-001

7.67411295460207e+004,-7.50052277186244e+000,-6.49526317000486e-001

7.78123957929823e+004,-7.50055725583427e+000,-6.58544578851389e-001

7.88986163594682e+004,-7.50059262966387e+000,-6.67686763415685e-001

7.99999999999995e+004,-7.50062891409050e+000,-6.76954524173569e-001

8.11167583832018e+004,-7.50066613021387e+000,-6.86349534921577e-001

8.22491061324848e+004,-7.50070429949377e+000,-6.95873489966990e-001

8.33972608672892e+004,-7.50074344374832e+000,-7.05528104328330e-001

8.45614432449099e+004,-7.50078358515229e+000,-7.15315113934118e-001

8.57418770029029e+004,-7.50082474623441e+000,-7.25236275823803e-001

8.69387890020841e+004,-7.50086694987510e+000,-7.35293368345779e-001

8.81524092701283e+004,-7.50091021930157e+000,-7.45488191366523e-001

8.93829710457770e+004,-7.50095457808440e+000,-7.55822566469051e-001

9.06307108236633e+004,-7.50100005013206e+000,-7.66298337161385e-001

9.18958683997622e+004,-7.50104665968509e+000,-7.76917369083076e-001

9.31786869174758e+004,-7.50109443130920e+000,-7.87681550215097e-001

9.44794129143618e+004,-7.50114338988820e+000,-7.98592791088530e-001

9.57982963695136e+004,-7.50119356061521e+000,-8.09653024998797e-001

9.71355907516031e+004,-7.50124496898375e+000,-8.20864208218382e-001

9.84915530675926e+004,-7.50129764077679e+000,-8.32228320217251e-001

9.98664439121282e+004,-7.50135160205608e+000,-8.43747363879246e-001

1.01260527517622e+005,-7.50140687914945e+000,-8.55423365724488e-001

1.02674071805032e+005,-7.50146349863728e+000,-8.67258376136274e-001

1.04107348435354e+005,-7.50152148733788e+000,-8.79254469587606e-001

1.05560632861831e+005,-7.50158087229181e+000,-8.91413744872350e-001

1.07034204382888e+005,-7.50164168074442e+000,-9.03738325342202e-001

1.08528346195813e+005,-7.50170394012773e+000,-9.16230359143699e-001

1.10043345451179e+005,-7.50176767804026e+000,-9.28892019464216e-001

1.11579493308032e+005,-7.50183292222644e+000,-9.41725504776050e-001

1.13137084989847e+005,-7.50189970055300e+000,-9.54733039095188e-001

1.14716419841265e+005,-7.50196804098581e+000,-9.67916872233970e-001

1.16317801385624e+005,-7.50203797156349e+000,-9.81279280069298e-001

1.17941537383287e+005,-7.50210952037015e+000,-9.94822564812571e-001

1.19587939890794e+005,-7.50218271550684e+000,-1.00854905528427e+000

1.21257325320831e+005,-7.50225758506012e+000,-1.02246110720319e+000

1.22950014503040e+005,-7.50233415707043e+000,-1.03656110347364e+000

1.24666332745679e+005,-7.50241245949700e+000,-1.05085145449088e+000

1.26406609898139e+005,-7.50249252018258e+000,-1.06533459844670e+000

1.28171180414339e+005,-7.50257436681487e+000,-1.08001300165124e+000

1.29960383416997e+005,-7.50265802688704e+000,-1.09488915886021e+000

1.31774562762811e+005,-7.50274352765554e+000,-1.10996559361730e+000

1.33614067108538e+005,-7.50283089609678e+000,-1.12524485860277e+000

1.35479249978003e+005,-7.50292015886095e+000,-1.14072953599965e+000

1.37370469830040e+005,-7.50301134222410e+000,-1.15642223787068e+000

1.39288090127379e+005,-7.50310447203853e+000,-1.17232560654780e+000

1.41232479406504e+005,-7.50319957368052e+000,-1.18844231503843e+000

1.43204011348474e+005,-7.50329667199645e+000,-1.20477506744696e+000

1.45203064850745e+005,-7.50339579124639e+000,-1.22132659941130e+000

1.47230024099979e+005,-7.50349695504586e+000,-1.23809967855869e+000

1.49285278645888e+005,-7.50360018630562e+000,-1.25509710497812e+000

1.51369223476094e+005,-7.50370550716899e+000,-1.27232171171288e+000

1.53482259092041e+005,-7.50381293894735e+000,-1.28977636527343e+000

1.55624791585964e+005,-7.50392250205367e+000,-1.30746396617035e+000

1.57797232718936e+005,-7.50403421593381e+000,-1.32538744947183e+000

1.59999999999999e+005,-7.50414809899590e+000,-1.34354978538234e+000

1.62233516766403e+005,-7.50426416853818e+000,-1.36195397984495e+000

1.64498212264969e+005,-7.50438244067431e+000,-1.38060307517333e+000

1.66794521734578e+005,-7.50450293025752e+000,-1.39950015070464e+000

1.69122886489819e+005,-7.50462565080266e+000,-1.41864832348455e+000

1.71483754005805e+005,-7.50475061440674e+000,-1.43805074897851e+000

1.73877578004168e+005,-7.50487783166818e+000,-1.45771062181231e+000

1.76304818540256e+005,-7.50500731160416e+000,-1.47763117654608e+000

1.78765942091554e+005,-7.50513906156731e+000,-1.49781568847620e+000

1.81261421647326e+005,-7.50527308716056e+000,-1.51826747447378e+000

1.83791736799524e+005,-7.50540939215149e+000,-1.53898989385507e+000

1.86357373834951e+005,-7.50554797838574e+000,-1.55998634928574e+000

1.88958825828723e+005,-7.50568884569942e+000,-1.58126028772335e+000

1.91596592739027e+005,-7.50583199183142e+000,-1.60281520139357e+000

1.94271181503206e+005,-7.50597741233521e+000,-1.62465462880632e+000

1.96983106135185e+005,-7.50612510049013e+000,-1.64678215580946e+000

1.99732887824256e+005,-7.50627504721382e+000,-1.66920141667778e+000

2.02521055035243e+005,-7.50642724097358e+000,-1.69191609524922e+000

2.05348143610063e+005,-7.50658166769940e+000,-1.71492992609280e+000

2.08214696870707e+005,-7.50673831069715e+000,-1.73824669572295e+000

2.11121265723661e+005,-7.50689715056300e+000,-1.76187024385155e+000

2.14068408765776e+005,-7.50705816509910e+000,-1.78580446468354e+000

2.17056692391625e+005,-7.50722132923070e+000,-1.81005330825281e+000

2.20086690902357e+005,-7.50738661492529e+000,-1.83462078179863e+000

2.23158986616063e+005,-7.50755399111364e+000,-1.85951095118643e+000

2.26274169979693e+005,-7.50772342361324e+000,-1.88472794236694e+000

2.29432839682530e+005,-7.50789487505457e+000,-1.91027594287864e+000

2.32635602771247e+005,-7.50806830480991e+000,-1.93615920339004e+000

2.35883074766574e+005,-7.50824366892599e+000,-1.96238203928073e+000

2.39175879781588e+005,-7.50842092005933e+000,-1.98894883226616e+000

2.42514650641661e+005,-7.50860000741623e+000,-2.01586403205529e+000

2.45900029006080e+005,-7.50878087669600e+000,-2.04313215805162e+000

2.49332665491357e+005,-7.50896347003922e+000,-2.07075780108612e+000

2.52813219796278e+005,-7.50914772598004e+000,-2.09874562518896e+000

2.56342360828676e+005,-7.50933357940379e+000,-2.12710036939345e+000

2.59920766833993e+005,-7.50952096150914e+000,-2.15582684957365e+000

2.63549125525621e+005,-7.50970979977606e+000,-2.18492996031085e+000

2.67228134217075e+005,-7.50990001793900e+000,-2.21441467679226e+000

2.70958499956006e+005,-7.51009153596592e+000,-2.24428605673300e+000

2.74740939660078e+005,-7.51028427004311e+000,-2.27454924232704e+000

2.78576180254757e+005,-7.51047813256617e+000,-2.30520946221721e+000

2.82464958813007e+005,-7.51067303213681e+000,-2.33627203348981e+000

2.86408022696948e+005,-7.51086887356677e+000,-2.36774236368355e+000

2.90406129701488e+005,-7.51106555788678e+000,-2.39962595281857e+000

2.94460048199957e+005,-7.51126298236337e+000,-2.43192839543354e+000

2.98570557291775e+005,-7.51146104052093e+000,-2.46465538263962e+000

3.02738446952187e+005,-7.51165962217110e+000,-2.49781270417641e+000

3.06964518184081e+005,-7.51185861344790e+000,-2.53140625047815e+000

3.11249583171928e+005,-7.51205789684954e+000,-2.56544201473994e+000

3.15594465437872e+005,-7.51225735128649e+000,-2.59992609498440e+000

3.19999999999997e+005,-7.51245685213556e+000,-2.63486469612586e+000

3.24467033532806e+005,-7.51265627129981e+000,-2.67026413202981e+000

3.28996424529938e+005,-7.51285547727453e+000,-2.70613082756298e+000

3.33589043469155e+005,-7.51305433521828e+000,-2.74247132063469e+000

3.38245772979638e+005,-7.51325270702970e+000,-2.77929226422310e+000

3.42967508011610e+005,-7.51345045142904e+000,-2.81660042838700e+000

3.47755156008335e+005,-7.51364742404404e+000,-2.85440270226141e+000

3.52609637080511e+005,-7.51384347750080e+000,-2.89270609603000e+000

3.57531884183106e+005,-7.51403846151763e+000,-2.93151774288041e+000

3.62522843294651e+005,-7.51423222300355e+000,-2.97084490092989e+000

3.67583473599047e+005,-7.51442460615839e+000,-3.01069495513245e+000

3.72714747669902e+005,-7.51461545257697e+000,-3.05107541915336e+000

3.77917651657445e+005,-7.51480460135438e+000,-3.09199393721914e+000

3.83193185478053e+005,-7.51499188919328e+000,-3.13345828593811e+000

3.88542363006410e+005,-7.51517715051221e+000,-3.17547637608917e+000

3.93966212270369e+005,-7.51536021755447e+000,-3.21805625438296e+000

3.99465775648511e+005,-7.51554092049715e+000,-3.26120610518912e+000

4.05042110070485e+005,-7.51571908755948e+000,-3.30493425223582e+000

4.10696287220124e+005,-7.51589454511013e+000,-3.34924916027617e+000

4.16429393741414e+005,-7.51606711777298e+000,-3.39415943672498e+000

4.22242531447321e+005,-7.51623662853071e+000,-3.43967383326557e+000

4.28136817531551e+005,-7.51640289882534e+000,-3.48580124742949e+000

4.34113384783250e+005,-7.51656574865608e+000,-3.53255072414496e+000

4.40173381804713e+005,-7.51672499667267e+000,-3.57993145726238e+000

4.46317973232124e+005,-7.51688046026468e+000,-3.62795279105421e+000

4.52548339959385e+005,-7.51703195564624e+000,-3.67662422168995e+000

4.58865679365059e+005,-7.51717929793477e+000,-3.72595539869355e+000

4.65271205542494e+005,-7.51732230122420e+000,-3.77595612638022e+000

4.71766149533147e+005,-7.51746077865192e+000,-3.82663636527775e+000

4.78351759563174e+005,-7.51759454245888e+000,-3.87800623353428e+000

4.85029301283321e+005,-7.51772340404255e+000,-3.93007600831524e+000

4.91800058012158e+005,-7.51784717400217e+000,-3.98285612719433e+000

4.98665330982714e+005,-7.51796566217643e+000,-4.03635718953741e+000

5.05626439592555e+005,-7.51807867767256e+000,-4.09058995788800e+000

5.12684721657352e+005,-7.51818602888719e+000,-4.14556535935170e+000

5.19841533667984e+005,-7.51828752351806e+000,-4.20129448699014e+000

5.27098251051240e+005,-7.51838296856696e+000,-4.25778860122064e+000

5.34456268434150e+005,-7.51847217033335e+000,-4.31505913123013e+000

5.41916999912011e+005,-7.51855493439846e+000,-4.37311767640547e+000

