Freq.,VOut,OutRef

1.00000000000000e+004,-2.46908845221418e+001,-4.59275552162508e-001

1.01395947979003e+004,-2.46908890092455e+001,-4.65686426292038e-001

1.02811382665607e+004,-2.46908936224259e+001,-4.72186777033425e-001

1.04246576084112e+004,-2.46908983652233e+001,-4.78777852761842e-001

1.05701804056138e+004,-2.46909032412771e+001,-4.85460919250467e-001

1.07177346253629e+004,-2.46909082543294e+001,-4.92237259910576e-001

1.08673486252606e+004,-2.46909134082266e+001,-4.99108176040492e-001

1.10190511587661e+004,-2.46909187069231e+001,-5.06074987070594e-001

1.11728713807222e+004,-2.46909241544846e+001,-5.13139030815888e-001

1.13288388529580e+004,-2.46909297550902e+001,-5.20301663732159e-001

1.14869835499703e+004,-2.46909355130366e+001,-5.27564261173831e-001

1.16473358646846e+004,-2.46909414327405e+001,-5.34928217657323e-001

1.18099266142953e+004,-2.46909475187430e+001,-5.42394947123923e-001

1.19747870461893e+004,-2.46909537757120e+001,-5.49965883214267e-001

1.21419488439505e+004,-2.46909602084464e+001,-5.57642479536110e-001

1.23114441334492e+004,-2.46909668218795e+001,-5.65426209946287e-001

1.24833054890161e+004,-2.46909736210829e+001,-5.73318568826808e-001

1.26575659397028e+004,-2.46909806112704e+001,-5.81321071373136e-001

1.28342589756290e+004,-2.46909877978016e+001,-5.89435253881096e-001

1.30134185544193e+004,-2.46909951861866e+001,-5.97662674038737e-001

1.31950791077289e+004,-2.46910027820893e+001,-6.06004911223785e-001

1.33792755478611e+004,-2.46910105913329e+001,-6.14463566803683e-001

1.35660432744767e+004,-2.46910186199030e+001,-6.23040264440176e-001

1.37554181813974e+004,-2.46910268739534e+001,-6.31736650397419e-001

1.39474366635040e+004,-2.46910353598098e+001,-6.40554393856121e-001

1.41421356237309e+004,-2.46910440839751e+001,-6.49495187228868e-001

1.43395524801583e+004,-2.46910530531342e+001,-6.58560746484461e-001

1.45397251732031e+004,-2.46910622741591e+001,-6.67752811469854e-001

1.47426921729110e+004,-2.46910717541143e+001,-6.77073146243054e-001

1.49484924863494e+004,-2.46910815002614e+001,-6.86523539409065e-001

1.51571656651040e+004,-2.46910915200660e+001,-6.96105804454240e-001

1.53687518128801e+004,-2.46911018212017e+001,-7.05821780096043e-001

1.55832915932100e+004,-2.46911124115574e+001,-7.15673330626563e-001

1.58008262372675e+004,-2.46911232992422e+001,-7.25662346269336e-001

1.60213975517924e+004,-2.46911344925919e+001,-7.35790743535763e-001

1.62450479271247e+004,-2.46911460001756e+001,-7.46060465587431e-001

1.64718203453514e+004,-2.46911578308019e+001,-7.56473482604186e-001

1.67017583885674e+004,-2.46911699935253e+001,-7.67031792158852e-001

1.69349062472505e+004,-2.46911824976537e+001,-7.77737419591026e-001

1.71713087287550e+004,-2.46911953527546e+001,-7.88592418393625e-001

1.74110112659224e+004,-2.46912085686631e+001,-7.99598870597721e-001

1.76540599258131e+004,-2.46912221554888e+001,-8.10758887167904e-001

1.79005014185594e+004,-2.46912361236238e+001,-8.22074608399161e-001

1.81503831063432e+004,-2.46912504837500e+001,-8.33548204321691e-001

1.84037530124975e+004,-2.46912652468477e+001,-8.45181875108909e-001

1.86606598307361e+004,-2.46912804242035e+001,-8.56977851493418e-001

1.89211529345119e+004,-2.46912960274189e+001,-8.68938395185211e-001

1.91852823865052e+004,-2.46913120684191e+001,-8.81065799298611e-001

1.94530989482457e+004,-2.46913285594618e+001,-8.93362388782959e-001

1.97246540898671e+004,-2.46913455131466e+001,-9.05830520861160e-001

1.99999999999999e+004,-2.46913629424242e+001,-9.18472585470480e-001

2.02791895958005e+004,-2.46913808606061e+001,-9.31291005712002e-001

2.05622765331213e+004,-2.46913992813750e+001,-9.44288238306075e-001

2.08493152168224e+004,-2.46914182187944e+001,-9.57466774052077e-001

2.11403608112276e+004,-2.46914376873198e+001,-9.70829138295105e-001

2.14354692507258e+004,-2.46914577018089e+001,-9.84377891399363e-001

2.17346972505211e+004,-2.46914782775330e+001,-9.98115629226678e-001

2.20381023175322e+004,-2.46914994301882e+001,-1.01204498362320e+000

2.23457427614443e+004,-2.46915211759074e+001,-1.02616862290870e+000

2.26576777059159e+004,-2.46915435312722e+001,-1.04048925237715e+000

2.29739670999406e+004,-2.46915665133249e+001,-1.05500961479935e+000

2.32946717293690e+004,-2.46915901395816e+001,-1.06973249093624e+000

2.36198532285905e+004,-2.46916144280451e+001,-1.08466070005453e+000

2.39495740923785e+004,-2.46916393972181e+001,-1.09979710045333e+000

2.42838976879009e+004,-2.46916650661170e+001,-1.11514458999333e+000

2.46228882668982e+004,-2.46916914542860e+001,-1.13070610663782e+000

2.49666109780322e+004,-2.46917185818116e+001,-1.14648462899462e+000

2.53151318794055e+004,-2.46917464693374e+001,-1.16248317687095e+000

2.56685179512580e+004,-2.46917751380792e+001,-1.17870481183097e+000

2.60268371088386e+004,-2.46918046098408e+001,-1.19515263776340e+000

2.63901582154578e+004,-2.46918349070300e+001,-1.21182980145444e+000

2.67585510957221e+004,-2.46918660526749e+001,-1.22873949316901e+000

2.71320865489533e+004,-2.46918980704415e+001,-1.24588494723801e+000

2.75108363627948e+004,-2.46919309846500e+001,-1.26326944265620e+000

2.78948733270080e+004,-2.46919648202933e+001,-1.28089630368398e+000

2.82842712474618e+004,-2.46919996030553e+001,-1.29876890045873e+000

2.86791049603164e+004,-2.46920353593293e+001,-1.31689064961278e+000

2.90794503464061e+004,-2.46920721162375e+001,-1.33526501490151e+000

2.94853843458219e+004,-2.46921099016508e+001,-1.35389550783536e+000

2.98969849726987e+004,-2.46921487442089e+001,-1.37278568832337e+000

3.03143313302078e+004,-2.46921886733411e+001,-1.39193916532251e+000

3.07375036257601e+004,-2.46922297192876e+001,-1.41135959749618e+000

3.11665831864199e+004,-2.46922719131217e+001,-1.43105069388037e+000

3.16016524745350e+004,-2.46923152867721e+001,-1.45101621455709e+000

3.20427951035848e+004,-2.46923598730453e+001,-1.47125997133887e+000

3.24900958542493e+004,-2.46924057056505e+001,-1.49178582845821e+000

3.29436406907028e+004,-2.46924528192224e+001,-1.51259770326750e+000

3.34035167771346e+004,-2.46925012493474e+001,-1.53369956694667e+000

3.38698124945009e+004,-2.46925510325878e+001,-1.55509544521974e+000

3.43426174575100e+004,-2.46926022065088e+001,-1.57678941908027e+000

3.48220225318448e+004,-2.46926548097050e+001,-1.59878562552421e+000

3.53081198516260e+004,-2.46927088818279e+001,-1.62108825829223e+000

3.58010028371187e+004,-2.46927644636139e+001,-1.64370156862217e+000

3.63007662126863e+004,-2.46928215969132e+001,-1.66662986600799e+000

3.68075060249948e+004,-2.46928803247197e+001,-1.68987751896923e+000

3.73213196614721e+004,-2.46929406912007e+001,-1.71344895582870e+000

3.78423058690237e+004,-2.46930027417286e+001,-1.73734866550017e+000

3.83705647730104e+004,-2.46930665229123e+001,-1.76158119828453e+000

3.89061978964912e+004,-2.46931320826297e+001,-1.78615116667449e+000

3.94493081797342e+004,-2.46931994700618e+001,-1.81106324616996e+000

3.99999999999998e+004,-2.46932687357263e+001,-1.83632217610090e+000

4.05583791916010e+004,-2.46933399315128e+001,-1.86193276046296e+000

4.11245530662425e+004,-2.46934131107186e+001,-1.88789986875768e+000

4.16986304336447e+004,-2.46934883280859e+001,-1.91422843684528e+000

4.22807216224550e+004,-2.46935656398392e+001,-1.94092346780746e+000

4.28709385014515e+004,-2.46936451037236e+001,-1.96799003281724e+000

4.34693945010421e+004,-2.46937267790447e+001,-1.99543327202108e+000

4.40762046350642e+004,-2.46938107267087e+001,-2.02325839542757e+000

4.46914855228886e+004,-2.46938970092641e+001,-2.05147068380987e+000

4.53153554118317e+004,-2.46939856909436e+001,-2.08007548961315e+000

4.59479341998812e+004,-2.46940768377076e+001,-2.10907823787680e+000

4.65893434587380e+004,-2.46941705172889e+001,-2.13848442716176e+000

4.72397064571810e+004,-2.46942667992371e+001,-2.16829963049137e+000

4.78991481847569e+004,-2.46943657549660e+001,-2.19852949629940e+000

4.85677953758016e+004,-2.46944674578004e+001,-2.22917974939015e+000

4.92457765337964e+004,-2.46945719830248e+001,-2.26025619190721e+000

4.99332219560642e+004,-2.46946794079327e+001,-2.29176470431258e+000

5.06302637588109e+004,-2.46947898118779e+001,-2.32371124637515e+000

5.13370359025159e+004,-2.46949032763256e+001,-2.35610185817101e+000

5.20536742176771e+004,-2.46950198849057e+001,-2.38894266109139e+000

5.27803164309155e+004,-2.46951397234669e+001,-2.42223985886229e+000

5.35171021914442e+004,-2.46952628801321e+001,-2.45599973857392e+000

5.42641730979066e+004,-2.46953894453543e+001,-2.49022867172002e+000

5.50216727255895e+004,-2.46955195119748e+001,-2.52493311524712e+000

5.57897466540159e+004,-2.46956531752818e+001,-2.56011961261447e+000

5.65685424949235e+004,-2.46957905330705e+001,-2.59579479486364e+000

5.73582099206328e+004,-2.46959316857045e+001,-2.63196538169808e+000

5.81589006928121e+004,-2.46960767361782e+001,-2.66863818257413e+000

5.89707686916437e+004,-2.46962257901812e+001,-2.70582009780008e+000

5.97939699453972e+004,-2.46963789561624e+001,-2.74351811964761e+000

6.06286626604156e+004,-2.46965363453975e+001,-2.78173933347103e+000

6.14750072515201e+004,-2.46966980720561e+001,-2.82049091883986e+000

6.23331663728396e+004,-2.46968642532709e+001,-2.85978015067793e+000

6.32033049490698e+004,-2.46970350092079e+001,-2.89961440041586e+000

6.40855902071694e+004,-2.46972104631386e+001,-2.94000113715064e+000

6.49801917084985e+004,-2.46973907415124e+001,-2.98094792881940e+000

6.58872813814055e+004,-2.46975759740312e+001,-3.02246244337912e+000

6.68070335542691e+004,-2.46977662937254e+001,-3.06455244999946e+000

6.77396249890018e+004,-2.46979618370305e+001,-3.10722582026454e+000

6.86852349150199e+004,-2.46981627438661e+001,-3.15049052938517e+000

6.96440450636895e+004,-2.46983691577152e+001,-3.19435465742169e+000

7.06162397032520e+004,-2.46985812257056e+001,-3.23882639051619e+000

7.16020056742374e+004,-2.46987990986926e+001,-3.28391402213612e+000

7.26015324253724e+004,-2.46990229313426e+001,-3.32962595432714e+000

7.36150120499896e+004,-2.46992528822185e+001,-3.37597069897721e+000

7.46426393229441e+004,-2.46994891138665e+001,-3.42295687909010e+000

7.56846117380472e+004,-2.46997317929036e+001,-3.47059323007001e+000

7.67411295460207e+004,-2.46999810901078e+001,-3.51888860101625e+000

7.78123957929823e+004,-2.47002371805077e+001,-3.56785195602887e+000

7.88986163594682e+004,-2.47005002434755e+001,-3.61749237552396e+000

7.99999999999995e+004,-2.47007704628195e+001,-3.66781905756104e+000

8.11167583832018e+004,-2.47010480268797e+001,-3.71884131917888e+000

8.22491061324848e+004,-2.47013331286225e+001,-3.77056859774552e+000

8.33972608672892e+004,-2.47016259657392e+001,-3.82301045231528e+000

8.45614432449099e+004,-2.47019267407437e+001,-3.87617656500007e+000

8.57418770029029e+004,-2.47022356610725e+001,-3.93007674235016e+000

8.69387890020841e+004,-2.47025529391857e+001,-3.98472091674707e+000

8.81524092701283e+004,-2.47028787926692e+001,-4.04011914780757e+000

8.93829710457770e+004,-2.47032134443379e+001,-4.09628162379959e+000

9.06307108236633e+004,-2.47035571223405e+001,-4.15321866307023e+000

9.18958683997622e+004,-2.47039100602651e+001,-4.21094071548603e+000

9.31786869174758e+004,-2.47042724972461e+001,-4.26945836388508e+000

9.44794129143618e+004,-2.47046446780718e+001,-4.32878232554323e+000

9.57982963695136e+004,-2.47050268532940e+001,-4.38892345365162e+000

9.71355907516031e+004,-2.47054192793373e+001,-4.44989273880971e+000

9.84915530675926e+004,-2.47058222186105e+001,-4.51170131053028e+000

9.98664439121282e+004,-2.47062359396188e+001,-4.57436043875987e+000

1.01260527517622e+005,-2.47066607170764e+001,-4.63788153541385e+000

1.02674071805032e+005,-2.47070968320207e+001,-4.70227615592639e+000

1.04107348435354e+005,-2.47075445719269e+001,-4.76755600081609e+000

1.05560632861831e+005,-2.47080042308238e+001,-4.83373291726864e+000

1.07034204382888e+005,-2.47084761094105e+001,-4.90081890073598e+000

1.08528346195813e+005,-2.47089605151734e+001,-4.96882609655297e+000

1.10043345451179e+005,-2.47094577625048e+001,-5.03776680157275e+000

1.11579493308032e+005,-2.47099681728215e+001,-5.10765346582115e+000

1.13137084989847e+005,-2.47104920746850e+001,-5.17849869417076e+000

1.14716419841265e+005,-2.47110298039216e+001,-5.25031524803667e+000

1.16317801385624e+005,-2.47115817037439e+001,-5.32311604709288e+000

1.17941537383287e+005,-2.47121481248727e+001,-5.39691417101193e+000

1.19587939890794e+005,-2.47127294256599e+001,-5.47172286122839e+000

1.21257325320831e+005,-2.47133259722120e+001,-5.54755552272718e+000

1.22950014503040e+005,-2.47139381385143e+001,-5.62442572585792e+000

1.24666332745679e+005,-2.47145663065564e+001,-5.70234720817571e+000

1.26406609898139e+005,-2.47152108664576e+001,-5.78133387631224e+000

1.28171180414339e+005,-2.47158722165939e+001,-5.86139980787513e+000

1.29960383416997e+005,-2.47165507637259e+001,-5.94255925337846e+000

1.31774562762811e+005,-2.47172469231275e+001,-6.02482663820795e+000

1.33614067108538e+005,-2.47179611187151e+001,-6.10821656461792e+000

1.35479249978003e+005,-2.47186937831793e+001,-6.19274381376569e+000

1.37370469830040e+005,-2.47194453581163e+001,-6.27842334778278e+000

1.39288090127379e+005,-2.47202162941616e+001,-6.36527031188607e+000

1.41232479406504e+005,-2.47210070511250e+001,-6.45330003652813e+000

1.43204011348474e+005,-2.47218180981271e+001,-6.54252803959224e+000

1.45203064850745e+005,-2.47226499137374e+001,-6.63297002863113e+000

1.47230024099979e+005,-2.47235029861149e+001,-6.72464190315132e+000

1.49285278645888e+005,-2.47243778131503e+001,-6.81755975694810e+000

1.51369223476094e+005,-2.47252749026111e+001,-6.91173988048742e+000

1.53482259092041e+005,-2.47261947722891e+001,-7.00719876334401e+000

1.55624791585964e+005,-2.47271379501507e+001,-7.10395309669011e+000

1.57797232718936e+005,-2.47281049744907e+001,-7.20201977584361e+000

1.59999999999999e+005,-2.47290963940899e+001,-7.30141590287213e+000

1.62233516766403e+005,-2.47301127683757e+001,-7.40215878925854e+000

1.64498212264969e+005,-2.47311546675883e+001,-7.50426595862949e+000

1.66794521734578e+005,-2.47322226729503e+001,-7.60775514954591e+000

1.69122886489819e+005,-2.47333173768427e+001,-7.71264431836236e+000

1.71483754005805e+005,-2.47344393829857e+001,-7.81895164215229e+000

1.73877578004168e+005,-2.47355893066261e+001,-7.92669552170488e+000

1.76304818540256e+005,-2.47367677747312e+001,-8.03589458459096e+000

1.78765942091554e+005,-2.47379754261901e+001,-8.14656768830506e+000

1.81261421647326e+005,-2.47392129120230e+001,-8.25873392347957e+000

1.83791736799524e+005,-2.47404808955992e+001,-8.37241261717632e+000

1.86357373834951e+005,-2.47417800528636e+001,-8.48762333625434e+000

1.88958825828723e+005,-2.47431110725743e+001,-8.60438589081648e+000

1.91596592739027e+005,-2.47444746565500e+001,-8.72272033773456e+000

1.94271181503206e+005,-2.47458715199296e+001,-8.84264698425474e+000

1.96983106135185e+005,-2.47473023914435e+001,-8.96418639168207e+000

1.99732887824256e+005,-2.47487680136986e+001,-9.08735937914586e+000

2.02521055035243e+005,-2.47502691434777e+001,-9.21218702744490e+000

2.05348143610063e+005,-2.47518065520526e+001,-9.33869068297243e+000

2.08214696870707e+005,-2.47533810255148e+001,-9.46689196171959e+000

2.11121265723661e+005,-2.47549933651219e+001,-9.59681275335676e+000

2.14068408765776e+005,-2.47566443876628e+001,-9.72847522539206e+000

2.17056692391625e+005,-2.47583349258411e+001,-9.86190182740284e+000

2.20086690902357e+005,-2.47600658286791e+001,-9.99711529534095e+000

2.23158986616063e+005,-2.47618379619427e+001,-1.01341386559068e+001

2.26274169979693e+005,-2.47636522085880e+001,-1.02729952309904e+001

2.29432839682530e+005,-2.47655094692317e+001,-1.04137086421755e+001

2.32635602771247e+005,-2.47674106626457e+001,-1.05563028153023e+001

2.35883074766574e+005,-2.47693567262766e+001,-1.07008019850856e+001

2.39175879781588e+005,-2.47713486167919e+001,-1.08472306997818e+001

2.42514650641661e+005,-2.47733873106540e+001,-1.09956138259003e+001

2.45900029006080e+005,-2.47754738047222e+001,-1.11459765529532e+001

2.49332665491357e+005,-2.47776091168852e+001,-1.12983443982362e+001

2.52813219796278e+005,-2.47797942867228e+001,-1.14527432116343e+001

2.56342360828676e+005,-2.47820303762006e+001,-1.16091991804447e+001

2.59920766833993e+005,-2.47843184703966e+001,-1.17677388342074e+001

2.63549125525621e+005,-2.47866596782613e+001,-1.19283890495379e+001

2.67228134217075e+005,-2.47890551334119e+001,-1.20911770549489e+001

2.70958499956006e+005,-2.47915059949622e+001,-1.22561304356546e+001

2.74740939660078e+005,-2.47940134483878e+001,-1.24232771383461e+001

2.78576180254757e+005,-2.47965787064281e+001,-1.25926454759271e+001

2.82464958813007e+005,-2.47992030100255e+001,-1.27642641321994e+001

2.86408022696948e+005,-2.48018876293020e+001,-1.29381621664861e+001

2.90406129701488e+005,-2.48046338645744e+001,-1.31143690181811e+001

2.94460048199957e+005,-2.48074430474075e+001,-1.32929145112122e+001

2.98570557291775e+005,-2.48103165417066e+001,-1.34738288584051e+001

3.02738446952187e+005,-2.48132557448488e+001,-1.36571426657367e+001

3.06964518184081e+005,-2.48162620888530e+001,-1.38428869364609e+001

3.11249583171928e+005,-2.48193370415896e+001,-1.40310930750987e+001

3.15594465437872e+005,-2.48224821080290e+001,-1.42217928912727e+001

3.19999999999997e+005,-2.48256988315281e+001,-1.44150186033790e+001

3.24467033532806e+005,-2.48289887951562e+001,-1.46108028420755e+001

3.28996424529938e+005,-2.48323536230583e+001,-1.48091786535782e+001

3.33589043469155e+005,-2.48357949818557e+001,-1.50101795027484e+001

3.38245772979638e+005,-2.48393145820834e+001,-1.52138392759574e+001

3.42967508011610e+005,-2.48429141796637e+001,-1.54201922837153e+001

3.47755156008335e+005,-2.48465955774145e+001,-1.56292732630489e+001

3.52609637080511e+005,-2.48503606265915e+001,-1.58411173796166e+001

3.57531884183106e+005,-2.48542112284636e+001,-1.60557602295444e+001

3.62522843294651e+005,-2.48581493359199e+001,-1.62732378409728e+001

3.67583473599047e+005,-2.48621769551069e+001,-1.64935866752983e+001

3.72714747669902e+005,-2.48662961470946e+001,-1.67168436280994e+001

3.77917651657445e+005,-2.48705090295704e+001,-1.69430460297330e+001

3.83193185478053e+005,-2.48748177785584e+001,-1.71722316455904e+001

3.88542363006410e+005,-2.48792246301626e+001,-1.74044386760012e+001

3.93966212270369e+005,-2.48837318823329e+001,-1.76397057557728e+001

3.99465775648511e+005,-2.48883418966513e+001,-1.78780719533558e+001

4.05042110070485e+005,-2.48930571001364e+001,-1.81195767696260e+001

4.10696287220124e+005,-2.48978799870643e+001,-1.83642601362708e+001

4.16429393741414e+005,-2.49028131208049e+001,-1.86121624137735e+001

4.22242531447321e+005,-2.49078591356689e+001,-1.88633243889848e+001

4.28136817531551e+005,-2.49130207387662e+001,-1.91177872722746e+001

4.34113384783250e+005,-2.49183007118711e+001,-1.93755926942551e+001

4.40173381804713e+005,-2.49237019132944e+001,-1.96367827020704e+001

4.46317973232124e+005,-2.49292272797573e+001,-1.99013997552422e+001

4.52548339959385e+005,-2.49348798282673e+001,-2.01694867210700e+001

4.58865679365059e+005,-2.49406626579920e+001,-2.04410868695757e+001

4.65271205542494e+005,-2.49465789521297e+001,-2.07162438679907e+001

4.71766149533147e+005,-2.49526319797726e+001,-2.09950017747789e+001

4.78351759563174e+005,-2.49588250977625e+001,-2.12774050331921e+001

4.85029301283321e+005,-2.49651617525343e+001,-2.15634984643530e+001

4.91800058012158e+005,-2.49716454819458e+001,-2.18533272598637e+001

4.98665330982714e+005,-2.49782799170921e+001,-2.21469369739350e+001

5.05626439592555e+005,-2.49850687840998e+001,-2.24443735150344e+001

5.12684721657352e+005,-2.49920159059009e+001,-2.27456831370512e+001

5.19841533667984e+005,-2.49991252039819e+001,-2.30509124299744e+001

5.27098251051240e+005,-2.50064007001066e+001,-2.33601083100835e+001

5.34456268434150e+005,-2.50138465180098e+001,-2.36733180096507e+001

5.41916999912011e+005,-2.50214668850582e+001,-2.39905890661503e+001

