Freq.,VOut,OutRef

1.00000000000000e+004,-2.42430518862218e+001,-3.74224256825117e-001

1.01395947979003e+004,-2.42430556293270e+001,-3.79447851721802e-001

1.02811382665607e+004,-2.42430594775860e+001,-3.84744349117803e-001

1.04246576084112e+004,-2.42430634339506e+001,-3.90114766008012e-001

1.05701804056138e+004,-2.42430675014554e+001,-3.95560133555471e-001

1.07177346253629e+004,-2.42430716832199e+001,-4.01081497287698e-001

1.08673486252606e+004,-2.42430759824508e+001,-4.06679917295980e-001

1.10190511587661e+004,-2.42430804024452e+001,-4.12356468435354e-001

1.11728713807222e+004,-2.42430849465923e+001,-4.18112240531858e-001

1.13288388529580e+004,-2.42430896183760e+001,-4.23948338590978e-001

1.14869835499703e+004,-2.42430944213782e+001,-4.29865883003089e-001

1.16473358646846e+004,-2.42430993592808e+001,-4.35866009762492e-001

1.18099266142953e+004,-2.42431044358690e+001,-4.41949870679505e-001

1.19747870461893e+004,-2.42431096550340e+001,-4.48118633601295e-001

1.21419488439505e+004,-2.42431150207758e+001,-4.54373482633674e-001

1.23114441334492e+004,-2.42431205372064e+001,-4.60715618366647e-001

1.24833054890161e+004,-2.42431262085532e+001,-4.67146258100403e-001

1.26575659397028e+004,-2.42431320391615e+001,-4.73666636080384e-001

1.28342589756290e+004,-2.42431380334985e+001,-4.80278003728728e-001

1.30134185544193e+004,-2.42431441961563e+001,-4.86981629882271e-001

1.31950791077289e+004,-2.42431505318556e+001,-4.93778801034022e-001

1.33792755478611e+004,-2.42431570454489e+001,-5.00670821577435e-001

1.35660432744767e+004,-2.42431637419245e+001,-5.07659014053455e-001

1.37554181813974e+004,-2.42431706264105e+001,-5.14744719401105e-001

1.39474366635040e+004,-2.42431777041781e+001,-5.21929297211054e-001

1.41421356237309e+004,-2.42431849806459e+001,-5.29214125985877e-001

1.43395524801583e+004,-2.42431924613840e+001,-5.36600603396531e-001

1.45397251732031e+004,-2.42432001521183e+001,-5.44090146551787e-001

1.47426921729110e+004,-2.42432080587346e+001,-5.51684192262750e-001

1.49484924863494e+004,-2.42432161872831e+001,-5.59384197316541e-001

1.51571656651040e+004,-2.42432245439831e+001,-5.67191638751381e-001

1.53687518128801e+004,-2.42432331352276e+001,-5.75108014134590e-001

1.55832915932100e+004,-2.42432419675881e+001,-5.83134841847227e-001

1.58008262372675e+004,-2.42432510478196e+001,-5.91273661369365e-001

1.60213975517924e+004,-2.42432603828657e+001,-5.99526033570899e-001

1.62450479271247e+004,-2.42432699798637e+001,-6.07893541006730e-001

1.64718203453514e+004,-2.42432798461499e+001,-6.16377788214029e-001

1.67017583885674e+004,-2.42432899892657e+001,-6.24980402014203e-001

1.69349062472505e+004,-2.42433004169626e+001,-6.33703031820802e-001

1.71713087287550e+004,-2.42433111372081e+001,-6.42547349948341e-001

1.74110112659224e+004,-2.42433221581920e+001,-6.51515051928207e-001

1.76540599258131e+004,-2.42433334883324e+001,-6.60607856825679e-001

1.79005014185594e+004,-2.42433451362817e+001,-6.69827507564896e-001

1.81503831063432e+004,-2.42433571109338e+001,-6.79175771253360e-001

1.84037530124975e+004,-2.42433694214299e+001,-6.88654439516534e-001

1.86606598307361e+004,-2.42433820771658e+001,-6.98265328830862e-001

1.89211529345119e+004,-2.42433950877990e+001,-7.08010280866686e-001

1.91852823865052e+004,-2.42434084632558e+001,-7.17891162829969e-001

1.94530989482457e+004,-2.42434222137383e+001,-7.27909867815503e-001

1.97246540898671e+004,-2.42434363497325e+001,-7.38068315156844e-001

1.99999999999999e+004,-2.42434508820162e+001,-7.48368450787739e-001

2.02791895958005e+004,-2.42434658216666e+001,-7.58812247603011e-001

2.05622765331213e+004,-2.42434811800684e+001,-7.69401705829457e-001

2.08493152168224e+004,-2.42434969689230e+001,-7.80138853395557e-001

2.11403608112276e+004,-2.42435132002566e+001,-7.91025746309696e-001

2.14354692507258e+004,-2.42435298864290e+001,-8.02064469044994e-001

2.17346972505211e+004,-2.42435470401430e+001,-8.13257134923560e-001

2.20381023175322e+004,-2.42435646744541e+001,-8.24605886510438e-001

2.23457427614443e+004,-2.42435828027793e+001,-8.36112896010901e-001

2.26576777059159e+004,-2.42436014389079e+001,-8.47780365673057e-001

2.29739670999406e+004,-2.42436205970109e+001,-8.59610528195698e-001

2.32946717293690e+004,-2.42436402916520e+001,-8.71605647139545e-001

2.36198532285905e+004,-2.42436605377979e+001,-8.83768017348929e-001

2.39495740923785e+004,-2.42436813508295e+001,-8.96099965371275e-001

2.42838976879009e+004,-2.42437027465531e+001,-9.08603849888462e-001

2.46228882668982e+004,-2.42437247412118e+001,-9.21282062151361e-001

2.49666109780322e+004,-2.42437473514979e+001,-9.34137026417834e-001

2.53151318794055e+004,-2.42437705945644e+001,-9.47171200398551e-001

2.56685179512580e+004,-2.42437944880379e+001,-9.60387075709891e-001

2.60268371088386e+004,-2.42438190500312e+001,-9.73787178327377e-001

2.63901582154578e+004,-2.42438442991569e+001,-9.87374069049825e-001

2.67585510957221e+004,-2.42438702545404e+001,-1.00115034396705e+000

2.71320865489533e+004,-2.42438969358337e+001,-1.01511863493361e+000

2.75108363627948e+004,-2.42439243632302e+001,-1.02928161004719e+000

2.78948733270080e+004,-2.42439525574788e+001,-1.04364197413582e+000

2.82842712474618e+004,-2.42439815398986e+001,-1.05820246924910e+000

2.86791049603164e+004,-2.42440113323950e+001,-1.07296587515401e+000

2.90794503464061e+004,-2.42440419574747e+001,-1.08793500984078e+000

2.94853843458219e+004,-2.42440734382621e+001,-1.10311273002997e+000

2.98969849726987e+004,-2.42441057985158e+001,-1.11850193169049e+000

3.03143313302078e+004,-2.42441390626457e+001,-1.13410555056011e+000

3.07375036257601e+004,-2.42441732557300e+001,-1.14992656267409e+000

3.11665831864199e+004,-2.42442084035333e+001,-1.16596798489935e+000

3.16016524745350e+004,-2.42442445325247e+001,-1.18223287547640e+000

3.20427951035848e+004,-2.42442816698967e+001,-1.19872433456486e+000

3.24900958542493e+004,-2.42443198435839e+001,-1.21544550479874e+000

3.29436406907028e+004,-2.42443590822833e+001,-1.23239957184453e+000

3.34035167771346e+004,-2.42443994154740e+001,-1.24958976497033e+000

3.38698124945009e+004,-2.42444408734378e+001,-1.26701935761725e+000

3.43426174575100e+004,-2.42444834872806e+001,-1.28469166797946e+000

3.48220225318448e+004,-2.42445272889538e+001,-1.30261005959076e+000

3.53081198516260e+004,-2.42445723112764e+001,-1.32077794191862e+000

3.58010028371187e+004,-2.42446185879582e+001,-1.33919877096168e+000

3.63007662126863e+004,-2.42446661536223e+001,-1.35787604985923e+000

3.68075060249948e+004,-2.42447150438296e+001,-1.37681332950156e+000

3.73213196614721e+004,-2.42447652951027e+001,-1.39601420915348e+000

3.78423058690237e+004,-2.42448169449510e+001,-1.41548233707785e+000

3.83705647730104e+004,-2.42448700318963e+001,-1.43522141117199e+000

3.89061978964912e+004,-2.42449245954988e+001,-1.45523517960740e+000

3.94493081797342e+004,-2.42449806763840e+001,-1.47552744147788e+000

3.99999999999998e+004,-2.42450383162698e+001,-1.49610204745390e+000

4.05583791916010e+004,-2.42450975579949e+001,-1.51696290044461e+000

4.11245530662425e+004,-2.42451584455468e+001,-1.53811395626691e+000

4.16986304336447e+004,-2.42452210240918e+001,-1.55955922431986e+000

4.22807216224550e+004,-2.42452853400042e+001,-1.58130276826926e+000

4.28709385014515e+004,-2.42453514408976e+001,-1.60334870673641e+000

4.34693945010421e+004,-2.42454193756556e+001,-1.62570121399462e+000

4.40762046350642e+004,-2.42454891944641e+001,-1.64836452067451e+000

4.46914855228886e+004,-2.42455609488439e+001,-1.67134291447424e+000

4.53153554118317e+004,-2.42456346916841e+001,-1.69464074087817e+000

4.59479341998812e+004,-2.42457104772760e+001,-1.71826240388165e+000

4.65893434587380e+004,-2.42457883613481e+001,-1.74221236672400e+000

4.72397064571810e+004,-2.42458684011016e+001,-1.76649515262845e+000

4.78991481847569e+004,-2.42459506552468e+001,-1.79111534554770e+000

4.85677953758016e+004,-2.42460351840399e+001,-1.81607759091905e+000

4.92457765337964e+004,-2.42461220493210e+001,-1.84138659642388e+000

4.99332219560642e+004,-2.42462113145527e+001,-1.86704713275718e+000

5.06302637588109e+004,-2.42463030448590e+001,-1.89306403440212e+000

5.13370359025159e+004,-2.42463973070661e+001,-1.91944220041201e+000

5.20536742176771e+004,-2.42464941697428e+001,-1.94618659519962e+000

5.27803164309155e+004,-2.42465937032423e+001,-1.97330224933398e+000

5.35171021914442e+004,-2.42466959797446e+001,-2.00079426034337e+000

5.42641730979066e+004,-2.42468010732999e+001,-2.02866779352682e+000

5.50216727255895e+004,-2.42469090598727e+001,-2.05692808276942e+000

5.57897466540159e+004,-2.42470200173864e+001,-2.08558043136888e+000

5.65685424949235e+004,-2.42471340257692e+001,-2.11463021286583e+000

5.73582099206328e+004,-2.42472511670006e+001,-2.14408287188210e+000

5.81589006928121e+004,-2.42473715251582e+001,-2.17394392496704e+000

5.89707686916437e+004,-2.42474951864665e+001,-2.20421896144772e+000

5.97939699453972e+004,-2.42476222393451e+001,-2.23491364428954e+000

6.06286626604156e+004,-2.42477527744588e+001,-2.26603371096174e+000

6.14750072515201e+004,-2.42478868847675e+001,-2.29758497430941e+000

6.23331663728396e+004,-2.42480246655782e+001,-2.32957332343302e+000

6.32033049490698e+004,-2.42481662145962e+001,-2.36200472457554e+000

6.40855902071694e+004,-2.42483116319784e+001,-2.39488522201349e+000

6.49801917084985e+004,-2.42484610203865e+001,-2.42822093895826e+000

6.58872813814055e+004,-2.42486144850413e+001,-2.46201807846106e+000

6.68070335542691e+004,-2.42487721337779e+001,-2.49628292432685e+000

6.77396249890018e+004,-2.42489340771011e+001,-2.53102184203278e+000

6.86852349150199e+004,-2.42491004282420e+001,-2.56624127965544e+000

6.96440450636895e+004,-2.42492713032148e+001,-2.60194776880281e+000

7.06162397032520e+004,-2.42494468208750e+001,-2.63814792555423e+000

7.16020056742374e+004,-2.42496271029773e+001,-2.67484845140599e+000

7.26015324253724e+004,-2.42498122742347e+001,-2.71205613422424e+000

7.36150120499896e+004,-2.42500024623784e+001,-2.74977784920438e+000

7.46426393229441e+004,-2.42501977982174e+001,-2.78802055983673e+000

7.56846117380472e+004,-2.42503984156995e+001,-2.82679131887920e+000

7.67411295460207e+004,-2.42506044519725e+001,-2.86609726933692e+000

7.78123957929823e+004,-2.42508160474456e+001,-2.90594564544827e+000

7.88986163594682e+004,-2.42510333458515e+001,-2.94634377367815e+000

7.99999999999995e+004,-2.42512564943089e+001,-2.98729907371762e+000

8.11167583832018e+004,-2.42514856433854e+001,-3.02881905949115e+000

8.22491061324848e+004,-2.42517209471603e+001,-3.07091134017081e+000

8.33972608672892e+004,-2.42519625632881e+001,-3.11358362119804e+000

8.45614432449099e+004,-2.42522106530623e+001,-3.15684370531144e+000

8.57418770029029e+004,-2.42524653814787e+001,-3.20069949358444e+000

8.69387890020841e+004,-2.42527269172993e+001,-3.24515898646921e+000

8.81524092701283e+004,-2.42529954331165e+001,-3.29023028484857e+000

8.93829710457770e+004,-2.42532711054167e+001,-3.33592159109696e+000

9.06307108236633e+004,-2.42535541146442e+001,-3.38224121014885e+000

9.18958683997622e+004,-2.42538446452649e+001,-3.42919755057770e+000

9.31786869174758e+004,-2.42541428858296e+001,-3.47679912568123e+000

9.44794129143618e+004,-2.42544490290379e+001,-3.52505455457921e+000

9.57982963695136e+004,-2.42547632718001e+001,-3.57397256331984e+000

9.71355907516031e+004,-2.42550858153010e+001,-3.62356198599528e+000

9.84915530675926e+004,-2.42554168650608e+001,-3.67383176587062e+000

9.98664439121282e+004,-2.42557566309977e+001,-3.72479095652193e+000

1.01260527517622e+005,-2.42561053274881e+001,-3.77644872298696e+000

1.02674071805032e+005,-2.42564631734273e+001,-3.82881434292944e+000

1.04107348435354e+005,-2.42568303922893e+001,-3.88189720781405e+000

1.05560632861831e+005,-2.42572072121850e+001,-3.93570682409842e+000

1.07034204382888e+005,-2.42575938659207e+001,-3.99025281443748e+000

1.08528346195813e+005,-2.42579905910543e+001,-4.04554491890421e+000

1.10043345451179e+005,-2.42583976299521e+001,-4.10159299622671e+000

1.11579493308032e+005,-2.42588152298429e+001,-4.15840702504258e+000

1.13137084989847e+005,-2.42592436428719e+001,-4.21599710517173e+000

1.14716419841265e+005,-2.42596831261533e+001,-4.27437345890899e+000

1.16317801385624e+005,-2.42601339418213e+001,-4.33354643233599e+000

1.17941537383287e+005,-2.42605963570799e+001,-4.39352649665740e+000

1.19587939890794e+005,-2.42610706442515e+001,-4.45432424955689e+000

1.21257325320831e+005,-2.42615570808236e+001,-4.51595041658172e+000

1.22950014503040e+005,-2.42620559494948e+001,-4.57841585254826e+000

1.24666332745679e+005,-2.42625675382182e+001,-4.64173154298031e+000

1.26406609898139e+005,-2.42630921402448e+001,-4.70590860557225e+000

1.28171180414339e+005,-2.42636300541634e+001,-4.77095829168532e+000

1.29960383416997e+005,-2.42641815839409e+001,-4.83689198787563e+000

1.31774562762811e+005,-2.42647470389596e+001,-4.90372121745633e+000

1.33614067108538e+005,-2.42653267340540e+001,-4.97145764209659e+000

1.35479249978003e+005,-2.42659209895452e+001,-5.04011306345809e+000

1.37370469830040e+005,-2.42665301312746e+001,-5.10969942487329e+000

1.39288090127379e+005,-2.42671544906359e+001,-5.18022881306422e+000

1.41232479406504e+005,-2.42677944046057e+001,-5.25171345990777e+000

1.43204011348474e+005,-2.42684502157730e+001,-5.32416574424652e+000

1.45203064850745e+005,-2.42691222723675e+001,-5.39759819375088e+000

1.47230024099979e+005,-2.42698109282875e+001,-5.47202348683073e+000

1.49285278645888e+005,-2.42705165431257e+001,-5.54745445460327e+000

1.51369223476094e+005,-2.42712394821962e+001,-5.62390408291648e+000

1.53482259092041e+005,-2.42719801165590e+001,-5.70138551443326e+000

1.55624791585964e+005,-2.42727388230462e+001,-5.77991205077608e+000

1.57797232718936e+005,-2.42735159842873e+001,-5.85949715473829e+000

1.59999999999999e+005,-2.42743119887344e+001,-5.94015445256075e+000

1.62233516766403e+005,-2.42751272306899e+001,-6.02189773628019e+000

1.64498212264969e+005,-2.42759621103327e+001,-6.10474096615018e+000

1.66794521734578e+005,-2.42768170337481e+001,-6.18869827313691e+000

1.69122886489819e+005,-2.42776924129582e+001,-6.27378396149341e+000

1.71483754005805e+005,-2.42785886659548e+001,-6.36001251141563e+000

1.73877578004168e+005,-2.42795062167356e+001,-6.44739858178055e+000

1.76304818540256e+005,-2.42804454953430e+001,-6.53595701297099e+000

1.78765942091554e+005,-2.42814069379071e+001,-6.62570282978910e+000

1.81261421647326e+005,-2.42823909866932e+001,-6.71665124445996e+000

1.83791736799524e+005,-2.42833980901543e+001,-6.80881765972879e+000

1.86357373834951e+005,-2.42844287029890e+001,-6.90221767205285e+000

1.88958825828723e+005,-2.42854832862069e+001,-6.99686707489088e+000

1.91596592739027e+005,-2.42865623071998e+001,-7.09278186209119e+000

1.94271181503206e+005,-2.42876662398221e+001,-7.18997823138001e+000

1.96983106135185e+005,-2.42887955644794e+001,-7.28847258795179e+000

1.99732887824256e+005,-2.42899507682273e+001,-7.38828154816288e+000

2.02521055035243e+005,-2.42911323448802e+001,-7.48942194332787e+000

2.05348143610063e+005,-2.42923407951321e+001,-7.59191082362196e+000

2.08214696870707e+005,-2.42935766266897e+001,-7.69576546208653e+000

2.11121265723661e+005,-2.42948403544193e+001,-7.80100335874041e+000

2.14068408765776e+005,-2.42961325005079e+001,-7.90764224479464e+000

2.17056692391625e+005,-2.42974535946396e+001,-8.01570008697129e+000

2.20086690902357e+005,-2.42988041741899e+001,-8.12519509192425e+000

2.23158986616063e+005,-2.43001847844361e+001,-8.23614571076097e+000

2.26274169979693e+005,-2.43015959787879e+001,-8.34857064366339e+000

2.29432839682530e+005,-2.43030383190371e+001,-8.46248884460423e+000

2.32635602771247e+005,-2.43045123756290e+001,-8.57791952615782e+000

2.35883074766574e+005,-2.43060187279559e+001,-8.69488216440052e+000

2.39175879781588e+005,-2.43075579646736e+001,-8.81339650389724e+000

2.42514650641661e+005,-2.43091306840431e+001,-8.93348256277040e+000

2.45900029006080e+005,-2.43107374942973e+001,-9.05516063784541e+000

2.49332665491357e+005,-2.43123790140348e+001,-9.17845130986779e+000

2.52813219796278e+005,-2.43140558726413e+001,-9.30337544878661e+000

2.56342360828676e+005,-2.43157687107405e+001,-9.42995421909652e+000

2.59920766833993e+005,-2.43175181806736e+001,-9.55820908523273e+000

2.63549125525621e+005,-2.43193049470111e+001,-9.68816181701033e+000

2.67228134217075e+005,-2.43211296870956e+001,-9.81983449510187e+000

2.70958499956006e+005,-2.43229930916173e+001,-9.95324951654227e+000

2.74740939660078e+005,-2.43248958652236e+001,-1.00884296002542e+001

2.78576180254757e+005,-2.43268387271624e+001,-1.02253977925835e+001

2.82464958813007e+005,-2.43288224119605e+001,-1.03641774728356e+001

2.86408022696948e+005,-2.43308476701381e+001,-1.05047923588025e+001

2.90406129701488e+005,-2.43329152689591e+001,-1.06472665122686e+001

2.94460048199957e+005,-2.43350259932182e+001,-1.07916243444874e+001

2.98570557291775e+005,-2.43371806460648e+001,-1.09378906216145e+001

3.02738446952187e+005,-2.43393800498646e+001,-1.10860904700872e+001

3.06964518184081e+005,-2.43416250470989e+001,-1.12362493819395e+001

3.11249583171928e+005,-2.43439165013008e+001,-1.13883932200395e+001

3.15594465437872e+005,-2.43462552980300e+001,-1.15425482232368e+001

3.19999999999997e+005,-2.43486423458844e+001,-1.16987410114097e+001

3.24467033532806e+005,-2.43510785775494e+001,-1.18569985903982e+001

3.28996424529938e+005,-2.43535649508847e+001,-1.20173483568108e+001

3.33589043469155e+005,-2.43561024500468e+001,-1.21798181026942e+001

3.38245772979638e+005,-2.43586920866487e+001,-1.23444360200525e+001

3.42967508011610e+005,-2.43613349009542e+001,-1.25112307052044e+001

3.47755156008335e+005,-2.43640319631079e+001,-1.26802311629671e+001

3.52609637080511e+005,-2.43667843743987e+001,-1.28514668106548e+001

3.57531884183106e+005,-2.43695932685567e+001,-1.30249674818807e+001

3.62522843294651e+005,-2.43724598130822e+001,-1.32007634301517e+001

3.67583473599047e+005,-2.43753852106059e+001,-1.33788853322464e+001

3.72714747669902e+005,-2.43783707002789e+001,-1.35593642913630e+001

3.77917651657445e+005,-2.43814175591912e+001,-1.37422318400311e+001

3.83193185478053e+005,-2.43845271038186e+001,-1.39275199427766e+001

3.88542363006410e+005,-2.43877006914946e+001,-1.41152609985298e+001

3.93966212270369e+005,-2.43909397219074e+001,-1.43054878427702e+001

3.99465775648511e+005,-2.43942456386202e+001,-1.44982337493998e+001

4.05042110070485e+005,-2.43976199306130e+001,-1.46935324323367e+001

4.10696287220124e+005,-2.44010641338449e+001,-1.48914180468244e+001

4.16429393741414e+005,-2.44045798328349e+001,-1.50919251904471e+001

4.22242531447321e+005,-2.44081686622590e+001,-1.52950889038503e+001

4.28136817531551e+005,-2.44118323085644e+001,-1.55009446711575e+001

4.34113384783250e+005,-2.44155725115956e+001,-1.57095284200803e+001

4.40173381804713e+005,-2.44193910662341e+001,-1.59208765217179e+001

4.46317973232124e+005,-2.44232898240481e+001,-1.61350257900420e+001

4.52548339959385e+005,-2.44272706949517e+001,-1.63520134810648e+001

4.58865679365059e+005,-2.44313356488709e+001,-1.65718772916863e+001

4.65271205542494e+005,-2.44354867174163e+001,-1.67946553582193e+001

4.71766149533147e+005,-2.44397259955601e+001,-1.70203862545914e+001

4.78351759563174e+005,-2.44440556433148e+001,-1.72491089902200e+001

4.85029301283321e+005,-2.44484778874161e+001,-1.74808630075614e+001

4.91800058012158e+005,-2.44529950230027e+001,-1.77156881793317e+001

4.98665330982714e+005,-2.44576094152972e+001,-1.79536248053985e+001

5.05626439592555e+005,-2.44623235012835e+001,-1.81947136093451e+001

5.12684721657352e+005,-2.44671397913798e+001,-1.84389957347024e+001

5.19841533667984e+005,-2.44720608711075e+001,-1.86865127408523e+001

5.27098251051240e+005,-2.44770894027529e+001,-1.89373065986000e+001

5.34456268434150e+005,-2.44822281270211e+001,-1.91914196854144e+001

5.41916999912011e+005,-2.44874798646825e+001,-1.94488947803371e+001

