Freq.,VOut,OutRef

1.00000000000000e+004,-1.20241200436272e+001,-7.42951091210289e-003

1.01395947979003e+004,-1.20241206228383e+001,-7.53312556365242e-003

1.02811382665607e+004,-1.20241212183112e+001,-7.63818249160222e-003

1.04246576084112e+004,-1.20241218305031e+001,-7.74470164502476e-003

1.05701804056138e+004,-1.20241224598824e+001,-7.85270325564650e-003

1.07177346253629e+004,-1.20241231069297e+001,-7.96220783439153e-003

1.08673486252606e+004,-1.20241237721413e+001,-8.07323615824861e-003

1.10190511587661e+004,-1.20241244560261e+001,-8.18580929111941e-003

1.11728713807222e+004,-1.20241251591086e+001,-8.29994857528185e-003

1.13288388529580e+004,-1.20241258819247e+001,-8.41567566217513e-003

1.14869835499703e+004,-1.20241266250284e+001,-8.53301247534679e-003

1.16473358646846e+004,-1.20241273889892e+001,-8.65198123549613e-003

1.18099266142953e+004,-1.20241281743887e+001,-8.77260448619017e-003

1.19747870461893e+004,-1.20241289818319e+001,-8.89490503005035e-003

1.21419488439505e+004,-1.20241298119312e+001,-9.01890603639392e-003

1.23114441334492e+004,-1.20241306653258e+001,-9.14463092537341e-003

1.24833054890161e+004,-1.20241315426644e+001,-9.27210348474813e-003

1.26575659397028e+004,-1.20241324446194e+001,-9.40134778587702e-003

1.28342589756290e+004,-1.20241333718799e+001,-9.53238823485177e-003

1.30134185544193e+004,-1.20241343251547e+001,-9.66524956309474e-003

1.31950791077289e+004,-1.20241353051708e+001,-9.79995684192149e-003

1.33792755478611e+004,-1.20241363126770e+001,-9.93653546919873e-003

1.35660432744767e+004,-1.20241373484437e+001,-1.00750111739709e-002

1.37554181813974e+004,-1.20241384132616e+001,-1.02154100393595e-002

1.39474366635040e+004,-1.20241395079420e+001,-1.03577585016974e-002

1.41421356237309e+004,-1.20241406333217e+001,-1.05020833309480e-002

1.43395524801583e+004,-1.20241417902595e+001,-1.06484116614382e-002

1.45397251732031e+004,-1.20241429796376e+001,-1.07967709886884e-002

1.47426921729110e+004,-1.20241442023619e+001,-1.09471891796139e-002

1.49484924863494e+004,-1.20241454593671e+001,-1.10996944433786e-002

1.51571656651040e+004,-1.20241467516100e+001,-1.12543153889308e-002

1.53687518128801e+004,-1.20241480800757e+001,-1.14110809877054e-002

1.55832915932100e+004,-1.20241494457760e+001,-1.15700205991888e-002

1.58008262372675e+004,-1.20241508497526e+001,-1.17311639550962e-002

1.60213975517924e+004,-1.20241522930736e+001,-1.18945411935764e-002

1.62450479271247e+004,-1.20241537768395e+001,-1.20601828267636e-002

1.64718203453514e+004,-1.20241553021780e+001,-1.22281197898065e-002

1.67017583885674e+004,-1.20241568702505e+001,-1.23983834023122e-002

1.69349062472505e+004,-1.20241584822498e+001,-1.25710053968137e-002

1.71713087287550e+004,-1.20241601394023e+001,-1.27460179141240e-002

1.74110112659224e+004,-1.20241618429673e+001,-1.29234535176428e-002

1.76540599258131e+004,-1.20241635942413e+001,-1.31033451756416e-002

1.79005014185594e+004,-1.20241653945531e+001,-1.32857263038813e-002

1.81503831063432e+004,-1.20241672452706e+001,-1.34706307337742e-002

1.84037530124975e+004,-1.20241691477991e+001,-1.36580927311809e-002

1.86606598307361e+004,-1.20241711035832e+001,-1.38481469988356e-002

1.89211529345119e+004,-1.20241731141066e+001,-1.40408286847787e-002

1.91852823865052e+004,-1.20241751808952e+001,-1.42361733784598e-002

1.94530989482457e+004,-1.20241773055152e+001,-1.44342171299848e-002

1.97246540898671e+004,-1.20241794895764e+001,-1.46349964444614e-002

1.99999999999999e+004,-1.20241817347343e+001,-1.48385482773047e-002

2.02791895958005e+004,-1.20241840426893e+001,-1.50449100525242e-002

2.05622765331213e+004,-1.20241864151876e+001,-1.52541196713381e-002

2.08493152168224e+004,-1.20241888540252e+001,-1.54662154951414e-002

2.11403608112276e+004,-1.20241913610467e+001,-1.56812363674046e-002

2.14354692507258e+004,-1.20241939381468e+001,-1.58992216180412e-002

2.17346972505211e+004,-1.20241965872736e+001,-1.61202110535297e-002

2.20381023175322e+004,-1.20241993104267e+001,-1.63442449817178e-002

2.23457427614443e+004,-1.20242021096625e+001,-1.65713641945841e-002

2.26576777059159e+004,-1.20242049870932e+001,-1.68016099829789e-002

2.29739670999406e+004,-1.20242079448875e+001,-1.70350241491078e-002

2.32946717293690e+004,-1.20242109852765e+001,-1.72716489824405e-002

2.36198532285905e+004,-1.20242141105485e+001,-1.75115273056482e-002

2.39495740923785e+004,-1.20242173230572e+001,-1.77547024359444e-002

2.42838976879009e+004,-1.20242206252196e+001,-1.80012182161209e-002

2.46228882668982e+004,-1.20242240195189e+001,-1.82511190054996e-002

2.49666109780322e+004,-1.20242275085048e+001,-1.85044496959245e-002

2.53151318794055e+004,-1.20242310947978e+001,-1.87612556982455e-002

2.56685179512580e+004,-1.20242347810903e+001,-1.90215829514169e-002

2.60268371088386e+004,-1.20242385701450e+001,-1.92854779441737e-002

2.63901582154578e+004,-1.20242424648026e+001,-1.95529876858391e-002

2.67585510957221e+004,-1.20242464679800e+001,-1.98241597300807e-002

2.71320865489533e+004,-1.20242505826727e+001,-2.00990421750414e-002

2.75108363627948e+004,-1.20242548119573e+001,-2.03776836654297e-002

2.78948733270080e+004,-1.20242591589947e+001,-2.06601333853600e-002

2.82842712474618e+004,-1.20242636270289e+001,-2.09464410846563e-002

2.86791049603164e+004,-1.20242682193939e+001,-2.12366570475207e-002

2.90794503464061e+004,-1.20242729395123e+001,-2.15308321221337e-002

2.94853843458219e+004,-1.20242777908986e+001,-2.18290177099863e-002

2.98969849726987e+004,-1.20242827771635e+001,-2.21312657616359e-002

3.03143313302078e+004,-1.20242879020119e+001,-2.24376288015974e-002

3.07375036257601e+004,-1.20242931692510e+001,-2.27481598928898e-002

3.11665831864199e+004,-1.20242985827871e+001,-2.30629126792732e-002

3.16016524745350e+004,-1.20243041466337e+001,-2.33819413437821e-002

3.20427951035848e+004,-1.20243098649095e+001,-2.37053006435242e-002

3.24900958542493e+004,-1.20243157418426e+001,-2.40330458968649e-002

3.29436406907028e+004,-1.20243217817771e+001,-2.43652329613044e-002

3.34035167771346e+004,-1.20243279891681e+001,-2.47019182786546e-002

3.38698124945009e+004,-1.20243343685914e+001,-2.50431588341126e-002

3.43426174575100e+004,-1.20243409247437e+001,-2.53890121684623e-002

3.48220225318448e+004,-1.20243476624468e+001,-2.57395363711980e-002

3.53081198516260e+004,-1.20243545866468e+001,-2.60947901024092e-002

3.58010028371187e+004,-1.20243617024239e+001,-2.64548325456534e-002

3.63007662126863e+004,-1.20243690149888e+001,-2.68197234493101e-002

3.68075060249948e+004,-1.20243765296907e+001,-2.71895230922149e-002

3.73213196614721e+004,-1.20243842520186e+001,-2.75642922929092e-002

3.78423058690237e+004,-1.20243921876043e+001,-2.79440924063093e-002

3.83705647730104e+004,-1.20244003422282e+001,-2.83289853020725e-002

3.89061978964912e+004,-1.20244087218182e+001,-2.87190333914786e-002

3.94493081797342e+004,-1.20244173324590e+001,-2.91142995827930e-002

3.99999999999998e+004,-1.20244261803918e+001,-2.95148472974630e-002

4.05583791916010e+004,-1.20244352720181e+001,-2.99207404645943e-002

4.11245530662425e+004,-1.20244446139060e+001,-3.03320434941908e-002

4.16986304336447e+004,-1.20244542127916e+001,-3.07488212859740e-002

4.22807216224550e+004,-1.20244640755845e+001,-3.11711392058401e-002

4.28709385014515e+004,-1.20244742093695e+001,-3.15990630935241e-002

4.34693945010421e+004,-1.20244846214140e+001,-3.20326592258967e-002

4.40762046350642e+004,-1.20244953191678e+001,-3.24719943353895e-002

4.46914855228886e+004,-1.20245063102719e+001,-3.29171355647745e-002

4.53153554118317e+004,-1.20245176025591e+001,-3.33681504774867e-002

4.59479341998812e+004,-1.20245292040592e+001,-3.38251070369565e-002

4.65893434587380e+004,-1.20245411230047e+001,-3.42880735793742e-002

4.72397064571810e+004,-1.20245533678326e+001,-3.47571188169374e-002

4.78991481847569e+004,-1.20245659471916e+001,-3.52323118002721e-002

4.85677953758016e+004,-1.20245788699441e+001,-3.57137219159167e-002

4.92457765337964e+004,-1.20245921451730e+001,-3.62014188494230e-002

4.99332219560642e+004,-1.20246057821843e+001,-3.66954725809844e-002

5.06302637588109e+004,-1.20246197905119e+001,-3.71959533580115e-002

5.13370359025159e+004,-1.20246341799231e+001,-3.77029316682512e-002

5.20536742176771e+004,-1.20246489604236e+001,-3.82164782121902e-002

5.27803164309155e+004,-1.20246641422614e+001,-3.87366638813612e-002

5.35171021914442e+004,-1.20246797359310e+001,-3.92635597356094e-002

5.42641730979066e+004,-1.20246957521787e+001,-3.97972369704723e-002

5.50216727255895e+004,-1.20247122020081e+001,-4.03377668797213e-002

5.57897466540159e+004,-1.20247290966845e+001,-4.08852208311314e-002

5.65685424949235e+004,-1.20247464477388e+001,-4.14396702327340e-002

5.73582099206328e+004,-1.20247642669730e+001,-4.20011864979390e-002

5.81589006928121e+004,-1.20247825664653e+001,-4.25698410056478e-002

5.89707686916437e+004,-1.20248013585744e+001,-4.31457050626081e-002

5.97939699453972e+004,-1.20248206559443e+001,-4.37288498678218e-002

6.06286626604156e+004,-1.20248404715098e+001,-4.43193464605339e-002

6.14750072515201e+004,-1.20248608185004e+001,-4.49172656862246e-002

6.23331663728396e+004,-1.20248817104441e+001,-4.55226781528336e-002

6.32033049490698e+004,-1.20249031611746e+001,-4.61356541689302e-002

6.40855902071694e+004,-1.20249251848338e+001,-4.67562637071670e-002

6.49801917084985e+004,-1.20249477958765e+001,-4.73845763495184e-002

6.58872813814055e+004,-1.20249710090760e+001,-4.80206612281229e-002

6.68070335542691e+004,-1.20249948395271e+001,-4.86645869740377e-002

6.77396249890018e+004,-1.20250193026518e+001,-4.93164216548190e-002

6.86852349150199e+004,-1.20250444142006e+001,-4.99762327276962e-002

6.96440450636895e+004,-1.20250701902608e+001,-5.06440869490895e-002

7.06162397032520e+004,-1.20250966472565e+001,-5.13200503370042e-002

7.16020056742374e+004,-1.20251238019532e+001,-5.20041880930029e-002

7.26015324253724e+004,-1.20251516714638e+001,-5.26965645208409e-002

7.36150120499896e+004,-1.20251802732477e+001,-5.33972429760794e-002

7.46426393229441e+004,-1.20252096251184e+001,-5.41062857657732e-002

7.56846117380472e+004,-1.20252397452425e+001,-5.48237540924854e-002

7.67411295460207e+004,-1.20252706521436e+001,-5.55497079667262e-002

7.78123957929823e+004,-1.20253023647077e+001,-5.62842061049543e-002

7.88986163594682e+004,-1.20253349021798e+001,-5.70273058791288e-002

7.99999999999995e+004,-1.20253682841701e+001,-5.77790631961300e-002

8.11167583832018e+004,-1.20254025306533e+001,-5.85395324255384e-002

8.22491061324848e+004,-1.20254376619704e+001,-5.93087662970289e-002

8.33972608672892e+004,-1.20254736988291e+001,-6.00868158049355e-002

8.45614432449099e+004,-1.20255106623042e+001,-6.08737301107729e-002

8.57418770029029e+004,-1.20255485738386e+001,-6.16695564332293e-002

8.69387890020841e+004,-1.20255874552409e+001,-6.24743399495832e-002

8.81524092701283e+004,-1.20256273286844e+001,-6.32881236949710e-002

8.93829710457770e+004,-1.20256682167078e+001,-6.41109484296950e-002

9.06307108236633e+004,-1.20257101422109e+001,-6.49428525431990e-002

9.18958683997622e+004,-1.20257531284514e+001,-6.57838719399381e-002

9.31786869174758e+004,-1.20257971990445e+001,-6.66340399012167e-002

9.44794129143618e+004,-1.20258423779568e+001,-6.74933869794840e-002

9.57982963695136e+004,-1.20258886895006e+001,-6.83619408768900e-002

9.71355907516031e+004,-1.20259361583317e+001,-6.92397263020282e-002

9.84915530675926e+004,-1.20259848094411e+001,-7.01267648524709e-002

9.98664439121282e+004,-1.20260346681479e+001,-7.10230748869437e-002

1.01260527517622e+005,-1.20260857600934e+001,-7.19286713788939e-002

1.02674071805032e+005,-1.20261381112308e+001,-7.28435657926572e-002

1.04107348435354e+005,-1.20261917478175e+001,-7.37677659337802e-002

1.05560632861831e+005,-1.20262466964018e+001,-7.47012758280586e-002

1.07034204382888e+005,-1.20263029838158e+001,-7.56440955563962e-002

1.08528346195813e+005,-1.20263606371585e+001,-7.65962211374651e-002

1.10043345451179e+005,-1.20264196837867e+001,-7.75576443577816e-002

1.11579493308032e+005,-1.20264801512967e+001,-7.85283526537219e-002

1.13137084989847e+005,-1.20265420675110e+001,-7.95083289470249e-002

1.14716419841265e+005,-1.20266054604608e+001,-8.04975515053357e-002

1.16317801385624e+005,-1.20266703583687e+001,-8.14959937936927e-002

1.17941537383287e+005,-1.20267367896278e+001,-8.25036243337792e-002

1.19587939890794e+005,-1.20268047827830e+001,-8.35204065521273e-002

1.21257325320831e+005,-1.20268743665075e+001,-8.45462986405839e-002

1.22950014503040e+005,-1.20269455695814e+001,-8.55812534048692e-002

1.24666332745679e+005,-1.20270184208646e+001,-8.66252181349471e-002

1.26406609898139e+005,-1.20270929492741e+001,-8.76781344451118e-002

1.28171180414339e+005,-1.20271691837534e+001,-8.87399381550063e-002

1.29960383416997e+005,-1.20272471532451e+001,-8.98105591452492e-002

1.31774562762811e+005,-1.20273268866601e+001,-9.08899212241250e-002

1.33614067108538e+005,-1.20274084128453e+001,-9.19779420066003e-002

1.35479249978003e+005,-1.20274917605512e+001,-9.30745327768427e-002

1.37370469830040e+005,-1.20275769583942e+001,-9.41795983904140e-002

1.39288090127379e+005,-1.20276640348234e+001,-9.52930371340340e-002

1.41232479406504e+005,-1.20277530180790e+001,-9.64147406421172e-002

1.43204011348474e+005,-1.20278439361543e+001,-9.75445937819636e-002

1.45203064850745e+005,-1.20279368167529e+001,-9.86824745672577e-002

1.47230024099979e+005,-1.20280316872473e+001,-9.98282540645755e-002

1.49285278645888e+005,-1.20281285746316e+001,-1.00981796328900e-001

1.51369223476094e+005,-1.20282275054772e+001,-1.02142958325876e-001

1.53482259092041e+005,-1.20283285058851e+001,-1.03311589873035e-001

1.55624791585964e+005,-1.20284316014338e+001,-1.04487533609116e-001

1.57797232718936e+005,-1.20285368171319e+001,-1.05670624938831e-001

1.59999999999999e+005,-1.20286441773624e+001,-1.06860692030839e-001

1.62233516766403e+005,-1.20287537058313e+001,-1.08057555791516e-001

1.64498212264969e+005,-1.20288654255108e+001,-1.09261029883210e-001

1.66794521734578e+005,-1.20289793585844e+001,-1.10470920731785e-001

1.69122886489819e+005,-1.20290955263872e+001,-1.11687027575046e-001

1.71483754005805e+005,-1.20292139493484e+001,-1.12909142507462e-001

1.73877578004168e+005,-1.20293346469311e+001,-1.14137050547731e-001

1.76304818540256e+005,-1.20294576375713e+001,-1.15370529728181e-001

1.78765942091554e+005,-1.20295829386155e+001,-1.16609351203982e-001

1.81261421647326e+005,-1.20297105662598e+001,-1.17853279369552e-001

1.83791736799524e+005,-1.20298405354847e+001,-1.19102072012461e-001

1.86357373834951e+005,-1.20299728599935e+001,-1.20355480472994e-001

1.88958825828723e+005,-1.20301075521470e+001,-1.21613249835162e-001

1.91596592739027e+005,-1.20302446229000e+001,-1.22875119134560e-001

1.94271181503206e+005,-1.20303840817369e+001,-1.24140821592950e-001

1.96983106135185e+005,-1.20305259366083e+001,-1.25410084869908e-001

1.99732887824256e+005,-1.20306701938666e+001,-1.26682631345813e-001

2.02521055035243e+005,-1.20308168582043e+001,-1.27958178418080e-001

2.05348143610063e+005,-1.20309659325897e+001,-1.29236438838674e-001

2.08214696870707e+005,-1.20311174182071e+001,-1.30517121061238e-001

2.11121265723661e+005,-1.20312713143966e+001,-1.31799929613317e-001

2.14068408765776e+005,-1.20314276185941e+001,-1.33084565508919e-001

2.17056692391625e+005,-1.20315863262755e+001,-1.34370726666161e-001

2.20086690902357e+005,-1.20317474309004e+001,-1.35658108363602e-001

2.23158986616063e+005,-1.20319109238598e+001,-1.36946403716275e-001

2.26274169979693e+005,-1.20320767944241e+001,-1.38235304177390e-001

2.29432839682530e+005,-1.20322450296960e+001,-1.39524500062119e-001

2.32635602771247e+005,-1.20324156145643e+001,-1.40813681097329e-001

2.35883074766574e+005,-1.20325885316613e+001,-1.42102536997121e-001

2.39175879781588e+005,-1.20327637613247e+001,-1.43390758049852e-001

2.42514650641661e+005,-1.20329412815617e+001,-1.44678035739573e-001

2.45900029006080e+005,-1.20331210680169e+001,-1.45964063380922e-001

2.49332665491357e+005,-1.20333030939453e+001,-1.47248536775037e-001

2.52813219796278e+005,-1.20334873301893e+001,-1.48531154880488e-001

2.56342360828676e+005,-1.20336737451585e+001,-1.49811620510725e-001

2.59920766833993e+005,-1.20338623048183e+001,-1.51089641028312e-001

2.63549125525621e+005,-1.20340529726776e+001,-1.52364929079853e-001

2.67228134217075e+005,-1.20342457097876e+001,-1.53637203315041e-001

2.70958499956006e+005,-1.20344404747410e+001,-1.54906189139901e-001

2.74740939660078e+005,-1.20346372236805e+001,-1.56171619457637e-001

2.78576180254757e+005,-1.20348359103099e+001,-1.57433235434912e-001

2.82464958813007e+005,-1.20350364859134e+001,-1.58690787254869e-001

2.86408022696948e+005,-1.20352388993781e+001,-1.59944034890061e-001

2.90406129701488e+005,-1.20354430972254e+001,-1.61192748859909e-001

2.94460048199957e+005,-1.20356490236454e+001,-1.62436710997249e-001

2.98570557291775e+005,-1.20358566205405e+001,-1.63675715196147e-001

3.02738446952187e+005,-1.20360658275720e+001,-1.64909568171066e-001

3.06964518184081e+005,-1.20362765822139e+001,-1.66138090194692e-001

3.11249583171928e+005,-1.20364888198145e+001,-1.67361115817594e-001

3.15594465437872e+005,-1.20367024736607e+001,-1.68578494590085e-001

3.19999999999997e+005,-1.20369174750501e+001,-1.69790091754863e-001

3.24467033532806e+005,-1.20371337533689e+001,-1.70995788921729e-001

3.28996424529938e+005,-1.20373512361746e+001,-1.72195484723053e-001

3.33589043469155e+005,-1.20375698492845e+001,-1.73389095442996e-001

3.38245772979638e+005,-1.20377895168693e+001,-1.74576555620372e-001

3.42967508011610e+005,-1.20380101615521e+001,-1.75757818619663e-001

3.47755156008335e+005,-1.20382317045116e+001,-1.76932857176169e-001

3.52609637080511e+005,-1.20384540655896e+001,-1.78101663905723e-001

3.57531884183106e+005,-1.20386771634036e+001,-1.79264251775311e-001

3.62522843294651e+005,-1.20389009154624e+001,-1.80420654541504e-001

3.67583473599047e+005,-1.20391252382854e+001,-1.81570927151272e-001

3.72714747669902e+005,-1.20393500475257e+001,-1.82715146092378e-001

3.77917651657445e+005,-1.20395752580946e+001,-1.83853409718632e-001

3.83193185478053e+005,-1.20398007842903e+001,-1.84985838514313e-001

3.88542363006410e+005,-1.20400265399265e+001,-1.86112575331424e-001

3.93966212270369e+005,-1.20402524384648e+001,-1.87233785569647e-001

3.99465775648511e+005,-1.20404783931466e+001,-1.88349657317154e-001

4.05042110070485e+005,-1.20407043171260e+001,-1.89460401445174e-001

4.10696287220124e+005,-1.20409301236034e+001,-1.90566251657464e-001

4.16429393741414e+005,-1.20411557259595e+001,-1.91667464488775e-001

4.22242531447321e+005,-1.20413810378865e+001,-1.92764319265384e-001

4.28136817531551e+005,-1.20416059735215e+001,-1.93857118011805e-001

4.34113384783250e+005,-1.20418304475752e+001,-1.94946185322285e-001

4.40173381804713e+005,-1.20420543754616e+001,-1.96031868176722e-001

4.46317973232124e+005,-1.20422776734226e+001,-1.97114535728309e-001

4.52548339959385e+005,-1.20425002586530e+001,-1.98194579032438e-001

4.58865679365059e+005,-1.20427220494198e+001,-1.99272410748360e-001

4.65271205542494e+005,-1.20429429651800e+001,-2.00348464794003e-001

4.71766149533147e+005,-1.20431629266924e+001,-2.01423195973124e-001

4.78351759563174e+005,-1.20433818561289e+001,-2.02497079548613e-001

4.85029301283321e+005,-1.20435996771771e+001,-2.03570610805016e-001

4.91800058012158e+005,-1.20438163151419e+001,-2.04644304559486e-001

4.98665330982714e+005,-1.20440316970404e+001,-2.05718694654069e-001

5.05626439592555e+005,-1.20442457516910e+001,-2.06794333422766e-001

5.12684721657352e+005,-1.20444584097996e+001,-2.07871791119655e-001

5.19841533667984e+005,-1.20446696040375e+001,-2.08951655344042e-001

5.27098251051240e+005,-1.20448792691151e+001,-2.10034530428196e-001

5.34456268434150e+005,-1.20450873418503e+001,-2.11121036818438e-001

5.41916999912011e+005,-1.20452937612296e+001,-2.12211810433442e-001

