Freq.,VOut,OutRef

1.00000000000000e+004,-2.84947860885956e+001,-5.40269842138152e-001

1.01395947979003e+004,-2.84947922344097e+001,-5.47811242781340e-001

1.02811382665607e+004,-2.84947985529149e+001,-5.55457896861186e-001

1.04246576084112e+004,-2.84948050489612e+001,-5.63211272786871e-001

1.05701804056138e+004,-2.84948117275343e+001,-5.71072859429840e-001

1.07177346253629e+004,-2.84948185937600e+001,-5.79044166406562e-001

1.08673486252606e+004,-2.84948256529077e+001,-5.87126724366594e-001

1.10190511587661e+004,-2.84948329103948e+001,-5.95322085284118e-001

1.11728713807222e+004,-2.84948403717906e+001,-6.03631822754870e-001

1.13288388529580e+004,-2.84948480428203e+001,-6.12057532296514e-001

1.14869835499703e+004,-2.84948559293701e+001,-6.20600831650141e-001

1.16473358646846e+004,-2.84948640374907e+001,-6.29263361091913e-001

1.18099266142953e+004,-2.84948723734030e+001,-6.38046783742464e-001

1.19747870461893e+004,-2.84948809435021e+001,-6.46952785885270e-001

1.21419488439505e+004,-2.84948897543622e+001,-6.55983077288061e-001

1.23114441334492e+004,-2.84948988127419e+001,-6.65139391527411e-001

1.24833054890161e+004,-2.84949081255894e+001,-6.74423486318317e-001

1.26575659397028e+004,-2.84949177000473e+001,-6.83837143849736e-001

1.28342589756290e+004,-2.84949275434587e+001,-6.93382171123087e-001

1.30134185544193e+004,-2.84949376633723e+001,-7.03060400295235e-001

1.31950791077289e+004,-2.84949480675483e+001,-7.12873689027220e-001

1.33792755478611e+004,-2.84949587639644e+001,-7.22823920837784e-001

1.35660432744767e+004,-2.84949697608216e+001,-7.32913005459814e-001

1.37554181813974e+004,-2.84949810665508e+001,-7.43142879204684e-001

1.39474366635040e+004,-2.84949926898190e+001,-7.53515505328170e-001

1.41421356237309e+004,-2.84950046395358e+001,-7.64032874404484e-001

1.43395524801583e+004,-2.84950169248605e+001,-7.74697004702432e-001

1.45397251732031e+004,-2.84950295552087e+001,-7.85509942569648e-001

1.47426921729110e+004,-2.84950425402594e+001,-7.96473762819641e-001

1.49484924863494e+004,-2.84950558899631e+001,-8.07590569124526e-001

1.51571656651040e+004,-2.84950696145481e+001,-8.18862494414712e-001

1.53687518128801e+004,-2.84950837245296e+001,-8.30291701281620e-001

1.55832915932100e+004,-2.84950982307166e+001,-8.41880382387572e-001

1.58008262372675e+004,-2.84951131442206e+001,-8.53630760880590e-001

1.60213975517924e+004,-2.84951284764640e+001,-8.65545090814756e-001

1.62450479271247e+004,-2.84951442391887e+001,-8.77625657576205e-001

1.64718203453514e+004,-2.84951604444649e+001,-8.89874778313888e-001

1.67017583885674e+004,-2.84951771047004e+001,-9.02294802379343e-001

1.69349062472505e+004,-2.84951942326498e+001,-9.14888111768400e-001

1.71713087287550e+004,-2.84952118414243e+001,-9.27657121570323e-001

1.74110112659224e+004,-2.84952299445016e+001,-9.40604280424555e-001

1.76540599258131e+004,-2.84952485557358e+001,-9.53732070981476e-001

1.79005014185594e+004,-2.84952676893683e+001,-9.67043010369374e-001

1.81503831063432e+004,-2.84952873600383e+001,-9.80539650669297e-001

1.84037530124975e+004,-2.84953075827939e+001,-9.94224579394386e-001

1.86606598307361e+004,-2.84953283731032e+001,-1.00810041997671e+000

1.89211529345119e+004,-2.84953497468663e+001,-1.02216983226039e+000

1.91852823865052e+004,-2.84953717204273e+001,-1.03643551300080e+000

1.94530989482457e+004,-2.84953943105862e+001,-1.05090019637036e+000

1.97246540898671e+004,-2.84954175346118e+001,-1.06556665447207e+000

1.99999999999999e+004,-2.84954414102548e+001,-1.08043769785872e+000

2.02791895958005e+004,-2.84954659557608e+001,-1.09551617605894e+000

2.05622765331213e+004,-2.84954911898843e+001,-1.11080497811038e+000

2.08493152168224e+004,-2.84955171319025e+001,-1.12630703310110e+000

2.11403608112276e+004,-2.84955438016301e+001,-1.14202531071539e+000

2.14354692507258e+004,-2.84955712194338e+001,-1.15796282178931e+000

2.17346972505211e+004,-2.84955994062476e+001,-1.17412261887258e+000

2.20381023175322e+004,-2.84956283835885e+001,-1.19050779679660e+000

2.23457427614443e+004,-2.84956581735729e+001,-1.20712149325180e+000

2.26576777059159e+004,-2.84956887989327e+001,-1.22396688937059e+000

2.29739670999406e+004,-2.84957202830322e+001,-1.24104721032086e+000

2.32946717293690e+004,-2.84957526498859e+001,-1.25836572590265e+000

2.36198532285905e+004,-2.84957859241761e+001,-1.27592575115680e+000

2.39495740923785e+004,-2.84958201312715e+001,-1.29373064697796e+000

2.42838976879009e+004,-2.84958552972456e+001,-1.31178382073981e+000

2.46228882668982e+004,-2.84958914488969e+001,-1.33008872692200e+000

2.49666109780322e+004,-2.84959286137678e+001,-1.34864886775208e+000

2.53151318794055e+004,-2.84959668201658e+001,-1.36746779384918e+000

2.56685179512580e+004,-2.84960060971839e+001,-1.38654910488209e+000

2.60268371088386e+004,-2.84960464747228e+001,-1.40589645022908e+000

2.63901582154578e+004,-2.84960879835122e+001,-1.42551352965222e+000

2.67585510957221e+004,-2.84961306551340e+001,-1.44540409397616e+000

2.71320865489533e+004,-2.84961745220454e+001,-1.46557194577686e+000

2.75108363627948e+004,-2.84962196176031e+001,-1.48602094007848e+000

2.78948733270080e+004,-2.84962659760875e+001,-1.50675498505984e+000

2.82842712474618e+004,-2.84963136327277e+001,-1.52777804276928e+000

2.86791049603164e+004,-2.84963626237281e+001,-1.54909412984710e+000

2.90794503464061e+004,-2.84964129862942e+001,-1.57070731825939e+000

2.94853843458219e+004,-2.84964647586602e+001,-1.59262173603819e+000

2.98969849726987e+004,-2.84965179801169e+001,-1.61484156803367e+000

3.03143313302078e+004,-2.84965726910402e+001,-1.63737105667280e+000

3.07375036257601e+004,-2.84966289329209e+001,-1.66021450272853e+000

3.11665831864199e+004,-2.84966867483942e+001,-1.68337626609914e+000

3.16016524745350e+004,-2.84967461812717e+001,-1.70686076659348e+000

3.20427951035848e+004,-2.84968072765723e+001,-1.73067248473249e+000

3.24900958542493e+004,-2.84968700805551e+001,-1.75481596255195e+000

3.29436406907028e+004,-2.84969346407529e+001,-1.77929580442162e+000

3.34035167771346e+004,-2.84970010060066e+001,-1.80411667786988e+000

3.38698124945009e+004,-2.84970692265001e+001,-1.82928331442092e+000

3.43426174575100e+004,-2.84971393537967e+001,-1.85480051043949e+000

3.48220225318448e+004,-2.84972114408760e+001,-1.88067312798754e+000

3.53081198516260e+004,-2.84972855421716e+001,-1.90690609568948e+000

3.58010028371187e+004,-2.84973617136106e+001,-1.93350440960814e+000

3.63007662126863e+004,-2.84974400126530e+001,-1.96047313413012e+000

3.68075060249948e+004,-2.84975204983329e+001,-1.98781740286273e+000

3.73213196614721e+004,-2.84976032313003e+001,-2.01554241953985e+000

3.78423058690237e+004,-2.84976882738641e+001,-2.04365345893828e+000

3.83705647730104e+004,-2.84977756900366e+001,-2.07215586780481e+000

3.89061978964912e+004,-2.84978655455780e+001,-2.10105506579373e+000

3.94493081797342e+004,-2.84979579080432e+001,-2.13035654641472e+000

3.99999999999998e+004,-2.84980528468291e+001,-2.16006587799064e+000

4.05583791916010e+004,-2.84981504332234e+001,-2.19018870462713e+000

4.11245530662425e+004,-2.84982507404542e+001,-2.22073074719070e+000

4.16986304336447e+004,-2.84983538437409e+001,-2.25169780430069e+000

4.22807216224550e+004,-2.84984598203471e+001,-2.28309575332850e+000

4.28709385014515e+004,-2.84985687496336e+001,-2.31493055140972e+000

4.34693945010421e+004,-2.84986807131134e+001,-2.34720823646609e+000

4.40762046350642e+004,-2.84987957945082e+001,-2.37993492823884e+000

4.46914855228886e+004,-2.84989140798052e+001,-2.41311682933249e+000

4.53153554118317e+004,-2.84990356573171e+001,-2.44676022626925e+000

4.59479341998812e+004,-2.84991606177412e+001,-2.48087149055432e+000

4.65893434587380e+004,-2.84992890542220e+001,-2.51545707975280e+000

4.72397064571810e+004,-2.84994210624141e+001,-2.55052353857741e+000

4.78991481847569e+004,-2.84995567405469e+001,-2.58607749998501e+000

4.85677953758016e+004,-2.84996961894903e+001,-2.62212568628799e+000

4.92457765337964e+004,-2.84998395128233e+001,-2.65867491027241e+000

4.99332219560642e+004,-2.84999868169025e+001,-2.69573207633004e+000

5.06302637588109e+004,-2.85001382109332e+001,-2.73330418159981e+000

5.13370359025159e+004,-2.85002938070420e+001,-2.77139831712108e+000

5.20536742176771e+004,-2.85004537203505e+001,-2.81002166899686e+000

5.27803164309155e+004,-2.85006180690515e+001,-2.84918151956884e+000

5.35171021914442e+004,-2.85007869744859e+001,-2.88888524860294e+000

5.42641730979066e+004,-2.85009605612224e+001,-2.92914033448540e+000

5.50216727255895e+004,-2.85011389571379e+001,-2.96995435543059e+000

5.57897466540159e+004,-2.85013222935006e+001,-3.01133499069814e+000

5.65685424949235e+004,-2.85015107050539e+001,-3.05329002182326e+000

5.73582099206328e+004,-2.85017043301032e+001,-3.09582733385490e+000

5.81589006928121e+004,-2.85019033106036e+001,-3.13895491660734e+000

5.89707686916437e+004,-2.85021077922501e+001,-3.18268086592016e+000

5.97939699453972e+004,-2.85023179245691e+001,-3.22701338493087e+000

6.06286626604156e+004,-2.85025338610125e+001,-3.27196078535696e+000

6.14750072515201e+004,-2.85027557590532e+001,-3.31753148878838e+000

6.23331663728396e+004,-2.85029837802825e+001,-3.36373402799124e+000

6.32033049490698e+004,-2.85032180905101e+001,-3.41057704822170e+000

6.40855902071694e+004,-2.85034588598654e+001,-3.45806930855055e+000

6.49801917084985e+004,-2.85037062629011e+001,-3.50621968319665e+000

6.58872813814055e+004,-2.85039604786987e+001,-3.55503716287336e+000

6.68070335542691e+004,-2.85042216909765e+001,-3.60453085614239e+000

6.77396249890018e+004,-2.85044900881987e+001,-3.65470999077998e+000

6.86852349150199e+004,-2.85047658636878e+001,-3.70558391515228e+000

6.96440450636895e+004,-2.85050492157380e+001,-3.75716209960018e+000

7.06162397032520e+004,-2.85053403477314e+001,-3.80945413783581e+000

7.16020056742374e+004,-2.85056394682558e+001,-3.86246974834738e+000

7.26015324253724e+004,-2.85059467912251e+001,-3.91621877581567e+000

7.36150120499896e+004,-2.85062625360016e+001,-3.97071119253804e+000

7.46426393229441e+004,-2.85065869275203e+001,-4.02595709986443e+000

7.56846117380472e+004,-2.85069201964154e+001,-4.08196672964269e+000

7.67411295460207e+004,-2.85072625791493e+001,-4.13875044567267e+000

7.78123957929823e+004,-2.85076143181432e+001,-4.19631874517111e+000

7.88986163594682e+004,-2.85079756619104e+001,-4.25468226024599e+000

7.99999999999995e+004,-2.85083468651910e+001,-4.31385175938073e+000

8.11167583832018e+004,-2.85087281890896e+001,-4.37383814892794e+000

8.22491061324848e+004,-2.85091199012146e+001,-4.43465247461216e+000

8.33972608672892e+004,-2.85095222758197e+001,-4.49630592304480e+000

8.45614432449099e+004,-2.85099355939478e+001,-4.55880982324597e+000

8.57418770029029e+004,-2.85103601435768e+001,-4.62217564817856e+000

8.69387890020841e+004,-2.85107962197673e+001,-4.68641501629053e+000

8.81524092701283e+004,-2.85112441248130e+001,-4.75153969306868e+000

8.93829710457770e+004,-2.85117041683925e+001,-4.81756159260189e+000

9.06307108236633e+004,-2.85121766677239e+001,-4.88449277915465e+000

9.18958683997622e+004,-2.85126619477205e+001,-4.95234546875156e+000

9.31786869174758e+004,-2.85131603411501e+001,-5.02113203077188e+000

9.44794129143618e+004,-2.85136721887941e+001,-5.09086498955571e+000

9.57982963695136e+004,-2.85141978396110e+001,-5.16155702602072e+000

9.71355907516031e+004,-2.85147376509001e+001,-5.23322097929058e+000

9.84915530675926e+004,-2.85152919884680e+001,-5.30586984833530e+000

9.98664439121282e+004,-2.85158612267972e+001,-5.37951679362323e+000

1.01260527517622e+005,-2.85164457492158e+001,-5.45417513878604e+000

1.02674071805032e+005,-2.85170459480701e+001,-5.52985837229614e+000

1.04107348435354e+005,-2.85176622248986e+001,-5.60658014915802e+000

1.05560632861831e+005,-2.85182949906080e+001,-5.68435429261292e+000

1.07034204382888e+005,-2.85189446656508e+001,-5.76319479585818e+000

1.08528346195813e+005,-2.85196116802054e+001,-5.84311582378224e+000

1.10043345451179e+005,-2.85202964743575e+001,-5.92413171471424e+000

1.11579493308032e+005,-2.85209994982835e+001,-6.00625698219101e+000

1.13137084989847e+005,-2.85217212124358e+001,-6.08950631674097e+000

1.14716419841265e+005,-2.85224620877303e+001,-6.17389458768591e+000

1.16317801385624e+005,-2.85232226057347e+001,-6.25943684496185e+000

1.17941537383287e+005,-2.85240032588602e+001,-6.34614832096036e+000

1.19587939890794e+005,-2.85248045505537e+001,-6.43404443238914e+000

1.21257325320831e+005,-2.85256269954927e+001,-6.52314078215622e+000

1.22950014503040e+005,-2.85264711197821e+001,-6.61345316127703e+000

1.24666332745679e+005,-2.85273374611526e+001,-6.70499755080452e+000

1.26406609898139e+005,-2.85282265691617e+001,-6.79779012378619e+000

1.28171180414339e+005,-2.85291390053962e+001,-6.89184724724688e+000

1.29960383416997e+005,-2.85300753436777e+001,-6.98718548420132e+000

1.31774562762811e+005,-2.85310361702694e+001,-7.08382159569432e+000

1.33614067108538e+005,-2.85320220840864e+001,-7.18177254287420e+000

1.35479249978003e+005,-2.85330336969074e+001,-7.28105548909740e+000

1.37370469830040e+005,-2.85340716335898e+001,-7.38168780206863e+000

1.39288090127379e+005,-2.85351365322876e+001,-7.48368705601657e+000

1.41232479406504e+005,-2.85362290446717e+001,-7.58707103390735e+000

1.43204011348474e+005,-2.85373498361540e+001,-7.69185772969835e+000

1.45203064850745e+005,-2.85384995861147e+001,-7.79806535063208e+000

1.47230024099979e+005,-2.85396789881330e+001,-7.90571231957521e+000

1.49285278645888e+005,-2.85408887502219e+001,-8.01481727740075e+000

1.51369223476094e+005,-2.85421295950674e+001,-8.12539908541968e+000

1.53482259092041e+005,-2.85434022602717e+001,-8.23747682785911e+000

1.55624791585964e+005,-2.85447074986021e+001,-8.35106981439309e+000

1.57797232718936e+005,-2.85460460782439e+001,-8.46619758272617e+000

1.59999999999999e+005,-2.85474187830605e+001,-8.58287990123109e+000

1.62233516766403e+005,-2.85488264128581e+001,-8.70113677164378e+000

1.64498212264969e+005,-2.85502697836581e+001,-8.82098843181618e+000

1.66794521734578e+005,-2.85517497279764e+001,-8.94245535853038e+000

1.69122886489819e+005,-2.85532670951096e+001,-9.06555827037362e+000

1.71483754005805e+005,-2.85548227514305e+001,-9.19031813067810e+000

1.73877578004168e+005,-2.85564175806919e+001,-9.31675615052465e+000

1.76304818540256e+005,-2.85580524843399e+001,-9.44489379181423e+000

1.78765942091554e+005,-2.85597283818380e+001,-9.57475277040603e+000

1.81261421647326e+005,-2.85614462110015e+001,-9.70635505932502e+000

1.83791736799524e+005,-2.85632069283443e+001,-9.83972289203933e+000

1.86357373834951e+005,-2.85650115094377e+001,-9.97487876580782e+000

1.88958825828723e+005,-2.85668609492837e+001,-1.01118454450981e+001

1.91596592739027e+005,-2.85687562627016e+001,-1.02506459650763e+001

1.94271181503206e+005,-2.85706984847306e+001,-1.03913036351672e+001

1.96983106135185e+005,-2.85726886710487e+001,-1.05338420426851e+001

1.99732887824256e+005,-2.85747278984086e+001,-1.06782850565344e+001

2.02521055035243e+005,-2.85768172650928e+001,-1.08246568309786e+001

2.05348143610063e+005,-2.85789578913873e+001,-1.09729818094770e+001

2.08214696870707e+005,-2.85811509200763e+001,-1.11232847285855e+001

2.11121265723661e+005,-2.85833975169593e+001,-1.12755906219216e+001

2.14068408765776e+005,-2.85856988713900e+001,-1.14299248241886e+001

2.17056692391625e+005,-2.85880561968403e+001,-1.15863129752564e+001

2.20086690902357e+005,-2.85904707314893e+001,-1.17447810242958e+001

2.23158986616063e+005,-2.85929437388386e+001,-1.19053552339606e+001

2.26274169979693e+005,-2.85954765083565e+001,-1.20680621846137e+001

2.29432839682530e+005,-2.85980703561497e+001,-1.22329287785910e+001

2.32635602771247e+005,-2.86007266256666e+001,-1.23999822444969e+001

2.35883074766574e+005,-2.86034466884313e+001,-1.25692501415256e+001

2.39175879781588e+005,-2.86062319448112e+001,-1.27407603637996e+001

2.42514650641661e+005,-2.86090838248173e+001,-1.29145411447175e+001

2.45900029006080e+005,-2.86120037889411e+001,-1.30906210613038e+001

2.49332665491357e+005,-2.86149933290263e+001,-1.32690290385496e+001

2.52813219796278e+005,-2.86180539691790e+001,-1.34497943537347e+001

2.56342360828676e+005,-2.86211872667154e+001,-1.36329466407208e+001

2.59920766833993e+005,-2.86243948131497e+001,-1.38185158942045e+001

2.63549125525621e+005,-2.86276782352215e+001,-1.40065324739173e+001

2.67228134217075e+005,-2.86310391959650e+001,-1.41970271087605e+001

2.70958499956006e+005,-2.86344793958200e+001,-1.43900309008611e+001

2.74740939660078e+005,-2.86380005737852e+001,-1.45855753295363e+001

2.78576180254757e+005,-2.86416045086153e+001,-1.47836922551494e+001

2.82464958813007e+005,-2.86452930200615e+001,-1.49844139228452e+001

2.86408022696948e+005,-2.86490679701563e+001,-1.51877729661463e+001

2.90406129701488e+005,-2.86529312645429e+001,-1.53938024103956e+001

2.94460048199957e+005,-2.86568848538485e+001,-1.56025356760295e+001

2.98570557291775e+005,-2.86609307351036e+001,-1.58140065816616e+001

3.02738446952187e+005,-2.86650709532042e+001,-1.60282493469631e+001

3.06964518184081e+005,-2.86693076024193e+001,-1.62452985953189e+001

3.11249583171928e+005,-2.86736428279427e+001,-1.64651893562444e+001

3.15594465437872e+005,-2.86780788274866e+001,-1.66879570675424e+001

3.19999999999997e+005,-2.86826178529197e+001,-1.69136375771823e+001

3.24467033532806e+005,-2.86872622119456e+001,-1.71422671448843e+001

3.28996424529938e+005,-2.86920142698235e+001,-1.73738824433882e+001

3.33589043469155e+005,-2.86968764511271e+001,-1.76085205593895e+001

3.38245772979638e+005,-2.87018512415432e+001,-1.78462189941235e+001

3.42967508011610e+005,-2.87069411897061e+001,-1.80870156635806e+001

3.47755156008335e+005,-2.87121489090679e+001,-1.83309488983320e+001

3.52609637080511e+005,-2.87174770798022e+001,-1.85780574429507e+001

3.57531884183106e+005,-2.87229284507387e+001,-1.88283804550089e+001

3.62522843294651e+005,-2.87285058413276e+001,-1.90819575036342e+001

3.67583473599047e+005,-2.87342121436312e+001,-1.93388285676092e+001

3.72714747669902e+005,-2.87400503243396e+001,-1.95990340329973e+001

3.77917651657445e+005,-2.87460234268089e+001,-1.98626146902799e+001

3.83193185478053e+005,-2.87521345731185e+001,-2.01296117309887e+001

3.88542363006410e+005,-2.87583869661449e+001,-2.04000667438208e+001

3.93966212270369e+005,-2.87647838916490e+001,-2.06740217102201e+001

3.99465775648511e+005,-2.87713287203741e+001,-2.09515189994153e+001

4.05042110070485e+005,-2.87780249101504e+001,-2.12326013629000e+001

4.10696287220124e+005,-2.87848760080040e+001,-2.15173119283446e+001

4.16429393741414e+005,-2.87918856522661e+001,-2.18056941929289e+001

4.22242531447321e+005,-2.87990575746782e+001,-2.20977920160872e+001

4.28136817531551e+005,-2.88063956024919e+001,-2.23936496116558e+001

4.34113384783250e+005,-2.88139036605572e+001,-2.26933115394156e+001

4.40173381804713e+005,-2.88215857733964e+001,-2.29968226960229e+001

4.46317973232124e+005,-2.88294460672600e+001,-2.33042283053233e+001

4.52548339959385e+005,-2.88374887721607e+001,-2.36155739080426e+001

4.58865679365059e+005,-2.88457182238803e+001,-2.39309053508509e+001

4.65271205542494e+005,-2.88541388659473e+001,-2.42502687747986e+001

4.71766149533147e+005,-2.88627552515789e+001,-2.45737106031190e+001

4.78351759563174e+005,-2.88715720455857e+001,-2.49012775284005e+001

4.85029301283321e+005,-2.88805940262322e+001,-2.52330164991238e+001

4.91800058012158e+005,-2.88898260870509e+001,-2.55689747055699e+001

4.98665330982714e+005,-2.88992732386049e+001,-2.59091995650964e+001

5.05626439592555e+005,-2.89089406101946e+001,-2.62537387067871e+001

5.12684721657352e+005,-2.89188334515037e+001,-2.66026399554791e+001

5.19841533667984e+005,-2.89289571341815e+001,-2.69559513151714e+001

5.27098251051240e+005,-2.89393171533551e+001,-2.73137209518195e+001

5.34456268434150e+005,-2.89499191290692e+001,-2.76759971755268e+001

5.41916999912011e+005,-2.89607688076462e+001,-2.80428284221356e+001

