Freq.,VOut,OutRef

1.00000000000000e+004,-2.05473525656858e+001,-4.01987533679535e-001

1.01395947979003e+004,-2.05473559258069e+001,-4.07598750816077e-001

1.02811382665607e+004,-2.05473593803286e+001,-4.13288284059046e-001

1.04246576084112e+004,-2.05473629319010e+001,-4.19057226084927e-001

1.05701804056138e+004,-2.05473665832487e+001,-4.24906684799938e-001

1.07177346253629e+004,-2.05473703371727e+001,-4.30837783549110e-001

1.08673486252606e+004,-2.05473741965523e+001,-4.36851661334604e-001

1.10190511587661e+004,-2.05473781643476e+001,-4.42949473028234e-001

1.11728713807222e+004,-2.05473822436017e+001,-4.49132389597125e-001

1.13288388529580e+004,-2.05473864374430e+001,-4.55401598321912e-001

1.14869835499703e+004,-2.05473907490874e+001,-4.61758303027831e-001

1.16473358646846e+004,-2.05473951818412e+001,-4.68203724311170e-001

1.18099266142953e+004,-2.05473997391029e+001,-4.74739099773377e-001

1.19747870461893e+004,-2.05474044243664e+001,-4.81365684258358e-001

1.21419488439505e+004,-2.05474092412238e+001,-4.88084750086386e-001

1.23114441334492e+004,-2.05474141933670e+001,-4.94897587304836e-001

1.24833054890161e+004,-2.05474192845923e+001,-5.01805503925157e-001

1.26575659397028e+004,-2.05474245188013e+001,-5.08809826179607e-001

1.28342589756290e+004,-2.05474299000055e+001,-5.15911898768427e-001

1.30134185544193e+004,-2.05474354323283e+001,-5.23113085118957e-001

1.31950791077289e+004,-2.05474411200089e+001,-5.30414767642511e-001

1.33792755478611e+004,-2.05474469674049e+001,-5.37818348000532e-001

1.35660432744767e+004,-2.05474529789957e+001,-5.45325247369037e-001

1.37554181813974e+004,-2.05474591593864e+001,-5.52936906708595e-001

1.39474366635040e+004,-2.05474655133106e+001,-5.60654787039847e-001

1.41421356237309e+004,-2.05474720456343e+001,-5.68480369721378e-001

1.43395524801583e+004,-2.05474787613599e+001,-5.76415156728024e-001

1.45397251732031e+004,-2.05474856656293e+001,-5.84460670940227e-001

1.47426921729110e+004,-2.05474927637286e+001,-5.92618456429771e-001

1.49484924863494e+004,-2.05475000610911e+001,-6.00890078755640e-001

1.51571656651040e+004,-2.05475075633026e+001,-6.09277125258647e-001

1.53687518128801e+004,-2.05475152761044e+001,-6.17781205364588e-001

1.55832915932100e+004,-2.05475232053986e+001,-6.26403950888120e-001

1.58008262372675e+004,-2.05475313572521e+001,-6.35147016341775e-001

1.60213975517924e+004,-2.05475397379012e+001,-6.44012079250038e-001

1.62450479271247e+004,-2.05475483537562e+001,-6.53000840468674e-001

1.64718203453514e+004,-2.05475572114067e+001,-6.62115024502280e-001

1.67017583885674e+004,-2.05475663176261e+001,-6.71356379835801e-001

1.69349062472505e+004,-2.05475756793768e+001,-6.80726679260672e-001

1.71713087287550e+004,-2.05475853038155e+001,-6.90227720213870e-001

1.74110112659224e+004,-2.05475951982985e+001,-6.99861325115042e-001

1.76540599258131e+004,-2.05476053703874e+001,-7.09629341710883e-001

1.79005014185594e+004,-2.05476158278546e+001,-7.19533643425125e-001

1.81503831063432e+004,-2.05476265786891e+001,-7.29576129711966e-001

1.84037530124975e+004,-2.05476376311029e+001,-7.39758726412508e-001

1.86606598307361e+004,-2.05476489935363e+001,-7.50083386120672e-001

1.89211529345119e+004,-2.05476606746650e+001,-7.60552088549053e-001

1.91852823865052e+004,-2.05476726834066e+001,-7.71166840900567e-001

1.94530989482457e+004,-2.05476850289266e+001,-7.81929678250247e-001

1.97246540898671e+004,-2.05476977206458e+001,-7.92842663923875e-001

1.99999999999999e+004,-2.05477107682472e+001,-8.03907889888042e-001

2.02791895958005e+004,-2.05477241816831e+001,-8.15127477143105e-001

2.05622765331213e+004,-2.05477379711827e+001,-8.26503576119414e-001

2.08493152168224e+004,-2.05477521472595e+001,-8.38038367083791e-001

2.11403608112276e+004,-2.05477667207194e+001,-8.49734060545996e-001

2.14354692507258e+004,-2.05477817026684e+001,-8.61592897673906e-001

2.17346972505211e+004,-2.05477971045211e+001,-8.73617150712451e-001

2.20381023175322e+004,-2.05478129380089e+001,-8.85809123410451e-001

2.23457427614443e+004,-2.05478292151891e+001,-8.98171151448216e-001

2.26576777059159e+004,-2.05478459484533e+001,-9.10705602877813e-001

2.29739670999406e+004,-2.05478631505372e+001,-9.23414878561063e-001

2.32946717293690e+004,-2.05478808345292e+001,-9.36301412620821e-001

2.36198532285905e+004,-2.05478990138809e+001,-9.49367672892729e-001

2.39495740923785e+004,-2.05479177024161e+001,-9.62616161385705e-001

2.42838976879009e+004,-2.05479369143420e+001,-9.76049414745702e-001

2.46228882668982e+004,-2.05479566642586e+001,-9.89670004730153e-001

2.49666109780322e+004,-2.05479769671703e+001,-1.00348053868273e+000

2.53151318794055e+004,-2.05479978384963e+001,-1.01748366001894e+000

2.56685179512580e+004,-2.05480192940820e+001,-1.03168204871575e+000

2.60268371088386e+004,-2.05480413502110e+001,-1.04607842180751e+000

2.63901582154578e+004,-2.05480640236163e+001,-1.06067553388884e+000

2.67585510957221e+004,-2.05480873314930e+001,-1.07547617762357e+000

2.71320865489533e+004,-2.05481112915107e+001,-1.09048318426032e+000

2.75108363627948e+004,-2.05481359218261e+001,-1.10569942415499e+000

2.78948733270080e+004,-2.05481612410965e+001,-1.12112780729952e+000

2.82842712474618e+004,-2.05481872684931e+001,-1.13677128385571e+000

2.86791049603164e+004,-2.05482140237150e+001,-1.15263284470010e+000

2.90794503464061e+004,-2.05482415270033e+001,-1.16871552197059e+000

2.94853843458219e+004,-2.05482697991556e+001,-1.18502238962349e+000

2.98969849726987e+004,-2.05482988615411e+001,-1.20155656399637e+000

3.03143313302078e+004,-2.05483287361161e+001,-1.21832120437712e+000

3.07375036257601e+004,-2.05483594454392e+001,-1.23531951358123e+000

3.11665831864199e+004,-2.05483910126880e+001,-1.25255473853671e+000

3.16016524745350e+004,-2.05484234616753e+001,-1.27003017087314e+000

3.20427951035848e+004,-2.05484568168659e+001,-1.28774914752327e+000

3.24900958542493e+004,-2.05484911033945e+001,-1.30571505132598e+000

3.29436406907028e+004,-2.05485263470832e+001,-1.32393131164118e+000

3.34035167771346e+004,-2.05485625744595e+001,-1.34240140496999e+000

3.38698124945009e+004,-2.05485998127755e+001,-1.36112885558346e+000

3.43426174575100e+004,-2.05486380900267e+001,-1.38011723615854e+000

3.48220225318448e+004,-2.05486774349719e+001,-1.39937016841996e+000

3.53081198516260e+004,-2.05487178771531e+001,-1.41889132379357e+000

3.58010028371187e+004,-2.05487594469163e+001,-1.43868442406409e+000

3.63007662126863e+004,-2.05488021754326e+001,-1.45875324204232e+000

3.68075060249948e+004,-2.05488460947197e+001,-1.47910160223995e+000

3.73213196614721e+004,-2.05488912376642e+001,-1.49973338155204e+000

3.78423058690237e+004,-2.05489376380444e+001,-1.52065250994719e+000

3.83705647730104e+004,-2.05489853305531e+001,-1.54186297116772e+000

3.89061978964912e+004,-2.05490343508219e+001,-1.56336880343472e+000

3.94493081797342e+004,-2.05490847354455e+001,-1.58517410016439e+000

3.99999999999998e+004,-2.05491365220059e+001,-1.60728301069139e+000

4.05583791916010e+004,-2.05491897490992e+001,-1.62969974099900e+000

4.11245530662425e+004,-2.05492444563606e+001,-1.65242855446067e+000

4.16986304336447e+004,-2.05493006844916e+001,-1.67547377258674e+000

4.22807216224550e+004,-2.05493584752872e+001,-1.69883977578241e+000

4.28709385014515e+004,-2.05494178716641e+001,-1.72253100411248e+000

4.34693945010421e+004,-2.05494789176890e+001,-1.74655195807450e+000

4.40762046350642e+004,-2.05495416586080e+001,-1.77090719938233e+000

4.46914855228886e+004,-2.05496061408763e+001,-1.79560135175518e+000

4.53153554118317e+004,-2.05496724121891e+001,-1.82063910171918e+000

4.59479341998812e+004,-2.05497405215127e+001,-1.84602519941406e+000

4.65893434587380e+004,-2.05498105191162e+001,-1.87176445941124e+000

4.72397064571810e+004,-2.05498824566045e+001,-1.89786176153873e+000

4.78991481847569e+004,-2.05499563869514e+001,-1.92432205171627e+000

4.85677953758016e+004,-2.05500323645337e+001,-1.95115034279879e+000

4.92457765337964e+004,-2.05501104451658e+001,-1.97835171542879e+000

4.99332219560642e+004,-2.05501906861356e+001,-2.00593131889689e+000

5.06302637588109e+004,-2.05502731462402e+001,-2.03389437201341e+000

5.13370359025159e+004,-2.05503578858235e+001,-2.06224616398611e+000

5.20536742176771e+004,-2.05504449668132e+001,-2.09099205530946e+000

5.27803164309155e+004,-2.05505344527600e+001,-2.12013747866151e+000

5.35171021914442e+004,-2.05506264088764e+001,-2.14968793981068e+000

5.42641730979066e+004,-2.05507209020770e+001,-2.17964901853023e+000

5.50216727255895e+004,-2.05508180010191e+001,-2.21002636952361e+000

5.57897466540159e+004,-2.05509177761443e+001,-2.24082572335865e+000

5.65685424949235e+004,-2.05510202997214e+001,-2.27205288740872e+000

5.73582099206328e+004,-2.05511256458885e+001,-2.30371374680739e+000

5.81589006928121e+004,-2.05512338906984e+001,-2.33581426540697e+000

5.89707686916437e+004,-2.05513451121621e+001,-2.36836048675116e+000

5.97939699453972e+004,-2.05514593902952e+001,-2.40135853505391e+000

6.06286626604156e+004,-2.05515768071637e+001,-2.43481461618864e+000

6.14750072515201e+004,-2.05516974469318e+001,-2.46873501868663e+000

6.23331663728396e+004,-2.05518213959091e+001,-2.50312611474527e+000

6.32033049490698e+004,-2.05519487426002e+001,-2.53799436124443e+000

6.40855902071694e+004,-2.05520795777538e+001,-2.57334630077326e+000

6.49801917084985e+004,-2.05522139944129e+001,-2.60918856266620e+000

6.58872813814055e+004,-2.05523520879665e+001,-2.64552786404808e+000

6.68070335542691e+004,-2.05524939562009e+001,-2.68237101088937e+000

6.77396249890018e+004,-2.05526396993529e+001,-2.71972489906966e+000

6.86852349150199e+004,-2.05527894201631e+001,-2.75759651545190e+000

6.96440450636895e+004,-2.05529432239300e+001,-2.79599293896663e+000

7.06162397032520e+004,-2.05531012185651e+001,-2.83492134170328e+000

7.16020056742374e+004,-2.05532635146486e+001,-2.87438899001481e+000

7.26015324253724e+004,-2.05534302254854e+001,-2.91440324562882e+000

7.36150120499896e+004,-2.05536014671631e+001,-2.95497156676993e+000

7.46426393229441e+004,-2.05537773586088e+001,-2.99610150929297e+000

7.56846117380472e+004,-2.05539580216483e+001,-3.03780072782338e+000

7.67411295460207e+004,-2.05541435810648e+001,-3.08007697691072e+000

7.78123957929823e+004,-2.05543341646584e+001,-3.12293811219049e+000

7.88986163594682e+004,-2.05545299033074e+001,-3.16639209155555e+000

7.99999999999995e+004,-2.05547309310280e+001,-3.21044697634072e+000

8.11167583832018e+004,-2.05549373850366e+001,-3.25511093251414e+000

8.22491061324848e+004,-2.05551494058112e+001,-3.30039223188249e+000

8.33972608672892e+004,-2.05553671371542e+001,-3.34629925330517e+000

8.45614432449099e+004,-2.05555907262554e+001,-3.39284048391967e+000

8.57418770029029e+004,-2.05558203237548e+001,-3.44002452037820e+000

8.69387890020841e+004,-2.05560560838068e+001,-3.48786007009628e+000

8.81524092701283e+004,-2.05562981641443e+001,-3.53635595251209e+000

8.93829710457770e+004,-2.05565467261425e+001,-3.58552110035772e+000

9.06307108236633e+004,-2.05568019348843e+001,-3.63536456094273e+000

9.18958683997622e+004,-2.05570639592246e+001,-3.68589549745080e+000

9.31786869174758e+004,-2.05573329718558e+001,-3.73712319024681e+000

9.44794129143618e+004,-2.05576091493724e+001,-3.78905703820047e+000

9.57982963695136e+004,-2.05578926723372e+001,-3.84170656002016e+000

9.71355907516031e+004,-2.05581837253457e+001,-3.89508139560254e+000

9.84915530675926e+004,-2.05584824970921e+001,-3.94919130739575e+000

9.98664439121282e+004,-2.05587891804347e+001,-4.00404618177721e+000

1.01260527517622e+005,-2.05591039724603e+001,-4.05965603044769e+000

1.02674071805032e+005,-2.05594270745502e+001,-4.11603099184053e+000

1.04107348435354e+005,-2.05597586924445e+001,-4.17318133254683e+000

1.05560632861831e+005,-2.05600990363072e+001,-4.23111744875876e+000

1.07034204382888e+005,-2.05604483207899e+001,-4.28984986773057e+000

1.08528346195813e+005,-2.05608067650967e+001,-4.34938924925665e+000

1.10043345451179e+005,-2.05611745930471e+001,-4.40974638717142e+000

1.11579493308032e+005,-2.05615520331395e+001,-4.47093221086692e+000

1.13137084989847e+005,-2.05619393186140e+001,-4.53295778683288e+000

1.14716419841265e+005,-2.05623366875146e+001,-4.59583432021815e+000

1.16317801385624e+005,-2.05627443827510e+001,-4.65957315641516e+000

1.17941537383287e+005,-2.05631626521593e+001,-4.72418578266873e+000

1.19587939890794e+005,-2.05635917485632e+001,-4.78968382970937e+000

1.21257325320831e+005,-2.05640319298334e+001,-4.85607907341342e+000

1.22950014503040e+005,-2.05644834589468e+001,-4.92338343649018e+000

1.24666332745679e+005,-2.05649466040456e+001,-4.99160899019828e+000

1.26406609898139e+005,-2.05654216384947e+001,-5.06076795609227e+000

1.28171180414339e+005,-2.05659088409392e+001,-5.13087270780008e+000

1.29960383416997e+005,-2.05664084953610e+001,-5.20193577283421e+000

1.31774562762811e+005,-2.05669208911347e+001,-5.27396983443745e+000

1.33614067108538e+005,-2.05674463230831e+001,-5.34698773346478e+000

1.35479249978003e+005,-2.05679850915318e+001,-5.42100247030289e+000

1.37370469830040e+005,-2.05685375023639e+001,-5.49602720682977e+000

1.39288090127379e+005,-2.05691038670734e+001,-5.57207526841515e+000

1.41232479406504e+005,-2.05696845028191e+001,-5.64916014596531e+000

1.43204011348474e+005,-2.05702797324777e+001,-5.72729549801197e+000

1.45203064850745e+005,-2.05708898846969e+001,-5.80649515284867e+000

1.47230024099979e+005,-2.05715152939485e+001,-5.88677311071710e+000

1.49285278645888e+005,-2.05721563005817e+001,-5.96814354604401e+000

1.51369223476094e+005,-2.05728132508763e+001,-6.05062080973088e+000

1.53482259092041e+005,-2.05734864970973e+001,-6.13421943150072e+000

1.55624791585964e+005,-2.05741763975490e+001,-6.21895412230163e+000

1.57797232718936e+005,-2.05748833166308e+001,-6.30483977676975e+000

1.59999999999999e+005,-2.05756076248942e+001,-6.39189147575559e+000

1.62233516766403e+005,-2.05763496991011e+001,-6.48012448891333e+000

1.64498212264969e+005,-2.05771099222835e+001,-6.56955427735812e+000

1.66794521734578e+005,-2.05778886838062e+001,-6.66019649639082e+000

1.69122886489819e+005,-2.05786863794308e+001,-6.75206699829424e+000

1.71483754005805e+005,-2.05795034113840e+001,-6.84518183520334e+000

1.73877578004168e+005,-2.05803401884281e+001,-6.93955726204859e+000

1.76304818540256e+005,-2.05811971259352e+001,-7.03520973957866e+000

1.78765942091554e+005,-2.05820746459670e+001,-7.13215593746167e+000

1.81261421647326e+005,-2.05829731773573e+001,-7.23041273746731e+000

1.83791736799524e+005,-2.05838931558018e+001,-7.32999723673155e+000

1.86357373834951e+005,-2.05848350239524e+001,-7.43092675110781e+000

1.88958825828723e+005,-2.05857992315185e+001,-7.53321881860248e+000

1.91596592739027e+005,-2.05867862353757e+001,-7.63689120289833e+000

1.94271181503206e+005,-2.05877964996816e+001,-7.74196189696788e+000

1.96983106135185e+005,-2.05888304960012e+001,-7.84844912677575e+000

1.99732887824256e+005,-2.05898887034401e+001,-7.95637135507166e+000

2.02521055035243e+005,-2.05909716087895e+001,-8.06574728527533e+000

2.05348143610063e+005,-2.05920797066803e+001,-8.17659586545313e+000

2.08214696870707e+005,-2.05932134997500e+001,-8.28893629238578e+000

2.11121265723661e+005,-2.05943734988220e+001,-8.40278801572929e+000

2.14068408765776e+005,-2.05955602230973e+001,-8.51817074226551e+000

2.17056692391625e+005,-2.05967742003621e+001,-8.63510444024477e+000

2.20086690902357e+005,-2.05980159672088e+001,-8.75360934381666e+000

2.23158986616063e+005,-2.05992860692747e+001,-8.87370595754981e+000

2.26274169979693e+005,-2.06005850614965e+001,-8.99541506103715e+000

2.29432839682530e+005,-2.06019135083836e+001,-9.11875771358617e+000

2.32635602771247e+005,-2.06032719843102e+001,-9.24375525898907e+000

2.35883074766574e+005,-2.06046610738269e+001,-9.37042933037323e+000

2.39175879781588e+005,-2.06060813719940e+001,-9.49880185512535e+000

2.42514650641661e+005,-2.06075334847354e+001,-9.62889505988782e+000

2.45900029006080e+005,-2.06090180292172e+001,-9.76073147562115e+000

2.49332665491357e+005,-2.06105356342478e+001,-9.89433394272977e+000

2.52813219796278e+005,-2.06120869407045e+001,-1.00297256162442e+001

2.56342360828676e+005,-2.06136726019847e+001,-1.01669299710560e+001

2.59920766833993e+005,-2.06152932844837e+001,-1.03059708071962e+001

2.63549125525621e+005,-2.06169496680997e+001,-1.04468722551559e+001

2.67228134217075e+005,-2.06186424467672e+001,-1.05896587812367e+001

2.70958499956006e+005,-2.06203723290189e+001,-1.07343551929274e+001

2.74740939660078e+005,-2.06221400385769e+001,-1.08809866442979e+001

2.78576180254757e+005,-2.06239463149748e+001,-1.10295786414022e+001

2.82464958813007e+005,-2.06257919142098e+001,-1.11801570476823e+001

2.86408022696948e+005,-2.06276776094266e+001,-1.13327480893640e+001

2.90406129701488e+005,-2.06296041916331e+001,-1.14873783608360e+001

2.94460048199957e+005,-2.06315724704478e+001,-1.16440748300020e+001

2.98570557291775e+005,-2.06335832748807e+001,-1.18028648435961e+001

3.02738446952187e+005,-2.06356374541456e+001,-1.19637761324534e+001

3.06964518184081e+005,-2.06377358785071e+001,-1.21268368167222e+001

3.11249583171928e+005,-2.06398794401593e+001,-1.22920754110111e+001

3.15594465437872e+005,-2.06420690541379e+001,-1.24595208294576e+001

3.19999999999997e+005,-2.06443056592658e+001,-1.26292023907094e+001

3.24467033532806e+005,-2.06465902191314e+001,-1.28011498228064e+001

3.28996424529938e+005,-2.06489237230989e+001,-1.29753932679549e+001

3.33589043469155e+005,-2.06513071873518e+001,-1.31519632871792e+001

3.38245772979638e+005,-2.06537416559674e+001,-1.33308908648454e+001

3.42967508011610e+005,-2.06562282020235e+001,-1.35122074130409e+001

3.47755156008335e+005,-2.06587679287352e+001,-1.36959447758052e+001

3.52609637080511e+005,-2.06613619706219e+001,-1.38821352331964e+001

3.57531884183106e+005,-2.06640114947039e+001,-1.40708115051865e+001

3.62522843294651e+005,-2.06667177017275e+001,-1.42620067553750e+001

3.67583473599047e+005,-2.06694818274169e+001,-1.44557545945100e+001

3.72714747669902e+005,-2.06723051437537e+001,-1.46520890838103e+001

3.77917651657445e+005,-2.06751889602817e+001,-1.48510447380753e+001

3.83193185478053e+005,-2.06781346254355e+001,-1.50526565285787e+001

3.88542363006410e+005,-2.06811435278928e+001,-1.52569598857347e+001

3.93966212270369e+005,-2.06842170979493e+001,-1.54639907015291e+001

3.99465775648511e+005,-2.06873568089130e+001,-1.56737853317101e+001

4.05042110070485e+005,-2.06905641785193e+001,-1.58863805977279e+001

4.10696287220124e+005,-2.06938407703635e+001,-1.61018137884216e+001

4.16429393741414e+005,-2.06971881953501e+001,-1.63201226614416e+001

4.22242531447321e+005,-2.07006081131576e+001,-1.65413454444058e+001

4.28136817531551e+005,-2.07041022337169e+001,-1.67655208357829e+001

4.34113384783250e+005,-2.07076723187025e+001,-1.69926880054977e+001

4.40173381804713e+005,-2.07113201830345e+001,-1.72228865952536e+001

4.46317973232124e+005,-2.07150476963903e+001,-1.74561567185688e+001

4.52548339959385e+005,-2.07188567847242e+001,-1.76925389605221e+001

4.58865679365059e+005,-2.07227494317937e+001,-1.79320743772050e+001

4.65271205542494e+005,-2.07267276806913e+001,-1.81748044948756e+001

4.71766149533147e+005,-2.07307936353797e+001,-1.84207713088140e+001

4.78351759563174e+005,-2.07349494622296e+001,-1.86700172818733e+001

4.85029301283321e+005,-2.07391973915581e+001,-1.89225853427275e+001

4.91800058012158e+005,-2.07435397191675e+001,-1.91785188838096e+001

4.98665330982714e+005,-2.07479788078811e+001,-1.94378617589426e+001

5.05626439592555e+005,-2.07525170890766e+001,-1.97006582806573e+001

5.12684721657352e+005,-2.07571570642150e+001,-1.99669532171976e+001

5.19841533667984e+005,-2.07619013063633e+001,-2.02367917892099e+001

5.27098251051240e+005,-2.07667524617104e+001,-2.05102196661165e+001

5.34456268434150e+005,-2.07717132510737e+001,-2.07872829621687e+001

5.41916999912011e+005,-2.07767864713975e+001,-2.10680282321800e+001

