Freq.,VOut,OutRef

1.00000000000000e+004,-6.74250529897756e+000,-1.18934930652002e-001

1.01395947979003e+004,-6.74250553540008e+000,-1.20595139357151e-001

1.02811382665607e+004,-6.74250577845565e+000,-1.22278521121950e-001

1.04246576084112e+004,-6.74250602833023e+000,-1.23985399318973e-001

1.05701804056138e+004,-6.74250628521444e+000,-1.25716101833334e-001

1.07177346253629e+004,-6.74250654930443e+000,-1.27470961121240e-001

1.08673486252606e+004,-6.74250682080208e+000,-1.29250314272589e-001

1.10190511587661e+004,-6.74250709991470e+000,-1.31054503079618e-001

1.11728713807222e+004,-6.74250738685521e+000,-1.32883874100820e-001

1.13288388529580e+004,-6.74250768184252e+000,-1.34738778726149e-001

1.14869835499703e+004,-6.74250798510197e+000,-1.36619573243081e-001

1.16473358646846e+004,-6.74250829686457e+000,-1.38526618910336e-001

1.18099266142953e+004,-6.74250861736832e+000,-1.40460282019077e-001

1.19747870461893e+004,-6.74250894685774e+000,-1.42420933968194e-001

1.21419488439505e+004,-6.74250928558385e+000,-1.44408951335572e-001

1.23114441334492e+004,-6.74250963380492e+000,-1.46424715946781e-001

1.24833054890161e+004,-6.74250999178599e+000,-1.48468614952360e-001

1.26575659397028e+004,-6.74251035980023e+000,-1.50541040895059e-001

1.28342589756290e+004,-6.74251073812760e+000,-1.52642391793323e-001

1.30134185544193e+004,-6.74251112705626e+000,-1.54773071210756e-001

1.31950791077289e+004,-6.74251152688224e+000,-1.56933488335872e-001

1.33792755478611e+004,-6.74251193790993e+000,-1.59124058059558e-001

1.35660432744767e+004,-6.74251236045188e+000,-1.61345201055592e-001

1.37554181813974e+004,-6.74251279482935e+000,-1.63597343860040e-001

1.39474366635040e+004,-6.74251324137299e+000,-1.65880918949424e-001

1.41421356237309e+004,-6.74251370042182e+000,-1.68196364830992e-001

1.43395524801583e+004,-6.74251417232484e+000,-1.70544126118522e-001

1.45397251732031e+004,-6.74251465744037e+000,-1.72924653621882e-001

1.47426921729110e+004,-6.74251515613706e+000,-1.75338404429264e-001

1.49484924863494e+004,-6.74251566879319e+000,-1.77785841999598e-001

1.51571656651040e+004,-6.74251619579768e+000,-1.80267436246775e-001

1.53687518128801e+004,-6.74251673755049e+000,-1.82783663628649e-001

1.55832915932100e+004,-6.74251729446219e+000,-1.85335007241612e-001

1.58008262372675e+004,-6.74251786695514e+000,-1.87921956907632e-001

1.60213975517924e+004,-6.74251845546299e+000,-1.90545009272721e-001

1.62450479271247e+004,-6.74251906043104e+000,-1.93204667900231e-001

1.64718203453514e+004,-6.74251968231773e+000,-1.95901443361074e-001

1.67017583885674e+004,-6.74252032159339e+000,-1.98635853338919e-001

1.69349062472505e+004,-6.74252097874176e+000,-2.01408422722655e-001

1.71713087287550e+004,-6.74252165425904e+000,-2.04219683713475e-001

1.74110112659224e+004,-6.74252234865638e+000,-2.07070175913266e-001

1.76540599258131e+004,-6.74252306245767e+000,-2.09960446442826e-001

1.79005014185594e+004,-6.74252379620193e+000,-2.12891050033675e-001

1.81503831063432e+004,-6.74252455044266e+000,-2.15862549139154e-001

1.84037530124975e+004,-6.74252532574870e+000,-2.18875514039706e-001

1.86606598307361e+004,-6.74252612270435e+000,-2.21930522950896e-001

1.89211529345119e+004,-6.74252694190983e+000,-2.25028162134783e-001

1.91852823865052e+004,-6.74252778398194e+000,-2.28169026008251e-001

1.94530989482457e+004,-6.74252864955407e+000,-2.31353717259251e-001

1.97246540898671e+004,-6.74252953927701e+000,-2.34582846958333e-001

1.99999999999999e+004,-6.74253045381947e+000,-2.37857034674158e-001

2.02791895958005e+004,-6.74253139386815e+000,-2.41176908592993e-001

2.05622765331213e+004,-6.74253236012823e+000,-2.44543105638316e-001

2.08493152168224e+004,-6.74253335332458e+000,-2.47956271585878e-001

2.11403608112276e+004,-6.74253437420140e+000,-2.51417061192254e-001

2.14354692507258e+004,-6.74253542352317e+000,-2.54926138315425e-001

2.17346972505211e+004,-6.74253650207520e+000,-2.58484176039721e-001

2.20381023175322e+004,-6.74253761066354e+000,-2.62091856807649e-001

2.23457427614443e+004,-6.74253875011655e+000,-2.65749872541825e-001

2.26576777059159e+004,-6.74253992128506e+000,-2.69458924778789e-001

2.29739670999406e+004,-6.74254112504232e+000,-2.73219724803846e-001

2.32946717293690e+004,-6.74254236228562e+000,-2.77032993780821e-001

2.36198532285905e+004,-6.74254363393612e+000,-2.80899462890817e-001

2.39495740923785e+004,-6.74254494093964e+000,-2.84819873470194e-001

2.42838976879009e+004,-6.74254628426770e+000,-2.88794977146996e-001

2.46228882668982e+004,-6.74254766491764e+000,-2.92825535985458e-001

2.49666109780322e+004,-6.74254908391355e+000,-2.96912322628271e-001

2.53151318794055e+004,-6.74255054230670e+000,-3.01056120442877e-001

2.56685179512580e+004,-6.74255204117684e+000,-3.05257723664816e-001

2.60268371088386e+004,-6.74255358163209e+000,-3.09517937551785e-001

2.63901582154578e+004,-6.74255516481037e+000,-3.13837578530730e-001

2.67585510957221e+004,-6.74255679187927e+000,-3.18217474355551e-001

2.71320865489533e+004,-6.74255846403811e+000,-3.22658464254625e-001

2.75108363627948e+004,-6.74256018251743e+000,-3.27161399096025e-001

2.78948733270080e+004,-6.74256194858028e+000,-3.31727141542281e-001

2.82842712474618e+004,-6.74256376352322e+000,-3.36356566211968e-001

2.86791049603164e+004,-6.74256562867692e+000,-3.41050559843387e-001

2.90794503464061e+004,-6.74256754540671e+000,-3.45810021461988e-001

2.94853843458219e+004,-6.74256951511428e+000,-3.50635862543286e-001

2.98969849726987e+004,-6.74257153923727e+000,-3.55529007189537e-001

3.03143313302078e+004,-6.74257361925147e+000,-3.60490392295197e-001

3.07375036257601e+004,-6.74257575667063e+000,-3.65520967726304e-001

3.11665831864199e+004,-6.74257795304833e+000,-3.70621696492036e-001

3.16016524745350e+004,-6.74258020997791e+000,-3.75793554929429e-001

3.20427951035848e+004,-6.74258252909418e+000,-3.81037532880469e-001

3.24900958542493e+004,-6.74258491207413e+000,-3.86354633875994e-001

3.29436406907028e+004,-6.74258736063782e+000,-3.91745875323025e-001

3.34035167771346e+004,-6.74258987654948e+000,-3.97212288691923e-001

3.38698124945009e+004,-6.74259246161823e+000,-4.02754919708966e-001

3.43426174575100e+004,-6.74259511769979e+000,-4.08374828545137e-001

3.48220225318448e+004,-6.74259784669671e+000,-4.14073090017185e-001

3.53081198516260e+004,-6.74260065055989e+000,-4.19850793781728e-001

3.58010028371187e+004,-6.74260353128955e+000,-4.25709044537375e-001

3.63007662126863e+004,-6.74260649093619e+000,-4.31648962228468e-001

3.68075060249948e+004,-6.74260953160200e+000,-4.37671682248737e-001

3.73213196614721e+004,-6.74261265544139e+000,-4.43778355652753e-001

3.78423058690237e+004,-6.74261586466286e+000,-4.49970149362886e-001

3.83705647730104e+004,-6.74261916152949e+000,-4.56248246386359e-001

3.89061978964912e+004,-6.74262254836032e+000,-4.62613846030385e-001

3.94493081797342e+004,-6.74262602753155e+000,-4.69068164120901e-001

3.99999999999998e+004,-6.74262960147774e+000,-4.75612433223171e-001

4.05583791916010e+004,-6.74263327269272e+000,-4.82247902869050e-001

4.11245530662425e+004,-6.74263704373093e+000,-4.88975839782349e-001

4.16986304336447e+004,-6.74264091720890e+000,-4.95797528107431e-001

4.22807216224550e+004,-6.74264489580577e+000,-5.02714269646293e-001

4.28709385014515e+004,-6.74264898226521e+000,-5.09727384089309e-001

4.34693945010421e+004,-6.74265317939573e+000,-5.16838209259886e-001

4.40762046350642e+004,-6.74265749007295e+000,-5.24048101349231e-001

4.46914855228886e+004,-6.74266191723994e+000,-5.31358435166171e-001

4.53153554118317e+004,-6.74266646390880e+000,-5.38770604381846e-001

4.59479341998812e+004,-6.74267113316172e+000,-5.46286021781601e-001

4.65893434587380e+004,-6.74267592815234e+000,-5.53906119517384e-001

4.72397064571810e+004,-6.74268085210640e+000,-5.61632349366242e-001

4.78991481847569e+004,-6.74268590832376e+000,-5.69466182986815e-001

4.85677953758016e+004,-6.74269110017862e+000,-5.77409112186377e-001

4.92457765337964e+004,-6.74269643112144e+000,-5.85462649181496e-001

4.99332219560642e+004,-6.74270190467939e+000,-5.93628326873003e-001

5.06302637588109e+004,-6.74270752445783e+000,-6.01907699113629e-001

5.13370359025159e+004,-6.74271329414144e+000,-6.10302340984935e-001

5.20536742176771e+004,-6.74271921749491e+000,-6.18813849077249e-001

5.27803164309155e+004,-6.74272529836408e+000,-6.27443841770827e-001

5.35171021914442e+004,-6.74273154067697e+000,-6.36193959521013e-001

5.42641730979066e+004,-6.74273794844479e+000,-6.45065865146248e-001

5.50216727255895e+004,-6.74274452576236e+000,-6.54061244123223e-001

5.57897466540159e+004,-6.74275127680957e+000,-6.63181804878076e-001

5.65685424949235e+004,-6.74275820585163e+000,-6.72429279088297e-001

5.73582099206328e+004,-6.74276531723992e+000,-6.81805421984872e-001

5.81589006928121e+004,-6.74277261541269e+000,-6.91312012657052e-001

5.89707686916437e+004,-6.74278010489579e+000,-7.00950854361216e-001

5.97939699453972e+004,-6.74278779030255e+000,-7.10723774837256e-001

6.06286626604156e+004,-6.74279567633485e+000,-7.20632626620917e-001

6.14750072515201e+004,-6.74280376778309e+000,-7.30679287366388e-001

6.23331663728396e+004,-6.74281206952648e+000,-7.40865660169014e-001

6.32033049490698e+004,-6.74282058653288e+000,-7.51193673895014e-001

6.40855902071694e+004,-6.74282932385917e+000,-7.61665283509850e-001

6.49801917084985e+004,-6.74283828665095e+000,-7.72282470414518e-001

6.58872813814055e+004,-6.74284748014197e+000,-7.83047242785547e-001

6.68070335542691e+004,-6.74285690965422e+000,-7.93961635915512e-001

6.77396249890018e+004,-6.74286658059680e+000,-8.05027712561623e-001

6.86852349150199e+004,-6.74287649846563e+000,-8.16247563295069e-001

6.96440450636895e+004,-6.74288666884222e+000,-8.27623306855625e-001

7.06162397032520e+004,-6.74289709739259e+000,-8.39157090511056e-001

7.16020056742374e+004,-6.74290778986608e+000,-8.50851090419119e-001

7.26015324253724e+004,-6.74291875209375e+000,-8.62707511993301e-001

7.36150120499896e+004,-6.74292998998654e+000,-8.74728590276260e-001

7.46426393229441e+004,-6.74294150953340e+000,-8.86916590312134e-001

7.56846117380472e+004,-6.74295331679902e+000,-8.99273807527760e-001

7.67411295460207e+004,-6.74296541792104e+000,-9.11802568117075e-001

7.78123957929823e+004,-6.74297781910757e+000,-9.24505229427277e-001

7.88986163594682e+004,-6.74299052663408e+000,-9.37384180352360e-001

7.99999999999995e+004,-6.74300354683970e+000,-9.50441841730613e-001

8.11167583832018e+004,-6.74301688612350e+000,-9.63680666747652e-001

8.22491061324848e+004,-6.74303055094061e+000,-9.77103141340159e-001

8.33972608672892e+004,-6.74304454779750e+000,-9.90711784609549e-001

8.45614432449099e+004,-6.74305888324691e+000,-1.00450914923851e+000

8.57418770029029e+004,-6.74307356388296e+000,-1.01849782190972e+000

8.69387890020841e+004,-6.74308859633514e+000,-1.03268042373427e+000

8.81524092701283e+004,-6.74310398726191e+000,-1.04705961068378e+000

8.93829710457770e+004,-6.74311974334445e+000,-1.06163807402401e+000

9.06307108236633e+004,-6.74313587127901e+000,-1.07641854076074e+000

9.18958683997622e+004,-6.74315237776947e+000,-1.09140377408458e+000

9.31786869174758e+004,-6.74316926951891e+000,-1.10659657382593e+000

9.44794129143618e+004,-6.74318655322065e+000,-1.12199977691385e+000

9.57982963695136e+004,-6.74320423554893e+000,-1.13761625784095e+000

9.71355907516031e+004,-6.74322232314883e+000,-1.15344892913376e+000

9.84915530675926e+004,-6.74324082262520e+000,-1.16950074183235e+000

9.98664439121282e+004,-6.74325974053152e+000,-1.18577468597136e+000

1.01260527517622e+005,-6.74327908335740e+000,-1.20227379107338e+000

1.02674071805032e+005,-6.74329885751597e+000,-1.21900112664376e+000

1.04107348435354e+005,-6.74331906932975e+000,-1.23595980267692e+000

1.05560632861831e+005,-6.74333972501651e+000,-1.25315297016641e+000

1.07034204382888e+005,-6.74336083067368e+000,-1.27058382162461e+000

1.08528346195813e+005,-6.74338239226205e+000,-1.28825559161000e+000

1.10043345451179e+005,-6.74340441558889e+000,-1.30617155726017e+000

1.11579493308032e+005,-6.74342690628943e+000,-1.32433503883726e+000

1.13137084989847e+005,-6.74344986980840e+000,-1.34274940027602e+000

1.14716419841265e+005,-6.74347331137937e+000,-1.36141804974719e+000

1.16317801385624e+005,-6.74349723600411e+000,-1.38034444022494e+000

1.17941537383287e+005,-6.74352164843010e+000,-1.39953207006666e+000

1.19587939890794e+005,-6.74354655312762e+000,-1.41898448360044e+000

1.21257325320831e+005,-6.74357195426515e+000,-1.43870527172449e+000

1.22950014503040e+005,-6.74359785568397e+000,-1.45869807251630e+000

1.24666332745679e+005,-6.74362426087137e+000,-1.47896657185182e+000

1.26406609898139e+005,-6.74365117293278e+000,-1.49951450403807e+000

1.28171180414339e+005,-6.74367859456267e+000,-1.52034565245502e+000

1.29960383416997e+005,-6.74370652801384e+000,-1.54146385021234e+000

1.31774562762811e+005,-6.74373497506602e+000,-1.56287298081579e+000

1.33614067108538e+005,-6.74376393699259e+000,-1.58457697884921e+000

1.35479249978003e+005,-6.74379341452624e+000,-1.60657983066874e+000

1.37370469830040e+005,-6.74382340782322e+000,-1.62888557511185e+000

1.39288090127379e+005,-6.74385391642621e+000,-1.65149830421988e+000

1.41232479406504e+005,-6.74388493922551e+000,-1.67442216397888e+000

1.43204011348474e+005,-6.74391647441946e+000,-1.69766135507091e+000

1.45203064850745e+005,-6.74394851947269e+000,-1.72122013364792e+000

1.47230024099979e+005,-6.74398107107337e+000,-1.74510281211749e+000

1.49285278645888e+005,-6.74401412508895e+000,-1.76931375994881e+000

1.51369223476094e+005,-6.74404767652042e+000,-1.79385740449574e+000

1.53482259092041e+005,-6.74408171945483e+000,-1.81873823184133e+000

1.55624791585964e+005,-6.74411624701718e+000,-1.84396078765608e+000

1.57797232718936e+005,-6.74415125131969e+000,-1.86952967808385e+000

1.59999999999999e+005,-6.74418672341072e+000,-1.89544957064261e+000

1.62233516766403e+005,-6.74422265322169e+000,-1.92172519514959e+000

1.64498212264969e+005,-6.74425902951278e+000,-1.94836134466835e+000

1.66794521734578e+005,-6.74429583981700e+000,-1.97536287647938e+000

1.69122886489819e+005,-6.74433307038369e+000,-2.00273471307149e+000

1.71483754005805e+005,-6.74437070611966e+000,-2.03048184316184e+000

1.73877578004168e+005,-6.74440873052973e+000,-2.05860932273908e+000

1.76304818540256e+005,-6.74444712565625e+000,-2.08712227612986e+000

1.78765942091554e+005,-6.74448587201669e+000,-2.11602589709694e+000

1.81261421647326e+005,-6.74452494854087e+000,-2.14532544996047e+000

1.83791736799524e+005,-6.74456433250662e+000,-2.17502627074915e+000

1.86357373834951e+005,-6.74460399947491e+000,-2.20513376837824e+000

1.88958825828723e+005,-6.74464392322364e+000,-2.23565342585950e+000

1.91596592739027e+005,-6.74468407568112e+000,-2.26659080153813e+000

1.94271181503206e+005,-6.74472442685816e+000,-2.29795153036207e+000

1.96983106135185e+005,-6.74476494478009e+000,-2.32974132518208e+000

1.99732887824256e+005,-6.74480559541805e+000,-2.36196597808205e+000

2.02521055035243e+005,-6.74484634261972e+000,-2.39463136174370e+000

2.05348143610063e+005,-6.74488714803968e+000,-2.42774343084229e+000

2.08214696870707e+005,-6.74492797106995e+000,-2.46130822347526e+000

2.11121265723661e+005,-6.74496876876969e+000,-2.49533186262651e+000

2.14068408765776e+005,-6.74500949579566e+000,-2.52982055766133e+000

2.17056692391625e+005,-6.74505010433227e+000,-2.56478060585813e+000

2.20086690902357e+005,-6.74509054402217e+000,-2.60021839397258e+000

2.23158986616063e+005,-6.74513076189698e+000,-2.63614039983861e+000

2.26274169979693e+005,-6.74517070230881e+000,-2.67255319400113e+000

2.29432839682530e+005,-6.74521030686207e+000,-2.70946344138652e+000

2.32635602771247e+005,-6.74524951434635e+000,-2.74687790300576e+000

2.35883074766574e+005,-6.74528826066998e+000,-2.78480343769371e+000

2.39175879781588e+005,-6.74532647879474e+000,-2.82324700388160e+000

2.42514650641661e+005,-6.74536409867172e+000,-2.86221566140475e+000

2.45900029006080e+005,-6.74540104717819e+000,-2.90171657334564e+000

2.49332665491357e+005,-6.74543724805631e+000,-2.94175700790730e+000

2.52813219796278e+005,-6.74547262185298e+000,-2.98234434032408e+000

2.56342360828676e+005,-6.74550708586128e+000,-3.02348605480318e+000

2.59920766833993e+005,-6.74554055406404e+000,-3.06518974649794e+000

2.63549125525621e+005,-6.74557293707872e+000,-3.10746312351491e+000

2.67228134217075e+005,-6.74560414210450e+000,-3.15031400895002e+000

2.70958499956006e+005,-6.74563407287106e+000,-3.19375034295728e+000

2.74740939660078e+005,-6.74566262958981e+000,-3.23778018484384e+000

2.78576180254757e+005,-6.74568970890674e+000,-3.28241171519722e+000

2.82464958813007e+005,-6.74571520385780e+000,-3.32765323803720e+000

2.86408022696948e+005,-6.74573900382607e+000,-3.37351318299744e+000

2.90406129701488e+005,-6.74576099450133e+000,-3.42000010752991e+000

2.94460048199957e+005,-6.74578105784167e+000,-3.46712269913697e+000

2.98570557291775e+005,-6.74579907203741e+000,-3.51488977762440e+000

3.02738446952187e+005,-6.74581491147689e+000,-3.56331029738007e+000

3.06964518184081e+005,-6.74582844671441e+000,-3.61239334967108e+000

3.11249583171928e+005,-6.74583954444019e+000,-3.66214816496455e+000

3.15594465437872e+005,-6.74584806745224e+000,-3.71258411526465e+000

3.19999999999997e+005,-6.74585387462983e+000,-3.76371071647084e+000

3.24467033532806e+005,-6.74585682090886e+000,-3.81553763075132e+000

3.28996424529938e+005,-6.74585675725845e+000,-3.86807466893448e+000

3.33589043469155e+005,-6.74585353065931e+000,-3.92133179291374e+000

3.38245772979638e+005,-6.74584698408284e+000,-3.97531911806886e+000

3.42967508011610e+005,-6.74583695647134e+000,-4.03004691569926e+000

3.47755156008335e+005,-6.74582328271901e+000,-4.08552561547169e+000

3.52609637080511e+005,-6.74580579365364e+000,-4.14176580787765e+000

3.57531884183106e+005,-6.74578431601805e+000,-4.19877824670557e+000

3.62522843294651e+005,-6.74575867245215e+000,-4.25657385152070e+000

3.67583473599047e+005,-6.74572868147424e+000,-4.31516371015743e+000

3.72714747669902e+005,-6.74569415746199e+000,-4.37455908122223e+000

3.77917651657445e+005,-6.74565491063242e+000,-4.43477139660540e+000

3.83193185478053e+005,-6.74561074702062e+000,-4.49581226400355e+000

3.88542363006410e+005,-6.74556146845725e+000,-4.55769346945229e+000

3.93966212270369e+005,-6.74550687254375e+000,-4.62042697986970e+000

3.99465775648511e+005,-6.74544675262551e+000,-4.68402494560969e+000

4.05042110070485e+005,-6.74538089776260e+000,-4.74849970302741e+000

4.10696287220124e+005,-6.74530909269742e+000,-4.81386377705636e+000

4.16429393741414e+005,-6.74523111781913e+000,-4.88012988379787e+000

4.22242531447321e+005,-6.74514674912434e+000,-4.94731093312543e+000

4.28136817531551e+005,-6.74505575817385e+000,-5.01542003130337e+000

4.34113384783250e+005,-6.74495791204526e+000,-5.08447048362032e+000

4.40173381804713e+005,-6.74485297328043e+000,-5.15447579704271e+000

4.46317973232124e+005,-6.74474069982822e+000,-5.22544968288612e+000

4.52548339959385e+005,-6.74462084498158e+000,-5.29740605950689e+000

4.58865679365059e+005,-6.74449315730917e+000,-5.37035905501783e+000

4.65271205542494e+005,-6.74435738058062e+000,-5.44432301002690e+000

4.71766149533147e+005,-6.74421325368542e+000,-5.51931248040518e+000

4.78351759563174e+005,-6.74406051054543e+000,-5.59534224008117e+000

4.85029301283321e+005,-6.74389888001985e+000,-5.67242728386804e+000

4.91800058012158e+005,-6.74372808580333e+000,-5.75058283032498e+000

4.98665330982714e+005,-6.74354784631623e+000,-5.82982432465337e+000

5.05626439592555e+005,-6.74335787458735e+000,-5.91016744163403e+000

5.12684721657352e+005,-6.74315787812817e+000,-5.99162808860490e+000

5.19841533667984e+005,-6.74294755879915e+000,-6.07422240848411e+000

5.27098251051240e+005,-6.74272661266731e+000,-6.15796678284016e+000

5.34456268434150e+005,-6.74249472985517e+000,-6.24287783501287e+000

5.41916999912011e+005,-6.74225159438064e+000,-6.32897243328824e+000

