Freq.,VOut,OutRef

1.00000000000000e+004,-1.05635220058565e+001,-1.26390635037449e-001

1.01395947979003e+004,-1.05635225479338e+001,-1.28154880010674e-001

1.02811382665607e+004,-1.05635231052281e+001,-1.29943748576035e-001

1.04246576084112e+004,-1.05635236781661e+001,-1.31757584281282e-001

1.05701804056138e+004,-1.05635242671862e+001,-1.33596735461644e-001

1.07177346253629e+004,-1.05635248727392e+001,-1.35461555307671e-001

1.08673486252606e+004,-1.05635254952883e+001,-1.37352401931430e-001

1.10190511587661e+004,-1.05635261353097e+001,-1.39269638435726e-001

1.11728713807222e+004,-1.05635267932928e+001,-1.41213632983466e-001

1.13288388529580e+004,-1.05635274697408e+001,-1.43184758866331e-001

1.14869835499703e+004,-1.05635281651710e+001,-1.45183394575326e-001

1.16473358646846e+004,-1.05635288801151e+001,-1.47209923877941e-001

1.18099266142953e+004,-1.05635296151194e+001,-1.49264735885627e-001

1.19747870461893e+004,-1.05635303707459e+001,-1.51348225130029e-001

1.21419488439505e+004,-1.05635311475716e+001,-1.53460791641715e-001

1.23114441334492e+004,-1.05635319461904e+001,-1.55602841018084e-001

1.24833054890161e+004,-1.05635327672121e+001,-1.57774784509736e-001

1.26575659397028e+004,-1.05635336112636e+001,-1.59977039094257e-001

1.28342589756290e+004,-1.05635344789897e+001,-1.62210027552861e-001

1.30134185544193e+004,-1.05635353710525e+001,-1.64474178559042e-001

1.31950791077289e+004,-1.05635362881332e+001,-1.66769926749980e-001

1.33792755478611e+004,-1.05635372309316e+001,-1.69097712817263e-001

1.35660432744767e+004,-1.05635382001668e+001,-1.71457983589343e-001

1.37554181813974e+004,-1.05635391965783e+001,-1.73851192111170e-001

1.39474366635040e+004,-1.05635402209260e+001,-1.76277797737108e-001

1.41421356237309e+004,-1.05635412739907e+001,-1.78738266214481e-001

1.43395524801583e+004,-1.05635423565755e+001,-1.81233069770989e-001

1.45397251732031e+004,-1.05635434695053e+001,-1.83762687208818e-001

1.47426921729110e+004,-1.05635446136278e+001,-1.86327603992054e-001

1.49484924863494e+004,-1.05635457898149e+001,-1.88928312338492e-001

1.51571656651040e+004,-1.05635469989620e+001,-1.91565311315560e-001

1.53687518128801e+004,-1.05635482419899e+001,-1.94239106932358e-001

1.55832915932100e+004,-1.05635495198443e+001,-1.96950212239365e-001

1.58008262372675e+004,-1.05635508334978e+001,-1.99699147419023e-001

1.60213975517924e+004,-1.05635521839497e+001,-2.02486439890809e-001

1.62450479271247e+004,-1.05635535722268e+001,-2.05312624408853e-001

1.64718203453514e+004,-1.05635549993845e+001,-2.08178243161482e-001

1.67017583885674e+004,-1.05635564665074e+001,-2.11083845876457e-001

1.69349062472505e+004,-1.05635579747102e+001,-2.14029989922124e-001

1.71713087287550e+004,-1.05635595251382e+001,-2.17017240416247e-001

1.74110112659224e+004,-1.05635611189688e+001,-2.20046170328256e-001

1.76540599258131e+004,-1.05635627574113e+001,-2.23117360592187e-001

1.79005014185594e+004,-1.05635644417088e+001,-2.26231400213245e-001

1.81503831063432e+004,-1.05635661731387e+001,-2.29388886379928e-001

1.84037530124975e+004,-1.05635679530136e+001,-2.32590424575743e-001

1.86606598307361e+004,-1.05635697826823e+001,-2.35836628694665e-001

1.89211529345119e+004,-1.05635716635307e+001,-2.39128121156620e-001

1.91852823865052e+004,-1.05635735969830e+001,-2.42465533022077e-001

1.94530989482457e+004,-1.05635755845024e+001,-2.45849504115971e-001

1.97246540898671e+004,-1.05635776275927e+001,-2.49280683141455e-001

1.99999999999999e+004,-1.05635797277985e+001,-2.52759727808472e-001

2.02791895958005e+004,-1.05635818867074e+001,-2.56287304951029e-001

2.05622765331213e+004,-1.05635841059503e+001,-2.59864090656911e-001

2.08493152168224e+004,-1.05635863872030e+001,-2.63490770392038e-001

2.11403608112276e+004,-1.05635887321870e+001,-2.67168039131707e-001

2.14354692507258e+004,-1.05635911426714e+001,-2.70896601484999e-001

2.17346972505211e+004,-1.05635936204731e+001,-2.74677171834441e-001

2.20381023175322e+004,-1.05635961674592e+001,-2.78510474463495e-001

2.23457427614443e+004,-1.05635987855478e+001,-2.82397243694257e-001

2.26576777059159e+004,-1.05636014767095e+001,-2.86338224023191e-001

2.29739670999406e+004,-1.05636042429681e+001,-2.90334170264319e-001

2.32946717293690e+004,-1.05636070864033e+001,-2.94385847683296e-001

2.36198532285905e+004,-1.05636100091510e+001,-2.98494032145856e-001

2.39495740923785e+004,-1.05636130134054e+001,-3.02659510259114e-001

2.42838976879009e+004,-1.05636161014205e+001,-3.06883079518296e-001

2.46228882668982e+004,-1.05636192755115e+001,-3.11165548454300e-001

2.49666109780322e+004,-1.05636225380560e+001,-3.15507736786995e-001

2.53151318794055e+004,-1.05636258914967e+001,-3.19910475573592e-001

2.56685179512580e+004,-1.05636293383423e+001,-3.24374607362436e-001

2.60268371088386e+004,-1.05636328811690e+001,-3.28900986353336e-001

2.63901582154578e+004,-1.05636365226233e+001,-3.33490478549450e-001

2.67585510957221e+004,-1.05636402654223e+001,-3.38143961924154e-001

2.71320865489533e+004,-1.05636441123572e+001,-3.42862326575553e-001

2.75108363627948e+004,-1.05636480662939e+001,-3.47646474895823e-001

2.78948733270080e+004,-1.05636521301757e+001,-3.52497321735073e-001

2.82842712474618e+004,-1.05636563070245e+001,-3.57415794572152e-001

2.86791049603164e+004,-1.05636605999438e+001,-3.62402833680694e-001

2.90794503464061e+004,-1.05636650121200e+001,-3.67459392304144e-001

2.94853843458219e+004,-1.05636695468247e+001,-3.72586436831789e-001

2.98969849726987e+004,-1.05636742074170e+001,-3.77784946972598e-001

3.03143313302078e+004,-1.05636789973458e+001,-3.83055915936133e-001

3.07375036257601e+004,-1.05636839201515e+001,-3.88400350612317e-001

3.11665831864199e+004,-1.05636889794689e+001,-3.93819271757911e-001

3.16016524745350e+004,-1.05636941790293e+001,-3.99313714177603e-001

3.20427951035848e+004,-1.05636995226630e+001,-4.04884726916237e-001

3.24900958542493e+004,-1.05637050143013e+001,-4.10533373447372e-001

3.29436406907028e+004,-1.05637106579796e+001,-4.16260731866172e-001

3.34035167771346e+004,-1.05637164578398e+001,-4.22067895083622e-001

3.38698124945009e+004,-1.05637224181325e+001,-4.27955971025418e-001

3.43426174575100e+004,-1.05637285432204e+001,-4.33926082829503e-001

3.48220225318448e+004,-1.05637348375800e+001,-4.39979369051335e-001

3.53081198516260e+004,-1.05637413058053e+001,-4.46116983866004e-001

3.58010028371187e+004,-1.05637479526099e+001,-4.52340097275639e-001

3.63007662126863e+004,-1.05637547828307e+001,-4.58649895319121e-001

3.68075060249948e+004,-1.05637618014296e+001,-4.65047580284771e-001

3.73213196614721e+004,-1.05637690134975e+001,-4.71534370923436e-001

3.78423058690237e+004,-1.05637764242572e+001,-4.78111502665732e-001

3.83705647730104e+004,-1.05637840390657e+001,-4.84780227843112e-001

3.89061978964912e+004,-1.05637918634181e+001,-4.91541815908167e-001

3.94493081797342e+004,-1.05637999029505e+001,-4.98397553660075e-001

3.99999999999998e+004,-1.05638081634433e+001,-5.05348745470010e-001

4.05583791916010e+004,-1.05638166508243e+001,-5.12396713514327e-001

4.11245530662425e+004,-1.05638253711722e+001,-5.19542798004353e-001

4.16986304336447e+004,-1.05638343307198e+001,-5.26788357421613e-001

4.22807216224550e+004,-1.05638435358576e+001,-5.34134768757681e-001

4.28709385014515e+004,-1.05638529931371e+001,-5.41583427750852e-001

4.34693945010421e+004,-1.05638627092746e+001,-5.49135749133428e-001

4.40762046350642e+004,-1.05638726911541e+001,-5.56793166874058e-001

4.46914855228886e+004,-1.05638829458319e+001,-5.64557134428323e-001

4.53153554118317e+004,-1.05638934805392e+001,-5.72429124988802e-001

4.59479341998812e+004,-1.05639043026865e+001,-5.80410631739473e-001

4.65893434587380e+004,-1.05639154198670e+001,-5.88503168112103e-001

4.72397064571810e+004,-1.05639268398604e+001,-5.96708268047350e-001

4.78991481847569e+004,-1.05639385706367e+001,-6.05027486253901e-001

4.85677953758016e+004,-1.05639506203600e+001,-6.13462398475883e-001

4.92457765337964e+004,-1.05639629973923e+001,-6.22014601761606e-001

4.99332219560642e+004,-1.05639757102973e+001,-6.30685714730908e-001

5.06302637588109e+004,-1.05639887678447e+001,-6.39477377851056e-001

5.13370359025159e+004,-1.05640021790132e+001,-6.48391253714301e-001

5.20536742176771e+004,-1.05640159529955e+001,-6.57429027313085e-001

5.27803164309155e+004,-1.05640300992010e+001,-6.66592406327336e-001

5.35171021914442e+004,-1.05640446272611e+001,-6.75883121403833e-001

5.42641730979066e+004,-1.05640595470316e+001,-6.85302926449555e-001

5.50216727255895e+004,-1.05640748685979e+001,-6.94853598918646e-001

5.57897466540159e+004,-1.05640906022779e+001,-7.04536940108178e-001

5.65685424949235e+004,-1.05641067586266e+001,-7.14354775453640e-001

5.73582099206328e+004,-1.05641233484394e+001,-7.24308954828952e-001

5.81589006928121e+004,-1.05641403827560e+001,-7.34401352848825e-001

5.89707686916437e+004,-1.05641578728641e+001,-7.44633869176691e-001

5.97939699453972e+004,-1.05641758303036e+001,-7.55008428827682e-001

6.06286626604156e+004,-1.05641942668692e+001,-7.65526982486442e-001

6.14750072515201e+004,-1.05642131946150e+001,-7.76191506817188e-001

6.23331663728396e+004,-1.05642326258572e+001,-7.87004004783330e-001

6.32033049490698e+004,-1.05642525731781e+001,-7.97966505967360e-001

6.40855902071694e+004,-1.05642730494286e+001,-8.09081066894828e-001

6.49801917084985e+004,-1.05642940677321e+001,-8.20349771360419e-001

6.58872813814055e+004,-1.05643156414871e+001,-8.31774730758312e-001

6.68070335542691e+004,-1.05643377843701e+001,-8.43358084416082e-001

6.77396249890018e+004,-1.05643605103385e+001,-8.55101999927516e-001

6.86852349150199e+004,-1.05643838336330e+001,-8.67008673495887e-001

6.96440450636895e+004,-1.05644077687799e+001,-8.79080330272719e-001

7.06162397032520e+004,-1.05644323305935e+001,-8.91319224706305e-001

7.16020056742374e+004,-1.05644575341778e+001,-9.03727640888852e-001

7.26015324253724e+004,-1.05644833949281e+001,-9.16307892908686e-001

7.36150120499896e+004,-1.05645099285331e+001,-9.29062325205941e-001

7.46426393229441e+004,-1.05645371509750e+001,-9.41993312931773e-001

7.56846117380472e+004,-1.05645650785312e+001,-9.55103262309650e-001

7.67411295460207e+004,-1.05645937277747e+001,-9.68394611001838e-001

7.78123957929823e+004,-1.05646231155737e+001,-9.81869828478292e-001

7.88986163594682e+004,-1.05646532590924e+001,-9.95531416388136e-001

7.99999999999995e+004,-1.05646841757894e+001,-1.00938190893780e+000

8.11167583832018e+004,-1.05647158834176e+001,-1.02342387326945e+000

8.22491061324848e+004,-1.05647484000222e+001,-1.03765990984557e+000

8.33972608672892e+004,-1.05647817439391e+001,-1.05209265283631e+000

8.45614432449099e+004,-1.05648159337921e+001,-1.06672477051111e+000

8.57418770029029e+004,-1.05648509884906e+001,-1.08155896563246e+000

8.69387890020841e+004,-1.05648869272254e+001,-1.09659797585882e+000

8.81524092701283e+004,-1.05649237694651e+001,-1.11184457414520e+000

8.93829710457770e+004,-1.05649615349511e+001,-1.12730156915303e+000

9.06307108236633e+004,-1.05650002436925e+001,-1.14297180566183e+000

9.18958683997622e+004,-1.05650399159597e+001,-1.15885816498774e+000

9.31786869174758e+004,-1.05650805722777e+001,-1.17496356540403e+000

9.44794129143618e+004,-1.05651222334184e+001,-1.19129096256919e+000

9.57982963695136e+004,-1.05651649203925e+001,-1.20784334995838e+000

9.71355907516031e+004,-1.05652086544401e+001,-1.22462375930025e+000

9.84915530675926e+004,-1.05652534570201e+001,-1.24163526102155e+000

9.98664439121282e+004,-1.05652993497999e+001,-1.25888096469316e+000

1.01260527517622e+005,-1.05653463546430e+001,-1.27636401948651e+000

1.02674071805032e+005,-1.05653944935956e+001,-1.29408761463350e+000

1.04107348435354e+005,-1.05654437888731e+001,-1.31205497989372e+000

1.05560632861831e+005,-1.05654942628444e+001,-1.33026938602781e+000

1.07034204382888e+005,-1.05655459380156e+001,-1.34873414527895e+000

1.08528346195813e+005,-1.05655988370128e+001,-1.36745261186130e+000

1.10043345451179e+005,-1.05656529825628e+001,-1.38642818245468e+000

1.11579493308032e+005,-1.05657083974731e+001,-1.40566429671040e+000

1.13137084989847e+005,-1.05657651046109e+001,-1.42516443776266e+000

1.14716419841265e+005,-1.05658231268798e+001,-1.44493213274841e+000

1.16317801385624e+005,-1.05658824871959e+001,-1.46497095334158e+000

1.17941537383287e+005,-1.05659432084618e+001,-1.48528451629026e+000

1.19587939890794e+005,-1.05660053135401e+001,-1.50587648396762e+000

1.21257325320831e+005,-1.05660688252236e+001,-1.52675056493526e+000

1.22950014503040e+005,-1.05661337662061e+001,-1.54791051451333e+000

1.24666332745679e+005,-1.05662001590498e+001,-1.56936013536525e+000

1.26406609898139e+005,-1.05662680261515e+001,-1.59110327809643e+000

1.28171180414339e+005,-1.05663373897078e+001,-1.61314384186152e+000

1.29960383416997e+005,-1.05664082716779e+001,-1.63548577498837e+000

1.31774562762811e+005,-1.05664806937444e+001,-1.65813307561655e+000

1.33614067108538e+005,-1.05665546772727e+001,-1.68108979235011e+000

1.35479249978003e+005,-1.05666302432689e+001,-1.70436002492361e+000

1.37370469830040e+005,-1.05667074123352e+001,-1.72794792489003e+000

1.39288090127379e+005,-1.05667862046231e+001,-1.75185769632143e+000

1.41232479406504e+005,-1.05668666397863e+001,-1.77609359652882e+000

1.43204011348474e+005,-1.05669487369299e+001,-1.80065993680144e+000

1.45203064850745e+005,-1.05670325145583e+001,-1.82556108316657e+000

1.47230024099979e+005,-1.05671179905220e+001,-1.85080145716701e+000

1.49285278645888e+005,-1.05672051819612e+001,-1.87638553666497e+000

1.51369223476094e+005,-1.05672941052482e+001,-1.90231785666203e+000

1.53482259092041e+005,-1.05673847759277e+001,-1.92860301014927e+000

1.55624791585964e+005,-1.05674772086556e+001,-1.95524564897705e+000

1.57797232718936e+005,-1.05675714171352e+001,-1.98225048475177e+000

1.59999999999999e+005,-1.05676674140524e+001,-2.00962228975896e+000

1.62233516766403e+005,-1.05677652110086e+001,-2.03736589791484e+000

1.64498212264969e+005,-1.05678648184518e+001,-2.06548620574414e+000

1.66794521734578e+005,-1.05679662456068e+001,-2.09398817338983e+000

1.69122886489819e+005,-1.05680695004027e+001,-2.12287682565050e+000

1.71483754005805e+005,-1.05681745894001e+001,-2.15215725305268e+000

1.73877578004168e+005,-1.05682815177154e+001,-2.18183461295343e+000

1.76304818540256e+005,-1.05683902889454e+001,-2.21191413067700e+000

1.78765942091554e+005,-1.05685009050893e+001,-2.24240110068659e+000

1.81261421647326e+005,-1.05686133664705e+001,-2.27330088779165e+000

1.83791736799524e+005,-1.05687276716570e+001,-2.30461892839113e+000

1.86357373834951e+005,-1.05688438173804e+001,-2.33636073175599e+000

1.88958825828723e+005,-1.05689617984559e+001,-2.36853188134815e+000

1.91596592739027e+005,-1.05690816076995e+001,-2.40113803618065e+000

1.94271181503206e+005,-1.05692032358466e+001,-2.43418493221660e+000

1.96983106135185e+005,-1.05693266714694e+001,-2.46767838381064e+000

1.99732887824256e+005,-1.05694519008947e+001,-2.50162428519064e+000

2.02521055035243e+005,-1.05695789081217e+001,-2.53602861198313e+000

2.05348143610063e+005,-1.05697076747400e+001,-2.57089742278096e+000

2.08214696870707e+005,-1.05698381798484e+001,-2.60623686075642e+000

2.11121265723661e+005,-1.05699703999745e+001,-2.64205315531503e+000

2.14068408765776e+005,-1.05701043089954e+001,-2.67835262379694e+000

2.17056692391625e+005,-1.05702398780590e+001,-2.71514167322253e+000

2.20086690902357e+005,-1.05703770755074e+001,-2.75242680208196e+000

2.23158986616063e+005,-1.05705158668019e+001,-2.79021460217027e+000

2.26274169979693e+005,-1.05706562144499e+001,-2.82851176046883e+000

2.29432839682530e+005,-1.05707980779340e+001,-2.86732506106937e+000

2.32635602771247e+005,-1.05709414136434e+001,-2.90666138714547e+000

2.35883074766574e+005,-1.05710861748082e+001,-2.94652772296657e+000

2.39175879781588e+005,-1.05712323114368e+001,-2.98693115595681e+000

2.42514650641661e+005,-1.05713797702558e+001,-3.02787887879719e+000

2.45900029006080e+005,-1.05715284946544e+001,-3.06937819157064e+000

2.49332665491357e+005,-1.05716784246311e+001,-3.11143650394846e+000

2.52813219796278e+005,-1.05718294967461e+001,-3.15406133741869e+000

2.56342360828676e+005,-1.05719816440756e+001,-3.19726032755290e+000

2.59920766833993e+005,-1.05721347961727e+001,-3.24104122631338e+000

2.63549125525621e+005,-1.05722888790305e+001,-3.28541190439725e+000

2.67228134217075e+005,-1.05724438150524e+001,-3.33038035361505e+000

2.70958499956006e+005,-1.05725995230250e+001,-3.37595468930635e+000

2.74740939660078e+005,-1.05727559180971e+001,-3.42214315278618e+000

2.78576180254757e+005,-1.05729129117643e+001,-3.46895411382342e+000

2.82464958813007e+005,-1.05730704118578e+001,-3.51639607314819e+000

2.86408022696948e+005,-1.05732283225388e+001,-3.56447766498712e+000

2.90406129701488e+005,-1.05733865442993e+001,-3.61320765962298e+000

2.94460048199957e+005,-1.05735449739668e+001,-3.66259496597857e+000

2.98570557291775e+005,-1.05737035047160e+001,-3.71264863422140e+000

3.02738446952187e+005,-1.05738620260847e+001,-3.76337785838727e+000

3.06964518184081e+005,-1.05740204239961e+001,-3.81479197902181e+000

3.11249583171928e+005,-1.05741785807857e+001,-3.86690048583461e+000

3.15594465437872e+005,-1.05743363752342e+001,-3.91971302036824e+000

3.19999999999997e+005,-1.05744936826049e+001,-3.97323937867669e+000

3.24467033532806e+005,-1.05746503746868e+001,-4.02748951401109e+000

3.28996424529938e+005,-1.05748063198418e+001,-4.08247353951304e+000

3.33589043469155e+005,-1.05749613830567e+001,-4.13820173091202e+000

3.38245772979638e+005,-1.05751154260006e+001,-4.19468452922285e+000

3.42967508011610e+005,-1.05752683070844e+001,-4.25193254344649e+000

3.47755156008335e+005,-1.05754198815262e+001,-4.30995655326716e+000

3.52609637080511e+005,-1.05755700014189e+001,-4.36876751174670e+000

3.57531884183106e+005,-1.05757185158014e+001,-4.42837654801541e+000

3.62522843294651e+005,-1.05758652707325e+001,-4.48879496995537e+000

3.67583473599047e+005,-1.05760101093672e+001,-4.55003426687767e+000

3.72714747669902e+005,-1.05761528720351e+001,-4.61210611219112e+000

3.77917651657445e+005,-1.05762933963202e+001,-4.67502236606135e+000

3.83193185478053e+005,-1.05764315171418e+001,-4.73879507806173e+000

3.88542363006410e+005,-1.05765670668362e+001,-4.80343648981218e+000

3.93966212270369e+005,-1.05766998752384e+001,-4.86895903760925e+000

3.99465775648511e+005,-1.05768297697632e+001,-4.93537535504578e+000

4.05042110070485e+005,-1.05769565754866e+001,-5.00269827561877e+000

4.10696287220124e+005,-1.05770801152240e+001,-5.07094083533000e+000

4.16429393741414e+005,-1.05772002096088e+001,-5.14011627527572e+000

4.22242531447321e+005,-1.05773166771664e+001,-5.21023804422993e+000

4.28136817531551e+005,-1.05774293343875e+001,-5.28131980121865e+000

4.34113384783250e+005,-1.05775379957964e+001,-5.35337541809118e+000

4.40173381804713e+005,-1.05776424740167e+001,-5.42641898208514e+000

4.46317973232124e+005,-1.05777425798319e+001,-5.50046479839097e+000

4.52548339959385e+005,-1.05778381222414e+001,-5.57552739271518e+000

4.58865679365059e+005,-1.05779289085121e+001,-5.65162151384656e+000

4.65271205542494e+005,-1.05780147442233e+001,-5.72876213622670e+000

4.71766149533147e+005,-1.05780954333061e+001,-5.80696446252721e+000

4.78351759563174e+005,-1.05781707780762e+001,-5.88624392623731e+000

4.85029301283321e+005,-1.05782405792603e+001,-5.96661619426461e+000

4.91800058012158e+005,-1.05783046360149e+001,-6.04809716955101e+000

4.98665330982714e+005,-1.05783627459375e+001,-6.13070299370877e+000

5.05626439592555e+005,-1.05784147050704e+001,-6.21445004967864e+000

5.12684721657352e+005,-1.05784603078968e+001,-6.29935496441416e+000

5.19841533667984e+005,-1.05784993473274e+001,-6.38543461159551e+000

5.27098251051240e+005,-1.05785316146796e+001,-6.47270611437739e+000

5.34456268434150e+005,-1.05785568996477e+001,-6.56118684817254e+000

5.41916999912011e+005,-1.05785749902640e+001,-6.65089444347736e+000

