Freq.,VOut,OutRef

1.00000000000000e+004,-5.14115878319741e+000,-3.34894029521028e-002

1.01395947979003e+004,-5.14116071985077e+000,-3.39565705111464e-002

1.02811382665607e+004,-5.14116271087846e+000,-3.44302456096983e-002

1.04246576084112e+004,-5.14116475780478e+000,-3.49105185029909e-002

1.05701804056138e+004,-5.14116686219797e+000,-3.53974806724523e-002

1.07177346253629e+004,-5.14116902566778e+000,-3.58912248657344e-002

1.08673486252606e+004,-5.14117124987085e+000,-3.63918450860183e-002

1.10190511587661e+004,-5.14117353650974e+000,-3.68994366227315e-002

1.11728713807222e+004,-5.14117588733427e+000,-3.74140960682167e-002

1.13288388529580e+004,-5.14117830414252e+000,-3.79359213361627e-002

1.14869835499703e+004,-5.14118078878406e+000,-3.84650116680753e-002

1.16473358646846e+004,-5.14118334315957e+000,-3.90014676596347e-002

1.18099266142953e+004,-5.14118596922252e+000,-3.95453912787805e-002

1.19747870461893e+004,-5.14118866898107e+000,-4.00968858793741e-002

1.21419488439505e+004,-5.14119144449973e+000,-4.06560562184465e-002

1.23114441334492e+004,-5.14119429790053e+000,-4.12230084769538e-002

1.24833054890161e+004,-5.14119723136480e+000,-4.17978502757374e-002

1.26575659397028e+004,-5.14120024713348e+000,-4.23806907043233e-002

1.28342589756290e+004,-5.14120334751199e+000,-4.29716403166661e-002

1.30134185544193e+004,-5.14120653486899e+000,-4.35708111712284e-002

1.31950791077289e+004,-5.14120981163869e+000,-4.41783168452351e-002

1.33792755478611e+004,-5.14121318032431e+000,-4.47942724429502e-002

1.35660432744767e+004,-5.14121664349723e+000,-4.54187946337451e-002

1.37554181813974e+004,-5.14122020380239e+000,-4.60520016482736e-002

1.39474366635040e+004,-5.14122386395683e+000,-4.66940133206190e-002

1.41421356237309e+004,-5.14122762675449e+000,-4.73449510900127e-002

1.43395524801583e+004,-5.14123149506523e+000,-4.80049380411493e-002

1.45397251732031e+004,-5.14123547184109e+000,-4.86740988972162e-002

1.47426921729110e+004,-5.14123956011374e+000,-4.93525600709354e-002

1.49484924863494e+004,-5.14124376300149e+000,-5.00404496550977e-002

1.51571656651040e+004,-5.14124808370803e+000,-5.07378974659168e-002

1.53687518128801e+004,-5.14125252552646e+000,-5.14450350525892e-002

1.55832915932100e+004,-5.14125709184071e+000,-5.21619957260621e-002

1.58008262372675e+004,-5.14126178612937e+000,-5.28889145714003e-002

1.60213975517924e+004,-5.14126661196730e+000,-5.36259284746248e-002

1.62450479271247e+004,-5.14127157302936e+000,-5.43731761382629e-002

1.64718203453514e+004,-5.14127667309126e+000,-5.51307981143634e-002

1.67017583885674e+004,-5.14128191603357e+000,-5.58989368186577e-002

1.69349062472505e+004,-5.14128730584500e+000,-5.66777365494560e-002

1.71713087287550e+004,-5.14129284662419e+000,-5.74673435180282e-002

1.74110112659224e+004,-5.14129854258368e+000,-5.82679058631630e-002

1.76540599258131e+004,-5.14130439805272e+000,-5.90795736771386e-002

1.79005014185594e+004,-5.14131041748026e+000,-5.99024990273299e-002

1.81503831063432e+004,-5.14131660543788e+000,-6.07368359831157e-002

1.84037530124975e+004,-5.14132296662351e+000,-6.15827406341879e-002

1.86606598307361e+004,-5.14132950586624e+000,-6.24403711056075e-002

1.89211529345119e+004,-5.14133622812666e+000,-6.33098876007622e-002

1.91852823865052e+004,-5.14134313850381e+000,-6.41914524024270e-002

1.94530989482457e+004,-5.14135024223633e+000,-6.50852299137247e-002

1.97246540898671e+004,-5.14135754470862e+000,-6.59913866637942e-002

1.99999999999999e+004,-5.14136505145190e+000,-6.69100913512551e-002

2.02791895958005e+004,-5.14137276815083e+000,-6.78415148495616e-002

2.05622765331213e+004,-5.14138070064663e+000,-6.87858302368240e-002

2.08493152168224e+004,-5.14138885494030e+000,-6.97432128248648e-002

2.11403608112276e+004,-5.14139723719862e+000,-7.07138401731557e-002

2.14354692507258e+004,-5.14140585375814e+000,-7.16978921130040e-002

2.17346972505211e+004,-5.14141471112852e+000,-7.26955507800235e-002

2.20381023175322e+004,-5.14142381599867e+000,-7.37070006272315e-002

2.23457427614443e+004,-5.14143317524082e+000,-7.47324284527868e-002

2.26576777059159e+004,-5.14144279591526e+000,-7.57720234243552e-002

2.29739670999406e+004,-5.14145268527637e+000,-7.68259770951840e-002

2.32946717293690e+004,-5.14146285077611e+000,-7.78944834382845e-002

2.36198532285905e+004,-5.14147330007076e+000,-7.89777388598355e-002

2.39495740923785e+004,-5.14148404102540e+000,-8.00759422273508e-002

2.42838976879009e+004,-5.14149508172068e+000,-8.11892948845771e-002

2.46228882668982e+004,-5.14150643045699e+000,-8.23180006842943e-002

2.49666109780322e+004,-5.14151809576075e+000,-8.34622660065820e-002

2.53151318794055e+004,-5.14153008639052e+000,-8.46222997801771e-002

2.56685179512580e+004,-5.14154241134407e+000,-8.57983134985717e-002

2.60268371088386e+004,-5.14155507986317e+000,-8.69905212499314e-002

2.63901582154578e+004,-5.14156810143953e+000,-8.81991397424028e-002

2.67585510957221e+004,-5.14158148582417e+000,-8.94243883061431e-002

2.71320865489533e+004,-5.14159524303092e+000,-9.06664889355430e-002

2.75108363627948e+004,-5.14160938334523e+000,-9.19256662958425e-002

2.78948733270080e+004,-5.14162391733037e+000,-9.32021477491478e-002

2.82842712474618e+004,-5.14163885583539e+000,-9.44961633687601e-002

2.86791049603164e+004,-5.14165421000150e+000,-9.58079459648926e-002

2.90794503464061e+004,-5.14166999127001e+000,-9.71377310996734e-002

2.94853843458219e+004,-5.14168621139112e+000,-9.84857570988194e-002

2.98969849726987e+004,-5.14170288242953e+000,-9.98522650839636e-002

3.03143313302078e+004,-5.14172001677460e+000,-1.01237498974349e-001

3.07375036257601e+004,-5.14173762714764e+000,-1.02641705511906e-001

3.11665831864199e+004,-5.14175572661076e+000,-1.04065134270839e-001

3.16016524745350e+004,-5.14177432857452e+000,-1.05508037681182e-001

3.20427951035848e+004,-5.14179344680778e+000,-1.06970671034164e-001

3.24900958542493e+004,-5.14181309544701e+000,-1.08453292494483e-001

3.29436406907028e+004,-5.14183328900375e+000,-1.09956163122946e-001

3.34035167771346e+004,-5.14185404237594e+000,-1.11479546875551e-001

3.38698124945009e+004,-5.14187537085618e+000,-1.13023710622450e-001

3.43426174575100e+004,-5.14189729014253e+000,-1.14588924150764e-001

3.48220225318448e+004,-5.14191981634705e+000,-1.16175460180931e-001

3.53081198516260e+004,-5.14194296600798e+000,-1.17783594363226e-001

3.58010028371187e+004,-5.14196675609865e+000,-1.19413605290610e-001

3.63007662126863e+004,-5.14199120403832e+000,-1.21065774503177e-001

3.68075060249948e+004,-5.14201632770324e+000,-1.22740386489838e-001

3.73213196614721e+004,-5.14204214543836e+000,-1.24437728684525e-001

3.78423058690237e+004,-5.14206867606706e+000,-1.26158091477151e-001

3.83705647730104e+004,-5.14209593890370e+000,-1.27901768205014e-001

3.89061978964912e+004,-5.14212395376500e+000,-1.29669055150621e-001

3.94493081797342e+004,-5.14215274098210e+000,-1.31460251537221e-001

3.99999999999998e+004,-5.14218232141248e+000,-1.33275659521881e-001

4.05583791916010e+004,-5.14221271645187e+000,-1.35115584190889e-001

4.11245530662425e+004,-5.14224394804778e+000,-1.36980333541152e-001

4.16986304336447e+004,-5.14227603871098e+000,-1.38870218477145e-001

4.22807216224550e+004,-5.14230901152938e+000,-1.40785552789045e-001

4.28709385014515e+004,-5.14234289018130e+000,-1.42726653135215e-001

4.34693945010421e+004,-5.14237769894739e+000,-1.44693839031983e-001

4.40762046350642e+004,-5.14241346272600e+000,-1.46687432819628e-001

4.46914855228886e+004,-5.14245020704582e+000,-1.48707759645473e-001

4.53153554118317e+004,-5.14248795808004e+000,-1.50755147435027e-001

4.59479341998812e+004,-5.14252674266052e+000,-1.52829926861676e-001

4.65893434587380e+004,-5.14256658829220e+000,-1.54932431313257e-001

4.72397064571810e+004,-5.14260752316778e+000,-1.57062996855066e-001

4.78991481847569e+004,-5.14264957618141e+000,-1.59221962195542e-001

4.85677953758016e+004,-5.14269277694499e+000,-1.61409668636869e-001

4.92457765337964e+004,-5.14273715580179e+000,-1.63626460035771e-001

4.99332219560642e+004,-5.14278274384251e+000,-1.65872682748705e-001

5.06302637588109e+004,-5.14282957292042e+000,-1.68148685580327e-001

5.13370359025159e+004,-5.14287767566650e+000,-1.70454819727575e-001

5.20536742176771e+004,-5.14292708550468e+000,-1.72791438719759e-001

5.27803164309155e+004,-5.14297783666857e+000,-1.75158898348727e-001

5.35171021914442e+004,-5.14302996421572e+000,-1.77557556606288e-001

5.42641730979066e+004,-5.14308350404479e+000,-1.79987773603259e-001

5.50216727255895e+004,-5.14313849291044e+000,-1.82449911497470e-001

5.57897466540159e+004,-5.14319496844008e+000,-1.84944334404138e-001

5.65685424949235e+004,-5.14325296914873e+000,-1.87471408315473e-001

5.73582099206328e+004,-5.14331253445610e+000,-1.90031501001074e-001

5.81589006928121e+004,-5.14337370470206e+000,-1.92624981911324e-001

5.89707686916437e+004,-5.14343652116202e+000,-1.95252222078268e-001

5.97939699453972e+004,-5.14350102606373e+000,-1.97913593999865e-001

6.06286626604156e+004,-5.14356726260263e+000,-2.00609471527371e-001

6.14750072515201e+004,-5.14363527495674e+000,-2.03340229750146e-001

6.23331663728396e+004,-5.14370510830400e+000,-2.06106244856734e-001

6.32033049490698e+004,-5.14377680883565e+000,-2.08907894014292e-001

6.40855902071694e+004,-5.14385042377264e+000,-2.11745555221704e-001

6.49801917084985e+004,-5.14392600137977e+000,-2.14619607167092e-001

6.58872813814055e+004,-5.14400359098090e+000,-2.17530429073046e-001

6.68070335542691e+004,-5.14408324297317e+000,-2.20478400536286e-001

6.77396249890018e+004,-5.14416500884044e+000,-2.23463901364982e-001

6.86852349150199e+004,-5.14424894116774e+000,-2.26487311399142e-001

6.96440450636895e+004,-5.14433509365336e+000,-2.29549010335749e-001

7.06162397032520e+004,-5.14442352112255e+000,-2.32649377533410e-001

7.16020056742374e+004,-5.14451427953879e+000,-2.35788791820553e-001

7.26015324253724e+004,-5.14460742601562e+000,-2.38967631289879e-001

7.36150120499896e+004,-5.14470301882726e+000,-2.42186273086474e-001

7.46426393229441e+004,-5.14480111741979e+000,-2.45445093181708e-001

7.56846117380472e+004,-5.14490178241858e+000,-2.48744466156217e-001

7.67411295460207e+004,-5.14500507563900e+000,-2.52084764949784e-001

7.78123957929823e+004,-5.14511106009226e+000,-2.55466360626484e-001

7.88986163594682e+004,-5.14521979999332e+000,-2.58889622114014e-001

7.99999999999995e+004,-5.14533136076597e+000,-2.62354915943190e-001

8.11167583832018e+004,-5.14544580904751e+000,-2.65862605976686e-001

8.22491061324848e+004,-5.14556321269209e+000,-2.69413053128105e-001

8.33972608672892e+004,-5.14568364077240e+000,-2.73006615075460e-001

8.45614432449099e+004,-5.14580716358095e+000,-2.76643645959778e-001

8.57418770029029e+004,-5.14593385262866e+000,-2.80324496082251e-001

8.69387890020841e+004,-5.14606378064369e+000,-2.84049511581853e-001

8.81524092701283e+004,-5.14619702156547e+000,-2.87819034123774e-001

8.93829710457770e+004,-5.14633365054138e+000,-2.91633400551934e-001

9.06307108236633e+004,-5.14647374391737e+000,-2.95492942558690e-001

9.18958683997622e+004,-5.14661737922914e+000,-2.99397986331522e-001

9.31786869174758e+004,-5.14676463519123e+000,-3.03348852190124e-001

9.44794129143618e+004,-5.14691559168192e+000,-3.07345854229710e-001

9.57982963695136e+004,-5.14707032972878e+000,-3.11389299936971e-001

9.71355907516031e+004,-5.14722893148923e+000,-3.15479489815161e-001

9.84915530675926e+004,-5.14739148023032e+000,-3.19616716990317e-001

9.98664439121282e+004,-5.14755806030445e+000,-3.23801266820896e-001

1.01260527517622e+005,-5.14772875712445e+000,-3.28033416485891e-001

1.02674071805032e+005,-5.14790365713285e+000,-3.32313434585687e-001

1.04107348435354e+005,-5.14808284777108e+000,-3.36641580719480e-001

1.05560632861831e+005,-5.14826641744305e+000,-3.41018105072024e-001

1.07034204382888e+005,-5.14845445547801e+000,-3.45443247980580e-001

1.08528346195813e+005,-5.14864705208685e+000,-3.49917239516737e-001

1.10043345451179e+005,-5.14884429831817e+000,-3.54440299045810e-001

1.11579493308032e+005,-5.14904628600851e+000,-3.59012634795467e-001

1.13137084989847e+005,-5.14925310772910e+000,-3.63634443422885e-001

1.14716419841265e+005,-5.14946485672946e+000,-3.68305909573170e-001

1.16317801385624e+005,-5.14968162687691e+000,-3.73027205442258e-001

1.17941537383287e+005,-5.14990351259000e+000,-3.77798490348724e-001

1.19587939890794e+005,-5.15013060877096e+000,-3.82619910289232e-001

1.21257325320831e+005,-5.15036301073041e+000,-3.87491597518610e-001

1.22950014503040e+005,-5.15060081411004e+000,-3.92413670116938e-001

1.24666332745679e+005,-5.15084411479892e+000,-3.97386231575256e-001

1.26406609898139e+005,-5.15109300884572e+000,-4.02409370381988e-001

1.28171180414339e+005,-5.15134759236658e+000,-4.07483159618125e-001

1.29960383416997e+005,-5.15160796144683e+000,-4.12607656567490e-001

1.31774562762811e+005,-5.15187421203906e+000,-4.17782902331273e-001

1.33614067108538e+005,-5.15214643985400e+000,-4.23008921469804e-001

1.35479249978003e+005,-5.15242474024943e+000,-4.28285721638694e-001

1.37370469830040e+005,-5.15270920810993e+000,-4.33613293267031e-001

1.39288090127379e+005,-5.15299993772454e+000,-4.38991609235546e-001

1.41232479406504e+005,-5.15329702265739e+000,-4.44420624586243e-001

1.43204011348474e+005,-5.15360055561342e+000,-4.49900276252434e-001

1.45203064850745e+005,-5.15391062829904e+000,-4.55430482813698e-001

1.47230024099979e+005,-5.15422733127654e+000,-4.61011144283709e-001

1.49285278645888e+005,-5.15455075381435e+000,-4.66642141920910e-001

1.51369223476094e+005,-5.15488098373091e+000,-4.72323338080594e-001

1.53482259092041e+005,-5.15521810723422e+000,-4.78054576093788e-001

1.55624791585964e+005,-5.15556220875639e+000,-4.83835680186378e-001

1.57797232718936e+005,-5.15591337078149e+000,-4.89666455446711e-001

1.59999999999999e+005,-5.15627167367103e+000,-4.95546687821333e-001

1.62233516766403e+005,-5.15663719548276e+000,-5.01476144169103e-001

1.64498212264969e+005,-5.15701001178611e+000,-5.07454572355619e-001

1.66794521734578e+005,-5.15739019547272e+000,-5.13481701401566e-001

1.69122886489819e+005,-5.15777781656296e+000,-5.19557241686056e-001

1.71483754005805e+005,-5.15817294200955e+000,-5.25680885198415e-001

1.73877578004168e+005,-5.15857563549597e+000,-5.31852305860885e-001

1.76304818540256e+005,-5.15898595723343e+000,-5.38071159900671e-001

1.78765942091554e+005,-5.15940396375436e+000,-5.44337086291707e-001

1.81261421647326e+005,-5.15982970770327e+000,-5.50649707262230e-001

1.83791736799524e+005,-5.16026323762574e+000,-5.57008628871670e-001

1.86357373834951e+005,-5.16070459775654e+000,-5.63413441653832e-001

1.88958825828723e+005,-5.16115382780590e+000,-5.69863721338393e-001

1.91596592739027e+005,-5.16161096274601e+000,-5.76359029643650e-001

1.94271181503206e+005,-5.16207603259672e+000,-5.82898915150388e-001

1.96983106135185e+005,-5.16254906221271e+000,-5.89482914250657e-001

1.99732887824256e+005,-5.16303007107173e+000,-5.96110552177069e-001

2.02521055035243e+005,-5.16351907306459e+000,-6.02781344114695e-001

2.05348143610063e+005,-5.16401607628750e+000,-6.09494796398242e-001

2.08214696870707e+005,-5.16452108283831e+000,-6.16250407787630e-001

2.11121265723661e+005,-5.16503408861665e+000,-6.23047670829046e-001

2.14068408765776e+005,-5.16555508312804e+000,-6.29886073305726e-001

2.17056692391625e+005,-5.16608404929489e+000,-6.36765099764323e-001

2.20086690902357e+005,-5.16662096327234e+000,-6.43684233134734e-001

2.23158986616063e+005,-5.16716579427267e+000,-6.50642956424975e-001

2.26274169979693e+005,-5.16771850439630e+000,-6.57640754506862e-001

2.29432839682530e+005,-5.16827904847292e+000,-6.64677115974657e-001

2.32635602771247e+005,-5.16884737391070e+000,-6.71751535092343e-001

2.35883074766574e+005,-5.16942342055722e+000,-6.78863513811070e-001

2.39175879781588e+005,-5.17000712057121e+000,-6.86012563863506e-001

2.42514650641661e+005,-5.17059839830560e+000,-6.93198208936302e-001

2.45900029006080e+005,-5.17119717020481e+000,-7.00419986901994e-001

2.49332665491357e+005,-5.17180334471459e+000,-7.07677452122896e-001

2.52813219796278e+005,-5.17241682220666e+000,-7.14970177815507e-001

2.56342360828676e+005,-5.17303749491879e+000,-7.22297758467512e-001

2.59920766833993e+005,-5.17366524690989e+000,-7.29659812313544e-001

2.63549125525621e+005,-5.17429995403262e+000,-7.37055983850881e-001

2.67228134217075e+005,-5.17494148392264e+000,-7.44485946399994e-001

2.70958499956006e+005,-5.17558969600533e+000,-7.51949404699502e-001

2.74740939660078e+005,-5.17624444152130e+000,-7.59446097528508e-001

2.78576180254757e+005,-5.17690556357087e+000,-7.66975800348890e-001

2.82464958813007e+005,-5.17757289717620e+000,-7.74538327970115e-001

2.86408022696948e+005,-5.17824626936485e+000,-7.82133537211379e-001

2.90406129701488e+005,-5.17892549927143e+000,-7.89761329572527e-001

2.94460048199957e+005,-5.17961039826047e+000,-7.97421653889496e-001

2.98570557291775e+005,-5.18030077006839e+000,-8.05114508979983e-001

3.02738446952187e+005,-5.18099641096610e+000,-8.12839946262738e-001

3.06964518184081e+005,-5.18169710994128e+000,-8.20598072344790e-001

3.11249583171928e+005,-5.18240264890071e+000,-8.28389051569582e-001

3.15594465437872e+005,-5.18311280289258e+000,-8.36213108513416e-001

3.19999999999997e+005,-5.18382734034769e+000,-8.44070530428267e-001

3.24467033532806e+005,-5.18454602333923e+000,-8.51961669621298e-001

3.28996424529938e+005,-5.18526860786249e+000,-8.59886945752427e-001

3.33589043469155e+005,-5.18599484413067e+000,-8.67846848062117e-001

3.38245772979638e+005,-5.18672447688886e+000,-8.75841937503734e-001

3.42967508011610e+005,-5.18745724574444e+000,-8.83872848779605e-001

3.47755156008335e+005,-5.18819288551281e+000,-8.91940292276192e-001

3.52609637080511e+005,-5.18893112657745e+000,-9.00045055890267e-001

3.57531884183106e+005,-5.18967169526455e+000,-9.08188006734115e-001

3.62522843294651e+005,-5.19041431422925e+000,-9.16370092722997e-001

3.67583473599047e+005,-5.19115870285393e+000,-9.24592344031491e-001

3.72714747669902e+005,-5.19190457765637e+000,-9.32855874420624e-001

3.77917651657445e+005,-5.19265165270709e+000,-9.41161882424174e-001

3.83193185478053e+005,-5.19339964005430e+000,-9.49511652395893e-001

3.88542363006410e+005,-5.19414825015496e+000,-9.57906555413938e-001

3.93966212270369e+005,-5.19489719231111e+000,-9.66348050035494e-001

3.99465775648511e+005,-5.19564617510927e+000,-9.74837682905937e-001

4.05042110070485e+005,-5.19639490686230e+000,-9.83377089215877e-001

4.10696287220124e+005,-5.19714309605132e+000,-9.91967993010926e-001

4.16429393741414e+005,-5.19789045176779e+000,-1.00061220734496e+000

4.22242531447321e+005,-5.19863668415191e+000,-1.00931163429173e+000

4.28136817531551e+005,-5.19938150482873e+000,-1.01806826480203e+000

4.34113384783250e+005,-5.20012462733776e+000,-1.02688417841942e+000

4.40173381804713e+005,-5.20086576755735e+000,-1.03576154284812e+000

4.46317973232124e+005,-5.20160464412017e+000,-1.04470261338488e+000

4.52548339959385e+005,-5.20234097882006e+000,-1.05370973221344e+000

4.58865679365059e+005,-5.20307449700839e+000,-1.06278532756652e+000

4.65271205542494e+005,-5.20380492797838e+000,-1.07193191276425e+000

4.71766149533147e+005,-5.20453200533719e+000,-1.08115208512925e+000

4.78351759563174e+005,-5.20525546736410e+000,-1.09044852478657e+000

4.85029301283321e+005,-5.20597505735300e+000,-1.09982399336165e+000

4.91800058012158e+005,-5.20669052394056e+000,-1.10928133256726e+000

4.98665330982714e+005,-5.20740162141651e+000,-1.11882346270536e+000

5.05626439592555e+005,-5.20810811001716e+000,-1.12845338107851e+000

5.12684721657352e+005,-5.20880975620078e+000,-1.13817416032323e+000

5.19841533667984e+005,-5.20950633290448e+000,-1.14798894667337e+000

5.27098251051240e+005,-5.21019761978175e+000,-1.15790095816078e+000

5.34456268434150e+005,-5.21088340342050e+000,-1.16791348276435e+000

5.41916999912011e+005,-5.21156347754176e+000,-1.17802987650956e+000

