Freq.,VOut,OutRef

1.00000000000000e+004,-3.26123905595939e+001,-1.13131297827063e-001

1.01395947979003e+004,-3.26123915470179e+001,-1.14710412209270e-001

1.02811382665607e+004,-3.26123925621713e+001,-1.16311564281996e-001

1.04246576084112e+004,-3.26123936058322e+001,-1.17935061426823e-001

1.05701804056138e+004,-3.26123946788003e+001,-1.19581215307063e-001

1.07177346253629e+004,-3.26123957818975e+001,-1.21250341925709e-001

1.08673486252606e+004,-3.26123969159687e+001,-1.22942761686831e-001

1.10190511587661e+004,-3.26123980818827e+001,-1.24658799453121e-001

1.11728713807222e+004,-3.26123992805322e+001,-1.26398784611215e-001

1.13288388529580e+004,-3.26124005128351e+001,-1.28163051131713e-001

1.14869835499703e+004,-3.26124017797353e+001,-1.29951937632296e-001

1.16473358646846e+004,-3.26124030822023e+001,-1.31765787447411e-001

1.18099266142953e+004,-3.26124044212334e+001,-1.33604948685363e-001

1.19747870461893e+004,-3.26124057978535e+001,-1.35469774299917e-001

1.21419488439505e+004,-3.26124072131162e+001,-1.37360622155848e-001

1.23114441334492e+004,-3.26124086681044e+001,-1.39277855098218e-001

1.24833054890161e+004,-3.26124101639314e+001,-1.41221841016156e-001

1.26575659397028e+004,-3.26124117017414e+001,-1.43192952920728e-001

1.28342589756290e+004,-3.26124132827111e+001,-1.45191569005391e-001

1.30134185544193e+004,-3.26124149080492e+001,-1.47218072729285e-001

1.31950791077289e+004,-3.26124165789990e+001,-1.49272852878483e-001

1.33792755478611e+004,-3.26124182968376e+001,-1.51356303649748e-001

1.35660432744767e+004,-3.26124200628787e+001,-1.53468824715558e-001

1.37554181813974e+004,-3.26124218784719e+001,-1.55610821307104e-001

1.39474366635040e+004,-3.26124237450051e+001,-1.57782704286046e-001

1.41421356237309e+004,-3.26124256639040e+001,-1.59984890227391e-001

1.43395524801583e+004,-3.26124276366349e+001,-1.62217801492010e-001

1.45397251732031e+004,-3.26124296647046e+001,-1.64481866309132e-001

1.47426921729110e+004,-3.26124317496619e+001,-1.66777518859048e-001

1.49484924863494e+004,-3.26124338930988e+001,-1.69105199350911e-001

1.51571656651040e+004,-3.26124360966515e+001,-1.71465354109829e-001

1.53687518128801e+004,-3.26124383620019e+001,-1.73858435657955e-001

1.55832915932100e+004,-3.26124406908788e+001,-1.76284902799534e-001

1.58008262372675e+004,-3.26124430850591e+001,-1.78745220709321e-001

1.60213975517924e+004,-3.26124455463688e+001,-1.81239861019593e-001

1.62450479271247e+004,-3.26124480766851e+001,-1.83769301906126e-001

1.64718203453514e+004,-3.26124506779372e+001,-1.86334028180593e-001

1.67017583885674e+004,-3.26124533521076e+001,-1.88934531383304e-001

1.69349062472505e+004,-3.26124561012347e+001,-1.91571309868697e-001

1.71713087287550e+004,-3.26124589274128e+001,-1.94244868905272e-001

1.74110112659224e+004,-3.26124618327947e+001,-1.96955720766477e-001

1.76540599258131e+004,-3.26124648195926e+001,-1.99704384830580e-001

1.79005014185594e+004,-3.26124678900807e+001,-2.02491387670602e-001

1.81503831063432e+004,-3.26124710465958e+001,-2.05317263160666e-001

1.84037530124975e+004,-3.26124742915394e+001,-2.08182552570647e-001

1.86606598307361e+004,-3.26124776273801e+001,-2.11087804667844e-001

1.89211529345119e+004,-3.26124810566543e+001,-2.14033575821089e-001

1.91852823865052e+004,-3.26124845819691e+001,-2.17020430102024e-001

1.94530989482457e+004,-3.26124882060034e+001,-2.20048939391693e-001

1.97246540898671e+004,-3.26124919315106e+001,-2.23119683486041e-001

1.99999999999999e+004,-3.26124957613198e+001,-2.26233250204320e-001

2.02791895958005e+004,-3.26124996983388e+001,-2.29390235495012e-001

2.05622765331213e+004,-3.26125037455553e+001,-2.32591243552486e-001

2.08493152168224e+004,-3.26125079060399e+001,-2.35836886922306e-001

2.11403608112276e+004,-3.26125121829476e+001,-2.39127786617673e-001

2.14354692507258e+004,-3.26125165795207e+001,-2.42464572235062e-001

2.17346972505211e+004,-3.26125210990908e+001,-2.45847882068283e-001

2.20381023175322e+004,-3.26125257450814e+001,-2.49278363225447e-001

2.23457427614443e+004,-3.26125305210101e+001,-2.52756671751932e-001

2.26576777059159e+004,-3.26125354304917e+001,-2.56283472746807e-001

2.29739670999406e+004,-3.26125404772400e+001,-2.59859440487984e-001

2.32946717293690e+004,-3.26125456650711e+001,-2.63485258554433e-001

2.36198532285905e+004,-3.26125509979061e+001,-2.67161619951116e-001

2.39495740923785e+004,-3.26125564797736e+001,-2.70889227236081e-001

2.42838976879009e+004,-3.26125621148126e+001,-2.74668792651097e-001

2.46228882668982e+004,-3.26125679072760e+001,-2.78501038246314e-001

2.49666109780322e+004,-3.26125738615331e+001,-2.82386696017309e-001

2.53151318794055e+004,-3.26125799820726e+001,-2.86326508034961e-001

2.56685179512580e+004,-3.26125862735061e+001,-2.90321226581911e-001

2.60268371088386e+004,-3.26125927405715e+001,-2.94371614287769e-001

2.63901582154578e+004,-3.26125993881359e+001,-2.98478444267822e-001

2.67585510957221e+004,-3.26126062211995e+001,-3.02642500261653e-001

2.71320865489533e+004,-3.26126132448986e+001,-3.06864576776907e-001

2.75108363627948e+004,-3.26126204645095e+001,-3.11145479230945e-001

2.78948733270080e+004,-3.26126278854523e+001,-3.15486024095342e-001

2.82842712474618e+004,-3.26126355132946e+001,-3.19887039042059e-001

2.86791049603164e+004,-3.26126433537550e+001,-3.24349363093730e-001

2.90794503464061e+004,-3.26126514127075e+001,-3.28873846772585e-001

2.94853843458219e+004,-3.26126596961855e+001,-3.33461352250951e-001

2.98969849726987e+004,-3.26126682103856e+001,-3.38112753508063e-001

3.03143313302078e+004,-3.26126769616725e+001,-3.42828936479986e-001

3.07375036257601e+004,-3.26126859565827e+001,-3.47610799223296e-001

3.11665831864199e+004,-3.26126952018291e+001,-3.52459252069250e-001

3.16016524745350e+004,-3.26127047043061e+001,-3.57375217785903e-001

3.20427951035848e+004,-3.26127144710935e+001,-3.62359631741626e-001

3.24900958542493e+004,-3.26127245094617e+001,-3.67413442067972e-001

3.29436406907028e+004,-3.26127348268764e+001,-3.72537609826852e-001

3.34035167771346e+004,-3.26127454310038e+001,-3.77733109178793e-001

3.38698124945009e+004,-3.26127563297157e+001,-3.83000927550626e-001

3.43426174575100e+004,-3.26127675310944e+001,-3.88342065810888e-001

3.48220225318448e+004,-3.26127790434382e+001,-3.93757538441619e-001

3.53081198516260e+004,-3.26127908752670e+001,-3.99248373713140e-001

3.58010028371187e+004,-3.26128030353279e+001,-4.04815613862334e-001

3.63007662126863e+004,-3.26128155326007e+001,-4.10460315271234e-001

3.68075060249948e+004,-3.26128283763034e+001,-4.16183548651119e-001

3.73213196614721e+004,-3.26128415758989e+001,-4.21986399221410e-001

3.78423058690237e+004,-3.26128551411006e+001,-4.27869966897332e-001

3.83705647730104e+004,-3.26128690818787e+001,-4.33835366475440e-001

3.89061978964912e+004,-3.26128834084662e+001,-4.39883727824842e-001

3.94493081797342e+004,-3.26128981313660e+001,-4.46016196074306e-001

3.99999999999998e+004,-3.26129132613568e+001,-4.52233931808253e-001

4.05583791916010e+004,-3.26129288095002e+001,-4.58538111259306e-001

4.11245530662425e+004,-3.26129447871476e+001,-4.64929926505471e-001

4.16986304336447e+004,-3.26129612059467e+001,-4.71410585668641e-001

4.22807216224550e+004,-3.26129780778491e+001,-4.77981313114896e-001

4.28709385014515e+004,-3.26129954151174e+001,-4.84643349655581e-001

4.34693945010421e+004,-3.26130132303322e+001,-4.91397952754067e-001

4.40762046350642e+004,-3.26130315364005e+001,-4.98246396727762e-001

4.46914855228886e+004,-3.26130503465621e+001,-5.05189972960453e-001

4.53153554118317e+004,-3.26130696743984e+001,-5.12229990108575e-001

4.59479341998812e+004,-3.26130895338397e+001,-5.19367774315620e-001

4.65893434587380e+004,-3.26131099391738e+001,-5.26604669422857e-001

4.72397064571810e+004,-3.26131309050534e+001,-5.33942037187509e-001

4.78991481847569e+004,-3.26131524465050e+001,-5.41381257498335e-001

4.85677953758016e+004,-3.26131745789373e+001,-5.48923728595351e-001

4.92457765337964e+004,-3.26131973181491e+001,-5.56570867291363e-001

4.99332219560642e+004,-3.26132206803389e+001,-5.64324109193169e-001

5.06302637588109e+004,-3.26132446821130e+001,-5.72184908928575e-001

5.13370359025159e+004,-3.26132693404950e+001,-5.80154740369843e-001

5.20536742176771e+004,-3.26132946729340e+001,-5.88235096865305e-001

5.27803164309155e+004,-3.26133206973146e+001,-5.96427491466718e-001

5.35171021914442e+004,-3.26133474319659e+001,-6.04733457162043e-001

5.42641730979066e+004,-3.26133748956703e+001,-6.13154547110149e-001

5.50216727255895e+004,-3.26134031076738e+001,-6.21692334873619e-001

5.57897466540159e+004,-3.26134320876953e+001,-6.30348414657450e-001

5.65685424949235e+004,-3.26134618559358e+001,-6.39124401548200e-001

5.73582099206328e+004,-3.26134924330887e+001,-6.48021931752696e-001

5.81589006928121e+004,-3.26135238403494e+001,-6.57042662841481e-001

5.89707686916437e+004,-3.26135560994251e+001,-6.66188273991808e-001

5.97939699453972e+004,-3.26135892325450e+001,-6.75460466233670e-001

6.06286626604156e+004,-3.26136232624699e+001,-6.84860962696191e-001

6.14750072515201e+004,-3.26136582125026e+001,-6.94391508856497e-001

6.23331663728396e+004,-3.26136941064980e+001,-7.04053872789462e-001

6.32033049490698e+004,-3.26137309688730e+001,-7.13849845420680e-001

6.40855902071694e+004,-3.26137688246167e+001,-7.23781240777798e-001

6.49801917084985e+004,-3.26138076993007e+001,-7.33849896247486e-001

6.58872813814055e+004,-3.26138476190888e+001,-7.44057672830077e-001

6.68070335542691e+004,-3.26138886107477e+001,-7.54406455398958e-001

6.77396249890018e+004,-3.26139307016564e+001,-7.64898152959090e-001

6.86852349150199e+004,-3.26139739198170e+001,-7.75534698907343e-001

6.96440450636895e+004,-3.26140182938637e+001,-7.86318051297772e-001

7.06162397032520e+004,-3.26140638530735e+001,-7.97250193100558e-001

7.16020056742374e+004,-3.26141106273756e+001,-8.08333132473408e-001

7.26015324253724e+004,-3.26141586473608e+001,-8.19568903022775e-001

7.36150120499896e+004,-3.26142079442916e+001,-8.30959564076579e-001

7.46426393229441e+004,-3.26142585501107e+001,-8.42507200952152e-001

7.56846117380472e+004,-3.26143104974510e+001,-8.54213925227871e-001

7.67411295460207e+004,-3.26143638196439e+001,-8.66081875015962e-001

7.78123957929823e+004,-3.26144185507284e+001,-8.78113215237613e-001

7.88986163594682e+004,-3.26144747254593e+001,-8.90310137899795e-001

7.99999999999995e+004,-3.26145323793154e+001,-9.02674862370707e-001

8.11167583832018e+004,-3.26145915485073e+001,-9.15209635661910e-001

8.22491061324848e+004,-3.26146522699852e+001,-9.27916732707883e-001

8.33972608672892e+004,-3.26147145814457e+001,-9.40798456649151e-001

8.45614432449099e+004,-3.26147785213384e+001,-9.53857139117967e-001

8.57418770029029e+004,-3.26148441288729e+001,-9.67095140523827e-001

8.69387890020841e+004,-3.26149114440236e+001,-9.80514850343623e-001

8.81524092701283e+004,-3.26149805075357e+001,-9.94118687411660e-001

8.93829710457770e+004,-3.26150513609301e+001,-1.00790910021215e+000

9.06307108236633e+004,-3.26151240465069e+001,-1.02188856717523e+000

9.18958683997622e+004,-3.26151986073493e+001,-1.03605959697612e+000

9.31786869174758e+004,-3.26152750873270e+001,-1.05042472883270e+000

9.44794129143618e+004,-3.26153535310975e+001,-1.06498653281094e+000

9.57982963695136e+004,-3.26154339841081e+001,-1.07974761013046e+000

9.71355907516031e+004,-3.26155164925966e+001,-1.09471059347371e+000

9.84915530675926e+004,-3.26156011035909e+001,-1.10987814729852e+000

9.98664439121282e+004,-3.26156878649081e+001,-1.12525296815458e+000

1.01260527517622e+005,-3.26157768251526e+001,-1.14083778500292e+000

1.02674071805032e+005,-3.26158680337130e+001,-1.15663535954098e+000

1.04107348435354e+005,-3.26159615407583e+001,-1.17264848652979e+000

1.05560632861831e+005,-3.26160573972328e+001,-1.18887999412884e+000

1.07034204382888e+005,-3.26161556548501e+001,-1.20533274423288e+000

1.08528346195813e+005,-3.26162563660858e+001,-1.22200963281545e+000

1.10043345451179e+005,-3.26163595841687e+001,-1.23891359028012e+000

1.11579493308032e+005,-3.26164653630718e+001,-1.25604758181355e+000

1.13137084989847e+005,-3.26165737575004e+001,-1.27341460774997e+000

1.14716419841265e+005,-3.26166848228802e+001,-1.29101770393918e+000

1.16317801385624e+005,-3.26167986153434e+001,-1.30885994212425e+000

1.17941537383287e+005,-3.26169151917135e+001,-1.32694443032594e+000

1.19587939890794e+005,-3.26170346094884e+001,-1.34527431323688e+000

1.21257325320831e+005,-3.26171569268224e+001,-1.36385277262483e+000

1.22950014503040e+005,-3.26172822025061e+001,-1.38268302774590e+000

1.24666332745679e+005,-3.26174104959452e+001,-1.40176833576840e+000

1.26406609898139e+005,-3.26175418671373e+001,-1.42111199220614e+000

1.28171180414339e+005,-3.26176763766470e+001,-1.44071733136831e+000

1.29960383416997e+005,-3.26178140855795e+001,-1.46058772681699e+000

1.31774562762811e+005,-3.26179550555527e+001,-1.48072659184183e+000

1.33614067108538e+005,-3.26180993486667e+001,-1.50113737994726e+000

1.35479249978003e+005,-3.26182470274722e+001,-1.52182358535670e+000

1.37370469830040e+005,-3.26183981549372e+001,-1.54278874353058e+000

1.39288090127379e+005,-3.26185527944114e+001,-1.56403643170480e+000

1.41232479406504e+005,-3.26187110095890e+001,-1.58557026944520e+000

1.43204011348474e+005,-3.26188728644699e+001,-1.60739391922036e+000

1.45203064850745e+005,-3.26190384233188e+001,-1.62951108699783e+000

1.47230024099979e+005,-3.26192077506229e+001,-1.65192552285886e+000

1.49285278645888e+005,-3.26193809110474e+001,-1.67464102163682e+000

1.51369223476094e+005,-3.26195579693897e+001,-1.69766142357878e+000

1.53482259092041e+005,-3.26197389905316e+001,-1.72099061503278e+000

1.55624791585964e+005,-3.26199240393903e+001,-1.74463252915959e+000

1.57797232718936e+005,-3.26201131808671e+001,-1.76859114667314e+000

1.59999999999999e+005,-3.26203064797960e+001,-1.79287049660747e+000

1.62233516766403e+005,-3.26205040008891e+001,-1.81747465711593e+000

1.64498212264969e+005,-3.26207058086821e+001,-1.84240775629915e+000

1.66794521734578e+005,-3.26209119674783e+001,-1.86767397306603e+000

1.69122886489819e+005,-3.26211225412910e+001,-1.89327753802709e+000

1.71483754005805e+005,-3.26213375937855e+001,-1.91922273442580e+000

1.73877578004168e+005,-3.26215571882204e+001,-1.94551389910076e+000

1.76304818540256e+005,-3.26217813873876e+001,-1.97215542348981e+000

1.78765942091554e+005,-3.26220102535526e+001,-1.99915175467004e+000

1.81261421647326e+005,-3.26222438483941e+001,-2.02650739643678e+000

1.83791736799524e+005,-3.26224822329435e+001,-2.05422691042712e+000

1.86357373834951e+005,-3.26227254675252e+001,-2.08231491728044e+000

1.88958825828723e+005,-3.26229736116962e+001,-2.11077609784526e+000

1.91596592739027e+005,-3.26232267241870e+001,-2.13961519442918e+000

1.94271181503206e+005,-3.26234848628438e+001,-2.16883701209293e+000

1.96983106135185e+005,-3.26237480845709e+001,-2.19844641999269e+000

1.99732887824256e+005,-3.26240164452749e+001,-2.22844835276582e+000

2.02521055035243e+005,-3.26242899998113e+001,-2.25884781196646e+000

2.05348143610063e+005,-3.26245688019320e+001,-2.28964986754906e+000

2.08214696870707e+005,-3.26248529042363e+001,-2.32085965939835e+000

2.11121265723661e+005,-3.26251423581239e+001,-2.35248239891181e+000

2.14068408765776e+005,-3.26254372137513e+001,-2.38452337062831e+000

2.17056692391625e+005,-3.26257375199915e+001,-2.41698793390756e+000

2.20086690902357e+005,-3.26260433243974e+001,-2.44988152466037e+000

2.23158986616063e+005,-3.26263546731699e+001,-2.48320965712599e+000

2.26274169979693e+005,-3.26266716111299e+001,-2.51697792570062e+000

2.29432839682530e+005,-3.26269941816954e+001,-2.55119200681448e+000

2.32635602771247e+005,-3.26273224268644e+001,-2.58585766085648e+000

2.35883074766574e+005,-3.26276563872028e+001,-2.62098073414659e+000

2.39175879781588e+005,-3.26279961018389e+001,-2.65656716095755e+000

2.42514650641661e+005,-3.26283416084644e+001,-2.69262296557764e+000

2.45900029006080e+005,-3.26286929433420e+001,-2.72915426442245e+000

2.49332665491357e+005,-3.26290501413200e+001,-2.76616726818768e+000

2.52813219796278e+005,-3.26294132358558e+001,-2.80366828404344e+000

2.56342360828676e+005,-3.26297822590455e+001,-2.84166371786910e+000

2.59920766833993e+005,-3.26301572416637e+001,-2.88016007652614e+000

2.63549125525621e+005,-3.26305382132105e+001,-2.91916397016590e+000

2.67228134217075e+005,-3.26309252019680e+001,-2.95868211457289e+000

2.70958499956006e+005,-3.26313182350670e+001,-2.99872133353668e+000

2.74740939660078e+005,-3.26317173385612e+001,-3.03928856125539e+000

2.78576180254757e+005,-3.26321225375133e+001,-3.08039084476275e+000

2.82464958813007e+005,-3.26325338560900e+001,-3.12203534638006e+000

2.86408022696948e+005,-3.26329513176673e+001,-3.16422934618709e+000

2.90406129701488e+005,-3.26333749449467e+001,-3.20698024451125e+000

2.94460048199957e+005,-3.26338047600814e+001,-3.25029556442977e+000

2.98570557291775e+005,-3.26342407848135e+001,-3.29418295428404e+000

3.02738446952187e+005,-3.26346830406221e+001,-3.33865019019957e+000

3.06964518184081e+005,-3.26351315488817e+001,-3.38370517861104e+000

3.11249583171928e+005,-3.26355863310315e+001,-3.42935595878888e+000

3.15594465437872e+005,-3.26360474087561e+001,-3.47561070536184e+000

3.19999999999997e+005,-3.26365148041759e+001,-3.52247773083347e+000

3.24467033532806e+005,-3.26369885400493e+001,-3.56996548809010e+000

3.28996424529938e+005,-3.26374686399838e+001,-3.61808257289571e+000

3.33589043469155e+005,-3.26379551286588e+001,-3.66683772637032e+000

3.38245772979638e+005,-3.26384480320581e+001,-3.71623983744897e+000

3.42967508011610e+005,-3.26389473777116e+001,-3.76629794531930e+000

3.47755156008335e+005,-3.26394531949471e+001,-3.81702124183316e+000

3.52609637080511e+005,-3.26399655151517e+001,-3.86841907389046e+000

3.57531884183106e+005,-3.26404843720408e+001,-3.92050094579149e+000

3.62522843294651e+005,-3.26410098019373e+001,-3.97327652155795e+000

3.67583473599047e+005,-3.26415418440572e+001,-4.02675562721576e+000

3.72714747669902e+005,-3.26420805408043e+001,-4.08094825304270e+000

3.77917651657445e+005,-3.26426259380712e+001,-4.13586455577667e+000

3.83193185478053e+005,-3.26431780855477e+001,-4.19151486078038e+000

3.88542363006410e+005,-3.26437370370346e+001,-4.24790966416706e+000

3.93966212270369e+005,-3.26443028507644e+001,-4.30505963488114e+000

3.99465775648511e+005,-3.26448755897264e+001,-4.36297561673521e+000

4.05042110070485e+005,-3.26454553219966e+001,-4.42166863040184e+000

4.10696287220124e+005,-3.26460421210727e+001,-4.48114987536144e+000

4.16429393741414e+005,-3.26466360662115e+001,-4.54143073180397e+000

4.22242531447321e+005,-3.26472372427707e+001,-4.60252276248717e+000

4.28136817531551e+005,-3.26478457425521e+001,-4.66443771455138e+000

4.34113384783250e+005,-3.26484616641487e+001,-4.72718752128858e+000

4.40173381804713e+005,-3.26490851132918e+001,-4.79078430387246e+000

4.46317973232124e+005,-3.26497162032001e+001,-4.85524037304608e+000

4.52548339959385e+005,-3.26503550549300e+001,-4.92056823077155e+000

4.58865679365059e+005,-3.26510017977255e+001,-4.98678057184159e+000

4.65271205542494e+005,-3.26516565693682e+001,-5.05389028545753e+000

4.71766149533147e+005,-3.26523195165276e+001,-5.12191045677316e+000

4.78351759563174e+005,-3.26529907951099e+001,-5.19085436840942e+000

4.85029301283321e+005,-3.26536705706059e+001,-5.26073550194116e+000

4.91800058012158e+005,-3.26543590184383e+001,-5.33156753935944e+000

4.98665330982714e+005,-3.26550563243062e+001,-5.40336436451216e+000

5.05626439592555e+005,-3.26557626845293e+001,-5.47614006452595e+000

5.12684721657352e+005,-3.26564783063891e+001,-5.54990893121224e+000

5.19841533667984e+005,-3.26572034084691e+001,-5.62468546246252e+000

5.27098251051240e+005,-3.26579382209919e+001,-5.70048436363331e+000

5.34456268434150e+005,-3.26586829861556e+001,-5.77732054892599e+000

5.41916999912011e+005,-3.26594379584667e+001,-5.85520914276567e+000

