Freq.,VOut,OutRef

1.00000000000000e+004,-2.36645181538838e+001,-3.03969801553306e-001

1.01395947979003e+004,-2.36645214550836e+001,-3.08212664370225e-001

1.02811382665607e+004,-2.36645248490076e+001,-3.12514738479203e-001

1.04246576084112e+004,-2.36645283382576e+001,-3.16876849725274e-001

1.05701804056138e+004,-2.36645319255087e+001,-3.21299835449088e-001

1.07177346253629e+004,-2.36645356135104e+001,-3.25784544650098e-001

1.08673486252606e+004,-2.36645394050895e+001,-3.30331838146631e-001

1.10190511587661e+004,-2.36645433031521e+001,-3.34942588737153e-001

1.11728713807222e+004,-2.36645473106851e+001,-3.39617681371441e-001

1.13288388529580e+004,-2.36645514307597e+001,-3.44358013312751e-001

1.14869835499703e+004,-2.36645556665325e+001,-3.49164494312250e-001

1.16473358646846e+004,-2.36645600212487e+001,-3.54038046779312e-001

1.18099266142953e+004,-2.36645644982443e+001,-3.58979605958618e-001

1.19747870461893e+004,-2.36645691009486e+001,-3.63990120105133e-001

1.21419488439505e+004,-2.36645738328869e+001,-3.69070550665783e-001

1.23114441334492e+004,-2.36645786976828e+001,-3.74221872462007e-001

1.24833054890161e+004,-2.36645836990617e+001,-3.79445073871342e-001

1.26575659397028e+004,-2.36645888408529e+001,-3.84741157018153e-001

1.28342589756290e+004,-2.36645941269926e+001,-3.90111137962257e-001

1.30134185544193e+004,-2.36645995615273e+001,-3.95556046889291e-001

1.31950791077289e+004,-2.36646051486167e+001,-4.01076928307501e-001

1.33792755478611e+004,-2.36646108925363e+001,-4.06674841245786e-001

1.35660432744767e+004,-2.36646167976815e+001,-4.12350859451260e-001

1.37554181813974e+004,-2.36646228685700e+001,-4.18106071594707e-001

1.39474366635040e+004,-2.36646291098462e+001,-4.23941581474693e-001

1.41421356237309e+004,-2.36646355262839e+001,-4.29858508224893e-001

1.43395524801583e+004,-2.36646421227902e+001,-4.35857986527428e-001

1.45397251732031e+004,-2.36646489044092e+001,-4.41941166825342e-001

1.47426921729110e+004,-2.36646558763258e+001,-4.48109215539323e-001

1.49484924863494e+004,-2.36646630438695e+001,-4.54363315287129e-001

1.51571656651040e+004,-2.36646704125183e+001,-4.60704665108374e-001

1.53687518128801e+004,-2.36646779879034e+001,-4.67134480685535e-001

1.55832915932100e+004,-2.36646857758128e+001,-4.73653994576338e-001

1.58008262372675e+004,-2.36646937821956e+001,-4.80264456444797e-001

1.60213975517924e+004,-2.36647020131674e+001,-4.86967133292292e-001

1.62450479271247e+004,-2.36647104750132e+001,-4.93763309700699e-001

1.64718203453514e+004,-2.36647191741941e+001,-5.00654288068424e-001

1.67017583885674e+004,-2.36647281173503e+001,-5.07641388857756e-001

1.69349062472505e+004,-2.36647373113073e+001,-5.14725950838895e-001

1.71713087287550e+004,-2.36647467630806e+001,-5.21909331343370e-001

1.74110112659224e+004,-2.36647564798807e+001,-5.29192906515115e-001

1.76540599258131e+004,-2.36647664691190e+001,-5.36578071569302e-001

1.79005014185594e+004,-2.36647767384126e+001,-5.44066241052856e-001

1.81503831063432e+004,-2.36647872955908e+001,-5.51658849106008e-001

1.84037530124975e+004,-2.36647981486999e+001,-5.59357349732527e-001

1.86606598307361e+004,-2.36648093060104e+001,-5.67163217066895e-001

1.89211529345119e+004,-2.36648207760221e+001,-5.75077945652533e-001

1.91852823865052e+004,-2.36648325674711e+001,-5.83103050714005e-001

1.94530989482457e+004,-2.36648446893356e+001,-5.91240068444974e-001

1.97246540898671e+004,-2.36648571508430e+001,-5.99490556288003e-001

1.99999999999999e+004,-2.36648699614769e+001,-6.07856093223834e-001

2.02791895958005e+004,-2.36648831309836e+001,-6.16338280066577e-001

2.05622765331213e+004,-2.36648966693794e+001,-6.24938739755939e-001

2.08493152168224e+004,-2.36649105869582e+001,-6.33659117658669e-001

2.11403608112276e+004,-2.36649248942990e+001,-6.42501081873332e-001

2.14354692507258e+004,-2.36649396022734e+001,-6.51466323534838e-001

2.17346972505211e+004,-2.36649547220540e+001,-6.60556557127519e-001

2.20381023175322e+004,-2.36649702651222e+001,-6.69773520800934e-001

2.23457427614443e+004,-2.36649862432768e+001,-6.79118976686239e-001

2.26576777059159e+004,-2.36650026686425e+001,-6.88594711223148e-001

2.29739670999406e+004,-2.36650195536791e+001,-6.98202535483209e-001

2.32946717293690e+004,-2.36650369111898e+001,-7.07944285503437e-001

2.36198532285905e+004,-2.36650547543314e+001,-7.17821822621835e-001

2.39495740923785e+004,-2.36650730966233e+001,-7.27837033814383e-001

2.42838976879009e+004,-2.36650919519572e+001,-7.37991832042137e-001

2.46228882668982e+004,-2.36651113346077e+001,-7.48288156595766e-001

2.49666109780322e+004,-2.36651312592422e+001,-7.58727973449999e-001

2.53151318794055e+004,-2.36651517409315e+001,-7.69313275618208e-001

2.56685179512580e+004,-2.36651727951606e+001,-7.80046083515676e-001

2.60268371088386e+004,-2.36651944378402e+001,-7.90928445320949e-001

2.63901582154578e+004,-2.36652166853175e+001,-8.01962437348932e-001

2.67585510957221e+004,-2.36652395543884e+001,-8.13150164422153e-001

2.71320865489533e+004,-2.36652630623091e+001,-8.24493760250789e-001

2.75108363627948e+004,-2.36652872268089e+001,-8.35995387814204e-001

2.78948733270080e+004,-2.36653120661022e+001,-8.47657239748661e-001

2.82842712474618e+004,-2.36653375989019e+001,-8.59481538739677e-001

2.86791049603164e+004,-2.36653638444323e+001,-8.71470537917715e-001

2.90794503464061e+004,-2.36653908224426e+001,-8.83626521260157e-001

2.94853843458219e+004,-2.36654185532215e+001,-8.95951803995965e-001

2.98969849726987e+004,-2.36654470576106e+001,-9.08448733015626e-001

3.03143313302078e+004,-2.36654763570194e+001,-9.21119687288005e-001

3.07375036257601e+004,-2.36655064734401e+001,-9.33967078279321e-001

3.11665831864199e+004,-2.36655374294632e+001,-9.46993350376155e-001

3.16016524745350e+004,-2.36655692482928e+001,-9.60200981316642e-001

3.20427951035848e+004,-2.36656019537632e+001,-9.73592482623339e-001

3.24900958542493e+004,-2.36656355703546e+001,-9.87170400042706e-001

3.29436406907028e+004,-2.36656701232104e+001,-1.00093731398855e+000

3.34035167771346e+004,-2.36657056381548e+001,-1.01489583998972e+000

3.38698124945009e+004,-2.36657421417097e+001,-1.02904862914530e+000

3.43426174575100e+004,-2.36657796611132e+001,-1.04339836858013e+000

3.48220225318448e+004,-2.36658182243381e+001,-1.05794778191140e+000

3.53081198516260e+004,-2.36658578601107e+001,-1.07269962971274e+000

3.58010028371187e+004,-2.36658985979302e+001,-1.08765670999118e+000

3.63007662126863e+004,-2.36659404680886e+001,-1.10282185866135e+000

3.68075060249948e+004,-2.36659835016908e+001,-1.11819795003054e+000

3.73213196614721e+004,-2.36660277306752e+001,-1.13378789728633e+000

3.78423058690237e+004,-2.36660731878355e+001,-1.14959465298810e+000

3.83705647730104e+004,-2.36661199068414e+001,-1.16562120956561e+000

3.89061978964912e+004,-2.36661679222617e+001,-1.18187059982032e+000

3.94493081797342e+004,-2.36662172695861e+001,-1.19834589743540e+000

3.99999999999998e+004,-2.36662679852491e+001,-1.21505021748516e+000

4.05583791916010e+004,-2.36663201066526e+001,-1.23198671695452e+000

4.11245530662425e+004,-2.36663736721912e+001,-1.24915859526046e+000

4.16986304336447e+004,-2.36664287212758e+001,-1.26656909477929e+000

4.22807216224550e+004,-2.36664852943593e+001,-1.28422150137883e+000

4.28709385014515e+004,-2.36665434329622e+001,-1.30211914495475e+000

4.34693945010421e+004,-2.36666031796985e+001,-1.32026539997430e+000

4.40762046350642e+004,-2.36666645783029e+001,-1.33866368602068e+000

4.46914855228886e+004,-2.36667276736577e+001,-1.35731746834591e+000

4.53153554118317e+004,-2.36667925118205e+001,-1.37623025842673e+000

4.59479341998812e+004,-2.36668591400527e+001,-1.39540561452633e+000

4.65893434587380e+004,-2.36669276068488e+001,-1.41484714225903e+000

4.72397064571810e+004,-2.36669979619651e+001,-1.43455849516137e+000

4.78991481847569e+004,-2.36670702564499e+001,-1.45454337526778e+000

4.85677953758016e+004,-2.36671445426745e+001,-1.47480553368987e+000

4.92457765337964e+004,-2.36672208743638e+001,-1.49534877120068e+000

4.99332219560642e+004,-2.36672993066277e+001,-1.51617693882478e+000

5.06302637588109e+004,-2.36673798959943e+001,-1.53729393842971e+000

5.13370359025159e+004,-2.36674627004414e+001,-1.55870372332655e+000

5.20536742176771e+004,-2.36675477794309e+001,-1.58041029886993e+000

5.27803164309155e+004,-2.36676351939417e+001,-1.60241772306658e+000

5.35171021914442e+004,-2.36677250065048e+001,-1.62473010718476e+000

5.42641730979066e+004,-2.36678172812377e+001,-1.64735161637103e+000

5.50216727255895e+004,-2.36679120838804e+001,-1.67028647026832e+000

5.57897466540159e+004,-2.36680094818306e+001,-1.69353894364077e+000

5.65685424949235e+004,-2.36681095441809e+001,-1.71711336700079e+000

5.73582099206328e+004,-2.36682123417555e+001,-1.74101412724073e+000

5.81589006928121e+004,-2.36683179471477e+001,-1.76524566826837e+000

5.89707686916437e+004,-2.36684264347577e+001,-1.78981249164742e+000

5.97939699453972e+004,-2.36685378808315e+001,-1.81471915723891e+000

6.06286626604156e+004,-2.36686523634993e+001,-1.83997028385026e+000

6.14750072515201e+004,-2.36687699628151e+001,-1.86557054988511e+000

6.23331663728396e+004,-2.36688907607964e+001,-1.89152469399788e+000

6.32033049490698e+004,-2.36690148414645e+001,-1.91783751575076e+000

6.40855902071694e+004,-2.36691422908849e+001,-1.94451387627673e+000

6.49801917084985e+004,-2.36692731972080e+001,-1.97155869894354e+000

6.58872813814055e+004,-2.36694076507107e+001,-1.99897697002235e+000

6.68070335542691e+004,-2.36695457438379e+001,-2.02677373935812e+000

6.77396249890018e+004,-2.36696875712439e+001,-2.05495412104565e+000

6.86852349150199e+004,-2.36698332298349e+001,-2.08352329410796e+000

6.96440450636895e+004,-2.36699828188110e+001,-2.11248650317534e+000

7.06162397032520e+004,-2.36701364397089e+001,-2.14184905917257e+000

7.16020056742374e+004,-2.36702941964440e+001,-2.17161634000380e+000

7.26015324253724e+004,-2.36704561953537e+001,-2.20179379124462e+000

7.36150120499896e+004,-2.36706225452395e+001,-2.23238692683521e+000

7.46426393229441e+004,-2.36707933574100e+001,-2.26340132977697e+000

7.56846117380472e+004,-2.36709687457237e+001,-2.29484265283215e+000

7.67411295460207e+004,-2.36711488266314e+001,-2.32671661922667e+000

7.78123957929823e+004,-2.36713337192184e+001,-2.35902902335666e+000

7.88986163594682e+004,-2.36715235452474e+001,-2.39178573149629e+000

7.99999999999995e+004,-2.36717184291995e+001,-2.42499268251143e+000

8.11167583832018e+004,-2.36719184983168e+001,-2.45865588857420e+000

8.22491061324848e+004,-2.36721238826430e+001,-2.49278143588251e+000

8.33972608672892e+004,-2.36723347150642e+001,-2.52737548538233e+000

8.45614432449099e+004,-2.36725511313494e+001,-2.56244427349375e+000

8.57418770029029e+004,-2.36727732701898e+001,-2.59799411284139e+000

8.69387890020841e+004,-2.36730012732382e+001,-2.63403139298720e+000

8.81524092701283e+004,-2.36732352851464e+001,-2.67056258117004e+000

8.93829710457770e+004,-2.36734754536032e+001,-2.70759422304704e+000

9.06307108236633e+004,-2.36737219293703e+001,-2.74513294344189e+000

9.18958683997622e+004,-2.36739748663180e+001,-2.78318544709605e+000

9.31786869174758e+004,-2.36742344214590e+001,-2.82175851942753e+000

9.44794129143618e+004,-2.36745007549819e+001,-2.86085902729314e+000

9.57982963695136e+004,-2.36747740302823e+001,-2.90049391975996e+000

9.71355907516031e+004,-2.36750544139933e+001,-2.94067022887970e+000

9.84915530675926e+004,-2.36753420760146e+001,-2.98139507047350e+000

9.98664439121282e+004,-2.36756371895391e+001,-3.02267564492245e+000

1.01260527517622e+005,-2.36759399310784e+001,-3.06451923796790e+000

1.02674071805032e+005,-2.36762504804870e+001,-3.10693322151941e+000

1.04107348435354e+005,-2.36765690209829e+001,-3.14992505447344e+000

1.05560632861831e+005,-2.36768957391682e+001,-3.19350228354200e+000

1.07034204382888e+005,-2.36772308250460e+001,-3.23767254409363e+000

1.08528346195813e+005,-2.36775744720357e+001,-3.28244356100523e+000

1.10043345451179e+005,-2.36779268769858e+001,-3.32782314952817e+000

1.11579493308032e+005,-2.36782882401846e+001,-3.37381921616884e+000

1.13137084989847e+005,-2.36786587653675e+001,-3.42043975958415e+000

1.14716419841265e+005,-2.36790386597223e+001,-3.46769287149374e+000

1.16317801385624e+005,-2.36794281338916e+001,-3.51558673761085e+000

1.17941537383287e+005,-2.36798274019721e+001,-3.56412963859121e+000

1.19587939890794e+005,-2.36802366815114e+001,-3.61332995100405e+000

1.21257325320831e+005,-2.36806561935009e+001,-3.66319614832455e+000

1.22950014503040e+005,-2.36810861623665e+001,-3.71373680195084e+000

1.24666332745679e+005,-2.36815268159555e+001,-3.76496058224517e+000

1.26406609898139e+005,-2.36819783855203e+001,-3.81687625960552e+000

1.28171180414339e+005,-2.36824411056994e+001,-3.86949270556246e+000

1.29960383416997e+005,-2.36829152144938e+001,-3.92281889391066e+000

1.31774562762811e+005,-2.36834009532408e+001,-3.97686390187243e+000

1.33614067108538e+005,-2.36838985665848e+001,-4.03163691129664e+000

1.35479249978003e+005,-2.36844083024432e+001,-4.08714720989551e+000

1.37370469830040e+005,-2.36849304119706e+001,-4.14340419252277e+000

1.39288090127379e+005,-2.36854651495178e+001,-4.20041736249217e+000

1.41232479406504e+005,-2.36860127725889e+001,-4.25819633294264e+000

1.43204011348474e+005,-2.36865735417943e+001,-4.31675082825179e+000

1.45203064850745e+005,-2.36871477208006e+001,-4.37609068549770e+000

1.47230024099979e+005,-2.36877355762768e+001,-4.43622585597606e+000

1.49285278645888e+005,-2.36883373778388e+001,-4.49716640677188e+000

1.51369223476094e+005,-2.36889533979896e+001,-4.55892252239160e+000

1.53482259092041e+005,-2.36895839120572e+001,-4.62150450645560e+000

1.55624791585964e+005,-2.36902291981305e+001,-4.68492278345652e+000

1.57797232718936e+005,-2.36908895369920e+001,-4.74918790058643e+000

1.59999999999999e+005,-2.36915652120490e+001,-4.81431052963340e+000

1.62233516766403e+005,-2.36922565092630e+001,-4.88030146895413e+000

1.64498212264969e+005,-2.36929637170775e+001,-4.94717164552279e+000

1.66794521734578e+005,-2.36936871263445e+001,-5.01493211706170e+000

1.69122886489819e+005,-2.36944270302508e+001,-5.08359407425489e+000

1.71483754005805e+005,-2.36951837242434e+001,-5.15316884304882e+000

1.73877578004168e+005,-2.36959575059557e+001,-5.22366788704410e+000

1.76304818540256e+005,-2.36967486751339e+001,-5.29510280997867e+000

1.78765942091554e+005,-2.36975575335647e+001,-5.36748535830863e+000

1.81261421647326e+005,-2.36983843850052e+001,-5.44082742388693e+000

1.83791736799524e+005,-2.36992295351145e+001,-5.51514104674473e+000

1.86357373834951e+005,-2.37000932913887e+001,-5.59043841797664e+000

1.88958825828723e+005,-2.37009759631005e+001,-5.66673188273254e+000

1.91596592739027e+005,-2.37018778612418e+001,-5.74403394331975e+000

1.94271181503206e+005,-2.37027992984727e+001,-5.82235726241538e+000

1.96983106135185e+005,-2.37037405890763e+001,-5.90171466639331e+000

1.99732887824256e+005,-2.37047020489208e+001,-5.98211914876477e+000

2.02521055035243e+005,-2.37056839954287e+001,-6.06358387373661e+000

2.05348143610063e+005,-2.37066867475558e+001,-6.14612217988682e+000

2.08214696870707e+005,-2.37077106257796e+001,-6.22974758395815e+000

2.11121265723661e+005,-2.37087559520982e+001,-6.31447378477214e+000

2.14068408765776e+005,-2.37098230500416e+001,-6.40031466726002e+000

2.17056692391625e+005,-2.37109122446956e+001,-6.48728430661526e+000

2.20086690902357e+005,-2.37120238627395e+001,-6.57539697256289e+000

2.23158986616063e+005,-2.37131582324995e+001,-6.66466713374652e+000

2.26274169979693e+005,-2.37143156840179e+001,-6.75510946223265e+000

2.29432839682530e+005,-2.37154965491394e+001,-6.84673883812683e+000

2.32635602771247e+005,-2.37167011616168e+001,-6.93957035430407e+000

2.35883074766574e+005,-2.37179298572352e+001,-7.03361932124652e+000

2.39175879781588e+005,-2.37191829739580e+001,-7.12890127198774e+000

2.42514650641661e+005,-2.37204608520945e+001,-7.22543196715841e+000

2.45900029006080e+005,-2.37217638344901e+001,-7.32322740012970e+000

2.49332665491357e+005,-2.37230922667417e+001,-7.42230380224957e+000

2.52813219796278e+005,-2.37244464974375e+001,-7.52267764816540e+000

2.56342360828676e+005,-2.37258268784235e+001,-7.62436566122957e+000

2.59920766833993e+005,-2.37272337650980e+001,-7.72738481897865e+000

2.63549125525621e+005,-2.37286675167329e+001,-7.83175235868178e+000

2.67228134217075e+005,-2.37301284968263e+001,-7.93748578294910e+000

2.70958499956006e+005,-2.37316170734838e+001,-8.04460286539335e+000

2.74740939660078e+005,-2.37331336198319e+001,-8.15312165633583e+000

2.78576180254757e+005,-2.37346785144622e+001,-8.26306048854851e+000

2.82464958813007e+005,-2.37362521419092e+001,-8.37443798302273e+000

2.86408022696948e+005,-2.37378548931609e+001,-8.48727305475399e+000

2.90406129701488e+005,-2.37394871662021e+001,-8.60158491853545e+000

2.94460048199957e+005,-2.37411493665940e+001,-8.71739309474674e+000

2.98570557291775e+005,-2.37428419080862e+001,-8.83471741513031e+000

3.02738446952187e+005,-2.37445652132646e+001,-8.95357802854299e+000

3.06964518184081e+005,-2.37463197142342e+001,-9.07399540667184e+000

3.11249583171928e+005,-2.37481058533370e+001,-9.19599034970447e+000

3.15594465437872e+005,-2.37499240839046e+001,-9.31958399194108e+000

3.19999999999997e+005,-2.37517748710458e+001,-9.44479780733828e+000

3.24467033532806e+005,-2.37536586924695e+001,-9.57165361497241e+000

3.28996424529938e+005,-2.37555760393412e+001,-9.70017358441233e+000

3.33589043469155e+005,-2.37575274171739e+001,-9.83038024098937e+000

3.38245772979638e+005,-2.37595133467519e+001,-9.96229647095512e+000

3.42967508011610e+005,-2.37615343650881e+001,-1.00959455265150e+001

3.47755156008335e+005,-2.37635910264128e+001,-1.02313510307276e+001

3.52609637080511e+005,-2.37656839031933e+001,-1.03685369822606e+001

3.57531884183106e+005,-2.37678135871849e+001,-1.05075277599927e+001

3.62522843294651e+005,-2.37699806905101e+001,-1.06483481274526e+001

3.67583473599047e+005,-2.37721858467662e+001,-1.07910232370859e+001

3.72714747669902e+005,-2.37744297121601e+001,-1.09355786343422e+001

3.77917651657445e+005,-2.37767129666690e+001,-1.10820402615750e+001

3.83193185478053e+005,-2.37790363152250e+001,-1.12304344617450e+001

3.88542363006410e+005,-2.37814004889233e+001,-1.13807879819242e+001

3.93966212270369e+005,-2.37838062462520e+001,-1.15331279765900e+001

3.99465775648511e+005,-2.37862543743423e+001,-1.16874820107085e+001

4.05042110070485e+005,-2.37887456902374e+001,-1.18438780625990e+001

4.10696287220124e+005,-2.37912810421791e+001,-1.20023445265783e+001

4.16429393741414e+005,-2.37938613109100e+001,-1.21629102153788e+001

4.22242531447321e+005,-2.37964874109902e+001,-1.23256043623396e+001

4.28136817531551e+005,-2.37991602921274e+001,-1.24904566233691e+001

4.34113384783250e+005,-2.38018809405183e+001,-1.26574970786755e+001

4.40173381804713e+005,-2.38046503801994e+001,-1.28267562342656e+001

4.46317973232124e+005,-2.38074696744081e+001,-1.29982650232130e+001

4.52548339959385e+005,-2.38103399269495e+001,-1.31720548066929e+001

4.58865679365059e+005,-2.38132622835703e+001,-1.33481573747879e+001

4.65271205542494e+005,-2.38162379333374e+001,-1.35266049470644e+001

4.71766149533147e+005,-2.38192681100196e+001,-1.37074301729203e+001

4.78351759563174e+005,-2.38223540934725e+001,-1.38906661317084e+001

4.85029301283321e+005,-2.38254972110243e+001,-1.40763463326377e+001

4.91800058012158e+005,-2.38286988388624e+001,-1.42645047144538e+001

4.98665330982714e+005,-2.38319604034194e+001,-1.44551756449031e+001

5.05626439592555e+005,-2.38352833827582e+001,-1.46483939199832e+001

5.12684721657352e+005,-2.38386693079548e+001,-1.48441947629837e+001

5.19841533667984e+005,-2.38421197644784e+001,-1.50426138233200e+001

5.27098251051240e+005,-2.38456363935688e+001,-1.52436871751634e+001

5.34456268434150e+005,-2.38492208936094e+001,-1.54474513158725e+001

5.41916999912011e+005,-2.38528750214972e+001,-1.56539431642274e+001

