Freq.,VOut,OutRef

1.00000000000000e+004,-2.27364193768966e+000,-2.71698895124223e-002

1.01395947979003e+004,-2.27364286393591e+000,-2.75490107719699e-002

1.02811382665607e+004,-2.27364381618843e+000,-2.79334177345803e-002

1.04246576084112e+004,-2.27364479517580e+000,-2.83231839080869e-002

1.05701804056138e+004,-2.27364580164760e+000,-2.87183838118883e-002

1.07177346253629e+004,-2.27364683637452e+000,-2.91190929906208e-002

1.08673486252606e+004,-2.27364790014866e+000,-2.95253880324980e-002

1.10190511587661e+004,-2.27364899378438e+000,-2.99373465800316e-002

1.11728713807222e+004,-2.27365011811785e+000,-3.03550473518187e-002

1.13288388529580e+004,-2.27365127400993e+000,-3.07785701421714e-002

1.14869835499703e+004,-2.27365246234514e+000,-3.12079958465632e-002

1.16473358646846e+004,-2.27365368403209e+000,-3.16434064773518e-002

1.18099266142953e+004,-2.27365494000542e+000,-3.20848851717933e-002

1.19747870461893e+004,-2.27365623122517e+000,-3.25325162136834e-002

1.21419488439505e+004,-2.27365755867980e+000,-3.29863850358743e-002

1.23114441334492e+004,-2.27365892338293e+000,-3.34465782602615e-002

1.24833054890161e+004,-2.27366032637844e+000,-3.39131836853784e-002

1.26575659397028e+004,-2.27366176873837e+000,-3.43862903220032e-002

1.28342589756290e+004,-2.27366325156499e+000,-3.48659883987144e-002

1.30134185544193e+004,-2.27366477599108e+000,-3.53523693843380e-002

1.31950791077289e+004,-2.27366634318156e+000,-3.58455259967441e-002

1.33792755478611e+004,-2.27366795433283e+000,-3.63455522310350e-002

1.35660432744767e+004,-2.27366961067521e+000,-3.68525433655439e-002

1.37554181813974e+004,-2.27367131347360e+000,-3.73665959801345e-002

1.39474366635040e+004,-2.27367306402802e+000,-3.78878079765681e-002

1.41421356237309e+004,-2.27367486367366e+000,-3.84162786014167e-002

1.43395524801583e+004,-2.27367671378405e+000,-3.89521084494959e-002

1.45397251732031e+004,-2.27367861577049e+000,-3.94953994919086e-002

1.47426921729110e+004,-2.27368057108382e+000,-4.00462550894672e-002

1.49484924863494e+004,-2.27368258121461e+000,-4.06047800156223e-002

1.51571656651040e+004,-2.27368464769542e+000,-4.11710804692417e-002

1.53687518128801e+004,-2.27368677210160e+000,-4.17452640930533e-002

1.55832915932100e+004,-2.27368895605122e+000,-4.23274400010298e-002

1.58008262372675e+004,-2.27369120120840e+000,-4.29177187847891e-002

1.60213975517924e+004,-2.27369350928270e+000,-4.35162125424090e-002

1.62450479271247e+004,-2.27369588203196e+000,-4.41230348890687e-002

1.64718203453514e+004,-2.27369832126147e+000,-4.47383009897429e-002

1.67017583885674e+004,-2.27370082882810e+000,-4.53621275604921e-002

1.69349062472505e+004,-2.27370340663923e+000,-4.59946329049937e-002

1.71713087287550e+004,-2.27370605665481e+000,-4.66359369286624e-002

1.74110112659224e+004,-2.27370878089049e+000,-4.72861611496407e-002

1.76540599258131e+004,-2.27371158141636e+000,-4.79454287366636e-002

1.79005014185594e+004,-2.27371446036016e+000,-4.86138645171888e-002

1.81503831063432e+004,-2.27371741990853e+000,-4.92915950024836e-002

1.84037530124975e+004,-2.27372046230907e+000,-4.99787484035622e-002

1.86606598307361e+004,-2.27372358987069e+000,-5.06754546629459e-002

1.89211529345119e+004,-2.27372680496643e+000,-5.13818454661112e-002

1.91852823865052e+004,-2.27373011003503e+000,-5.20980542663100e-002

1.94530989482457e+004,-2.27373350758213e+000,-5.28242163090745e-002

1.97246540898671e+004,-2.27373700018314e+000,-5.35604686467803e-002

1.99999999999999e+004,-2.27374059048345e+000,-5.43069501725210e-002

2.02791895958005e+004,-2.27374428120199e+000,-5.50638016315795e-002

2.05622765331213e+004,-2.27374807513269e+000,-5.58311656462742e-002

2.08493152168224e+004,-2.27375197514616e+000,-5.66091867420949e-002

2.11403608112276e+004,-2.27375598419142e+000,-5.73980113710135e-002

2.14354692507258e+004,-2.27376010529939e+000,-5.81977879273461e-002

2.17346972505211e+004,-2.27376434158405e+000,-5.90086667761970e-002

2.20381023175322e+004,-2.27376869624403e+000,-5.98308002813949e-002

2.23457427614443e+004,-2.27377317256684e+000,-6.06643428160933e-002

2.26576777059159e+004,-2.27377777392927e+000,-6.15094507990332e-002

2.29739670999406e+004,-2.27378250380098e+000,-6.23662827105384e-002

2.32946717293690e+004,-2.27378736574665e+000,-6.32349991185415e-002

2.36198532285905e+004,-2.27379236342801e+000,-6.41157627048879e-002

2.39495740923785e+004,-2.27379750060728e+000,-6.50087382856634e-002

2.42838976879009e+004,-2.27380278114924e+000,-6.59140928372902e-002

2.46228882668982e+004,-2.27380820902407e+000,-6.68319955210451e-002

2.49666109780322e+004,-2.27381378830996e+000,-6.77626177084519e-002

2.53151318794055e+004,-2.27381952319663e+000,-6.87061330013110e-002

2.56685179512580e+004,-2.27382541798769e+000,-6.96627172606711e-002

2.60268371088386e+004,-2.27383147710327e+000,-7.06325486317214e-002

2.63901582154578e+004,-2.27383770508379e+000,-7.16158075670467e-002

2.67585510957221e+004,-2.27384410659287e+000,-7.26126768501184e-002

2.71320865489533e+004,-2.27385068642088e+000,-7.36233416197261e-002

2.75108363627948e+004,-2.27385744948721e+000,-7.46479894002302e-002

2.78948733270080e+004,-2.27386440084465e+000,-7.56868101213330e-002

2.82842712474618e+004,-2.27387154568221e+000,-7.67399961453417e-002

2.86791049603164e+004,-2.27387888932934e+000,-7.78077422883534e-002

2.90794503464061e+004,-2.27388643725867e+000,-7.88902458517042e-002

2.94853843458219e+004,-2.27389419509061e+000,-7.99877066390549e-002

2.98969849726987e+004,-2.27390216859580e+000,-8.11003269917220e-002

3.03143313302078e+004,-2.27391036370093e+000,-8.22283117986966e-002

3.07375036257601e+004,-2.27391878649062e+000,-8.33718685363763e-002

3.11665831864199e+004,-2.27392744321291e+000,-8.45312072834471e-002

3.16016524745350e+004,-2.27393634028265e+000,-8.57065407492430e-002

3.20427951035848e+004,-2.27394548428619e+000,-8.68980842957771e-002

3.24900958542493e+004,-2.27395488198506e+000,-8.81060559660769e-002

3.29436406907028e+004,-2.27396454032150e+000,-8.93306765001505e-002

3.34035167771346e+004,-2.27397446642088e+000,-9.05721693728645e-002

3.38698124945009e+004,-2.27398466759903e+000,-9.18307608000654e-002

3.43426174575100e+004,-2.27399515136482e+000,-9.31066797747320e-002

3.48220225318448e+004,-2.27400592542560e+000,-9.44001580863758e-002

3.53081198516260e+004,-2.27401699769218e+000,-9.57114303438469e-002

3.58010028371187e+004,-2.27402837628419e+000,-9.70407339932347e-002

3.63007662126863e+004,-2.27404006953390e+000,-9.83883093511788e-002

3.68075060249948e+004,-2.27405208599270e+000,-9.97543996157818e-002

3.73213196614721e+004,-2.27406443443620e+000,-1.01139250890967e-001

3.78423058690237e+004,-2.27407712386852e+000,-1.02543112212795e-001

3.83705647730104e+004,-2.27409016352926e+000,-1.03966235561994e-001

3.89061978964912e+004,-2.27410356289839e+000,-1.05408875887403e-001

3.94493081797342e+004,-2.27411733170124e+000,-1.06871291130396e-001

3.99999999999998e+004,-2.27413147991561e+000,-1.08353742235184e-001

4.05583791916010e+004,-2.27414601777690e+000,-1.09856493172281e-001

4.11245530662425e+004,-2.27416095578423e+000,-1.11379810955018e-001

4.16986304336447e+004,-2.27417630470663e+000,-1.12923965655507e-001

4.22807216224550e+004,-2.27419207558889e+000,-1.14489230424651e-001

4.28709385014515e+004,-2.27420827975829e+000,-1.16075881503383e-001

4.34693945010421e+004,-2.27422492883095e+000,-1.17684198237834e-001

4.40762046350642e+004,-2.27424203471782e+000,-1.19314463097153e-001

4.46914855228886e+004,-2.27425960963223e+000,-1.20966961679713e-001

4.53153554118317e+004,-2.27427766609498e+000,-1.22641982734809e-001

4.59479341998812e+004,-2.27429621694330e+000,-1.24339818161006e-001

4.65893434587380e+004,-2.27431527533565e+000,-1.26060763027840e-001

4.72397064571810e+004,-2.27433485475972e+000,-1.27805115578480e-001

4.78991481847569e+004,-2.27435496903917e+000,-1.29573177239802e-001

4.85677953758016e+004,-2.27437563234108e+000,-1.31365252625737e-001

4.92457765337964e+004,-2.27439685918249e+000,-1.33181649547187e-001

4.99332219560642e+004,-2.27441866443862e+000,-1.35022679009634e-001

5.06302637588109e+004,-2.27444106334867e+000,-1.36888655225529e-001

5.13370359025159e+004,-2.27446407152512e+000,-1.38779895602735e-001

5.20536742176771e+004,-2.27448770495962e+000,-1.40696720754468e-001

5.27803164309155e+004,-2.27451198003113e+000,-1.42639454493010e-001

5.35171021914442e+004,-2.27453691351328e+000,-1.44608423826927e-001

5.42641730979066e+004,-2.27456252258225e+000,-1.46603958954261e-001

5.50216727255895e+004,-2.27458882482427e+000,-1.48626393256029e-001

5.57897466540159e+004,-2.27461583824289e+000,-1.50676063288766e-001

5.65685424949235e+004,-2.27464358126688e+000,-1.52753308773855e-001

5.73582099206328e+004,-2.27467207275801e+000,-1.54858472581279e-001

5.81589006928121e+004,-2.27470133201853e+000,-1.56991900718363e-001

5.89707686916437e+004,-2.27473137879897e+000,-1.59153942310017e-001

5.97939699453972e+004,-2.27476223330529e+000,-1.61344949582570e-001

6.06286626604156e+004,-2.27479391620695e+000,-1.63565277840205e-001

6.14750072515201e+004,-2.27482644864456e+000,-1.65815285438131e-001

6.23331663728396e+004,-2.27485985223637e+000,-1.68095333764990e-001

6.32033049490698e+004,-2.27489414908665e+000,-1.70405787205010e-001

6.40855902071694e+004,-2.27492936179284e+000,-1.72747013109516e-001

6.49801917084985e+004,-2.27496551345160e+000,-1.75119381768947e-001

6.58872813814055e+004,-2.27500262766752e+000,-1.77523266365526e-001

6.68070335542691e+004,-2.27504072855888e+000,-1.79959042940897e-001

6.77396249890018e+004,-2.27507984076457e+000,-1.82427090353099e-001

6.86852349150199e+004,-2.27511998945067e+000,-1.84927790229565e-001

6.96440450636895e+004,-2.27516120031709e+000,-1.87461526918043e-001

7.06162397032520e+004,-2.27520349960284e+000,-1.90028687439651e-001

7.16020056742374e+004,-2.27524691409285e+000,-1.92629661427715e-001

7.26015324253724e+004,-2.27529147112280e+000,-1.95264841075806e-001

7.36150120499896e+004,-2.27533719858476e+000,-1.97934621072813e-001

7.46426393229441e+004,-2.27538412493158e+000,-2.00639398542268e-001

7.56846117380472e+004,-2.27543227918207e+000,-2.03379572970739e-001

7.67411295460207e+004,-2.27548169092469e+000,-2.06155546139267e-001

7.78123957929823e+004,-2.27553239032164e+000,-2.08967722046998e-001

7.88986163594682e+004,-2.27558440811137e+000,-2.11816506836352e-001

7.99999999999995e+004,-2.27563777561224e+000,-2.14702308706894e-001

8.11167583832018e+004,-2.27569252472437e+000,-2.17625537832031e-001

8.22491061324848e+004,-2.27574868793067e+000,-2.20586606273879e-001

8.33972608672892e+004,-2.27580629829921e+000,-2.23585927882933e-001

8.45614432449099e+004,-2.27586538948237e+000,-2.26623918209515e-001

8.57418770029029e+004,-2.27592599571732e+000,-2.29700994399470e-001

8.69387890020841e+004,-2.27598815182413e+000,-2.32817575096121e-001

8.81524092701283e+004,-2.27605189320514e+000,-2.35974080326292e-001

8.93829710457770e+004,-2.27611725584134e+000,-2.39170931396357e-001

9.06307108236633e+004,-2.27618427628911e+000,-2.42408550776452e-001

9.18958683997622e+004,-2.27625299167598e+000,-2.45687361982520e-001

9.31786869174758e+004,-2.27632343969468e+000,-2.49007789459115e-001

9.44794129143618e+004,-2.27639565859745e+000,-2.52370258450950e-001

9.57982963695136e+004,-2.27646968718768e+000,-2.55775194881372e-001

9.71355907516031e+004,-2.27654556481166e+000,-2.59223025220118e-001

9.84915530675926e+004,-2.27662333134869e+000,-2.62714176350609e-001

9.98664439121282e+004,-2.27670302719962e+000,-2.66249075437109e-001

1.01260527517622e+005,-2.27678469327475e+000,-2.69828149785580e-001

1.02674071805032e+005,-2.27686837097980e+000,-2.73451826704245e-001

1.04107348435354e+005,-2.27695410220026e+000,-2.77120533364399e-001

1.05560632861831e+005,-2.27704192928549e+000,-2.80834696651887e-001

1.07034204382888e+005,-2.27713189502945e+000,-2.84594743028247e-001

1.08528346195813e+005,-2.27722404265123e+000,-2.88401098380903e-001

1.10043345451179e+005,-2.27731841577351e+000,-2.92254187876223e-001

1.11579493308032e+005,-2.27741505839843e+000,-2.96154435816990e-001

1.13137084989847e+005,-2.27751401488328e+000,-3.00102265488776e-001

1.14716419841265e+005,-2.27761532991261e+000,-3.04098099019344e-001

1.16317801385624e+005,-2.27771904846982e+000,-3.08142357227483e-001

1.17941537383287e+005,-2.27782521580570e+000,-3.12235459482081e-001

1.19587939890794e+005,-2.27793387740521e+000,-3.16377823559864e-001

1.21257325320831e+005,-2.27804507895278e+000,-3.20569865502097e-001

1.22950014503040e+005,-2.27815886629449e+000,-3.24811999480283e-001

1.24666332745679e+005,-2.27827528539858e+000,-3.29104637662009e-001

1.26406609898139e+005,-2.27839438231329e+000,-3.33448190082737e-001

1.28171180414339e+005,-2.27851620312310e+000,-3.37843064520847e-001

1.29960383416997e+005,-2.27864079390137e+000,-3.42289666382283e-001

1.31774562762811e+005,-2.27876820066196e+000,-3.46788398586383e-001

1.33614067108538e+005,-2.27889846930748e+000,-3.51339661463034e-001

1.35479249978003e+005,-2.27903164557489e+000,-3.55943852660399e-001

1.37370469830040e+005,-2.27916777497944e+000,-3.60601367055834e-001

1.39288090127379e+005,-2.27930690275542e+000,-3.65312596679850e-001

1.41232479406504e+005,-2.27944907379459e+000,-3.70077930653717e-001

1.43204011348474e+005,-2.27959433258150e+000,-3.74897755138109e-001

1.45203064850745e+005,-2.27974272312719e+000,-3.79772453291778e-001

1.47230024099979e+005,-2.27989428889959e+000,-3.84702405248755e-001

1.49285278645888e+005,-2.28004907275180e+000,-3.89687988107763e-001

1.51369223476094e+005,-2.28020711684686e+000,-3.94729575945445e-001

1.53482259092041e+005,-2.28036846258203e+000,-3.99827539834493e-001

1.55624791585964e+005,-2.28053315050823e+000,-4.04982247894650e-001

1.57797232718936e+005,-2.28070122024845e+000,-4.10194065357293e-001

1.59999999999999e+005,-2.28087271041411e+000,-4.15463354649115e-001

1.62233516766403e+005,-2.28104765851779e+000,-4.20790475507041e-001

1.64498212264969e+005,-2.28122610088506e+000,-4.26175785108481e-001

1.66794521734578e+005,-2.28140807256396e+000,-4.31619638231387e-001

1.69122886489819e+005,-2.28159360723144e+000,-4.37122387443832e-001

1.71483754005805e+005,-2.28178273709983e+000,-4.42684383315118e-001

1.73877578004168e+005,-2.28197549282011e+000,-4.48305974659171e-001

1.76304818540256e+005,-2.28217190338410e+000,-4.53987508812445e-001

1.78765942091554e+005,-2.28237199602569e+000,-4.59729331936160e-001

1.81261421647326e+005,-2.28257579612012e+000,-4.65531789358553e-001

1.83791736799524e+005,-2.28278332708305e+000,-4.71395225945985e-001

1.86357373834951e+005,-2.28299461026866e+000,-4.77319986511649e-001

1.88958825828723e+005,-2.28320966486663e+000,-4.83306416262237e-001

1.91596592739027e+005,-2.28342850779962e+000,-4.89354861280105e-001

1.94271181503206e+005,-2.28365115362068e+000,-4.95465669041423e-001

1.96983106135185e+005,-2.28387761441046e+000,-5.01639188978513e-001

1.99732887824256e+005,-2.28410789967514e+000,-5.07875773079925e-001

2.02521055035243e+005,-2.28434201624587e+000,-5.14175776527897e-001

2.05348143610063e+005,-2.28457996817812e+000,-5.20539558384474e-001

2.08214696870707e+005,-2.28482175665403e+000,-5.26967482311118e-001

2.11121265723661e+005,-2.28506737988577e+000,-5.33459917334483e-001

2.14068408765776e+005,-2.28531683302099e+000,-5.40017238656208e-001

2.17056692391625e+005,-2.28557010805156e+000,-5.46639828500334e-001

2.20086690902357e+005,-2.28582719372486e+000,-5.53328077005508e-001

2.23158986616063e+005,-2.28608807545846e+000,-5.60082383159649e-001

2.26274169979693e+005,-2.28635273525879e+000,-5.66903155773626e-001

2.29432839682530e+005,-2.28662115164360e+000,-5.73790814498561e-001

2.32635602771247e+005,-2.28689329956914e+000,-5.80745790882597e-001

2.35883074766574e+005,-2.28716915036262e+000,-5.87768529463984e-001

2.39175879781588e+005,-2.28744867165948e+000,-5.94859488906519e-001

2.42514650641661e+005,-2.28773182734651e+000,-6.02019143169850e-001

2.45900029006080e+005,-2.28801857751160e+000,-6.09247982713005e-001

2.49332665491357e+005,-2.28830887839924e+000,-6.16546515734917e-001

2.52813219796278e+005,-2.28860268237343e+000,-6.23915269444490e-001

2.56342360828676e+005,-2.28889993788772e+000,-6.31354791360067e-001

2.59920766833993e+005,-2.28920058946242e+000,-6.38865650637277e-001

2.63549125525621e+005,-2.28950457767036e+000,-6.46448439420342e-001

2.67228134217075e+005,-2.28981183913049e+000,-6.54103774215342e-001

2.70958499956006e+005,-2.29012230650961e+000,-6.61832297285116e-001

2.74740939660078e+005,-2.29043590853375e+000,-6.69634678055943e-001

2.78576180254757e+005,-2.29075257000745e+000,-6.77511614541543e-001

2.82464958813007e+005,-2.29107221184309e+000,-6.85463834773763e-001

2.86408022696948e+005,-2.29139475109860e+000,-6.93492098243091e-001

2.90406129701488e+005,-2.29172010102609e+000,-7.01597197334302e-001

2.94460048199957e+005,-2.29204817112824e+000,-7.09779958771425e-001

2.98570557291775e+005,-2.29237886722561e+000,-7.18041245049561e-001

3.02738446952187e+005,-2.29271209153321e+000,-7.26381955861673e-001

3.06964518184081e+005,-2.29304774274638e+000,-7.34803029512375e-001

3.11249583171928e+005,-2.29338571613692e+000,-7.43305444313992e-001

3.15594465437872e+005,-2.29372590365776e+000,-7.51890219964200e-001

3.19999999999997e+005,-2.29406819405766e+000,-7.60558418897815e-001

3.24467033532806e+005,-2.29441247300482e+000,-7.69311147610284e-001

3.28996424529938e+005,-2.29475862321917e+000,-7.78149557949993e-001

3.33589043469155e+005,-2.29510652461375e+000,-7.87074848372461e-001

3.38245772979638e+005,-2.29545605444340e+000,-7.96088265159333e-001

3.42967508011610e+005,-2.29580708746280e+000,-8.05191103588378e-001

3.47755156008335e+005,-2.29615949609070e+000,-8.14384709061790e-001

3.52609637080511e+005,-2.29651315058192e+000,-8.23670478182574e-001

3.57531884183106e+005,-2.29686791920607e+000,-8.33049859777028e-001

3.62522843294651e+005,-2.29722366843153e+000,-8.42524355866041e-001

3.67583473599047e+005,-2.29758026311631e+000,-8.52095522570867e-001

3.72714747669902e+005,-2.29793756670243e+000,-8.61764970966152e-001

3.77917651657445e+005,-2.29829544141570e+000,-8.71534367864420e-001

3.83193185478053e+005,-2.29865374846891e+000,-8.81405436538703e-001

3.88542363006410e+005,-2.29901234826798e+000,-8.91379957378321e-001

3.93966212270369e+005,-2.29937110062067e+000,-9.01459768477774e-001

3.99465775648511e+005,-2.29972986494717e+000,-9.11646766156506e-001

4.05042110070485e+005,-2.30008850049133e+000,-9.21942905411784e-001

4.10696287220124e+005,-2.30044686653271e+000,-9.32350200300031e-001

4.16429393741414e+005,-2.30080482259807e+000,-9.42870724250666e-001

4.22242531447321e+005,-2.30116222867197e+000,-9.53506610310726e-001

4.28136817531551e+005,-2.30151894540519e+000,-9.64260051323026e-001

4.34113384783250e+005,-2.30187483432163e+000,-9.75133300032938e-001

4.40173381804713e+005,-2.30222975802109e+000,-9.86128669136309e-001

4.46317973232124e+005,-2.30258358037926e+000,-9.97248531256632e-001

4.52548339959385e+005,-2.30293616674278e+000,-1.00849531886464e+000

4.58865679365059e+005,-2.30328738411946e+000,-1.01987152413627e+000

4.65271205542494e+005,-2.30363710136305e+000,-1.03137969875341e+000

4.71766149533147e+005,-2.30398518935196e+000,-1.04302245365022e+000

4.78351759563174e+005,-2.30433152116127e+000,-1.05480245870605e+000

4.85029301283321e+005,-2.30467597222755e+000,-1.06672244239340e+000

4.91800058012158e+005,-2.30501842050643e+000,-1.07878519137640e+000

4.98665330982714e+005,-2.30535874662186e+000,-1.09099355007098e+000

5.05626439592555e+005,-2.30569683400745e+000,-1.10335042016393e+000

5.12684721657352e+005,-2.30603256903871e+000,-1.11585876010187e+000

5.19841533667984e+005,-2.30636584115685e+000,-1.12852158454457e+000

5.27098251051240e+005,-2.30669654298303e+000,-1.14134196379631e+000

5.34456268434150e+005,-2.30702457042327e+000,-1.15432302321386e+000

5.41916999912011e+005,-2.30734982276423e+000,-1.16746794259399e+000

