Freq.,VOut,OutRef

1.00000000000000e+004,-1.97278376454267e+001,-2.78958977218177e-001

1.01395947979003e+004,-1.97278398250094e+001,-2.82852845255456e-001

1.02811382665607e+004,-1.97278420658141e+001,-2.86801058881058e-001

1.04246576084112e+004,-1.97278443695589e+001,-2.90804376273039e-001

1.05701804056138e+004,-1.97278467380100e+001,-2.94863566175766e-001

1.07177346253629e+004,-1.97278491729831e+001,-2.98979408042221e-001

1.08673486252606e+004,-1.97278516763445e+001,-3.03152692187749e-001

1.10190511587661e+004,-1.97278542500133e+001,-3.07384219936203e-001

1.11728713807222e+004,-1.97278568959619e+001,-3.11674803775445e-001

1.13288388529580e+004,-1.97278596162180e+001,-3.16025267510404e-001

1.14869835499703e+004,-1.97278624128661e+001,-3.20436446423885e-001

1.16473358646846e+004,-1.97278652880491e+001,-3.24909187429158e-001

1.18099266142953e+004,-1.97278682439697e+001,-3.29444349237740e-001

1.19747870461893e+004,-1.97278712828926e+001,-3.34042802518320e-001

1.21419488439505e+004,-1.97278744071453e+001,-3.38705430066503e-001

1.23114441334492e+004,-1.97278776191210e+001,-3.43433126968344e-001

1.24833054890161e+004,-1.97278809212794e+001,-3.48226800774710e-001

1.26575659397028e+004,-1.97278843161491e+001,-3.53087371672304e-001

1.28342589756290e+004,-1.97278878063297e+001,-3.58015772656251e-001

1.30134185544193e+004,-1.97278913944929e+001,-3.63012949713496e-001

1.31950791077289e+004,-1.97278950833858e+001,-3.68079861994775e-001

1.33792755478611e+004,-1.97278988758316e+001,-3.73217482004799e-001

1.35660432744767e+004,-1.97279027747327e+001,-3.78426795780638e-001

1.37554181813974e+004,-1.97279067830728e+001,-3.83708803082275e-001

1.39474366635040e+004,-1.97279109039186e+001,-3.89064517581285e-001

1.41421356237309e+004,-1.97279151404227e+001,-3.94494967053164e-001

1.43395524801583e+004,-1.97279194958255e+001,-4.00001193573663e-001

1.45397251732031e+004,-1.97279239734580e+001,-4.05584253713860e-001

1.47426921729110e+004,-1.97279285767443e+001,-4.11245218742295e-001

1.49484924863494e+004,-1.97279333092038e+001,-4.16985174827735e-001

1.51571656651040e+004,-1.97279381744543e+001,-4.22805223244087e-001

1.53687518128801e+004,-1.97279431762145e+001,-4.28706480579144e-001

1.55832915932100e+004,-1.97279483183068e+001,-4.34690078946623e-001

1.58008262372675e+004,-1.97279536046601e+001,-4.40757166199351e-001

1.60213975517924e+004,-1.97279590393129e+001,-4.46908906146615e-001

1.62450479271247e+004,-1.97279646264164e+001,-4.53146478774594e-001

1.64718203453514e+004,-1.97279703702371e+001,-4.59471080468441e-001

1.67017583885674e+004,-1.97279762751608e+001,-4.65883924237994e-001

1.69349062472505e+004,-1.97279823456951e+001,-4.72386239948397e-001

1.71713087287550e+004,-1.97279885864734e+001,-4.78979274549474e-001

1.74110112659224e+004,-1.97279950022577e+001,-4.85664292313422e-001

1.76540599258131e+004,-1.97280015979429e+001,-4.92442575070223e-001

1.79005014185594e+004,-1.97280083785597e+001,-4.99315422452587e-001

1.81503831063432e+004,-1.97280153492792e+001,-5.06284152136033e-001

1.84037530124975e+004,-1.97280225154158e+001,-5.13350100091359e-001

1.86606598307361e+004,-1.97280298824318e+001,-5.20514620832078e-001

1.89211529345119e+004,-1.97280374559414e+001,-5.27779087670804e-001

1.91852823865052e+004,-1.97280452417144e+001,-5.35144892977187e-001

1.94530989482457e+004,-1.97280532456812e+001,-5.42613448437966e-001

1.97246540898671e+004,-1.97280614739367e+001,-5.50186185321703e-001

1.99999999999999e+004,-1.97280699327445e+001,-5.57864554749655e-001

2.02791895958005e+004,-1.97280786285426e+001,-5.65650027963338e-001

2.05622765331213e+004,-1.97280875679470e+001,-5.73544096602641e-001

2.08493152168224e+004,-1.97280967577573e+001,-5.81548272983622e-001

2.11403608112276e+004,-1.97281062049615e+001,-5.89664090380833e-001

2.14354692507258e+004,-1.97281159167408e+001,-5.97893103315725e-001

2.17346972505211e+004,-1.97281259004757e+001,-6.06236887842665e-001

2.20381023175322e+004,-1.97281361637504e+001,-6.14697041846363e-001

2.23457427614443e+004,-1.97281467143592e+001,-6.23275185337176e-001

2.26576777059159e+004,-1.97281575603116e+001,-6.31972960754121e-001

2.29739670999406e+004,-1.97281687098388e+001,-6.40792033268073e-001

2.32946717293690e+004,-1.97281801713988e+001,-6.49734091093152e-001

2.36198532285905e+004,-1.97281919536834e+001,-6.58800845799166e-001

2.39495740923785e+004,-1.97282040656241e+001,-6.67994032628229e-001

2.42838976879009e+004,-1.97282165163987e+001,-6.77315410816426e-001

2.46228882668982e+004,-1.97282293154380e+001,-6.86766763920625e-001

2.49666109780322e+004,-1.97282424724324e+001,-6.96349900145562e-001

2.53151318794055e+004,-1.97282559973392e+001,-7.06066652679396e-001

2.56685179512580e+004,-1.97282699003894e+001,-7.15918880032023e-001

2.60268371088386e+004,-1.97282841920956e+001,-7.25908466375477e-001

2.63901582154578e+004,-1.97282988832590e+001,-7.36037321892540e-001

2.67585510957221e+004,-1.97283139849776e+001,-7.46307383126714e-001

2.71320865489533e+004,-1.97283295086537e+001,-7.56720613338267e-001

2.75108363627948e+004,-1.97283454660025e+001,-7.67279002862952e-001

2.78948733270080e+004,-1.97283618690603e+001,-7.77984569476967e-001

2.82842712474618e+004,-1.97283787301924e+001,-7.88839358767991e-001

2.86791049603164e+004,-1.97283960621031e+001,-7.99845444504189e-001

2.90794503464061e+004,-1.97284138778437e+001,-8.11004929016330e-001

2.94853843458219e+004,-1.97284321908223e+001,-8.22319943578120e-001

2.98969849726987e+004,-1.97284510148128e+001,-8.33792648794797e-001

3.03143313302078e+004,-1.97284703639648e+001,-8.45425234995959e-001

3.07375036257601e+004,-1.97284902528137e+001,-8.57219922630209e-001

3.11665831864199e+004,-1.97285106962903e+001,-8.69178962669499e-001

3.16016524745350e+004,-1.97285317097318e+001,-8.81304637014218e-001

3.20427951035848e+004,-1.97285533088924e+001,-8.93599258904801e-001

3.24900958542493e+004,-1.97285755099536e+001,-9.06065173340158e-001

3.29436406907028e+004,-1.97285983295361e+001,-9.18704757496127e-001

3.34035167771346e+004,-1.97286217847109e+001,-9.31520421154723e-001

3.38698124945009e+004,-1.97286458930112e+001,-9.44514607134122e-001

3.43426174575100e+004,-1.97286706724440e+001,-9.57689791725973e-001

3.48220225318448e+004,-1.97286961415030e+001,-9.71048485137009e-001

3.53081198516260e+004,-1.97287223191807e+001,-9.84593231936035e-001

3.58010028371187e+004,-1.97287492249812e+001,-9.98326611505892e-001

3.63007662126863e+004,-1.97287768789340e+001,-1.01225123850173e+000

3.68075060249948e+004,-1.97288053016065e+001,-1.02636976331274e+000

3.73213196614721e+004,-1.97288345141186e+001,-1.04068487253042e+000

3.78423058690237e+004,-1.97288645381565e+001,-1.05519928942248e+000

3.83705647730104e+004,-1.97288953959870e+001,-1.06991577441024e+000

3.89061978964912e+004,-1.97289271104721e+001,-1.08483712555470e+000

3.94493081797342e+004,-1.97289597050844e+001,-1.09996617904424e+000

3.99999999999998e+004,-1.97289932039225e+001,-1.11530580969050e+000

4.05583791916010e+004,-1.97290276317262e+001,-1.13085893142863e+000

4.11245530662425e+004,-1.97290630138932e+001,-1.14662849782319e+000

4.16986304336447e+004,-1.97290993764949e+001,-1.16261750258024e+000

4.22807216224550e+004,-1.97291367462936e+001,-1.17882898006463e+000

4.28709385014515e+004,-1.97291751507595e+001,-1.19526600582062e+000

4.34693945010421e+004,-1.97292146180880e+001,-1.21193169710281e+000

4.40762046350642e+004,-1.97292551772177e+001,-1.22882921340873e+000

4.46914855228886e+004,-1.97292968578483e+001,-1.24596175701947e+000

4.53153554118317e+004,-1.97293396904595e+001,-1.26333257354294e+000

4.59479341998812e+004,-1.97293837063299e+001,-1.28094495246672e+000

4.65893434587380e+004,-1.97294289375559e+001,-1.29880222771418e+000

4.72397064571810e+004,-1.97294754170718e+001,-1.31690777820688e+000

4.78991481847569e+004,-1.97295231786694e+001,-1.33526502843310e+000

4.85677953758016e+004,-1.97295722570190e+001,-1.35387744902083e+000

4.92457765337964e+004,-1.97296226876897e+001,-1.37274855731765e+000

4.99332219560642e+004,-1.97296745071707e+001,-1.39188191797751e+000

5.06302637588109e+004,-1.97297277528928e+001,-1.41128114355120e+000

5.13370359025159e+004,-1.97297824632507e+001,-1.43094989508202e+000

5.20536742176771e+004,-1.97298386776248e+001,-1.45089188271123e+000

5.27803164309155e+004,-1.97298964364043e+001,-1.47111086628484e+000

5.35171021914442e+004,-1.97299557810098e+001,-1.49161065596871e+000

5.42641730979066e+004,-1.97300167539174e+001,-1.51239511286996e+000

5.50216727255895e+004,-1.97300793986818e+001,-1.53346814966139e+000

5.57897466540159e+004,-1.97301437599610e+001,-1.55483373121486e+000

5.65685424949235e+004,-1.97302098835408e+001,-1.57649587523825e+000

5.73582099206328e+004,-1.97302778163591e+001,-1.59845865292101e+000

5.81589006928121e+004,-1.97303476065323e+001,-1.62072618958119e+000

5.89707686916437e+004,-1.97304193033795e+001,-1.64330266532385e+000

5.97939699453972e+004,-1.97304929574497e+001,-1.66619231570008e+000

6.06286626604156e+004,-1.97305686205472e+001,-1.68939943237547e+000

6.14750072515201e+004,-1.97306463457587e+001,-1.71292836380350e+000

6.23331663728396e+004,-1.97307261874798e+001,-1.73678351590377e+000

6.32033049490698e+004,-1.97308082014427e+001,-1.76096935274742e+000

6.40855902071694e+004,-1.97308924447430e+001,-1.78549039724862e+000

6.49801917084985e+004,-1.97309789758683e+001,-1.81035123186011e+000

6.58872813814055e+004,-1.97310678547254e+001,-1.83555649927734e+000

6.68070335542691e+004,-1.97311591426689e+001,-1.86111090314597e+000

6.77396249890018e+004,-1.97312529025300e+001,-1.88701920877683e+000

6.86852349150199e+004,-1.97313491986444e+001,-1.91328624386849e+000

6.96440450636895e+004,-1.97314480968821e+001,-1.93991689923066e+000

7.06162397032520e+004,-1.97315496646757e+001,-1.96691612951974e+000

7.16020056742374e+004,-1.97316539710497e+001,-1.99428895397681e+000

7.26015324253724e+004,-1.97317610866504e+001,-2.02204045717197e+000

7.36150120499896e+004,-1.97318710837742e+001,-2.05017578975667e+000

7.46426393229441e+004,-1.97319840363979e+001,-2.07870016922088e+000

7.56846117380472e+004,-1.97321000202081e+001,-2.10761888065562e+000

7.67411295460207e+004,-1.97322191126299e+001,-2.13693727752528e+000

7.78123957929823e+004,-1.97323413928575e+001,-2.16666078244230e+000

7.88986163594682e+004,-1.97324669418825e+001,-2.19679488795135e+000

7.99999999999995e+004,-1.97325958425239e+001,-2.22734515731866e+000

8.11167583832018e+004,-1.97327281794566e+001,-2.25831722532860e+000

8.22491061324848e+004,-1.97328640392411e+001,-2.28971679908707e+000

8.33972608672892e+004,-1.97330035103515e+001,-2.32154965883222e+000

8.45614432449099e+004,-1.97331466832041e+001,-2.35382165875158e+000

8.57418770029029e+004,-1.97332936501861e+001,-2.38653872780729e+000

8.69387890020841e+004,-1.97334445056826e+001,-2.41970687056820e+000

8.81524092701283e+004,-1.97335993461042e+001,-2.45333216805085e+000

8.93829710457770e+004,-1.97337582699143e+001,-2.48742077856660e+000

9.06307108236633e+004,-1.97339213776549e+001,-2.52197893857869e+000

9.18958683997622e+004,-1.97340887719726e+001,-2.55701296356693e+000

9.31786869174758e+004,-1.97342605576441e+001,-2.59252924890097e+000

9.44794129143618e+004,-1.97344368416002e+001,-2.62853427072334e+000

9.57982963695136e+004,-1.97346177329499e+001,-2.66503458684163e+000

9.71355907516031e+004,-1.97348033430032e+001,-2.70203683762993e+000

9.84915530675926e+004,-1.97349937852932e+001,-2.73954774694167e+000

9.98664439121282e+004,-1.97351891755971e+001,-2.77757412303158e+000

1.01260527517622e+005,-1.97353896319569e+001,-2.81612285949036e+000

1.02674071805032e+005,-1.97355952746976e+001,-2.85520093618984e+000

1.04107348435354e+005,-1.97358062264461e+001,-2.89481542024056e+000

1.05560632861831e+005,-1.97360226121472e+001,-2.93497346696297e+000

1.07034204382888e+005,-1.97362445590798e+001,-2.97568232087005e+000

1.08528346195813e+005,-1.97364721968704e+001,-3.01694931666683e+000

1.10043345451179e+005,-1.97367056575064e+001,-3.05878188026176e+000

1.11579493308032e+005,-1.97369450753475e+001,-3.10118752979542e+000

1.13137084989847e+005,-1.97371905871351e+001,-3.14417387668542e+000

1.14716419841265e+005,-1.97374423320009e+001,-3.18774862668726e+000

1.16317801385624e+005,-1.97377004514734e+001,-3.23191958097539e+000

1.17941537383287e+005,-1.97379650894828e+001,-3.27669463724118e+000

1.19587939890794e+005,-1.97382363923642e+001,-3.32208179081229e+000

1.21257325320831e+005,-1.97385145088592e+001,-3.36808913579281e+000

1.22950014503040e+005,-1.97387995901147e+001,-3.41472486622577e+000

1.24666332745679e+005,-1.97390917896812e+001,-3.46199727727912e+000

1.26406609898139e+005,-1.97393912635084e+001,-3.50991476645632e+000

1.28171180414339e+005,-1.97396981699386e+001,-3.55848583483272e+000

1.29960383416997e+005,-1.97400126696985e+001,-3.60771908832012e+000

1.31774562762811e+005,-1.97403349258892e+001,-3.65762323895949e+000

1.33614067108538e+005,-1.97406651039733e+001,-3.70820710624472e+000

1.35479249978003e+005,-1.97410033717613e+001,-3.75947961847643e+000

1.37370469830040e+005,-1.97413498993945e+001,-3.81144981415216e+000

1.39288090127379e+005,-1.97417048593272e+001,-3.86412684338904e+000

1.41232479406504e+005,-1.97420684263059e+001,-3.91751996938482e+000

1.43204011348474e+005,-1.97424407773475e+001,-3.97163856991740e+000

1.45203064850745e+005,-1.97428220917146e+001,-4.02649213888439e+000

1.47230024099979e+005,-1.97432125508901e+001,-4.08209028788500e+000

1.49285278645888e+005,-1.97436123385489e+001,-4.13844274784784e+000

1.51369223476094e+005,-1.97440216405289e+001,-4.19555937070219e+000

1.53482259092041e+005,-1.97444406448003e+001,-4.25345013110062e+000

1.55624791585964e+005,-1.97448695414328e+001,-4.31212512818995e+000

1.57797232718936e+005,-1.97453085225626e+001,-4.37159458743561e+000

1.59999999999999e+005,-1.97457577823578e+001,-4.43186886250073e+000

1.62233516766403e+005,-1.97462175169825e+001,-4.49295843718161e+000

1.64498212264969e+005,-1.97466879245612e+001,-4.55487392740217e+000

1.66794521734578e+005,-1.97471692051420e+001,-4.61762608326989e+000

1.69122886489819e+005,-1.97476615606600e+001,-4.68122579119481e+000

1.71483754005805e+005,-1.97481651949005e+001,-4.74568407607334e+000

1.73877578004168e+005,-1.97486803134629e+001,-4.81101210354078e+000

1.76304818540256e+005,-1.97492071237253e+001,-4.87722118229242e+000

1.78765942091554e+005,-1.97497458348100e+001,-4.94432276647698e+000

1.81261421647326e+005,-1.97502966575507e+001,-5.01232845816335e+000

1.83791736799524e+005,-1.97508598044612e+001,-5.08125000988301e+000

1.86357373834951e+005,-1.97514354897071e+001,-5.15109932724975e+000

1.88958825828723e+005,-1.97520239290795e+001,-5.22188847165930e+000

1.91596592739027e+005,-1.97526253399725e+001,-5.29362966306865e+000

1.94271181503206e+005,-1.97532399413643e+001,-5.36633528285922e+000

1.96983106135185e+005,-1.97538679538025e+001,-5.44001787678224e+000

1.99732887824256e+005,-1.97545095993945e+001,-5.51469015799063e+000

2.02521055035243e+005,-1.97551651018034e+001,-5.59036501015611e+000

2.05348143610063e+005,-1.97558346862493e+001,-5.66705549067380e+000

2.08214696870707e+005,-1.97565185795185e+001,-5.74477483395478e+000

2.11121265723661e+005,-1.97572170099790e+001,-5.82353645480601e+000

2.14068408765776e+005,-1.97579302076048e+001,-5.90335395190024e+000

2.17056692391625e+005,-1.97586584040082e+001,-5.98424111133387e+000

2.20086690902357e+005,-1.97594018324823e+001,-6.06621191027292e+000

2.23158986616063e+005,-1.97601607280536e+001,-6.14928052068762e+000

2.26274169979693e+005,-1.97609353275444e+001,-6.23346131317462e+000

2.29432839682530e+005,-1.97617258696489e+001,-6.31876886086405e+000

2.32635602771247e+005,-1.97625325950196e+001,-6.40521794341351e+000

2.35883074766574e+005,-1.97633557463683e+001,-6.49282355108392e+000

2.39175879781588e+005,-1.97641955685808e+001,-6.58160088889704e+000

2.42514650641661e+005,-1.97650523088455e+001,-6.67156538087330e+000

2.45900029006080e+005,-1.97659262167985e+001,-6.76273267434438e+000

2.49332665491357e+005,-1.97668175446841e+001,-6.85511864434172e+000

2.52813219796278e+005,-1.97677265475326e+001,-6.94873939805303e+000

2.56342360828676e+005,-1.97686534833557e+001,-7.04361127934761e+000

2.59920766833993e+005,-1.97695986133600e+001,-7.13975087336438e+000

2.63549125525621e+005,-1.97705622021797e+001,-7.23717501115729e+000

2.67228134217075e+005,-1.97715445181286e+001,-7.33590077439704e+000

2.70958499956006e+005,-1.97725458334727e+001,-7.43594550012084e+000

2.74740939660078e+005,-1.97735664247232e+001,-7.53732678552677e+000

2.78576180254757e+005,-1.97746065729509e+001,-7.64006249280699e+000

2.82464958813007e+005,-1.97756665641228e+001,-7.74417075401481e+000

2.86408022696948e+005,-1.97767466894600e+001,-7.84966997595752e+000

2.90406129701488e+005,-1.97778472458193e+001,-7.95657884511233e+000

2.94460048199957e+005,-1.97789685360967e+001,-8.06491633255489e+000

2.98570557291775e+005,-1.97801108696547e+001,-8.17470169889807e+000

3.02738446952187e+005,-1.97812745627732e+001,-8.28595449923049e+000

3.06964518184081e+005,-1.97824599391234e+001,-8.39869458805126e+000

3.11249583171928e+005,-1.97836673302654e+001,-8.51294212419132e+000

3.15594465437872e+005,-1.97848970761705e+001,-8.62871757571632e+000

3.19999999999997e+005,-1.97861495257656e+001,-8.74604172480320e+000

3.24467033532806e+005,-1.97874250375025e+001,-8.86493567258330e+000

3.28996424529938e+005,-1.97887239799499e+001,-8.98542084394546e+000

3.33589043469155e+005,-1.97900467324087e+001,-9.10751899229231e+000

3.38245772979638e+005,-1.97913936855504e+001,-9.23125220424284e+000

3.42967508011610e+005,-1.97927652420777e+001,-9.35664290427323e+000

3.47755156008335e+005,-1.97941618174073e+001,-9.48371385929271e+000

3.52609637080511e+005,-1.97955838403745e+001,-9.61248818314423e+000

3.57531884183106e+005,-1.97970317539585e+001,-9.74298934102747e+000

3.62522843294651e+005,-1.97985060160285e+001,-9.87524115383554e+000

3.67583473599047e+005,-1.98000071001097e+001,-1.00092678024013e+001

3.72714747669902e+005,-1.98015354961679e+001,-1.01450938316491e+001

3.77917651657445e+005,-1.98030917114134e+001,-1.02827441546439e+001

3.83193185478053e+005,-1.98046762711220e+001,-1.04222440565375e+001

3.88542363006410e+005,-1.98062897194727e+001,-1.05636191984036e+001

3.93966212270369e+005,-1.98079326204021e+001,-1.07068956209618e+001

3.99465775648511e+005,-1.98096055584734e+001,-1.08520997481841e+001

4.05042110070485e+005,-1.98113091397603e+001,-1.09992583907827e+001

4.10696287220124e+005,-1.98130439927438e+001,-1.11483987495774e+001

4.16429393741414e+005,-1.98148107692222e+001,-1.12995484187371e+001

4.22242531447321e+005,-1.98166101452323e+001,-1.14527353888986e+001

4.28136817531551e+005,-1.98184428219818e+001,-1.16079880501571e+001

4.34113384783250e+005,-1.98203095267920e+001,-1.17653351949306e+001

4.40173381804713e+005,-1.98222110140486e+001,-1.19248060206955e+001

4.46317973232124e+005,-1.98241480661627e+001,-1.20864301325956e+001

4.52548339959385e+005,-1.98261214945376e+001,-1.22502375459220e+001

4.58865679365059e+005,-1.98281321405432e+001,-1.24162586884678e+001

4.65271205542494e+005,-1.98301808764973e+001,-1.25845244027554e+001

4.71766149533147e+005,-1.98322686066510e+001,-1.27550659481388e+001

4.78351759563174e+005,-1.98343962681800e+001,-1.29279150027830e+001

4.85029301283321e+005,-1.98365648321798e+001,-1.31031036655215e+001

4.91800058012158e+005,-1.98387753046647e+001,-1.32806644575925e+001

4.98665330982714e+005,-1.98410287275703e+001,-1.34606303242579e+001

5.05626439592555e+005,-1.98433261797585e+001,-1.36430346363050e+001

5.12684721657352e+005,-1.98456687780256e+001,-1.38279111914347e+001

5.19841533667984e+005,-1.98480576781124e+001,-1.40152942155366e+001

5.27098251051240e+005,-1.98504940757156e+001,-1.42052183638547e+001

5.34456268434150e+005,-1.98529792075026e+001,-1.43977187220433e+001

5.41916999912011e+005,-1.98555143521263e+001,-1.45928308071187e+001

