Freq.,VOut,OutRef

1.00000000000000e+004,-8.18956988169453e+000,-5.69900955799569e-002

1.01395947979003e+004,-8.18957021031361e+000,-5.77855882533918e-002

1.02811382665607e+004,-8.18957054815839e+000,-5.85921830696200e-002

1.04246576084112e+004,-8.18957089548721e+000,-5.94100349034277e-002

1.05701804056138e+004,-8.18957125256610e+000,-6.02393007845864e-002

1.07177346253629e+004,-8.18957161966845e+000,-6.10801399303153e-002

1.08673486252606e+004,-8.18957199707491e+000,-6.19327137780237e-002

1.10190511587661e+004,-8.18957238507459e+000,-6.27971860097257e-002

1.11728713807222e+004,-8.18957278396428e+000,-6.36737225891950e-002

1.13288388529580e+004,-8.18957319404888e+000,-6.45624917929388e-002

1.14869835499703e+004,-8.18957361564203e+000,-6.54636642389707e-002

1.16473358646846e+004,-8.18957404906628e+000,-6.63774129201115e-002

1.18099266142953e+004,-8.18957449465296e+000,-6.73039132394462e-002

1.19747870461893e+004,-8.18957495274279e+000,-6.82433430404869e-002

1.21419488439505e+004,-8.18957542368556e+000,-6.91958826459027e-002

1.23114441334492e+004,-8.18957590784168e+000,-7.01617148823334e-002

1.24833054890161e+004,-8.18957640558076e+000,-7.11410251271777e-002

1.26575659397028e+004,-8.18957691728302e+000,-7.21340013354000e-002

1.28342589756290e+004,-8.18957744333936e+000,-7.31408340774837e-002

1.30134185544193e+004,-8.18957798415158e+000,-7.41617165756189e-002

1.31950791077289e+004,-8.18957854013287e+000,-7.51968447389449e-002

1.33792755478611e+004,-8.18957911170709e+000,-7.62464172078892e-002

1.35660432744767e+004,-8.18957969931099e+000,-7.73106353793166e-002

1.37554181813974e+004,-8.18958030339270e+000,-7.83897034562354e-002

1.39474366635040e+004,-8.18958092441308e+000,-7.94838284804454e-002

1.41421356237309e+004,-8.18958156284588e+000,-8.05932203729473e-002

1.43395524801583e+004,-8.18958221917809e+000,-8.17180919729807e-002

1.45397251732031e+004,-8.18958289390980e+000,-8.28586590820364e-002

1.47426921729110e+004,-8.18958358755584e+000,-8.40151404970913e-002

1.49484924863494e+004,-8.18958430064437e+000,-8.51877580620646e-002

1.51571656651040e+004,-8.18958503371864e+000,-8.63767367024866e-002

1.53687518128801e+004,-8.18958578733711e+000,-8.75823044687263e-002

1.55832915932100e+004,-8.18958656207395e+000,-8.88046925789202e-002

1.58008262372675e+004,-8.18958735851860e+000,-9.00441354682830e-002

1.60213975517924e+004,-8.18958817727723e+000,-9.13008708261568e-002

1.62450479271247e+004,-8.18958901897310e+000,-9.25751396423999e-002

1.64718203453514e+004,-8.18958988424584e+000,-9.38671862591380e-002

1.67017583885674e+004,-8.18959077375405e+000,-9.51772584040586e-002

1.69349062472505e+004,-8.18959168817346e+000,-9.65056072512808e-002

1.71713087287550e+004,-8.18959262819909e+000,-9.78524874589129e-002

1.74110112659224e+004,-8.18959359454503e+000,-9.92181572204039e-002

1.76540599258131e+004,-8.18959458794530e+000,-1.00602878311298e-001

1.79005014185594e+004,-8.18959560915393e+000,-1.02006916141802e-001

1.81503831063432e+004,-8.18959665894579e+000,-1.03430539804334e-001

1.84037530124975e+004,-8.18959773811734e+000,-1.04874022123165e-001

1.86606598307361e+004,-8.18959884748711e+000,-1.06337639704969e-001

1.89211529345119e+004,-8.18959998789578e+000,-1.07821672995829e-001

1.91852823865052e+004,-8.18960116020753e+000,-1.09326406327524e-001

1.94530989482457e+004,-8.18960236531039e+000,-1.10852127973105e-001

1.97246540898671e+004,-8.18960360411683e+000,-1.12399130200400e-001

1.99999999999999e+004,-8.18960487756416e+000,-1.13967709329702e-001

2.02791895958005e+004,-8.18960618661592e+000,-1.15558165782270e-001

2.05622765331213e+004,-8.18960753226140e+000,-1.17170804145961e-001

2.08493152168224e+004,-8.18960891551806e+000,-1.18805933219628e-001

2.11403608112276e+004,-8.18961033743069e+000,-1.20463866081208e-001

2.14354692507258e+004,-8.18961179907254e+000,-1.22144920143432e-001

2.17346972505211e+004,-8.18961330154690e+000,-1.23849417207176e-001

2.20381023175322e+004,-8.18961484598677e+000,-1.25577683528974e-001

2.23457427614443e+004,-8.18961643355646e+000,-1.27330049875414e-001

2.26576777059159e+004,-8.18961806545227e+000,-1.29106851586630e-001

2.29739670999406e+004,-8.18961974290261e+000,-1.30908428641849e-001

2.32946717293690e+004,-8.18962146716981e+000,-1.32735125716219e-001

2.36198532285905e+004,-8.18962323955097e+000,-1.34587292246138e-001

2.39495740923785e+004,-8.18962506137804e+000,-1.36465282496794e-001

2.42838976879009e+004,-8.18962693401939e+000,-1.38369455624992e-001

2.46228882668982e+004,-8.18962885888067e+000,-1.40300175744922e-001

2.49666109780322e+004,-8.18963083740589e+000,-1.42257811995327e-001

2.53151318794055e+004,-8.18963287107829e+000,-1.44242738606918e-001

2.56685179512580e+004,-8.18963496142074e+000,-1.46255334975847e-001

2.60268371088386e+004,-8.18963710999842e+000,-1.48295985722657e-001

2.63901582154578e+004,-8.18963931841825e+000,-1.50365080772261e-001

2.67585510957221e+004,-8.18964158833071e+000,-1.52463015421835e-001

2.71320865489533e+004,-8.18964392143067e+000,-1.54590190413817e-001

2.75108363627948e+004,-8.18964631945945e+000,-1.56747012003197e-001

2.78948733270080e+004,-8.18964878420462e+000,-1.58933892040649e-001

2.82842712474618e+004,-8.18965131750213e+000,-1.61151248040654e-001

2.86791049603164e+004,-8.18965392123745e+000,-1.63399503258672e-001

2.90794503464061e+004,-8.18965659734663e+000,-1.65679086767930e-001

2.94853843458219e+004,-8.18965934781726e+000,-1.67990433539814e-001

2.98969849726987e+004,-8.18966217469087e+000,-1.70333984515627e-001

3.03143313302078e+004,-8.18966508006295e+000,-1.72710186693241e-001

3.07375036257601e+004,-8.18966806608536e+000,-1.75119493202069e-001

3.11665831864199e+004,-8.18967113496746e+000,-1.77562363385721e-001

3.16016524745350e+004,-8.18967428897691e+000,-1.80039262887902e-001

3.20427951035848e+004,-8.18967753044216e+000,-1.82550663729812e-001

3.24900958542493e+004,-8.18968086175325e+000,-1.85097044398236e-001

3.29436406907028e+004,-8.18968428536366e+000,-1.87678889929121e-001

3.34035167771346e+004,-8.18968780379171e+000,-1.90296691994306e-001

3.38698124945009e+004,-8.18969141962215e+000,-1.92950948989344e-001

3.43426174575100e+004,-8.18969513550809e+000,-1.95642166119013e-001

3.48220225318448e+004,-8.18969895417228e+000,-1.98370855489615e-001

3.53081198516260e+004,-8.18970287840878e+000,-2.01137536198544e-001

3.58010028371187e+004,-8.18970691108540e+000,-2.03942734421776e-001

3.63007662126863e+004,-8.18971105514450e+000,-2.06786983511413e-001

3.68075060249948e+004,-8.18971531360518e+000,-2.09670824086934e-001

3.73213196614721e+004,-8.18971968956565e+000,-2.12594804125826e-001

3.78423058690237e+004,-8.18972418620388e+000,-2.15559479066931e-001

3.83705647730104e+004,-8.18972880678093e+000,-2.18565411896753e-001

3.89061978964912e+004,-8.18973355464161e+000,-2.21613173255871e-001

3.94493081797342e+004,-8.18973843321714e+000,-2.24703341532784e-001

3.99999999999998e+004,-8.18974344602724e+000,-2.27836502962749e-001

4.05583791916010e+004,-8.18974859668181e+000,-2.31013251729838e-001

4.11245530662425e+004,-8.18975388888277e+000,-2.34234190071165e-001

4.16986304336447e+004,-8.18975932642714e+000,-2.37499928372745e-001

4.22807216224550e+004,-8.18976491320767e+000,-2.40811085282383e-001

4.28709385014515e+004,-8.18977065321673e+000,-2.44168287804502e-001

4.34693945010421e+004,-8.18977655054685e+000,-2.47572171415248e-001

4.40762046350642e+004,-8.18978260939417e+000,-2.51023380162635e-001

4.46914855228886e+004,-8.18978883406007e+000,-2.54522566777938e-001

4.53153554118317e+004,-8.18979522895353e+000,-2.58070392784911e-001

4.59479341998812e+004,-8.18980179859356e+000,-2.61667528608503e-001

4.65893434587380e+004,-8.18980854761135e+000,-2.65314653687772e-001

4.72397064571810e+004,-8.18981548075291e+000,-2.69012456585996e-001

4.78991481847569e+004,-8.18982260288123e+000,-2.72761635106167e-001

4.85677953758016e+004,-8.18982991897846e+000,-2.76562896406308e-001

4.92457765337964e+004,-8.18983743414892e+000,-2.80416957111704e-001

4.99332219560642e+004,-8.18984515362110e+000,-2.84324543434487e-001

5.06302637588109e+004,-8.18985308275012e+000,-2.88286391290883e-001

5.13370359025159e+004,-8.18986122702045e+000,-2.92303246419053e-001

5.20536742176771e+004,-8.18986959204804e+000,-2.96375864500950e-001

5.27803164309155e+004,-8.18987818358310e+000,-3.00505011281927e-001

5.35171021914442e+004,-8.18988700751287e+000,-3.04691462690317e-001

5.42641730979066e+004,-8.18989606986315e+000,-3.08936004968011e-001

5.50216727255895e+004,-8.18990537680174e+000,-3.13239434787479e-001

5.57897466540159e+004,-8.18991493464054e+000,-3.17602559380550e-001

5.65685424949235e+004,-8.18992474983841e+000,-3.22026196662307e-001

5.73582099206328e+004,-8.18993482900300e+000,-3.26511175362427e-001

5.81589006928121e+004,-8.18994517889376e+000,-3.31058335150719e-001

5.89707686916437e+004,-8.18995580642414e+000,-3.35668526767882e-001

5.97939699453972e+004,-8.18996671866426e+000,-3.40342612155401e-001

6.06286626604156e+004,-8.18997792284302e+000,-3.45081464588135e-001

6.14750072515201e+004,-8.18998942635062e+000,-3.49885968806922e-001

6.23331663728396e+004,-8.19000123674106e+000,-3.54757021151256e-001

6.32033049490698e+004,-8.19001336173399e+000,-3.59695529696294e-001

6.40855902071694e+004,-8.19002580921749e+000,-3.64702414386591e-001

6.49801917084985e+004,-8.19003858724973e+000,-3.69778607175228e-001

6.58872813814055e+004,-8.19005170406138e+000,-3.74925052160571e-001

6.68070335542691e+004,-8.19006516805782e+000,-3.80142705724235e-001

6.77396249890018e+004,-8.19007898782042e+000,-3.85432536675862e-001

6.86852349150199e+004,-8.19009317210921e+000,-3.90795526388623e-001

6.96440450636895e+004,-8.19010772986426e+000,-3.96232668944705e-001

7.06162397032520e+004,-8.19012267020752e+000,-4.01744971277602e-001

7.16020056742374e+004,-8.19013800244385e+000,-4.07333453319625e-001

7.26015324253724e+004,-8.19015373606329e+000,-4.12999148141842e-001

7.36150120499896e+004,-8.19016988074178e+000,-4.18743102105590e-001

7.46426393229441e+004,-8.19018644634235e+000,-4.24566375008083e-001

7.56846117380472e+004,-8.19020344291622e+000,-4.30470040232468e-001

7.67411295460207e+004,-8.19022088070377e+000,-4.36455184895402e-001

7.78123957929823e+004,-8.19023877013469e+000,-4.42522910002060e-001

7.88986163594682e+004,-8.19025712182913e+000,-4.48674330593648e-001

7.99999999999995e+004,-8.19027594659699e+000,-4.54910575906553e-001

8.11167583832018e+004,-8.19029525543892e+000,-4.61232789521610e-001

8.22491061324848e+004,-8.19031505954522e+000,-4.67642129524345e-001

8.33972608672892e+004,-8.19033537029586e+000,-4.74139768659414e-001

8.45614432449099e+004,-8.19035619925936e+000,-4.80726894492015e-001

8.57418770029029e+004,-8.19037755819222e+000,-4.87404709563552e-001

8.69387890020841e+004,-8.19039945903682e+000,-4.94174431558832e-001

8.81524092701283e+004,-8.19042191392045e+000,-5.01037293462618e-001

8.93829710457770e+004,-8.19044493515277e+000,-5.07994543728999e-001

9.06307108236633e+004,-8.19046853522353e+000,-5.15047446444892e-001

9.18958683997622e+004,-8.19049272679999e+000,-5.22197281497149e-001

9.31786869174758e+004,-8.19051752272331e+000,-5.29445344744344e-001

9.44794129143618e+004,-8.19054293600511e+000,-5.36792948185380e-001

9.57982963695136e+004,-8.19056897982390e+000,-5.44241420131795e-001

9.71355907516031e+004,-8.19059566751973e+000,-5.51792105384899e-001

9.84915530675926e+004,-8.19062301258946e+000,-5.59446365412721e-001

9.98664439121282e+004,-8.19065102868146e+000,-5.67205578526888e-001

1.01260527517622e+005,-8.19067972958931e+000,-5.75071140065326e-001

1.02674071805032e+005,-8.19070912924526e+000,-5.83044462575357e-001

1.04107348435354e+005,-8.19073924171279e+000,-5.91126976001927e-001

1.05560632861831e+005,-8.19077008117901e+000,-5.99320127874012e-001

1.07034204382888e+005,-8.19080166194598e+000,-6.07625383498688e-001

1.08528346195813e+005,-8.19083399842188e+000,-6.16044226153971e-001

1.10043345451179e+005,-8.19086710511073e+000,-6.24578157289462e-001

1.11579493308032e+005,-8.19090099660228e+000,-6.33228696725368e-001

1.13137084989847e+005,-8.19093568756054e+000,-6.41997382858024e-001

1.14716419841265e+005,-8.19097119271161e+000,-6.50885772871169e-001

1.16317801385624e+005,-8.19100752683110e+000,-6.59895442945039e-001

1.17941537383287e+005,-8.19104470473038e+000,-6.69027988477120e-001

1.19587939890794e+005,-8.19108274124214e+000,-6.78285024300537e-001

1.21257325320831e+005,-8.19112165120495e+000,-6.87668184913294e-001

1.22950014503040e+005,-8.19116144944703e+000,-6.97179124709007e-001

1.24666332745679e+005,-8.19120215076934e+000,-7.06819518212855e-001

1.26406609898139e+005,-8.19124376992731e+000,-7.16591060325214e-001

1.28171180414339e+005,-8.19128632161184e+000,-7.26495466570033e-001

1.29960383416997e+005,-8.19132982042928e+000,-7.36534473351233e-001

1.31774562762811e+005,-8.19137428088070e+000,-7.46709838211294e-001

1.33614067108538e+005,-8.19141971733967e+000,-7.57023340103786e-001

1.35479249978003e+005,-8.19146614402934e+000,-7.67476779667034e-001

1.37370469830040e+005,-8.19151357499844e+000,-7.78071979510247e-001

1.39288090127379e+005,-8.19156202409606e+000,-7.88810784506137e-001

1.41232479406504e+005,-8.19161150494592e+000,-7.99695062089996e-001

1.43204011348474e+005,-8.19166203091862e+000,-8.10726702574142e-001

1.45203064850745e+005,-8.19171361510397e+000,-8.21907619464642e-001

1.47230024099979e+005,-8.19176627028125e+000,-8.33239749794920e-001

1.49285278645888e+005,-8.19182000888902e+000,-8.44725054465618e-001

1.51369223476094e+005,-8.19187484299383e+000,-8.56365518596260e-001

1.53482259092041e+005,-8.19193078425756e+000,-8.68163151891275e-001

1.55624791585964e+005,-8.19198784390392e+000,-8.80119989015663e-001

1.57797232718936e+005,-8.19204603268425e+000,-8.92238089983319e-001

1.59999999999999e+005,-8.19210536084146e+000,-9.04519540562116e-001

1.62233516766403e+005,-8.19216583807428e+000,-9.16966452687558e-001

1.64498212264969e+005,-8.19222747349934e+000,-9.29580964894998e-001

1.66794521734578e+005,-8.19229027561295e+000,-9.42365242766870e-001

1.69122886489819e+005,-8.19235425225230e+000,-9.55321479391848e-001

1.71483754005805e+005,-8.19241941055497e+000,-9.68451895845011e-001

1.73877578004168e+005,-8.19248575691857e+000,-9.81758741681310e-001

1.76304818540256e+005,-8.19255329695929e+000,-9.95244295446619e-001

1.78765942091554e+005,-8.19262203546969e+000,-1.00891086520920e+000

1.81261421647326e+005,-8.19269197637599e+000,-1.02276078910724e+000

1.83791736799524e+005,-8.19276312269534e+000,-1.03679643591424e+000

1.86357373834951e+005,-8.19283547649178e+000,-1.05102020562745e+000

1.88958825828723e+005,-8.19290903883240e+000,-1.06543453007477e+000

1.91596592739027e+005,-8.19298380974355e+000,-1.08004187353896e+000

1.94271181503206e+005,-8.19305978816617e+000,-1.09484473340754e+000

1.96983106135185e+005,-8.19313697191157e+000,-1.10984564084131e+000

1.99732887824256e+005,-8.19321535761716e+000,-1.12504716146483e+000

2.02521055035243e+005,-8.19329494070232e+000,-1.14045189607917e+000

2.05348143610063e+005,-8.19337571532474e+000,-1.15606248139628e+000

2.08214696870707e+005,-8.19345767433686e+000,-1.17188159079756e+000

2.11121265723661e+005,-8.19354080924291e+000,-1.18791193511496e+000

2.14068408765776e+005,-8.19362511015700e+000,-1.20415626343306e+000

2.17056692391625e+005,-8.19371056576170e+000,-1.22061736391620e+000

2.20086690902357e+005,-8.19379716326755e+000,-1.23729806465875e+000

2.23158986616063e+005,-8.19388488837379e+000,-1.25420123455830e+000

2.26274169979693e+005,-8.19397372523039e+000,-1.27132978421103e+000

2.29432839682530e+005,-8.19406365640118e+000,-1.28868666683228e+000

2.32635602771247e+005,-8.19415466282876e+000,-1.30627487919910e+000

2.35883074766574e+005,-8.19424672380111e+000,-1.32409746261343e+000

2.39175879781588e+005,-8.19433981691980e+000,-1.34215750389141e+000

2.42514650641661e+005,-8.19443391807040e+000,-1.36045813637109e+000

2.45900029006080e+005,-8.19452900139485e+000,-1.37900254094391e+000

2.49332665491357e+005,-8.19462503926603e+000,-1.39779394710706e+000

2.52813219796278e+005,-8.19472200226492e+000,-1.41683563403420e+000

2.56342360828676e+005,-8.19481985916019e+000,-1.43613093166754e+000

2.59920766833993e+005,-8.19491857689018e+000,-1.45568322182981e+000

2.63549125525621e+005,-8.19501812054816e+000,-1.47549593935074e+000

2.67228134217075e+005,-8.19511845336979e+000,-1.49557257321519e+000

2.70958499956006e+005,-8.19521953672410e+000,-1.51591666772465e+000

2.74740939660078e+005,-8.19532133010731e+000,-1.53653182367436e+000

2.78576180254757e+005,-8.19542379113973e+000,-1.55742169954536e+000

2.82464958813007e+005,-8.19552687556587e+000,-1.57859001270986e+000

2.86408022696948e+005,-8.19563053725820e+000,-1.60004054064557e+000

2.90406129701488e+005,-8.19573472822323e+000,-1.62177712216721e+000

2.94460048199957e+005,-8.19583939861239e+000,-1.64380365865817e+000

2.98570557291775e+005,-8.19594449673482e+000,-1.66612411531876e+000

3.02738446952187e+005,-8.19604996907433e+000,-1.68874252241683e+000

3.06964518184081e+005,-8.19615576030961e+000,-1.71166297654416e+000

3.11249583171928e+005,-8.19626181333762e+000,-1.73488964187687e+000

3.15594465437872e+005,-8.19636806930021e+000,-1.75842675144091e+000

3.19999999999997e+005,-8.19647446761389e+000,-1.78227860837575e+000

3.24467033532806e+005,-8.19658094600293e+000,-1.80644958719981e+000

3.28996424529938e+005,-8.19668744053543e+000,-1.83094413507377e+000

3.33589043469155e+005,-8.19679388566198e+000,-1.85576677306249e+000

3.38245772979638e+005,-8.19690021425745e+000,-1.88092209739202e+000

3.42967508011610e+005,-8.19700635766518e+000,-1.90641478070223e+000

3.47755156008335e+005,-8.19711224574377e+000,-1.93224957329271e+000

3.52609637080511e+005,-8.19721780691611e+000,-1.95843130436187e+000

3.57531884183106e+005,-8.19732296822030e+000,-1.98496488323815e+000

3.62522843294651e+005,-8.19742765536272e+000,-2.01185530060161e+000

3.67583473599047e+005,-8.19753179277257e+000,-2.03910762969583e+000

3.72714747669902e+005,-8.19763530365806e+000,-2.06672702752846e+000

3.77917651657445e+005,-8.19773811006323e+000,-2.09471873606254e+000

3.83193185478053e+005,-8.19784013292662e+000,-2.12308808339297e+000

3.88542363006410e+005,-8.19794129213947e+000,-2.15184048491423e+000

3.93966212270369e+005,-8.19804150660524e+000,-2.18098144447293e+000

3.99465775648511e+005,-8.19814069429907e+000,-2.21051655550782e+000

4.05042110070485e+005,-8.19823877232632e+000,-2.24045150218088e+000

4.10696287220124e+005,-8.19833565698201e+000,-2.27079206048979e+000

4.16429393741414e+005,-8.19843126380811e+000,-2.30154409937402e+000

4.22242531447321e+005,-8.19852550765104e+000,-2.33271358180424e+000

4.28136817531551e+005,-8.19861830271702e+000,-2.36430656586423e+000

4.34113384783250e+005,-8.19870956262627e+000,-2.39632920581827e+000

4.40173381804713e+005,-8.19879920046523e+000,-2.42878775317140e+000

4.46317973232124e+005,-8.19888712883686e+000,-2.46168855771835e+000

4.52548339959385e+005,-8.19897325990824e+000,-2.49503806858464e+000

4.58865679365059e+005,-8.19905750545578e+000,-2.52884283526155e+000

4.65271205542494e+005,-8.19913977690749e+000,-2.56310950863372e+000

4.71766149533147e+005,-8.19921998538230e+000,-2.59784484200130e+000

4.78351759563174e+005,-8.19929804172563e+000,-2.63305569210149e+000

4.85029301283321e+005,-8.19937385654189e+000,-2.66874902012551e+000

4.91800058012158e+005,-8.19944734022309e+000,-2.70493189273600e+000

4.98665330982714e+005,-8.19951840297338e+000,-2.74161148308585e+000

5.05626439592555e+005,-8.19958695482986e+000,-2.77879507183988e+000

5.12684721657352e+005,-8.19965290567870e+000,-2.81649004820125e+000

5.19841533667984e+005,-8.19971616526734e+000,-2.85470391094398e+000

5.27098251051240e+005,-8.19977664321198e+000,-2.89344426945373e+000

5.34456268434150e+005,-8.19983424900048e+000,-2.93271884477905e+000

5.41916999912011e+005,-8.19988889199051e+000,-2.97253547069541e+000

