Freq.,VOut,OutRef

1.00000000000000e+004,-2.28124918999591e+001,-4.79148898913342e-001

1.01395947979003e+004,-2.28124969051273e+001,-4.85837106518401e-001

1.02811382665607e+004,-2.28125020509177e+001,-4.92618658428819e-001

1.04246576084112e+004,-2.28125073412783e+001,-4.99494856851327e-001

1.05701804056138e+004,-2.28125127802682e+001,-5.06467022136028e-001

1.07177346253629e+004,-2.28125183720598e+001,-5.13536493027182e-001

1.08673486252606e+004,-2.28125241209428e+001,-5.20704626920228e-001

1.10190511587661e+004,-2.28125300313272e+001,-5.27972800117383e-001

1.11728713807222e+004,-2.28125361077464e+001,-5.35342408093408e-001

1.13288388529580e+004,-2.28125423548609e+001,-5.42814865758900e-001

1.14869835499703e+004,-2.28125487774620e+001,-5.50391607731487e-001

1.16473358646846e+004,-2.28125553804749e+001,-5.58074088607659e-001

1.18099266142953e+004,-2.28125621689631e+001,-5.65863783240076e-001

1.19747870461893e+004,-2.28125691481320e+001,-5.73762187019122e-001

1.21419488439505e+004,-2.28125763233326e+001,-5.81770816156227e-001

1.23114441334492e+004,-2.28125837000658e+001,-5.89891207974089e-001

1.24833054890161e+004,-2.28125912839868e+001,-5.98124921195663e-001

1.26575659397028e+004,-2.28125990809089e+001,-6.06473536244367e-001

1.28342589756290e+004,-2.28126070968083e+001,-6.14938655542062e-001

1.30134185544193e+004,-2.28126153378287e+001,-6.23521903813307e-001

1.31950791077289e+004,-2.28126238102855e+001,-6.32224928395461e-001

1.33792755478611e+004,-2.28126325206712e+001,-6.41049399550946e-001

1.35660432744767e+004,-2.28126414756596e+001,-6.49997010783688e-001

1.37554181813974e+004,-2.28126506821116e+001,-6.59069479160941e-001

1.39474366635040e+004,-2.28126601470801e+001,-6.68268545638021e-001

1.41421356237309e+004,-2.28126698778151e+001,-6.77595975389847e-001

1.43395524801583e+004,-2.28126798817696e+001,-6.87053558144949e-001

1.45397251732031e+004,-2.28126901666050e+001,-6.96643108523417e-001

1.47426921729110e+004,-2.28127007401969e+001,-7.06366466382745e-001

1.49484924863494e+004,-2.28127116106412e+001,-7.16225497163813e-001

1.51571656651040e+004,-2.28127227862602e+001,-7.26222092245176e-001

1.53687518128801e+004,-2.28127342756087e+001,-7.36358169301231e-001

1.55832915932100e+004,-2.28127460874807e+001,-7.46635672662502e-001

1.58008262372675e+004,-2.28127582309160e+001,-7.57056573685424e-001

1.60213975517924e+004,-2.28127707152068e+001,-7.67622871124878e-001

1.62450479271247e+004,-2.28127835499049e+001,-7.78336591508597e-001

1.64718203453514e+004,-2.28127967448292e+001,-7.89199789522220e-001

1.67017583885674e+004,-2.28128103100723e+001,-8.00214548396485e-001

1.69349062472505e+004,-2.28128242560089e+001,-8.11382980298687e-001

1.71713087287550e+004,-2.28128385933033e+001,-8.22707226732100e-001

1.74110112659224e+004,-2.28128533329173e+001,-8.34189458937167e-001

1.76540599258131e+004,-2.28128684861187e+001,-8.45831878302289e-001

1.79005014185594e+004,-2.28128840644895e+001,-8.57636716776838e-001

1.81503831063432e+004,-2.28129000799347e+001,-8.69606237290663e-001

1.84037530124975e+004,-2.28129165446917e+001,-8.81742734178596e-001

1.86606598307361e+004,-2.28129334713383e+001,-8.94048533612623e-001

1.89211529345119e+004,-2.28129508728037e+001,-9.06525994036627e-001

1.91852823865052e+004,-2.28129687623768e+001,-9.19177506609743e-001

1.94530989482457e+004,-2.28129871537167e+001,-9.32005495654330e-001

1.97246540898671e+004,-2.28130060608634e+001,-9.45012419108511e-001

1.99999999999999e+004,-2.28130254982473e+001,-9.58200768986906e-001

2.02791895958005e+004,-2.28130454807008e+001,-9.71573071846740e-001

2.05622765331213e+004,-2.28130660234690e+001,-9.85131889260086e-001

2.08493152168224e+004,-2.28130871422209e+001,-9.98879818290358e-001

2.11403608112276e+004,-2.28131088530618e+001,-1.01281949197768e+000

2.14354692507258e+004,-2.28131311725441e+001,-1.02695357983032e+000

2.17346972505211e+004,-2.28131541176810e+001,-1.04128478831996e+000

2.20381023175322e+004,-2.28131777059578e+001,-1.05581586138669e+000

2.23457427614443e+004,-2.28132019553459e+001,-1.07054958094795e+000

2.26576777059159e+004,-2.28132268843155e+001,-1.08548876741549e+000

2.29739670999406e+004,-2.28132525118498e+001,-1.10063628021773e+000

2.32946717293690e+004,-2.28132788574583e+001,-1.11599501833238e+000

2.36198532285905e+004,-2.28133059411920e+001,-1.13156792081908e+000

2.39495740923785e+004,-2.28133337836578e+001,-1.14735796736580e+000

2.42838976879009e+004,-2.28133624060337e+001,-1.16336817883888e+000

2.46228882668982e+004,-2.28133918300844e+001,-1.17960161783979e+000

2.49666109780322e+004,-2.28134220781774e+001,-1.19606138926975e+000

2.53151318794055e+004,-2.28134531732996e+001,-1.21275064090246e+000

2.56685179512580e+004,-2.28134851390736e+001,-1.22967256396201e+000

2.60268371088386e+004,-2.28135179997757e+001,-1.24683039370859e+000

2.63901582154578e+004,-2.28135517803530e+001,-1.26422741003412e+000

2.67585510957221e+004,-2.28135865064422e+001,-1.28186693806082e+000

2.71320865489533e+004,-2.28136222043883e+001,-1.29975234875046e+000

2.75108363627948e+004,-2.28136589012628e+001,-1.31788705952202e+000

2.78948733270080e+004,-2.28136966248850e+001,-1.33627453487232e+000

2.82842712474618e+004,-2.28137354038408e+001,-1.35491828701011e+000

2.86791049603164e+004,-2.28137752675042e+001,-1.37382187649322e+000

2.90794503464061e+004,-2.28138162460585e+001,-1.39298891287655e+000

2.94853843458219e+004,-2.28138583705177e+001,-1.41242305536680e+000

2.98969849726987e+004,-2.28139016727493e+001,-1.43212801348482e+000

3.03143313302078e+004,-2.28139461854972e+001,-1.45210754773644e+000

3.07375036257601e+004,-2.28139919424050e+001,-1.47236547029218e+000

3.11665831864199e+004,-2.28140389780402e+001,-1.49290564567356e+000

3.16016524745350e+004,-2.28140873279194e+001,-1.51373199144854e+000

3.20427951035848e+004,-2.28141370285328e+001,-1.53484847893537e+000

3.24900958542493e+004,-2.28141881173714e+001,-1.55625913391419e+000

3.29436406907028e+004,-2.28142406329524e+001,-1.57796803734738e+000

3.34035167771346e+004,-2.28142946148477e+001,-1.59997932610887e+000

3.38698124945009e+004,-2.28143501037111e+001,-1.62229719372090e+000

3.43426174575100e+004,-2.28144071413074e+001,-1.64492589110009e+000

3.48220225318448e+004,-2.28144657705420e+001,-1.66786972731232e+000

3.53081198516260e+004,-2.28145260354909e+001,-1.69113307033514e+000

3.58010028371187e+004,-2.28145879814314e+001,-1.71472034783047e+000

3.63007662126863e+004,-2.28146516548743e+001,-1.73863604792556e+000

3.68075060249948e+004,-2.28147171035961e+001,-1.76288472000141e+000

3.73213196614721e+004,-2.28147843766719e+001,-1.78747097549317e+000

3.78423058690237e+004,-2.28148535245104e+001,-1.81239948869561e+000

3.83705647730104e+004,-2.28149245988878e+001,-1.83767499758043e+000

3.89061978964912e+004,-2.28149976529841e+001,-1.86330230462210e+000

3.94493081797342e+004,-2.28150727414197e+001,-1.88928627763197e+000

3.99999999999998e+004,-2.28151499202926e+001,-1.91563185060118e+000

4.05583791916010e+004,-2.28152292472169e+001,-1.94234402455485e+000

4.11245530662425e+004,-2.28153107813621e+001,-1.96942786841266e+000

4.16986304336447e+004,-2.28153945834931e+001,-1.99688851986110e+000

4.22807216224550e+004,-2.28154807160117e+001,-2.02473118623245e+000

4.28709385014515e+004,-2.28155692429982e+001,-2.05296114539569e+000

4.34693945010421e+004,-2.28156602302548e+001,-2.08158374665485e+000

4.40762046350642e+004,-2.28157537453494e+001,-2.11060441165717e+000

4.46914855228886e+004,-2.28158498576610e+001,-2.14002863531059e+000

4.53153554118317e+004,-2.28159486384252e+001,-2.16986198671097e+000

4.59479341998812e+004,-2.28160501607818e+001,-2.20011011007752e+000

4.65893434587380e+004,-2.28161544998228e+001,-2.23077872569959e+000

4.72397064571810e+004,-2.28162617326414e+001,-2.26187363089024e+000

4.78991481847569e+004,-2.28163719383827e+001,-2.29340070095159e+000

4.85677953758016e+004,-2.28164851982946e+001,-2.32536589014809e+000

4.92457765337964e+004,-2.28166015957807e+001,-2.35777523268989e+000

4.99332219560642e+004,-2.28167212164540e+001,-2.39063484372484e+000

5.06302637588109e+004,-2.28168441481912e+001,-2.42395092034121e+000

5.13370359025159e+004,-2.28169704811890e+001,-2.45772974257765e+000

5.20536742176771e+004,-2.28171003080213e+001,-2.49197767444463e+000

5.27803164309155e+004,-2.28172337236970e+001,-2.52670116495451e+000

5.35171021914442e+004,-2.28173708257200e+001,-2.56190674915986e+000

5.42641730979066e+004,-2.28175117141497e+001,-2.59760104920336e+000

5.50216727255895e+004,-2.28176564916626e+001,-2.63379077537362e+000

5.57897466540159e+004,-2.28178052636160e+001,-2.67048272717448e+000

5.65685424949235e+004,-2.28179581381118e+001,-2.70768379439967e+000

5.73582099206328e+004,-2.28181152260625e+001,-2.74540095821879e+000

5.81589006928121e+004,-2.28182766412578e+001,-2.78364129227248e+000

5.89707686916437e+004,-2.28184425004330e+001,-2.82241196377525e+000

5.97939699453972e+004,-2.28186129233377e+001,-2.86172023462975e+000

6.06286626604156e+004,-2.28187880328077e+001,-2.90157346254696e+000

6.14750072515201e+004,-2.28189679548356e+001,-2.94197910217889e+000

6.23331663728396e+004,-2.28191528186447e+001,-2.98294470625761e+000

6.32033049490698e+004,-2.28193427567636e+001,-3.02447792674430e+000

6.40855902071694e+004,-2.28195379051016e+001,-3.06658651598763e+000

6.49801917084985e+004,-2.28197384030255e+001,-3.10927832789034e+000

6.58872813814055e+004,-2.28199443934389e+001,-3.15256131908404e+000

6.68070335542691e+004,-2.28201560228607e+001,-3.19644355011526e+000

6.77396249890018e+004,-2.28203734415064e+001,-3.24093318663701e+000

6.86852349150199e+004,-2.28205968033705e+001,-3.28603850061229e+000

6.96440450636895e+004,-2.28208262663092e+001,-3.33176787152355e+000

7.06162397032520e+004,-2.28210619921255e+001,-3.37812978759284e+000

7.16020056742374e+004,-2.28213041466548e+001,-3.42513284700969e+000

7.26015324253724e+004,-2.28215528998519e+001,-3.47278575916834e+000

7.36150120499896e+004,-2.28218084258792e+001,-3.52109734591245e+000

7.46426393229441e+004,-2.28220709031964e+001,-3.57007654279001e+000

7.56846117380472e+004,-2.28223405146505e+001,-3.61973240031600e+000

7.67411295460207e+004,-2.28226174475677e+001,-3.67007408524380e+000

7.78123957929823e+004,-2.28229018938463e+001,-3.72111088184596e+000

7.88986163594682e+004,-2.28231940500506e+001,-3.77285219320258e+000

7.99999999999995e+004,-2.28234941175053e+001,-3.82530754250090e+000

8.11167583832018e+004,-2.28238023023919e+001,-3.87848657434017e+000

8.22491061324848e+004,-2.28241188158455e+001,-3.93239905604960e+000

8.33972608672892e+004,-2.28244438740523e+001,-3.98705487901181e+000

8.45614432449099e+004,-2.28247776983488e+001,-4.04246405999861e+000

8.57418770029029e+004,-2.28251205153213e+001,-4.09863674251366e+000

8.69387890020841e+004,-2.28254725569058e+001,-4.15558319814674e+000

8.81524092701283e+004,-2.28258340604900e+001,-4.21331382793625e+000

8.93829710457770e+004,-2.28262052690148e+001,-4.27183916374273e+000

9.06307108236633e+004,-2.28265864310767e+001,-4.33116986963164e+000

9.18958683997622e+004,-2.28269778010317e+001,-4.39131674326848e+000

9.31786869174758e+004,-2.28273796390984e+001,-4.45229071732208e+000

9.44794129143618e+004,-2.28277922114628e+001,-4.51410286088205e+000

9.57982963695136e+004,-2.28282157903828e+001,-4.57676438088521e+000

9.71355907516031e+004,-2.28286506542938e+001,-4.64028662355566e+000

9.84915530675926e+004,-2.28290970879138e+001,-4.70468107585703e+000

9.98664439121282e+004,-2.28295553823496e+001,-4.76995936695744e+000

1.01260527517622e+005,-2.28300258352025e+001,-4.83613326970803e+000

1.02674071805032e+005,-2.28305087506750e+001,-4.90321470213592e+000

1.04107348435354e+005,-2.28310044396765e+001,-4.97121572895247e+000

1.05560632861831e+005,-2.28315132199304e+001,-5.04014856307571e+000

1.07034204382888e+005,-2.28320354160801e+001,-5.11002556717055e+000

1.08528346195813e+005,-2.28325713597951e+001,-5.18085925520567e+000

1.10043345451179e+005,-2.28331213898775e+001,-5.25266229402878e+000

1.11579493308032e+005,-2.28336858523679e+001,-5.32544750496000e+000

1.13137084989847e+005,-2.28342651006511e+001,-5.39922786540638e+000

1.14716419841265e+005,-2.28348594955615e+001,-5.47401651049758e+000

1.16317801385624e+005,-2.28354694054886e+001,-5.54982673474346e+000

1.17941537383287e+005,-2.28360952064813e+001,-5.62667199371549e+000

1.19587939890794e+005,-2.28367372823527e+001,-5.70456590575328e+000

1.21257325320831e+005,-2.28373960247837e+001,-5.78352225369749e+000

1.22950014503040e+005,-2.28380718334271e+001,-5.86355498665029e+000

1.24666332745679e+005,-2.28387651160102e+001,-5.94467822176594e+000

1.26406609898139e+005,-2.28394762884377e+001,-6.02690624607168e+000

1.28171180414339e+005,-2.28402057748939e+001,-6.11025351832187e+000

1.29960383416997e+005,-2.28409540079445e+001,-6.19473467088720e+000

1.31774562762811e+005,-2.28417214286382e+001,-6.28036451167935e+000

1.33614067108538e+005,-2.28425084866076e+001,-6.36715802611489e+000

1.35479249978003e+005,-2.28433156401703e+001,-6.45513037911991e+000

1.37370469830040e+005,-2.28441433564295e+001,-6.54429691717696e+000

1.39288090127379e+005,-2.28449921113747e+001,-6.63467317041680e+000

1.41232479406504e+005,-2.28458623899826e+001,-6.72627485475799e+000

1.43204011348474e+005,-2.28467546863174e+001,-6.81911787409531e+000

1.45203064850745e+005,-2.28476695036328e+001,-6.91321832254020e+000

1.47230024099979e+005,-2.28486073544733e+001,-7.00859248671668e+000

1.49285278645888e+005,-2.28495687607768e+001,-7.10525684811284e+000

1.51369223476094e+005,-2.28505542539785e+001,-7.20322808549260e+000

1.53482259092041e+005,-2.28515643751154e+001,-7.30252307736988e+000

1.55624791585964e+005,-2.28525996749329e+001,-7.40315890454665e+000

1.57797232718936e+005,-2.28536607139928e+001,-7.50515285272013e+000

1.59999999999999e+005,-2.28547480627843e+001,-7.60852241515827e+000

1.62233516766403e+005,-2.28558623018371e+001,-7.71328529544895e+000

1.64498212264969e+005,-2.28570040218377e+001,-7.81945941032539e+000

1.66794521734578e+005,-2.28581738237493e+001,-7.92706289256833e+000

1.69122886489819e+005,-2.28593723189359e+001,-8.03611409399042e+000

1.71483754005805e+005,-2.28606001292909e+001,-8.14663158850176e+000

1.73877578004168e+005,-2.28618578873712e+001,-8.25863417526404e+000

1.76304818540256e+005,-2.28631462365366e+001,-8.37214088193016e+000

1.78765942091554e+005,-2.28644658310964e+001,-8.48717096797572e+000

1.81261421647326e+005,-2.28658173364627e+001,-8.60374392812195e+000

1.83791736799524e+005,-2.28672014293124e+001,-8.72187949585433e+000

1.86357373834951e+005,-2.28686187977570e+001,-8.84159764703586e+000

1.88958825828723e+005,-2.28700701415232e+001,-8.96291860361887e+000

1.91596592739027e+005,-2.28715561721432e+001,-9.08586283745593e+000

1.94271181503206e+005,-2.28730776131572e+001,-9.21045107421063e+000

1.96983106135185e+005,-2.28746352003274e+001,-9.33670429736930e+000

1.99732887824256e+005,-2.28762296818668e+001,-9.46464375235447e+000

2.02521055035243e+005,-2.28778618186812e+001,-9.59429095073978e+000

2.05348143610063e+005,-2.28795323846281e+001,-9.72566767456629e+000

2.08214696870707e+005,-2.28812421667912e+001,-9.85879598075967e+000

2.11121265723661e+005,-2.28829919657737e+001,-9.99369820564788e+000

2.14068408765776e+005,-2.28847825960102e+001,-1.01303969695763e+001

2.17056692391625e+005,-2.28866148860991e+001,-1.02689151816209e+001

2.20086690902357e+005,-2.28884896791566e+001,-1.04092760443940e+001

2.23158986616063e+005,-2.28904078331936e+001,-1.05515030589437e+001

2.26274169979693e+005,-2.28923702215166e+001,-1.06956200297390e+001

2.29432839682530e+005,-2.28943777331535e+001,-1.08416510697407e+001

2.32635602771247e+005,-2.28964312733074e+001,-1.09896206055518e+001

2.35883074766574e+005,-2.28985317638367e+001,-1.11395533826415e+001

2.39175879781588e+005,-2.29006801437658e+001,-1.12914744706388e+001

2.42514650641661e+005,-2.29028773698254e+001,-1.14454092686883e+001

2.45900029006080e+005,-2.29051244170253e+001,-1.16013835108619e+001

2.49332665491357e+005,-2.29074222792596e+001,-1.17594232716186e+001

2.52813219796278e+005,-2.29097719699464e+001,-1.19195549713027e+001

2.56342360828676e+005,-2.29121745227029e+001,-1.20818053816753e+001

2.59920766833993e+005,-2.29146309920568e+001,-1.22462016314654e+001

2.63549125525621e+005,-2.29171424541952e+001,-1.24127712119330e+001

2.67228134217075e+005,-2.29197100077525e+001,-1.25815419824332e+001

2.70958499956006e+005,-2.29223347746371e+001,-1.27525421759685e+001

2.74740939660078e+005,-2.29250179008989e+001,-1.29258004047207e+001

2.78576180254757e+005,-2.29277605576377e+001,-1.31013456655447e+001

2.82464958813007e+005,-2.29305639419539e+001,-1.32792073454171e+001

2.86408022696948e+005,-2.29334292779407e+001,-1.34594152268211e+001

2.90406129701488e+005,-2.29363578177200e+001,-1.36419994930575e+001

2.94460048199957e+005,-2.29393508425215e+001,-1.38269907334640e+001

2.98570557291775e+005,-2.29424096638051e+001,-1.40144199485312e+001

3.02738446952187e+005,-2.29455356244270e+001,-1.42043185548974e+001

3.06964518184081e+005,-2.29487300998504e+001,-1.43967183902081e+001

3.11249583171928e+005,-2.29519944993986e+001,-1.45916517178255e+001

3.15594465437872e+005,-2.29553302675529e+001,-1.47891512313685e+001

3.19999999999997e+005,-2.29587388852928e+001,-1.49892500590712e+001

3.24467033532806e+005,-2.29622218714790e+001,-1.51919817679412e+001

3.28996424529938e+005,-2.29657807842791e+001,-1.53973803677020e+001

3.33589043469155e+005,-2.29694172226335e+001,-1.56054803145040e+001

3.38245772979638e+005,-2.29731328277624e+001,-1.58163165143870e+001

3.42967508011610e+005,-2.29769292847127e+001,-1.60299243264778e+001

3.47755156008335e+005,-2.29808083239414e+001,-1.62463395659095e+001

3.52609637080511e+005,-2.29847717229375e+001,-1.64655985064450e+001

3.57531884183106e+005,-2.29888213078793e+001,-1.66877378827882e+001

3.62522843294651e+005,-2.29929589553242e+001,-1.69127948925713e+001

3.67583473599047e+005,-2.29971865939321e+001,-1.71408071980015e+001

3.72714747669902e+005,-2.30015062062191e+001,-1.73718129271537e+001

3.77917651657445e+005,-2.30059198303390e+001,-1.76058506748953e+001

3.83193185478053e+005,-2.30104295618919e+001,-1.78429595034304e+001

3.88542363006410e+005,-2.30150375557570e+001,-1.80831789424513e+001

3.93966212270369e+005,-2.30197460279474e+001,-1.83265489888853e+001

3.99465775648511e+005,-2.30245572574853e+001,-1.85731101062248e+001

4.05042110070485e+005,-2.30294735882938e+001,-1.88229032234314e+001

4.10696287220124e+005,-2.30344974311048e+001,-1.90759697334044e+001

4.16429393741414e+005,-2.30396312653781e+001,-1.93323514910019e+001

4.22242531447321e+005,-2.30448776412315e+001,-1.95920908106101e+001

4.28136817531551e+005,-2.30502391813777e+001,-1.98552304632496e+001

4.34113384783250e+005,-2.30557185830657e+001,-2.01218136732135e+001

4.40173381804713e+005,-2.30613186200243e+001,-2.03918841142307e+001

4.46317973232124e+005,-2.30670421444042e+001,-2.06654859051473e+001

4.52548339959385e+005,-2.30728920887175e+001,-2.09426636051236e+001

4.58865679365059e+005,-2.30788714677691e+001,-2.12234622083400e+001

4.65271205542494e+005,-2.30849833805800e+001,-2.15079271382099e+001

4.71766149533147e+005,-2.30912310122986e+001,-2.17961042410943e+001

4.78351759563174e+005,-2.30976176360954e+001,-2.20880397795178e+001

4.85029301283321e+005,-2.31041466150421e+001,-2.23837804248829e+001

4.91800058012158e+005,-2.31108214039681e+001,-2.26833732496804e+001

4.98665330982714e+005,-2.31176455512942e+001,-2.29868657191969e+001

5.05626439592555e+005,-2.31246227008404e+001,-2.32943056827164e+001

5.12684721657352e+005,-2.31317565936032e+001,-2.36057413642175e+001

5.19841533667984e+005,-2.31390510695014e+001,-2.39212213525668e+001

5.27098251051240e+005,-2.31465100690871e+001,-2.42407945912071e+001

5.34456268434150e+005,-2.31541376352184e+001,-2.45645103673436e+001

5.41916999912011e+005,-2.31619379146908e+001,-2.48924183006289e+001

