Freq.,VOut,OutRef

1.00000000000000e+004,-1.91994014425406e+001,-1.10850364537824e-001

1.01395947979003e+004,-1.91994020391624e+001,-1.12397695627005e-001

1.02811382665607e+004,-1.91994026525394e+001,-1.13966623159485e-001

1.04246576084112e+004,-1.91994032831418e+001,-1.15557448462832e-001

1.05701804056138e+004,-1.91994039314527e+001,-1.17170477064220e-001

1.07177346253629e+004,-1.91994045979688e+001,-1.18806018748367e-001

1.08673486252606e+004,-1.91994052832007e+001,-1.20464387619895e-001

1.10190511587661e+004,-1.91994059876733e+001,-1.22145902158038e-001

1.11728713807222e+004,-1.91994067119261e+001,-1.23850885283587e-001

1.13288388529580e+004,-1.91994074565139e+001,-1.25579664414646e-001

1.14869835499703e+004,-1.91994082220068e+001,-1.27332571533394e-001

1.16473358646846e+004,-1.91994090089911e+001,-1.29109943247131e-001

1.18099266142953e+004,-1.91994098180690e+001,-1.30912120854210e-001

1.19747870461893e+004,-1.91994106498601e+001,-1.32739450407827e-001

1.21419488439505e+004,-1.91994115050010e+001,-1.34592282782098e-001

1.23114441334492e+004,-1.91994123841461e+001,-1.36470973739724e-001

1.24833054890161e+004,-1.91994132879680e+001,-1.38375883999495e-001

1.26575659397028e+004,-1.91994142171586e+001,-1.40307379303177e-001

1.28342589756290e+004,-1.91994151724285e+001,-1.42265830489781e-001

1.30134185544193e+004,-1.91994161545086e+001,-1.44251613559847e-001

1.31950791077289e+004,-1.91994171641497e+001,-1.46265109754952e-001

1.33792755478611e+004,-1.91994182021241e+001,-1.48306705622021e-001

1.35660432744767e+004,-1.91994192692254e+001,-1.50376793092802e-001

1.37554181813974e+004,-1.91994203662691e+001,-1.52475769556140e-001

1.39474366635040e+004,-1.91994214940941e+001,-1.54604037932502e-001

1.41421356237309e+004,-1.91994226535620e+001,-1.56762006754136e-001

1.43395524801583e+004,-1.91994238455591e+001,-1.58950090237856e-001

1.45397251732031e+004,-1.91994250709957e+001,-1.61168708370152e-001

1.47426921729110e+004,-1.91994263308079e+001,-1.63418286981036e-001

1.49484924863494e+004,-1.91994276259578e+001,-1.65699257826718e-001

1.51571656651040e+004,-1.91994289574344e+001,-1.68012058673418e-001

1.53687518128801e+004,-1.91994303262540e+001,-1.70357133379683e-001

1.55832915932100e+004,-1.91994317334616e+001,-1.72734931977351e-001

1.58008262372675e+004,-1.91994331801306e+001,-1.75145910763716e-001

1.60213975517924e+004,-1.91994346673651e+001,-1.77590532380125e-001

1.62450479271247e+004,-1.91994361962994e+001,-1.80069265905763e-001

1.64718203453514e+004,-1.91994377680994e+001,-1.82582586944774e-001

1.67017583885674e+004,-1.91994393839636e+001,-1.85130977713687e-001

1.69349062472505e+004,-1.91994410451236e+001,-1.87714927138020e-001

1.71713087287550e+004,-1.91994427528452e+001,-1.90334930939692e-001

1.74110112659224e+004,-1.91994445084298e+001,-1.92991491732917e-001

1.76540599258131e+004,-1.91994463132144e+001,-1.95685119119788e-001

1.79005014185594e+004,-1.91994481685733e+001,-1.98416329787432e-001

1.81503831063432e+004,-1.91994500759190e+001,-2.01185647600690e-001

1.84037530124975e+004,-1.91994520367032e+001,-2.03993603708346e-001

1.86606598307361e+004,-1.91994540524175e+001,-2.06840736637887e-001

1.89211529345119e+004,-1.91994561245957e+001,-2.09727592397383e-001

1.91852823865052e+004,-1.91994582548129e+001,-2.12654724583794e-001

1.94530989482457e+004,-1.91994604446887e+001,-2.15622694480477e-001

1.97246540898671e+004,-1.91994626958874e+001,-2.18632071165649e-001

1.99999999999999e+004,-1.91994650101190e+001,-2.21683431621447e-001

2.02791895958005e+004,-1.91994673891412e+001,-2.24777360839926e-001

2.05622765331213e+004,-1.91994698347598e+001,-2.27914451934636e-001

2.08493152168224e+004,-1.91994723488312e+001,-2.31095306249571e-001

2.11403608112276e+004,-1.91994749332623e+001,-2.34320533476356e-001

2.14354692507258e+004,-1.91994775900132e+001,-2.37590751763887e-001

2.17346972505211e+004,-1.91994803210977e+001,-2.40906587838777e-001

2.20381023175322e+004,-1.91994831285854e+001,-2.44268677119199e-001

2.23457427614443e+004,-1.91994860146029e+001,-2.47677663835693e-001

2.26576777059159e+004,-1.91994889813353e+001,-2.51134201151387e-001

2.29739670999406e+004,-1.91994920310276e+001,-2.54638951285689e-001

2.32946717293690e+004,-1.91994951659870e+001,-2.58192585635393e-001

2.36198532285905e+004,-1.91994983885842e+001,-2.61795784899792e-001

2.39495740923785e+004,-1.91995017012542e+001,-2.65449239213299e-001

2.42838976879009e+004,-1.91995051065001e+001,-2.69153648265419e-001

2.46228882668982e+004,-1.91995086068925e+001,-2.72909721440049e-001

2.49666109780322e+004,-1.91995122050732e+001,-2.76718177940648e-001

2.53151318794055e+004,-1.91995159037562e+001,-2.80579746927488e-001

2.56685179512580e+004,-1.91995197057298e+001,-2.84495167651972e-001

2.60268371088386e+004,-1.91995236138586e+001,-2.88465189595427e-001

2.63901582154578e+004,-1.91995276310856e+001,-2.92490572605546e-001

2.67585510957221e+004,-1.91995317604340e+001,-2.96572087039847e-001

2.71320865489533e+004,-1.91995360050098e+001,-3.00710513905586e-001

2.75108363627948e+004,-1.91995403680033e+001,-3.04906645007875e-001

2.78948733270080e+004,-1.91995448526920e+001,-3.09161283092090e-001

2.82842712474618e+004,-1.91995494624427e+001,-3.13475241994942e-001

2.86791049603164e+004,-1.91995542007137e+001,-3.17849346792363e-001

2.90794503464061e+004,-1.91995590710572e+001,-3.22284433952695e-001

2.94853843458219e+004,-1.91995640771219e+001,-3.26781351490797e-001

2.98969849726987e+004,-1.91995692226554e+001,-3.31340959123488e-001

3.03143313302078e+004,-1.91995745115067e+001,-3.35964128427618e-001

3.07375036257601e+004,-1.91995799476295e+001,-3.40651742996913e-001

3.11665831864199e+004,-1.91995855350837e+001,-3.45404698609665e-001

3.16016524745350e+004,-1.91995912780392e+001,-3.50223903387176e-001

3.20427951035848e+004,-1.91995971807785e+001,-3.55110277961201e-001

3.24900958542493e+004,-1.91996032476990e+001,-3.60064755643875e-001

3.29436406907028e+004,-1.91996094833168e+001,-3.65088282594409e-001

3.34035167771346e+004,-1.91996158922695e+001,-3.70181817991972e-001

3.38698124945009e+004,-1.91996224793187e+001,-3.75346334212931e-001

3.43426174575100e+004,-1.91996292493541e+001,-3.80582817001509e-001

3.48220225318448e+004,-1.91996362073957e+001,-3.85892265654725e-001

3.53081198516260e+004,-1.91996433585984e+001,-3.91275693196474e-001

3.58010028371187e+004,-1.91996507082541e+001,-3.96734126565059e-001

3.63007662126863e+004,-1.91996582617961e+001,-4.02268606796689e-001

3.68075060249948e+004,-1.91996660248018e+001,-4.07880189212772e-001

3.73213196614721e+004,-1.91996740029974e+001,-4.13569943607418e-001

3.78423058690237e+004,-1.91996822022607e+001,-4.19338954442777e-001

3.83705647730104e+004,-1.91996906286249e+001,-4.25188321040434e-001

3.89061978964912e+004,-1.91996992882828e+001,-4.31119157778777e-001

3.94493081797342e+004,-1.91997081875910e+001,-4.37132594290176e-001

3.99999999999998e+004,-1.91997173330730e+001,-4.43229775664308e-001

4.05583791916010e+004,-1.91997267314239e+001,-4.49411862649675e-001

4.11245530662425e+004,-1.91997363895148e+001,-4.55680031858902e-001

4.16986304336447e+004,-1.91997463143962e+001,-4.62035475978483e-001

4.22807216224550e+004,-1.91997565133031e+001,-4.68479403977999e-001

4.28709385014515e+004,-1.91997669936592e+001,-4.75013041323305e-001

4.34693945010421e+004,-1.91997777630812e+001,-4.81637630191257e-001

4.40762046350642e+004,-1.91997888293835e+001,-4.88354429687860e-001

4.46914855228886e+004,-1.91998002005832e+001,-4.95164716068511e-001

4.53153554118317e+004,-1.91998118849040e+001,-5.02069782961471e-001

4.59479341998812e+004,-1.91998238907819e+001,-5.09070941590719e-001

4.65893434587380e+004,-1.91998362268698e+001,-5.16169521005573e-001

4.72397064571810e+004,-1.91998489020420e+001,-5.23366868310861e-001

4.78991481847569e+004,-1.91998619254003e+001,-5.30664348898131e-001

4.85677953758016e+004,-1.91998753062782e+001,-5.38063346682067e-001

4.92457765337964e+004,-1.91998890542467e+001,-5.45565264338751e-001

4.99332219560642e+004,-1.91999031791192e+001,-5.53171523543989e-001

5.06302637588109e+004,-1.91999176909573e+001,-5.60883565219525e-001

5.13370359025159e+004,-1.91999326000760e+001,-5.68702849775406e-001

5.20536742176771e+004,-1.91999479170494e+001,-5.76630857360061e-001

5.27803164309155e+004,-1.91999636527162e+001,-5.84669088111030e-001

5.35171021914442e+004,-1.91999798181854e+001,-5.92819062408412e-001

5.42641730979066e+004,-1.91999964248420e+001,-6.01082321129789e-001

5.50216727255895e+004,-1.92000134843531e+001,-6.09460425912067e-001

5.57897466540159e+004,-1.92000310086734e+001,-6.17954959409030e-001

5.65685424949235e+004,-1.92000490100515e+001,-6.26567525559181e-001

5.73582099206328e+004,-1.92000675010356e+001,-6.35299749850519e-001

5.81589006928121e+004,-1.92000864944799e+001,-6.44153279591535e-001

5.89707686916437e+004,-1.92001060035502e+001,-6.53129784182710e-001

5.97939699453972e+004,-1.92001260417306e+001,-6.62230955391870e-001

6.06286626604156e+004,-1.92001466228295e+001,-6.71458507633031e-001

6.14750072515201e+004,-1.92001677609856e+001,-6.80814178246504e-001

6.23331663728396e+004,-1.92001894706745e+001,-6.90299727782146e-001

6.32033049490698e+004,-1.92002117667146e+001,-6.99916940286974e-001

6.40855902071694e+004,-1.92002346642740e+001,-7.09667623592626e-001

6.49801917084985e+004,-1.92002581788761e+001,-7.19553609610223e-001

6.58872813814055e+004,-1.92002823264064e+001,-7.29576754622024e-001

6.68070335542691e+004,-1.92003071231187e+001,-7.39738939582345e-001

6.77396249890018e+004,-1.92003325856414e+001,-7.50042070415729e-001

6.86852349150199e+004,-1.92003587309836e+001,-7.60488078324141e-001

6.96440450636895e+004,-1.92003855765417e+001,-7.71078920090464e-001

7.06162397032520e+004,-1.92004131401053e+001,-7.81816578389079e-001

7.16020056742374e+004,-1.92004414398636e+001,-7.92703062100492e-001

7.26015324253724e+004,-1.92004704944114e+001,-8.03740406624800e-001

7.36150120499896e+004,-1.92005003227550e+001,-8.14930674202333e-001

7.46426393229441e+004,-1.92005309443183e+001,-8.26275954235337e-001

7.56846117380472e+004,-1.92005623789488e+001,-8.37778363611791e-001

7.67411295460207e+004,-1.92005946469230e+001,-8.49440047037007e-001

7.78123957929823e+004,-1.92006277689523e+001,-8.61263177361556e-001

7.88986163594682e+004,-1.92006617661883e+001,-8.73249955919750e-001

7.99999999999995e+004,-1.92006966602282e+001,-8.85402612865806e-001

8.11167583832018e+004,-1.92007324731201e+001,-8.97723407516986e-001

8.22491061324848e+004,-1.92007692273675e+001,-9.10214628698242e-001

8.33972608672892e+004,-1.92008069459348e+001,-9.22878595090412e-001

8.45614432449099e+004,-1.92008456522513e+001,-9.35717655585146e-001

8.57418770029029e+004,-1.92008853702154e+001,-9.48734189638005e-001

8.69387890020841e+004,-1.92009261241990e+001,-9.61930607630857e-001

8.81524092701283e+004,-1.92009679390514e+001,-9.75309351234251e-001

8.93829710457770e+004,-1.92010108401022e+001,-9.88872893776662e-001

9.06307108236633e+004,-1.92010548531648e+001,-1.00262374061508e+000

9.18958683997622e+004,-1.92011000045391e+001,-1.01656442951172e+000

9.31786869174758e+004,-1.92011463210141e+001,-1.03069753101421e+000

9.44794129143618e+004,-1.92011938298694e+001,-1.04502564884228e+000

9.57982963695136e+004,-1.92012425588775e+001,-1.05955142027407e+000

9.71355907516031e+004,-1.92012925363044e+001,-1.07427751654338e+000

9.84915530675926e+004,-1.92013437909107e+001,-1.08920664323738e+000

9.98664439121282e+004,-1.92013963519514e+001,-1.10434154070137e+000

1.01260527517622e+005,-1.92014502491761e+001,-1.11968498444859e+000

1.02674071805032e+005,-1.92015055128274e+001,-1.13523978557453e+000

1.04107348435354e+005,-1.92015621736404e+001,-1.15100879117885e+000

1.05560632861831e+005,-1.92016202628397e+001,-1.16699488479079e+000

1.07034204382888e+005,-1.92016798121374e+001,-1.18320098680390e+000

1.08528346195813e+005,-1.92017408537296e+001,-1.19963005491297e+000

1.10043345451179e+005,-1.92018034202919e+001,-1.21628508456297e+000

1.11579493308032e+005,-1.92018675449757e+001,-1.23316910939898e+000

1.13137084989847e+005,-1.92019332614017e+001,-1.25028520172896e+000

1.14716419841265e+005,-1.92020006036542e+001,-1.26763647298991e+000

1.16317801385624e+005,-1.92020696062738e+001,-1.28522607422613e+000

1.17941537383287e+005,-1.92021403042501e+001,-1.30305719657011e+000

1.19587939890794e+005,-1.92022127330120e+001,-1.32113307173888e+000

1.21257325320831e+005,-1.92022869284192e+001,-1.33945697253384e+000

1.22950014503040e+005,-1.92023629267511e+001,-1.35803221335324e+000

1.24666332745679e+005,-1.92024407646955e+001,-1.37686215071348e+000

1.26406609898139e+005,-1.92025204793363e+001,-1.39595018378172e+000

1.28171180414339e+005,-1.92026021081406e+001,-1.41529975491789e+000

1.29960383416997e+005,-1.92026856889437e+001,-1.43491435023031e+000

1.31774562762811e+005,-1.92027712599348e+001,-1.45479750014014e+000

1.33614067108538e+005,-1.92028588596397e+001,-1.47495277996319e+000

1.35479249978003e+005,-1.92029485269046e+001,-1.49538381049850e+000

1.37370469830040e+005,-1.92030403008772e+001,-1.51609425863624e+000

1.39288090127379e+005,-1.92031342209876e+001,-1.53708783797756e+000

1.41232479406504e+005,-1.92032303269280e+001,-1.55836830946837e+000

1.43204011348474e+005,-1.92033286586313e+001,-1.57993948205037e+000

1.45203064850745e+005,-1.92034292562490e+001,-1.60180521332831e+000

1.47230024099979e+005,-1.92035321601276e+001,-1.62396941025321e+000

1.49285278645888e+005,-1.92036374107847e+001,-1.64643602982295e+000

1.51369223476094e+005,-1.92037450488832e+001,-1.66920907980445e+000

1.53482259092041e+005,-1.92038551152055e+001,-1.69229261946978e+000

1.55624791585964e+005,-1.92039676506262e+001,-1.71569076035773e+000

1.57797232718936e+005,-1.92040826960845e+001,-1.73940766705182e+000

1.59999999999999e+005,-1.92042002925549e+001,-1.76344755798216e+000

1.62233516766403e+005,-1.92043204810181e+001,-1.78781470624875e+000

1.64498212264969e+005,-1.92044433024304e+001,-1.81251344046894e+000

1.66794521734578e+005,-1.92045687976934e+001,-1.83754814564605e+000

1.69122886489819e+005,-1.92046970076219e+001,-1.86292326406722e+000

1.71483754005805e+005,-1.92048279729122e+001,-1.88864329622233e+000

1.73877578004168e+005,-1.92049617341099e+001,-1.91471280175218e+000

1.76304818540256e+005,-1.92050983315770e+001,-1.94113640042343e+000

1.78765942091554e+005,-1.92052378054594e+001,-1.96791877312935e+000

1.81261421647326e+005,-1.92053801956536e+001,-1.99506466292256e+000

1.83791736799524e+005,-1.92055255417740e+001,-2.02257887607521e+000

1.86357373834951e+005,-1.92056738831198e+001,-2.05046628317051e+000

1.88958825828723e+005,-1.92058252586434e+001,-2.07873182022276e+000

1.91596592739027e+005,-1.92059797069174e+001,-2.10738048983351e+000

1.94271181503206e+005,-1.92061372661038e+001,-2.13641736237599e+000

1.96983106135185e+005,-1.92062979739233e+001,-2.16584757721381e+000

1.99732887824256e+005,-1.92064618676253e+001,-2.19567634395398e+000

2.02521055035243e+005,-1.92066289839597e+001,-2.22590894373249e+000

2.05348143610063e+005,-1.92067993591494e+001,-2.25655073053557e+000

2.08214696870707e+005,-1.92069730288646e+001,-2.28760713255512e+000

2.11121265723661e+005,-1.92071500281987e+001,-2.31908365357960e+000

2.14068408765776e+005,-1.92073303916462e+001,-2.35098587441984e+000

2.17056692391625e+005,-1.92075141530824e+001,-2.38331945437175e+000

2.20086690902357e+005,-1.92077013457460e+001,-2.41609013271357e+000

2.23158986616063e+005,-1.92078920022238e+001,-2.44930373023918e+000

2.26274169979693e+005,-1.92080861544384e+001,-2.48296615082873e+000

2.29432839682530e+005,-1.92082838336386e+001,-2.51708338305236e+000

2.32635602771247e+005,-1.92084850703939e+001,-2.55166150181167e+000

2.35883074766574e+005,-1.92086898945913e+001,-2.58670667001400e+000

2.39175879781588e+005,-1.92088983354368e+001,-2.62222514028504e+000

2.42514650641661e+005,-1.92091104214604e+001,-2.65822325671137e+000

2.45900029006080e+005,-1.92093261805249e+001,-2.69470745661991e+000

2.49332665491357e+005,-1.92095456398407e+001,-2.73168427238779e+000

2.52813219796278e+005,-1.92097688259827e+001,-2.76916033328697e+000

2.56342360828676e+005,-1.92099957649144e+001,-2.80714236735686e+000

2.59920766833993e+005,-1.92102264820160e+001,-2.84563720330984e+000

2.63549125525621e+005,-1.92104610021174e+001,-2.88465177246402e+000

2.67228134217075e+005,-1.92106993495373e+001,-2.92419311070518e+000

2.70958499956006e+005,-1.92109415481283e+001,-2.96426836047307e+000

2.74740939660078e+005,-1.92111876213262e+001,-3.00488477277510e+000

2.78576180254757e+005,-1.92114375922072e+001,-3.04604970922267e+000

2.82464958813007e+005,-1.92116914835497e+001,-3.08777064408946e+000

2.86408022696948e+005,-1.92119493179033e+001,-3.13005516638975e+000

2.90406129701488e+005,-1.92122111176632e+001,-3.17291098197679e+000

2.94460048199957e+005,-1.92124769051522e+001,-3.21634591565654e+000

2.98570557291775e+005,-1.92127467027080e+001,-3.26036791331841e+000

3.02738446952187e+005,-1.92130205327775e+001,-3.30498504407738e+000

3.06964518184081e+005,-1.92132984180184e+001,-3.35020550242911e+000

3.11249583171928e+005,-1.92135803814058e+001,-3.39603761041430e+000

3.15594465437872e+005,-1.92138664463469e+001,-3.44248981979079e+000

3.19999999999997e+005,-1.92141566368014e+001,-3.48957071421054e+000

3.24467033532806e+005,-1.92144509774085e+001,-3.53728901140230e+000

3.28996424529938e+005,-1.92147494936208e+001,-3.58565356535571e+000

3.33589043469155e+005,-1.92150522118434e+001,-3.63467336850490e+000

3.38245772979638e+005,-1.92153591595807e+001,-3.68435755391168e+000

3.42967508011610e+005,-1.92156703655880e+001,-3.73471539744570e+000

3.47755156008335e+005,-1.92159858600296e+001,-3.78575631995888e+000

3.52609637080511e+005,-1.92163056746424e+001,-3.83748988945529e+000

3.57531884183106e+005,-1.92166298429053e+001,-3.88992582325158e+000

3.62522843294651e+005,-1.92169584002135e+001,-3.94307399012930e+000

3.67583473599047e+005,-1.92172913840585e+001,-3.99694441247700e+000

3.72714747669902e+005,-1.92176288342120e+001,-4.05154726842174e+000

3.77917651657445e+005,-1.92179707929155e+001,-4.10689289394657e+000

3.83193185478053e+005,-1.92183173050731e+001,-4.16299178499734e+000

3.88542363006410e+005,-1.92186684184496e+001,-4.21985459957340e+000

3.93966212270369e+005,-1.92190241838709e+001,-4.27749215980625e+000

3.99465775648511e+005,-1.92193846554292e+001,-4.33591545402320e+000

4.05042110070485e+005,-1.92197498906902e+001,-4.39513563879534e+000

4.10696287220124e+005,-1.92201199509046e+001,-4.45516404097177e+000

4.16429393741414e+005,-1.92204949012203e+001,-4.51601215969994e+000

4.22242531447321e+005,-1.92208748108988e+001,-4.57769166843027e+000

4.28136817531551e+005,-1.92212597535321e+001,-4.64021441690819e+000

4.34113384783250e+005,-1.92216498072625e+001,-4.70359243315336e+000

4.40173381804713e+005,-1.92220450550025e+001,-4.76783792542599e+000

4.46317973232124e+005,-1.92224455846574e+001,-4.83296328418241e+000

4.52548339959385e+005,-1.92228514893476e+001,-4.89898108402025e+000

4.58865679365059e+005,-1.92232628676322e+001,-4.96590408561537e+000

4.65271205542494e+005,-1.92236798237328e+001,-5.03374523765089e+000

4.71766149533147e+005,-1.92241024677579e+001,-5.10251767873991e+000

4.78351759563174e+005,-1.92245309159270e+001,-5.17223473934556e+000

4.85029301283321e+005,-1.92249652907947e+001,-5.24290994369661e+000

4.91800058012158e+005,-1.92254057214750e+001,-5.31455701170348e+000

4.98665330982714e+005,-1.92258523438644e+001,-5.38718986087533e+000

5.05626439592555e+005,-1.92263053008656e+001,-5.46082260824039e+000

5.12684721657352e+005,-1.92267647426099e+001,-5.53546957227138e+000

5.19841533667984e+005,-1.92272308266791e+001,-5.61114527481865e+000

5.27098251051240e+005,-1.92277037183274e+001,-5.68786444305189e+000

5.34456268434150e+005,-1.92281835907022e+001,-5.76564201141523e+000

5.41916999912011e+005,-1.92286706250642e+001,-5.84449312359421e+000

