Freq.,VOut,OutRef

1.00000000000000e+004,-1.75938745077386e+001,-1.94630619474883e-001

1.01395947979003e+004,-1.75938755415795e+001,-1.97347432358331e-001

1.02811382665607e+004,-1.75938766044575e+001,-2.00102165049377e-001

1.04246576084112e+004,-1.75938776971876e+001,-2.02895346655772e-001

1.05701804056138e+004,-1.75938788206071e+001,-2.05727513662979e-001

1.07177346253629e+004,-1.75938799755769e+001,-2.08599210033977e-001

1.08673486252606e+004,-1.75938811629826e+001,-2.11510987313388e-001

1.10190511587661e+004,-1.75938823837336e+001,-2.14463404736771e-001

1.11728713807222e+004,-1.75938836387656e+001,-2.17457029332127e-001

1.13288388529580e+004,-1.75938849290398e+001,-2.20492436032895e-001

1.14869835499703e+004,-1.75938862555450e+001,-2.23570207782563e-001

1.16473358646846e+004,-1.75938876192971e+001,-2.26690935652519e-001

1.18099266142953e+004,-1.75938890213407e+001,-2.29855218949346e-001

1.19747870461893e+004,-1.75938904627495e+001,-2.33063665332114e-001

1.21419488439505e+004,-1.75938919446273e+001,-2.36316890927033e-001

1.23114441334492e+004,-1.75938934681086e+001,-2.39615520446653e-001

1.24833054890161e+004,-1.75938950343600e+001,-2.42960187306562e-001

1.26575659397028e+004,-1.75938966445802e+001,-2.46351533748768e-001

1.28342589756290e+004,-1.75938983000018e+001,-2.49790210962256e-001

1.30134185544193e+004,-1.75939000018917e+001,-2.53276879208906e-001

1.31950791077289e+004,-1.75939017515523e+001,-2.56812207946884e-001

1.33792755478611e+004,-1.75939035503221e+001,-2.60396875961064e-001

1.35660432744767e+004,-1.75939053995773e+001,-2.64031571491342e-001

1.37554181813974e+004,-1.75939073007324e+001,-2.67716992361195e-001

1.39474366635040e+004,-1.75939092552413e+001,-2.71453846115894e-001

1.41421356237309e+004,-1.75939112645987e+001,-2.75242850151877e-001

1.43395524801583e+004,-1.75939133303407e+001,-2.79084731856741e-001

1.45397251732031e+004,-1.75939154540467e+001,-2.82980228745703e-001

1.47426921729110e+004,-1.75939176373399e+001,-2.86930088603154e-001

1.49484924863494e+004,-1.75939198818886e+001,-2.90935069624775e-001

1.51571656651040e+004,-1.75939221894080e+001,-2.94995940560720e-001

1.53687518128801e+004,-1.75939245616608e+001,-2.99113480863378e-001

1.55832915932100e+004,-1.75939270004588e+001,-3.03288480834222e-001

1.58008262372675e+004,-1.75939295076648e+001,-3.07521741772443e-001

1.60213975517924e+004,-1.75939320851929e+001,-3.11814076131938e-001

1.62450479271247e+004,-1.75939347350108e+001,-3.16166307669734e-001

1.64718203453514e+004,-1.75939374591409e+001,-3.20579271608129e-001

1.67017583885674e+004,-1.75939402596619e+001,-3.25053814786939e-001

1.69349062472505e+004,-1.75939431387104e+001,-3.29590795829217e-001

1.71713087287550e+004,-1.75939460984825e+001,-3.34191085301445e-001

1.74110112659224e+004,-1.75939491412351e+001,-3.38855565880307e-001

1.76540599258131e+004,-1.75939522692880e+001,-3.43585132517642e-001

1.79005014185594e+004,-1.75939554850257e+001,-3.48380692610618e-001

1.81503831063432e+004,-1.75939587908987e+001,-3.53243166174461e-001

1.84037530124975e+004,-1.75939621894256e+001,-3.58173486016571e-001

1.86606598307361e+004,-1.75939656831948e+001,-3.63172597912703e-001

1.89211529345119e+004,-1.75939692748670e+001,-3.68241460782559e-001

1.91852823865052e+004,-1.75939729671762e+001,-3.73381046876888e-001

1.94530989482457e+004,-1.75939767629325e+001,-3.78592341956271e-001

1.97246540898671e+004,-1.75939806650238e+001,-3.83876345480418e-001

1.99999999999999e+004,-1.75939846764181e+001,-3.89234070793259e-001

2.02791895958005e+004,-1.75939888001659e+001,-3.94666545316865e-001

2.05622765331213e+004,-1.75939930394016e+001,-4.00174810745489e-001

2.08493152168224e+004,-1.75939973973469e+001,-4.05759923238356e-001

2.11403608112276e+004,-1.75940018773122e+001,-4.11422953622649e-001

2.14354692507258e+004,-1.75940064826996e+001,-4.17164987592426e-001

2.17346972505211e+004,-1.75940112170054e+001,-4.22987125913160e-001

2.20381023175322e+004,-1.75940160838226e+001,-4.28890484628395e-001

2.23457427614443e+004,-1.75940210868429e+001,-4.34876195271890e-001

2.26576777059159e+004,-1.75940262298603e+001,-4.40945405076156e-001

2.29739670999406e+004,-1.75940315167735e+001,-4.47099277190240e-001

2.32946717293690e+004,-1.75940369515883e+001,-4.53338990897862e-001

2.36198532285905e+004,-1.75940425384215e+001,-4.59665741835810e-001

2.39495740923785e+004,-1.75940482815029e+001,-4.66080742220407e-001

2.42838976879009e+004,-1.75940541851787e+001,-4.72585221075094e-001

2.46228882668982e+004,-1.75940602539147e+001,-4.79180424455692e-001

2.49666109780322e+004,-1.75940664922996e+001,-4.85867615688535e-001

2.53151318794055e+004,-1.75940729050480e+001,-4.92648075602853e-001

2.56685179512580e+004,-1.75940794970043e+001,-4.99523102769351e-001

2.60268371088386e+004,-1.75940862731453e+001,-5.06494013745991e-001

2.63901582154578e+004,-1.75940932385847e+001,-5.13562143318838e-001

2.67585510957221e+004,-1.75941003985761e+001,-5.20728844752148e-001

2.71320865489533e+004,-1.75941077585170e+001,-5.27995490041079e-001

2.75108363627948e+004,-1.75941153239526e+001,-5.35363470165001e-001

2.78948733270080e+004,-1.75941231005798e+001,-5.42834195344979e-001

2.82842712474618e+004,-1.75941310942507e+001,-5.50409095308222e-001

2.86791049603164e+004,-1.75941393109778e+001,-5.58089619548291e-001

2.90794503464061e+004,-1.75941477569370e+001,-5.65877237598439e-001

2.94853843458219e+004,-1.75941564384727e+001,-5.73773439298398e-001

2.98969849726987e+004,-1.75941653621022e+001,-5.81779735072961e-001

3.03143313302078e+004,-1.75941745345197e+001,-5.89897656208456e-001

3.07375036257601e+004,-1.75941839626016e+001,-5.98128755136875e-001

3.11665831864199e+004,-1.75941936534109e+001,-6.06474605718294e-001

3.16016524745350e+004,-1.75942036142021e+001,-6.14936803534515e-001

3.20427951035848e+004,-1.75942138524262e+001,-6.23516966178024e-001

3.24900958542493e+004,-1.75942243757361e+001,-6.32216733550685e-001

3.29436406907028e+004,-1.75942351919913e+001,-6.41037768163839e-001

3.34035167771346e+004,-1.75942463092638e+001,-6.49981755442406e-001

3.38698124945009e+004,-1.75942577358432e+001,-6.59050404032575e-001

3.43426174575100e+004,-1.75942694802423e+001,-6.68245446113060e-001

3.48220225318448e+004,-1.75942815512034e+001,-6.77568637711229e-001

3.53081198516260e+004,-1.75942939577033e+001,-6.87021759023090e-001

3.58010028371187e+004,-1.75943067089600e+001,-6.96606614735898e-001

3.63007662126863e+004,-1.75943198144385e+001,-7.06325034355231e-001

3.68075060249948e+004,-1.75943332838574e+001,-7.16178872537508e-001

3.73213196614721e+004,-1.75943471271947e+001,-7.26170009424200e-001

3.78423058690237e+004,-1.75943613546951e+001,-7.36300350982695e-001

3.83705647730104e+004,-1.75943759768761e+001,-7.46571829348930e-001

3.89061978964912e+004,-1.75943910045354e+001,-7.56986403174527e-001

3.94493081797342e+004,-1.75944064487574e+001,-7.67546057980907e-001

3.99999999999998e+004,-1.75944223209205e+001,-7.78252806512904e-001

4.05583791916010e+004,-1.75944386327047e+001,-7.89108689100800e-001

4.11245530662425e+004,-1.75944553960984e+001,-8.00115774025521e-001

4.16986304336447e+004,-1.75944726234068e+001,-8.11276157885520e-001

4.22807216224550e+004,-1.75944903272593e+001,-8.22591965971642e-001

4.28709385014515e+004,-1.75945085206170e+001,-8.34065352644896e-001

4.34693945010421e+004,-1.75945272167815e+001,-8.45698501717765e-001

4.40762046350642e+004,-1.75945464294027e+001,-8.57493626842596e-001

4.46914855228886e+004,-1.75945661724872e+001,-8.69452971899949e-001

4.53153554118317e+004,-1.75945864604072e+001,-8.81578811397333e-001

4.59479341998812e+004,-1.75946073079087e+001,-8.93873450866511e-001

4.65893434587380e+004,-1.75946287301210e+001,-9.06339227270703e-001

4.72397064571810e+004,-1.75946507425651e+001,-9.18978509412314e-001

4.78991481847569e+004,-1.75946733611634e+001,-9.31793698347843e-001

4.85677953758016e+004,-1.75946966022488e+001,-9.44787227805868e-001

4.92457765337964e+004,-1.75947204825744e+001,-9.57961564612028e-001

4.99332219560642e+004,-1.75947450193230e+001,-9.71319209115458e-001

5.06302637588109e+004,-1.75947702301174e+001,-9.84862695621825e-001

5.13370359025159e+004,-1.75947961330297e+001,-9.98594592832701e-001

5.20536742176771e+004,-1.75948227465922e+001,-1.01251750428647e+000

5.27803164309155e+004,-1.75948500898073e+001,-1.02663406880721e+000

5.35171021914442e+004,-1.75948781821580e+001,-1.04094696095587e+000

5.42641730979066e+004,-1.75949070436190e+001,-1.05545889148800e+000

5.50216727255895e+004,-1.75949366946668e+001,-1.07017260781580e+000

5.57897466540159e+004,-1.75949671562912e+001,-1.08509089447651e+000

5.65685424949235e+004,-1.75949984500062e+001,-1.10021657360318e+000

5.73582099206328e+004,-1.75950305978610e+001,-1.11555250540335e+000

5.81589006928121e+004,-1.75950636224519e+001,-1.13110158863922e+000

5.89707686916437e+004,-1.75950975469334e+001,-1.14686676111911e+000

5.97939699453972e+004,-1.75951323950298e+001,-1.16285100018611e+000

6.06286626604156e+004,-1.75951681910471e+001,-1.17905732321868e+000

6.14750072515201e+004,-1.75952049598850e+001,-1.19548878813251e+000

6.23331663728396e+004,-1.75952427270485e+001,-1.21214849388904e+000

6.32033049490698e+004,-1.75952815186601e+001,-1.22903958101047e+000

6.40855902071694e+004,-1.75953213614722e+001,-1.24616523209661e+000

6.49801917084985e+004,-1.75953622828793e+001,-1.26352867235129e+000

6.58872813814055e+004,-1.75954043109297e+001,-1.28113317011104e+000

6.68070335542691e+004,-1.75954474743389e+001,-1.29898203738117e+000

6.77396249890018e+004,-1.75954918025012e+001,-1.31707863037598e+000

6.86852349150199e+004,-1.75955373255027e+001,-1.33542635006501e+000

6.96440450636895e+004,-1.75955840741333e+001,-1.35402864272635e+000

7.06162397032520e+004,-1.75956320798999e+001,-1.37288900050303e+000

7.16020056742374e+004,-1.75956813750385e+001,-1.39201096196632e+000

7.26015324253724e+004,-1.75957319925265e+001,-1.41139811268631e+000

7.36150120499896e+004,-1.75957839660959e+001,-1.43105408580540e+000

7.46426393229441e+004,-1.75958373302450e+001,-1.45098256262063e+000

7.56846117380472e+004,-1.75958921202514e+001,-1.47118727316921e+000

7.67411295460207e+004,-1.75959483721839e+001,-1.49167199682288e+000

7.78123957929823e+004,-1.75960061229150e+001,-1.51244056288553e+000

7.88986163594682e+004,-1.75960654101327e+001,-1.53349685120085e+000

7.99999999999995e+004,-1.75961262723527e+001,-1.55484479276147e+000

8.11167583832018e+004,-1.75961887489303e+001,-1.57648837032971e+000

8.22491061324848e+004,-1.75962528800715e+001,-1.59843161905996e+000

8.33972608672892e+004,-1.75963187068450e+001,-1.62067862713228e+000

8.45614432449099e+004,-1.75963862711931e+001,-1.64323353638850e+000

8.57418770029029e+004,-1.75964556159425e+001,-1.66610054297909e+000

8.69387890020841e+004,-1.75965267848151e+001,-1.68928389801495e+000

8.81524092701283e+004,-1.75965998224384e+001,-1.71278790822577e+000

8.93829710457770e+004,-1.75966747743552e+001,-1.73661693662855e+000

9.06307108236633e+004,-1.75967516870332e+001,-1.76077540320068e+000

9.18958683997622e+004,-1.75968306078744e+001,-1.78526778556323e+000

9.31786869174758e+004,-1.75969115852238e+001,-1.81009861967092e+000

9.44794129143618e+004,-1.75969946683775e+001,-1.83527250050908e+000

9.57982963695136e+004,-1.75970799075906e+001,-1.86079408280253e+000

9.71355907516031e+004,-1.75971673540844e+001,-1.88666808173039e+000

9.84915530675926e+004,-1.75972570600530e+001,-1.91289927365004e+000

9.98664439121282e+004,-1.75973490786694e+001,-1.93949249683083e+000

1.01260527517622e+005,-1.75974434640908e+001,-1.96645265219859e+000

1.02674071805032e+005,-1.75975402714633e+001,-1.99378470408731e+000

1.04107348435354e+005,-1.75976395569260e+001,-2.02149368100277e+000

1.05560632861831e+005,-1.75977413776142e+001,-2.04958467639724e+000

1.07034204382888e+005,-1.75978457916616e+001,-2.07806284945390e+000

1.08528346195813e+005,-1.75979528582020e+001,-2.10693342588238e+000

1.10043345451179e+005,-1.75980626373701e+001,-2.13620169872838e+000

1.11579493308032e+005,-1.75981751903012e+001,-2.16587302919280e+000

1.13137084989847e+005,-1.75982905791298e+001,-2.19595284746521e+000

1.14716419841265e+005,-1.75984088669880e+001,-2.22644665357042e+000

1.16317801385624e+005,-1.75985301180015e+001,-2.25736001822873e+000

1.17941537383287e+005,-1.75986543972863e+001,-2.28869858373073e+000

1.19587939890794e+005,-1.75987817709425e+001,-2.32046806482647e+000

1.21257325320831e+005,-1.75989123060485e+001,-2.35267424963155e+000

1.22950014503040e+005,-1.75990460706527e+001,-2.38532300054818e+000

1.24666332745679e+005,-1.75991831337656e+001,-2.41842025520350e+000

1.26406609898139e+005,-1.75993235653490e+001,-2.45197202740734e+000

1.28171180414339e+005,-1.75994674363050e+001,-2.48598440812567e+000

1.29960383416997e+005,-1.75996148184637e+001,-2.52046356647561e+000

1.31774562762811e+005,-1.75997657845692e+001,-2.55541575073929e+000

1.33614067108538e+005,-1.75999204082648e+001,-2.59084728939964e+000

1.35479249978003e+005,-1.76000787640765e+001,-2.62676459219701e+000

1.37370469830040e+005,-1.76002409273954e+001,-2.66317415121013e+000

1.39288090127379e+005,-1.76004069744591e+001,-2.70008254195861e+000

1.41232479406504e+005,-1.76005769823309e+001,-2.73749642453290e+000

1.43204011348474e+005,-1.76007510288795e+001,-2.77542254474742e+000

1.45203064850745e+005,-1.76009291927547e+001,-2.81386773532354e+000

1.47230024099979e+005,-1.76011115533652e+001,-2.85283891709718e+000

1.49285278645888e+005,-1.76012981908524e+001,-2.89234310025776e+000

1.51369223476094e+005,-1.76014891860647e+001,-2.93238738561703e+000

1.53482259092041e+005,-1.76016846205301e+001,-2.97297896590883e+000

1.55624791585964e+005,-1.76018845764276e+001,-3.01412512712218e+000

1.57797232718936e+005,-1.76020891365587e+001,-3.05583324986577e+000

1.59999999999999e+005,-1.76022983843163e+001,-3.09811081077202e+000

1.62233516766403e+005,-1.76025124036545e+001,-3.14096538393288e+000

1.64498212264969e+005,-1.76027312790567e+001,-3.18440464237500e+000

1.66794521734578e+005,-1.76029550955034e+001,-3.22843635957468e+000

1.69122886489819e+005,-1.76031839384395e+001,-3.27306841101117e+000

1.71483754005805e+005,-1.76034178937418e+001,-3.31830877576159e+000

1.73877578004168e+005,-1.76036570476853e+001,-3.36416553813949e+000

1.76304818540256e+005,-1.76039014869104e+001,-3.41064688937570e+000

1.78765942091554e+005,-1.76041512983901e+001,-3.45776112934554e+000

1.81261421647326e+005,-1.76044065693970e+001,-3.50551666834112e+000

1.83791736799524e+005,-1.76046673874719e+001,-3.55392202889119e+000

1.86357373834951e+005,-1.76049338403920e+001,-3.60298584763091e+000

1.88958825828723e+005,-1.76052060161410e+001,-3.65271687721892e+000

1.91596592739027e+005,-1.76054840028800e+001,-3.70312398830633e+000

1.94271181503206e+005,-1.76057678889202e+001,-3.75421617155805e+000

1.96983106135185e+005,-1.76060577626971e+001,-3.80600253972449e+000

1.99732887824256e+005,-1.76063537127465e+001,-3.85849232976922e+000

2.02521055035243e+005,-1.76066558276840e+001,-3.91169490504860e+000

2.05348143610063e+005,-1.76069641961858e+001,-3.96561975754762e+000

2.08214696870707e+005,-1.76072789069729e+001,-4.02027651017051e+000

2.11121265723661e+005,-1.76076000487996e+001,-4.07567491908725e+000

2.14068408765776e+005,-1.76079277104435e+001,-4.13182487613732e+000

2.17056692391625e+005,-1.76082619807020e+001,-4.18873641128898e+000

2.20086690902357e+005,-1.76086029483914e+001,-4.24641969515539e+000

2.23158986616063e+005,-1.76089507023511e+001,-4.30488504156757e+000

2.26274169979693e+005,-1.76093053314535e+001,-4.36414291020523e+000

2.29432839682530e+005,-1.76096669246186e+001,-4.42420390928143e+000

2.32635602771247e+005,-1.76100355708347e+001,-4.48507879828543e+000

2.35883074766574e+005,-1.76104113591859e+001,-4.54677849077992e+000

2.39175879781588e+005,-1.76107943788850e+001,-4.60931405725346e+000

2.42514650641661e+005,-1.76111847193147e+001,-4.67269672802567e+000

2.45900029006080e+005,-1.76115824700752e+001,-4.73693789620665e+000

2.49332665491357e+005,-1.76119877210400e+001,-4.80204912070709e+000

2.52813219796278e+005,-1.76124005624200e+001,-4.86804212929851e+000

2.56342360828676e+005,-1.76128210848353e+001,-4.93492882172339e+000

2.59920766833993e+005,-1.76132493793967e+001,-5.00272127285045e+000

2.63549125525621e+005,-1.76136855377959e+001,-5.07143173587678e+000

2.67228134217075e+005,-1.76141296524050e+001,-5.14107264557281e+000

2.70958499956006e+005,-1.76145818163863e+001,-5.21165662156735e+000

2.74740939660078e+005,-1.76150421238118e+001,-5.28319647167330e+000

2.78576180254757e+005,-1.76155106697930e+001,-5.35570519524760e+000

2.82464958813007e+005,-1.76159875506213e+001,-5.42919598658733e+000

2.86408022696948e+005,-1.76164728639198e+001,-5.50368223835425e+000

2.90406129701488e+005,-1.76169667088047e+001,-5.57917754503059e+000

2.94460048199957e+005,-1.76174691860594e+001,-5.65569570639869e+000

2.98570557291775e+005,-1.76179803983189e+001,-5.73325073104313e+000

3.02738446952187e+005,-1.76185004502658e+001,-5.81185683987358e+000

3.06964518184081e+005,-1.76190294488379e+001,-5.89152846966333e+000

3.11249583171928e+005,-1.76195675034474e+001,-5.97228027660165e+000

3.15594465437872e+005,-1.76201147262117e+001,-6.05412713985550e+000

3.19999999999997e+005,-1.76206712321946e+001,-6.13708416514085e+000

3.24467033532806e+005,-1.76212371396611e+001,-6.22116668829472e+000

3.28996424529938e+005,-1.76218125703413e+001,-6.30639027885130e+000

3.33589043469155e+005,-1.76223976497073e+001,-6.39277074361402e+000

3.38245772979638e+005,-1.76229925072602e+001,-6.48032413022384e+000

3.42967508011610e+005,-1.76235972768283e+001,-6.56906673071931e+000

3.47755156008335e+005,-1.76242120968760e+001,-6.65901508508538e+000

3.52609637080511e+005,-1.76248371108235e+001,-6.75018598479055e+000

3.57531884183106e+005,-1.76254724673760e+001,-6.84259647630670e+000

3.62522843294651e+005,-1.76261183208631e+001,-6.93626386461198e+000

3.67583473599047e+005,-1.76267748315886e+001,-7.03120571667252e+000

3.72714747669902e+005,-1.76274421661876e+001,-7.12743986490270e+000

3.77917651657445e+005,-1.76281204979948e+001,-7.22498441060108e+000

3.83193185478053e+005,-1.76288100074194e+001,-7.32385772736020e+000

3.88542363006410e+005,-1.76295108823288e+001,-7.42407846445066e+000

3.93966212270369e+005,-1.76302233184405e+001,-7.52566555017513e+000

3.99465775648511e+005,-1.76309475197203e+001,-7.62863819519522e+000

4.05042110070485e+005,-1.76316836987879e+001,-7.73301589582729e+000

4.10696287220124e+005,-1.76324320773290e+001,-7.83881843730845e+000

4.16429393741414e+005,-1.76331928865130e+001,-7.94606589703240e+000

4.22242531447321e+005,-1.76339663674166e+001,-8.05477864775436e+000

4.28136817531551e+005,-1.76347527714524e+001,-8.16497736076629e+000

4.34113384783250e+005,-1.76355523608024e+001,-8.27668300904217e+000

4.40173381804713e+005,-1.76363654088557e+001,-8.38991687035485e+000

4.46317973232124e+005,-1.76371922006504e+001,-8.50470053036421e+000

4.52548339959385e+005,-1.76380330333188e+001,-8.62105588567927e+000

4.58865679365059e+005,-1.76388882165365e+001,-8.73900514689451e+000

4.65271205542494e+005,-1.76397580729740e+001,-8.85857084160164e+000

4.71766149533147e+005,-1.76406429387510e+001,-8.97977581738062e+000

4.78351759563174e+005,-1.76415431638935e+001,-9.10264324476817e+000

4.85029301283321e+005,-1.76424591127932e+001,-9.22719662020962e+000

4.91800058012158e+005,-1.76433911646684e+001,-9.35345976899364e+000

4.98665330982714e+005,-1.76443397140272e+001,-9.48145684817254e+000

5.05626439592555e+005,-1.76453051711327e+001,-9.61121234947112e+000

5.12684721657352e+005,-1.76462879624695e+001,-9.74275110218570e+000

5.19841533667984e+005,-1.76472885312120e+001,-9.87609827607537e+000

5.27098251051240e+005,-1.76483073376941e+001,-1.00112793842498e+001

5.34456268434150e+005,-1.76493448598810e+001,-1.01483202860525e+001

5.41916999912011e+005,-1.76504015938427e+001,-1.02872471899455e+001

