Freq.,VOut,OutRef

1.00000000000000e+004,-1.89287503753831e+001,-2.39534416305339e-001

1.01395947979003e+004,-1.89287520918114e+001,-2.42877981091335e-001

1.02811382665607e+004,-1.89287538564496e+001,-2.46268211346578e-001

1.04246576084112e+004,-1.89287556706504e+001,-2.49705758117983e-001

1.05701804056138e+004,-1.89287575358043e+001,-2.53191281523848e-001

1.07177346253629e+004,-1.89287594533410e+001,-2.56725450880234e-001

1.08673486252606e+004,-1.89287614247302e+001,-2.60308944828915e-001

1.10190511587661e+004,-1.89287634514825e+001,-2.63942451467606e-001

1.11728713807222e+004,-1.89287655351509e+001,-2.67626668481182e-001

1.13288388529580e+004,-1.89287676773322e+001,-2.71362303270493e-001

1.14869835499703e+004,-1.89287698796674e+001,-2.75150073095883e-001

1.16473358646846e+004,-1.89287721438436e+001,-2.78990705204478e-001

1.18099266142953e+004,-1.89287744715951e+001,-2.82884936976198e-001

1.19747870461893e+004,-1.89287768647048e+001,-2.86833516058199e-001

1.21419488439505e+004,-1.89287793250053e+001,-2.90837200512113e-001

1.23114441334492e+004,-1.89287818543807e+001,-2.94896758955600e-001

1.24833054890161e+004,-1.89287844547675e+001,-2.99012970709521e-001

1.26575659397028e+004,-1.89287871281566e+001,-3.03186625945609e-001

1.28342589756290e+004,-1.89287898765943e+001,-3.07418525838620e-001

1.30134185544193e+004,-1.89287927021841e+001,-3.11709482715759e-001

1.31950791077289e+004,-1.89287956070888e+001,-3.16060320212749e-001

1.33792755478611e+004,-1.89287985935308e+001,-3.20471873432559e-001

1.35660432744767e+004,-1.89288016637950e+001,-3.24944989100343e-001

1.37554181813974e+004,-1.89288048202304e+001,-3.29480525723669e-001

1.39474366635040e+004,-1.89288080652511e+001,-3.34079353762072e-001

1.41421356237309e+004,-1.89288114013388e+001,-3.38742355784674e-001

1.43395524801583e+004,-1.89288148310446e+001,-3.43470426641918e-001

1.45397251732031e+004,-1.89288183569905e+001,-3.48264473633495e-001

1.47426921729110e+004,-1.89288219818720e+001,-3.53125416682570e-001

1.49484924863494e+004,-1.89288257084595e+001,-3.58054188507280e-001

1.51571656651040e+004,-1.89288295396008e+001,-3.63051734800197e-001

1.53687518128801e+004,-1.89288334782231e+001,-3.68119014405143e-001

1.55832915932100e+004,-1.89288375273351e+001,-3.73256999499862e-001

1.58008262372675e+004,-1.89288416900296e+001,-3.78466675780647e-001

1.60213975517924e+004,-1.89288459694853e+001,-3.83749042646887e-001

1.62450479271247e+004,-1.89288503689696e+001,-3.89105113392148e-001

1.64718203453514e+004,-1.89288548918407e+001,-3.94535915394644e-001

1.67017583885674e+004,-1.89288595415507e+001,-4.00042490309883e-001

1.69349062472505e+004,-1.89288643216474e+001,-4.05625894270533e-001

1.71713087287550e+004,-1.89288692357774e+001,-4.11287198083925e-001

1.74110112659224e+004,-1.89288742876889e+001,-4.17027487433056e-001

1.76540599258131e+004,-1.89288794812343e+001,-4.22847863083241e-001

1.79005014185594e+004,-1.89288848203727e+001,-4.28749441088877e-001

1.81503831063432e+004,-1.89288903091740e+001,-4.34733353002281e-001

1.84037530124975e+004,-1.89288959518204e+001,-4.40800746088738e-001

1.86606598307361e+004,-1.89289017526108e+001,-4.46952783540858e-001

1.89211529345119e+004,-1.89289077159630e+001,-4.53190644699112e-001

1.91852823865052e+004,-1.89289138464179e+001,-4.59515525269872e-001

1.94530989482457e+004,-1.89289201486421e+001,-4.65928637554006e-001

1.97246540898671e+004,-1.89289266274315e+001,-4.72431210672062e-001

1.99999999999999e+004,-1.89289332877153e+001,-4.79024490793895e-001

2.02791895958005e+004,-1.89289401345591e+001,-4.85709741375541e-001

2.05622765331213e+004,-1.89289471731688e+001,-4.92488243392423e-001

2.08493152168224e+004,-1.89289544088946e+001,-4.99361295580977e-001

2.11403608112276e+004,-1.89289618472346e+001,-5.06330214680642e-001

2.14354692507258e+004,-1.89289694938391e+001,-5.13396335680430e-001

2.17346972505211e+004,-1.89289773545146e+001,-5.20561012067911e-001

2.20381023175322e+004,-1.89289854352282e+001,-5.27825616082082e-001

2.23457427614443e+004,-1.89289937421118e+001,-5.35191538968756e-001

2.26576777059159e+004,-1.89290022814665e+001,-5.42660191239197e-001

2.29739670999406e+004,-1.89290110597674e+001,-5.50233002934082e-001

2.32946717293690e+004,-1.89290200836683e+001,-5.57911423887864e-001

2.36198532285905e+004,-1.89290293600064e+001,-5.65696923999153e-001

2.39495740923785e+004,-1.89290388958072e+001,-5.73590993503191e-001

2.42838976879009e+004,-1.89290486982898e+001,-5.81595143247595e-001

2.46228882668982e+004,-1.89290587748717e+001,-5.89710904974080e-001

2.49666109780322e+004,-1.89290691331749e+001,-5.97939831598165e-001

2.53151318794055e+004,-1.89290797810306e+001,-6.06283497500051e-001

2.56685179512580e+004,-1.89290907264852e+001,-6.14743498814767e-001

2.60268371088386e+004,-1.89291019778060e+001,-6.23321453723886e-001

2.63901582154578e+004,-1.89291135434872e+001,-6.32019002756313e-001

2.67585510957221e+004,-1.89291254322557e+001,-6.40837809089858e-001

2.71320865489533e+004,-1.89291376530779e+001,-6.49779558854739e-001

2.75108363627948e+004,-1.89291502151650e+001,-6.58845961447497e-001

2.78948733270080e+004,-1.89291631279807e+001,-6.68038749839780e-001

2.82842712474618e+004,-1.89291764012473e+001,-6.77359680898533e-001

2.86791049603164e+004,-1.89291900449527e+001,-6.86810535706229e-001

2.90794503464061e+004,-1.89292040693570e+001,-6.96393119887406e-001

2.94853843458219e+004,-1.89292184850006e+001,-7.06109263935618e-001

2.98969849726987e+004,-1.89292333027107e+001,-7.15960823550594e-001

3.03143313302078e+004,-1.89292485336093e+001,-7.25949679971316e-001

3.07375036257601e+004,-1.89292641891211e+001,-7.36077740320590e-001

3.11665831864199e+004,-1.89292802809807e+001,-7.46346937951686e-001

3.16016524745350e+004,-1.89292968212417e+001,-7.56759232794494e-001

3.20427951035848e+004,-1.89293138222843e+001,-7.67316611714193e-001

3.24900958542493e+004,-1.89293312968241e+001,-7.78021088866481e-001

3.29436406907028e+004,-1.89293492579209e+001,-7.88874706062857e-001

3.34035167771346e+004,-1.89293677189871e+001,-7.99879533136663e-001

3.38698124945009e+004,-1.89293866937978e+001,-8.11037668313621e-001

3.43426174575100e+004,-1.89294061964992e+001,-8.22351238591364e-001

3.48220225318448e+004,-1.89294262416187e+001,-8.33822400115410e-001

3.53081198516260e+004,-1.89294468440744e+001,-8.45453338568261e-001

3.58010028371187e+004,-1.89294680191855e+001,-8.57246269556019e-001

3.63007662126863e+004,-1.89294897826820e+001,-8.69203439003642e-001

3.68075060249948e+004,-1.89295121507158e+001,-8.81327123553404e-001

3.73213196614721e+004,-1.89295351398709e+001,-8.93619630967864e-001

3.78423058690237e+004,-1.89295587671743e+001,-9.06083300538891e-001

3.83705647730104e+004,-1.89295830501077e+001,-9.18720503498086e-001

3.89061978964912e+004,-1.89296080066187e+001,-9.31533643435567e-001

3.94493081797342e+004,-1.89296336551322e+001,-9.44525156721905e-001

3.99999999999998e+004,-1.89296600145626e+001,-9.57697512933799e-001

4.05583791916010e+004,-1.89296871043259e+001,-9.71053215286952e-001

4.11245530662425e+004,-1.89297149443524e+001,-9.84594801070991e-001

4.16986304336447e+004,-1.89297435550990e+001,-9.98324842091731e-001

4.22807216224550e+004,-1.89297729575624e+001,-1.01224594511610e+000

4.28709385014515e+004,-1.89298031732923e+001,-1.02636075232386e+000

4.34693945010421e+004,-1.89298342244049e+001,-1.04067194176301e+000

4.40762046350642e+004,-1.89298661335966e+001,-1.05518222781027e+000

4.46914855228886e+004,-1.89298989241583e+001,-1.06989436163714e+000

4.53153554118317e+004,-1.89299326199893e+001,-1.08481113168022e+000

4.59479341998812e+004,-1.89299672456123e+001,-1.09993536411628e+000

4.65893434587380e+004,-1.89300028261879e+001,-1.11526992334418e+000

4.72397064571810e+004,-1.89300393875300e+001,-1.13081771246923e+000

4.78991481847569e+004,-1.89300769561215e+001,-1.14658167379320e+000

4.85677953758016e+004,-1.89301155591290e+001,-1.16256478931291e+000

4.92457765337964e+004,-1.89301552244199e+001,-1.17877008121712e+000

4.99332219560642e+004,-1.89301959805782e+001,-1.19520061239556e+000

5.06302637588109e+004,-1.89302378569207e+001,-1.21185948694771e+000

5.13370359025159e+004,-1.89302808835144e+001,-1.22874985070042e+000

5.20536742176771e+004,-1.89303250911933e+001,-1.24587489172758e+000

5.27803164309155e+004,-1.89303705115756e+001,-1.26323784087763e+000

5.35171021914442e+004,-1.89304171770817e+001,-1.28084197230382e+000

5.42641730979066e+004,-1.89304651209517e+001,-1.29869060400202e+000

5.50216727255895e+004,-1.89305143772637e+001,-1.31678709835165e+000

5.57897466540159e+004,-1.89305649809525e+001,-1.33513486266259e+000

5.65685424949235e+004,-1.89306169678277e+001,-1.35373734972806e+000

5.73582099206328e+004,-1.89306703745930e+001,-1.37259805838095e+000

5.81589006928121e+004,-1.89307252388653e+001,-1.39172053405646e+000

5.89707686916437e+004,-1.89307815991940e+001,-1.41110836936055e+000

5.97939699453972e+004,-1.89308394950806e+001,-1.43076520464204e+000

6.06286626604156e+004,-1.89308989669984e+001,-1.45069472857211e+000

6.14750072515201e+004,-1.89309600564130e+001,-1.47090067872514e+000

6.23331663728396e+004,-1.89310228058019e+001,-1.49138684217072e+000

6.32033049490698e+004,-1.89310872586756e+001,-1.51215705606453e+000

6.40855902071694e+004,-1.89311534595973e+001,-1.53321520824999e+000

6.49801917084985e+004,-1.89312214542047e+001,-1.55456523786135e+000

6.58872813814055e+004,-1.89312912892299e+001,-1.57621113593420e+000

6.68070335542691e+004,-1.89313630125210e+001,-1.59815694602043e+000

6.77396249890018e+004,-1.89314366730632e+001,-1.62040676480916e+000

6.86852349150199e+004,-1.89315123209998e+001,-1.64296474275248e+000

6.96440450636895e+004,-1.89315900076537e+001,-1.66583508469678e+000

7.06162397032520e+004,-1.89316697855487e+001,-1.68902205052000e+000

7.16020056742374e+004,-1.89317517084307e+001,-1.71252995577400e+000

7.26015324253724e+004,-1.89318358312896e+001,-1.73636317233197e+000

7.36150120499896e+004,-1.89319222103803e+001,-1.76052612904277e+000

7.46426393229441e+004,-1.89320109032438e+001,-1.78502331238962e+000

7.56846117380472e+004,-1.89321019687293e+001,-1.80985926715505e+000

7.67411295460207e+004,-1.89321954670146e+001,-1.83503859709153e+000

7.78123957929823e+004,-1.89322914596278e+001,-1.86056596559887e+000

7.88986163594682e+004,-1.89323900094675e+001,-1.88644609640509e+000

7.99999999999995e+004,-1.89324911808244e+001,-1.91268377425618e+000

8.11167583832018e+004,-1.89325950394008e+001,-1.93928384561101e+000

8.22491061324848e+004,-1.89327016523320e+001,-1.96625121934086e+000

8.33972608672892e+004,-1.89328110882049e+001,-1.99359086743852e+000

8.45614432449099e+004,-1.89329234170788e+001,-2.02130782573069e+000

8.57418770029029e+004,-1.89330387105040e+001,-2.04940719459905e+000

8.69387890020841e+004,-1.89331570415405e+001,-2.07789413970823e+000

8.81524092701283e+004,-1.89332784847767e+001,-2.10677389273925e+000

8.93829710457770e+004,-1.89334031163469e+001,-2.13605175213168e+000

9.06307108236633e+004,-1.89335310139487e+001,-2.16573308383319e+000

9.18958683997622e+004,-1.89336622568598e+001,-2.19582332205563e+000

9.31786869174758e+004,-1.89337969259533e+001,-2.22632797003986e+000

9.44794129143618e+004,-1.89339351037136e+001,-2.25725260083052e+000

9.57982963695136e+004,-1.89340768742508e+001,-2.28860285805474e+000

9.71355907516031e+004,-1.89342223233140e+001,-2.32038445671490e+000

9.84915530675926e+004,-1.89343715383044e+001,-2.35260318398797e+000

9.98664439121282e+004,-1.89345246082869e+001,-2.38526490003375e+000

1.01260527517622e+005,-1.89346816240011e+001,-2.41837553881605e+000

1.02674071805032e+005,-1.89348426778709e+001,-2.45194110893150e+000

1.04107348435354e+005,-1.89350078640134e+001,-2.48596769445026e+000

1.05560632861831e+005,-1.89351772782462e+001,-2.52046145576919e+000

1.07034204382888e+005,-1.89353510180937e+001,-2.55542863047540e+000

1.08528346195813e+005,-1.89355291827918e+001,-2.59087553422433e+000

1.10043345451179e+005,-1.89357118732922e+001,-2.62680856162880e+000

1.11579493308032e+005,-1.89358991922636e+001,-2.66323418716370e+000

1.13137084989847e+005,-1.89360912440933e+001,-2.70015896608504e+000

1.14716419841265e+005,-1.89362881348859e+001,-2.73758953536260e+000

1.16317801385624e+005,-1.89364899724608e+001,-2.77553261463247e+000

1.17941537383287e+005,-1.89366968663483e+001,-2.81399500716177e+000

1.19587939890794e+005,-1.89369089277842e+001,-2.85298360083474e+000

1.21257325320831e+005,-1.89371262697015e+001,-2.89250536915689e+000

1.22950014503040e+005,-1.89373490067220e+001,-2.93256737227718e+000

1.24666332745679e+005,-1.89375772551443e+001,-2.97317675803366e+000

1.26406609898139e+005,-1.89378111329316e+001,-3.01434076301870e+000

1.28171180414339e+005,-1.89380507596963e+001,-3.05606671366828e+000

1.29960383416997e+005,-1.89382962566833e+001,-3.09836202737567e+000

1.31774562762811e+005,-1.89385477467513e+001,-3.14123421362968e+000

1.33614067108538e+005,-1.89388053543519e+001,-3.18469087517995e+000

1.35479249978003e+005,-1.89390692055069e+001,-3.22873970923078e+000

1.37370469830040e+005,-1.89393394277836e+001,-3.27338850866350e+000

1.39288090127379e+005,-1.89396161502681e+001,-3.31864516329090e+000

1.41232479406504e+005,-1.89398995035364e+001,-3.36451766114271e+000

1.43204011348474e+005,-1.89401896196242e+001,-3.41101408978535e+000

1.45203064850745e+005,-1.89404866319939e+001,-3.45814263767832e+000

1.47230024099979e+005,-1.89407906755006e+001,-3.50591159556583e+000

1.49285278645888e+005,-1.89411018863560e+001,-3.55432935790915e+000

1.51369223476094e+005,-1.89414204020898e+001,-3.60340442435806e+000

1.53482259092041e+005,-1.89417463615112e+001,-3.65314540126466e+000

1.55624791585964e+005,-1.89420799046670e+001,-3.70356100324339e+000

1.57797232718936e+005,-1.89424211727998e+001,-3.75466005477306e+000

1.59999999999999e+005,-1.89427703083034e+001,-3.80645149185058e+000

1.62233516766403e+005,-1.89431274546790e+001,-3.85894436369176e+000

1.64498212264969e+005,-1.89434927564884e+001,-3.91214783448420e+000

1.66794521734578e+005,-1.89438663593078e+001,-3.96607118519474e+000

1.69122886489819e+005,-1.89442484096805e+001,-4.02072381542956e+000

1.71483754005805e+005,-1.89446390550694e+001,-4.07611524535461e+000

1.73877578004168e+005,-1.89450384438095e+001,-4.13225511767199e+000

1.76304818540256e+005,-1.89454467250597e+001,-4.18915319965961e+000

1.78765942091554e+005,-1.89458640487565e+001,-4.24681938527144e+000

1.81261421647326e+005,-1.89462905655675e+001,-4.30526369730405e+000

1.83791736799524e+005,-1.89467264268460e+001,-4.36449628962716e+000

1.86357373834951e+005,-1.89471717845871e+001,-4.42452744948383e+000

1.88958825828723e+005,-1.89476267913861e+001,-4.48536759985936e+000

1.91596592739027e+005,-1.89480916003987e+001,-4.54702730191985e+000

1.94271181503206e+005,-1.89485663653032e+001,-4.60951725752474e+000

1.96983106135185e+005,-1.89490512402675e+001,-4.67284831181167e+000

1.99732887824256e+005,-1.89495463799176e+001,-4.73703145585639e+000

2.02521055035243e+005,-1.89500519393114e+001,-4.80207782940825e+000

2.05348143610063e+005,-1.89505680739170e+001,-4.86799872370233e+000

2.08214696870707e+005,-1.89510949395949e+001,-4.93480558434914e+000

2.11121265723661e+005,-1.89516326925874e+001,-5.00251001430131e+000

2.14068408765776e+005,-1.89521814895127e+001,-5.07112377689989e+000

2.17056692391625e+005,-1.89527414873666e+001,-5.14065879899788e+000

2.20086690902357e+005,-1.89533128435306e+001,-5.21112717416302e+000

2.23158986616063e+005,-1.89538957157895e+001,-5.28254116595806e+000

2.26274169979693e+005,-1.89544902623549e+001,-5.35491321129993e+000

2.29432839682530e+005,-1.89550966419005e+001,-5.42825592389486e+000

2.32635602771247e+005,-1.89557150136054e+001,-5.50258209774994e+000

2.35883074766574e+005,-1.89563455372080e+001,-5.57790471076037e+000

2.39175879781588e+005,-1.89569883730713e+001,-5.65423692836915e+000

2.42514650641661e+005,-1.89576436822596e+001,-5.73159210729935e+000

2.45900029006080e+005,-1.89583116266269e+001,-5.80998379935664e+000

2.49332665491357e+005,-1.89589923689190e+001,-5.88942575529768e+000

2.52813219796278e+005,-1.89596860728877e+001,-5.96993192876644e+000

2.56342360828676e+005,-1.89603929034205e+001,-6.05151648028979e+000

2.59920766833993e+005,-1.89611130266837e+001,-6.13419378133503e+000

2.63549125525621e+005,-1.89618466102809e+001,-6.21797841842185e+000

2.67228134217075e+005,-1.89625938234270e+001,-6.30288519728773e+000

2.70958499956006e+005,-1.89633548371386e+001,-6.38892914710094e+000

2.74740939660078e+005,-1.89641298244405e+001,-6.47612552471887e+000

2.78576180254757e+005,-1.89649189605897e+001,-6.56448981898727e+000

2.82464958813007e+005,-1.89657224233159e+001,-6.65403775507371e+000

2.86408022696948e+005,-1.89665403930809e+001,-6.74478529883321e+000

2.90406129701488e+005,-1.89673730533549e+001,-6.83674866120117e+000

2.94460048199957e+005,-1.89682205909116e+001,-6.92994430260483e+000

2.98570557291775e+005,-1.89690831961422e+001,-7.02438893739352e+000

3.02738446952187e+005,-1.89699610633870e+001,-7.12009953827825e+000

3.06964518184081e+005,-1.89708543912868e+001,-7.21709334077698e+000

3.11249583171928e+005,-1.89717633831531e+001,-7.31538784766051e+000

3.15594465437872e+005,-1.89726882473561e+001,-7.41500083339175e+000

3.19999999999997e+005,-1.89736291977330e+001,-7.51595034855468e+000

3.24467033532806e+005,-1.89745864540141e+001,-7.61825472426691e+000

3.28996424529938e+005,-1.89755602422678e+001,-7.72193257656992e+000

3.33589043469155e+005,-1.89765507953638e+001,-7.82700281079209e+000

3.38245772979638e+005,-1.89775583534551e+001,-7.93348462587901e+000

3.42967508011610e+005,-1.89785831644765e+001,-8.04139751868639e+000

3.47755156008335e+005,-1.89796254846623e+001,-8.15076128823025e+000

3.52609637080511e+005,-1.89806855790793e+001,-8.26159603988885e+000

3.57531884183106e+005,-1.89817637221781e+001,-8.37392218955334e+000

3.62522843294651e+005,-1.89828601983590e+001,-8.48776046772142e+000

3.67583473599047e+005,-1.89839753025547e+001,-8.60313192353109e+000

3.72714747669902e+005,-1.89851093408271e+001,-8.72005792872895e+000

3.77917651657445e+005,-1.89862626309790e+001,-8.83856018157191e+000

3.83193185478053e+005,-1.89874355031795e+001,-8.95866071065682e+000

3.88542363006410e+005,-1.89886283006022e+001,-9.08038187867676e+000

3.93966212270369e+005,-1.89898413800765e+001,-9.20374638610034e+000

3.99465775648511e+005,-1.89910751127495e+001,-9.32877727477362e+000

4.05042110070485e+005,-1.89923298847601e+001,-9.45549793144030e+000

4.10696287220124e+005,-1.89936060979228e+001,-9.58393209118124e+000

4.16429393741414e+005,-1.89949041704206e+001,-9.71410384077030e+000

4.22242531447321e+005,-1.89962245375080e+001,-9.84603762194781e+000

4.28136817531551e+005,-1.89975676522209e+001,-9.97975823460949e+000

4.34113384783250e+005,-1.89989339860952e+001,-1.01152908399117e+001

4.40173381804713e+005,-1.90003240298905e+001,-1.02526609632937e+001

4.46317973232124e+005,-1.90017382943220e+001,-1.03918944974176e+001

4.52548339959385e+005,-1.90031773107963e+001,-1.05330177050258e+001

4.58865679365059e+005,-1.90046416321531e+001,-1.06760572217188e+001

4.65271205542494e+005,-1.90061318334107e+001,-1.08210400586551e+001

4.71766149533147e+005,-1.90076485125158e+001,-1.09679936051728e+001

4.78351759563174e+005,-1.90091922910968e+001,-1.11169456313376e+001

4.85029301283321e+005,-1.90107638152193e+001,-1.12679242904181e+001

4.91800058012158e+005,-1.90123637561454e+001,-1.14209581212914e+001

4.98665330982714e+005,-1.90139928110945e+001,-1.15760760507804e+001

5.05626439592555e+005,-1.90156517040060e+001,-1.17333073959274e+001

5.12684721657352e+005,-1.90173411863046e+001,-1.18926818662049e+001

5.19841533667984e+005,-1.90190620376665e+001,-1.20542295656678e+001

5.27098251051240e+005,-1.90208150667874e+001,-1.22179809950482e+001

5.34456268434150e+005,-1.90226011121521e+001,-1.23839670537978e+001

5.41916999912011e+005,-1.90244210428054e+001,-1.25522190420777e+001

