Freq.,VOut,OutRef

1.00000000000000e+004,-1.29893824071014e+000,-1.52615681415593e-001

1.01395947979003e+004,-1.29893817701661e+000,-1.54746114987765e-001

1.02811382665607e+004,-1.29893811153171e+000,-1.56906288222173e-001

1.04246576084112e+004,-1.29893804420511e+000,-1.59096616265581e-001

1.05701804056138e+004,-1.29893797498519e+000,-1.61317520058561e-001

1.07177346253629e+004,-1.29893790381844e+000,-1.63569426420299e-001

1.08673486252606e+004,-1.29893783065037e+000,-1.65852768124767e-001

1.10190511587661e+004,-1.29893775542434e+000,-1.68167983990898e-001

1.11728713807222e+004,-1.29893767808267e+000,-1.70515518959904e-001

1.13288388529580e+004,-1.29893759856583e+000,-1.72895824185134e-001

1.14869835499703e+004,-1.29893751681253e+000,-1.75309357118156e-001

1.16473358646846e+004,-1.29893743275988e+000,-1.77756581595496e-001

1.18099266142953e+004,-1.29893734634316e+000,-1.80237967928306e-001

1.19747870461893e+004,-1.29893725749582e+000,-1.82753992993642e-001

1.21419488439505e+004,-1.29893716614970e+000,-1.85305140322968e-001

1.23114441334492e+004,-1.29893707223417e+000,-1.87891900200967e-001

1.24833054890161e+004,-1.29893697567715e+000,-1.90514769753171e-001

1.26575659397028e+004,-1.29893687640416e+000,-1.93174253046229e-001

1.28342589756290e+004,-1.29893677433887e+000,-1.95870861181951e-001

1.30134185544193e+004,-1.29893666940261e+000,-1.98605112397454e-001

1.31950791077289e+004,-1.29893656151469e+000,-2.01377532163044e-001

1.33792755478611e+004,-1.29893645059195e+000,-2.04188653284604e-001

1.35660432744767e+004,-1.29893633654903e+000,-2.07039016005247e-001

1.37554181813974e+004,-1.29893621929808e+000,-2.09929168109364e-001

1.39474366635040e+004,-1.29893609874883e+000,-2.12859665027386e-001

1.41421356237309e+004,-1.29893597480843e+000,-2.15831069943436e-001

1.43395524801583e+004,-1.29893584738129e+000,-2.18843953903683e-001

1.45397251732031e+004,-1.29893571636954e+000,-2.21898895922755e-001

1.47426921729110e+004,-1.29893558167204e+000,-2.24996483101056e-001

1.49484924863494e+004,-1.29893544318519e+000,-2.28137310731211e-001

1.51571656651040e+004,-1.29893530080216e+000,-2.31321982417994e-001

1.53687518128801e+004,-1.29893515441334e+000,-2.34551110189675e-001

1.55832915932100e+004,-1.29893500390591e+000,-2.37825314618852e-001

1.58008262372675e+004,-1.29893484916405e+000,-2.41145224939252e-001

1.60213975517924e+004,-1.29893469006830e+000,-2.44511479170247e-001

1.62450479271247e+004,-1.29893452649627e+000,-2.47924724234031e-001

1.64718203453514e+004,-1.29893435832184e+000,-2.51385616085093e-001

1.67017583885674e+004,-1.29893418541528e+000,-2.54894819834169e-001

1.69349062472505e+004,-1.29893400764354e+000,-2.58453009874107e-001

1.71713087287550e+004,-1.29893382486947e+000,-2.62060870013203e-001

1.74110112659224e+004,-1.29893363695225e+000,-2.65719093603841e-001

1.76540599258131e+004,-1.29893344374681e+000,-2.69428383677707e-001

1.79005014185594e+004,-1.29893324510456e+000,-2.73189453076927e-001

1.81503831063432e+004,-1.29893304087206e+000,-2.77003024597264e-001

1.84037530124975e+004,-1.29893283089188e+000,-2.80869831121585e-001

1.86606598307361e+004,-1.29893261500220e+000,-2.84790615762441e-001

1.89211529345119e+004,-1.29893239303649e+000,-2.88766132005896e-001

1.91852823865052e+004,-1.29893216482350e+000,-2.92797143855181e-001

1.94530989482457e+004,-1.29893193018723e+000,-2.96884425977427e-001

1.97246540898671e+004,-1.29893168894669e+000,-3.01028763853106e-001

1.99999999999999e+004,-1.29893144091575e+000,-3.05230953926757e-001

2.02791895958005e+004,-1.29893118590305e+000,-3.09491803758955e-001

2.05622765331213e+004,-1.29893092371186e+000,-3.13812132182969e-001

2.08493152168224e+004,-1.29893065413967e+000,-3.18192769462363e-001

2.11403608112276e+004,-1.29893037697868e+000,-3.22634557447260e-001

2.14354692507258e+004,-1.29893009201488e+000,-3.27138349740119e-001

2.17346972505211e+004,-1.29892979902816e+000,-3.31705011858424e-001

2.20381023175322e+004,-1.29892949779244e+000,-3.36335421398848e-001

2.23457427614443e+004,-1.29892918807508e+000,-3.41030468208746e-001

2.26576777059159e+004,-1.29892886963691e+000,-3.45791054555560e-001

2.29739670999406e+004,-1.29892854223195e+000,-3.50618095300475e-001

2.32946717293690e+004,-1.29892820560735e+000,-3.55512518073798e-001

2.36198532285905e+004,-1.29892785950311e+000,-3.60475263453315e-001

2.39495740923785e+004,-1.29892750365178e+000,-3.65507285145868e-001

2.42838976879009e+004,-1.29892713777826e+000,-3.70609550170073e-001

2.46228882668982e+004,-1.29892676159998e+000,-3.75783039040053e-001

2.49666109780322e+004,-1.29892637482606e+000,-3.81028745957276e-001

2.53151318794055e+004,-1.29892597715755e+000,-3.86347678998975e-001

2.56685179512580e+004,-1.29892556828682e+000,-3.91740860313542e-001

2.60268371088386e+004,-1.29892514789785e+000,-3.97209326314264e-001

2.63901582154578e+004,-1.29892471566551e+000,-4.02754127880926e-001

2.67585510957221e+004,-1.29892427125530e+000,-4.08376330561202e-001

2.71320865489533e+004,-1.29892381432340e+000,-4.14077014774651e-001

2.75108363627948e+004,-1.29892334451631e+000,-4.19857276019274e-001

2.78948733270080e+004,-1.29892286147038e+000,-4.25718225084603e-001

2.82842712474618e+004,-1.29892236481162e+000,-4.31660988262586e-001

2.86791049603164e+004,-1.29892185415552e+000,-4.37686707565451e-001

2.90794503464061e+004,-1.29892132910661e+000,-4.43796540943905e-001

2.94853843458219e+004,-1.29892078925822e+000,-4.49991662510199e-001

2.98969849726987e+004,-1.29892023419204e+000,-4.56273262763523e-001

3.03143313302078e+004,-1.29891966347805e+000,-4.62642548817970e-001

3.07375036257601e+004,-1.29891907667382e+000,-4.69100744636113e-001

3.11665831864199e+004,-1.29891847332444e+000,-4.75649091261434e-001

3.16016524745350e+004,-1.29891785296219e+000,-4.82288847058616e-001

3.20427951035848e+004,-1.29891721510579e+000,-4.89021287955125e-001

3.24900958542493e+004,-1.29891655926048e+000,-4.95847707684671e-001

3.29436406907028e+004,-1.29891588491723e+000,-5.02769418038061e-001

3.34035167771346e+004,-1.29891519155270e+000,-5.09787749112373e-001

3.38698124945009e+004,-1.29891447862864e+000,-5.16904049567793e-001

3.43426174575100e+004,-1.29891374559133e+000,-5.24119686887370e-001

3.48220225318448e+004,-1.29891299187137e+000,-5.31436047637598e-001

3.53081198516260e+004,-1.29891221688310e+000,-5.38854537736443e-001

3.58010028371187e+004,-1.29891142002421e+000,-5.46376582721664e-001

3.63007662126863e+004,-1.29891060067517e+000,-5.54003628026023e-001

3.68075060249948e+004,-1.29890975819872e+000,-5.61737139253970e-001

3.73213196614721e+004,-1.29890889193955e+000,-5.69578602462488e-001

3.78423058690237e+004,-1.29890800122346e+000,-5.77529524448016e-001

3.83705647730104e+004,-1.29890708535716e+000,-5.85591433033778e-001

3.89061978964912e+004,-1.29890614362739e+000,-5.93765877364802e-001

3.94493081797342e+004,-1.29890517530064e+000,-6.02054428203416e-001

3.99999999999998e+004,-1.29890417962230e+000,-6.10458678233146e-001

4.05583791916010e+004,-1.29890315581627e+000,-6.18980242361906e-001

4.11245530662425e+004,-1.29890210308410e+000,-6.27620758033758e-001

4.16986304336447e+004,-1.29890102060458e+000,-6.36381885542814e-001

4.22807216224550e+004,-1.29889990753294e+000,-6.45265308350955e-001

4.28709385014515e+004,-1.29889876300015e+000,-6.54272733412415e-001

4.34693945010421e+004,-1.29889758611236e+000,-6.63405891500062e-001

4.40762046350642e+004,-1.29889637594991e+000,-6.72666537538492e-001

4.46914855228886e+004,-1.29889513156685e+000,-6.82056450940177e-001

4.53153554118317e+004,-1.29889385199000e+000,-6.91577435947636e-001

4.59479341998812e+004,-1.29889253621828e+000,-7.01231321978561e-001

4.65893434587380e+004,-1.29889118322162e+000,-7.11019963978755e-001

4.72397064571810e+004,-1.29888979194056e+000,-7.20945242775476e-001

4.78991481847569e+004,-1.29888836128505e+000,-7.31009065440194e-001

4.85677953758016e+004,-1.29888689013358e+000,-7.41213365654380e-001

4.92457765337964e+004,-1.29888537733226e+000,-7.51560104080075e-001

4.99332219560642e+004,-1.29888382169406e+000,-7.62051268736094e-001

5.06302637588109e+004,-1.29888222199768e+000,-7.72688875378956e-001

5.13370359025159e+004,-1.29888057698645e+000,-7.83474967890976e-001

5.20536742176771e+004,-1.29887888536730e+000,-7.94411618671532e-001

5.27803164309155e+004,-1.29887714581009e+000,-8.05500929033917e-001

5.35171021914442e+004,-1.29887535694595e+000,-8.16745029609274e-001

5.42641730979066e+004,-1.29887351736635e+000,-8.28146080756186e-001

5.50216727255895e+004,-1.29887162562200e+000,-8.39706272973261e-001

5.57897466540159e+004,-1.29886968022163e+000,-8.51427827320078e-001

5.65685424949235e+004,-1.29886767963073e+000,-8.63312995842853e-001

5.73582099206328e+004,-1.29886562226999e+000,-8.75364062008517e-001

5.81589006928121e+004,-1.29886350651452e+000,-8.87583341138628e-001

5.89707686916437e+004,-1.29886133069191e+000,-8.99973180857679e-001

5.97939699453972e+004,-1.29885909308124e+000,-9.12535961539996e-001

6.06286626604156e+004,-1.29885679191146e+000,-9.25274096767978e-001

6.14750072515201e+004,-1.29885442535967e+000,-9.38190033795266e-001

6.23331663728396e+004,-1.29885199155014e+000,-9.51286254014249e-001

6.32033049490698e+004,-1.29884948855211e+000,-9.64565273433959e-001

6.40855902071694e+004,-1.29884691437839e+000,-9.78029643161503e-001

6.49801917084985e+004,-1.29884426698384e+000,-9.91681949890419e-001

6.58872813814055e+004,-1.29884154426331e+000,-1.00552481639876e+000

6.68070335542691e+004,-1.29883874405004e+000,-1.01956090205008e+000

6.77396249890018e+004,-1.29883586411373e+000,-1.03379290330405e+000

6.86852349150199e+004,-1.29883290215857e+000,-1.04822355423382e+000

6.96440450636895e+004,-1.29882985582137e+000,-1.06285562704955e+000

7.06162397032520e+004,-1.29882672266935e+000,-1.07769193263083e+000

7.16020056742374e+004,-1.29882350019832e+000,-1.09273532106378e+000

7.26015324253724e+004,-1.29882018583007e+000,-1.10798868219023e+000

7.36150120499896e+004,-1.29881677691061e+000,-1.12345494615893e+000

7.46426393229441e+004,-1.29881327070743e+000,-1.13913708398961e+000

7.56846117380472e+004,-1.29880966440746e+000,-1.15503810814069e+000

7.67411295460207e+004,-1.29880595511426e+000,-1.17116107308854e+000

7.78123957929823e+004,-1.29880213984587e+000,-1.18750907591119e+000

7.88986163594682e+004,-1.29879821553180e+000,-1.20408525688436e+000

7.99999999999995e+004,-1.29879417901055e+000,-1.22089280008144e+000

8.11167583832018e+004,-1.29879002702682e+000,-1.23793493398480e+000

8.22491061324848e+004,-1.29878575622847e+000,-1.25521493210533e+000

8.33972608672892e+004,-1.29878136316376e+000,-1.27273611360860e+000

8.45614432449099e+004,-1.29877684427804e+000,-1.29050184395300e+000

8.57418770029029e+004,-1.29877219591081e+000,-1.30851553553344e+000

8.69387890020841e+004,-1.29876741429227e+000,-1.32678064833670e+000

8.81524092701283e+004,-1.29876249554007e+000,-1.34530069060430e+000

8.93829710457770e+004,-1.29875743565578e+000,-1.36407921950551e+000

9.06307108236633e+004,-1.29875223052127e+000,-1.38311984181953e+000

9.18958683997622e+004,-1.29874687589504e+000,-1.40242621462671e+000

9.31786869174758e+004,-1.29874136740845e+000,-1.42200204601026e+000

9.44794129143618e+004,-1.29873570056158e+000,-1.44185109576798e+000

9.57982963695136e+004,-1.29872987071936e+000,-1.46197717613253e+000

9.71355907516031e+004,-1.29872387310736e+000,-1.48238415250281e+000

9.84915530675926e+004,-1.29871770280728e+000,-1.50307594418612e+000

9.98664439121282e+004,-1.29871135475261e+000,-1.52405652514972e+000

1.01260527517622e+005,-1.29870482372396e+000,-1.54532992478341e+000

1.02674071805032e+005,-1.29869810434440e+000,-1.56690022867266e+000

1.04107348435354e+005,-1.29869119107438e+000,-1.58877157938312e+000

1.05560632861831e+005,-1.29868407820677e+000,-1.61094817725497e+000

1.07034204382888e+005,-1.29867675986155e+000,-1.63343428121053e+000

1.08528346195813e+005,-1.29866922998059e+000,-1.65623420957047e+000

1.10043345451179e+005,-1.29866148232188e+000,-1.67935234088410e+000

1.11579493308032e+005,-1.29865351045374e+000,-1.70279311477067e+000

1.13137084989847e+005,-1.29864530774925e+000,-1.72656103277061e+000

1.14716419841265e+005,-1.29863686737972e+000,-1.75066065921250e+000

1.16317801385624e+005,-1.29862818230868e+000,-1.77509662208818e+000

1.17941537383287e+005,-1.29861924528527e+000,-1.79987361394397e+000

1.19587939890794e+005,-1.29861004883759e+000,-1.82499639278159e+000

1.21257325320831e+005,-1.29860058526568e+000,-1.85046978297428e+000

1.22950014503040e+005,-1.29859084663454e+000,-1.87629867619393e+000

1.24666332745679e+005,-1.29858082476679e+000,-1.90248803235213e+000

1.26406609898139e+005,-1.29857051123487e+000,-1.92904288055600e+000

1.28171180414339e+005,-1.29855989735371e+000,-1.95596832007436e+000

1.29960383416997e+005,-1.29854897417216e+000,-1.98326952132183e+000

1.31774562762811e+005,-1.29853773246515e+000,-2.01095172685285e+000

1.33614067108538e+005,-1.29852616272494e+000,-2.03902025237332e+000

1.35479249978003e+005,-1.29851425515239e+000,-2.06748048776439e+000

1.37370469830040e+005,-1.29850199964790e+000,-2.09633789812268e+000

1.39288090127379e+005,-1.29848938580221e+000,-2.12559802481316e+000

1.41232479406504e+005,-1.29847640288654e+000,-2.15526648654026e+000

1.43204011348474e+005,-1.29846303984315e+000,-2.18534898043104e+000

1.45203064850745e+005,-1.29844928527476e+000,-2.21585128313629e+000

1.47230024099979e+005,-1.29843512743438e+000,-2.24677925194670e+000

1.49285278645888e+005,-1.29842055421438e+000,-2.27813882592511e+000

1.51369223476094e+005,-1.29840555313554e+000,-2.30993602705505e+000

1.53482259092041e+005,-1.29839011133559e+000,-2.34217696140607e+000

1.55624791585964e+005,-1.29837421555766e+000,-2.37486782031573e+000

1.57797232718936e+005,-1.29835785213793e+000,-2.40801488158920e+000

1.59999999999999e+005,-1.29834100699365e+000,-2.44162451071542e+000

1.62233516766403e+005,-1.29832366561020e+000,-2.47570316210137e+000

1.64498212264969e+005,-1.29830581302805e+000,-2.51025738032492e+000

1.66794521734578e+005,-1.29828743382937e+000,-2.54529380140462e+000

1.69122886489819e+005,-1.29826851212423e+000,-2.58081915408931e+000

1.71483754005805e+005,-1.29824903153651e+000,-2.61684026116481e+000

1.73877578004168e+005,-1.29822897518930e+000,-2.65336404078219e+000

1.76304818540256e+005,-1.29820832568996e+000,-2.69039750780307e+000

1.78765942091554e+005,-1.29818706511493e+000,-2.72794777516565e+000

1.81261421647326e+005,-1.29816517499383e+000,-2.76602205527097e+000

1.83791736799524e+005,-1.29814263629368e+000,-2.80462766138879e+000

1.86357373834951e+005,-1.29811942940193e+000,-2.84377200908470e+000

1.88958825828723e+005,-1.29809553410986e+000,-2.88346261766791e+000

1.91596592739027e+005,-1.29807092959507e+000,-2.92370711166023e+000

1.94271181503206e+005,-1.29804559440384e+000,-2.96451322228619e+000

1.96983106135185e+005,-1.29801950643250e+000,-3.00588878898687e+000

1.99732887824256e+005,-1.29799264290914e+000,-3.04784176095357e+000

2.02521055035243e+005,-1.29796498037434e+000,-3.09038019868522e+000

2.05348143610063e+005,-1.29793649466142e+000,-3.13351227556963e+000

2.08214696870707e+005,-1.29790716087659e+000,-3.17724627948614e+000

2.11121265723661e+005,-1.29787695337816e+000,-3.22159061443333e+000

2.14068408765776e+005,-1.29784584575568e+000,-3.26655380217986e+000

2.17056692391625e+005,-1.29781381080832e+000,-3.31214448394063e+000

2.20086690902357e+005,-1.29778082052280e+000,-3.35837142207626e+000

2.23158986616063e+005,-1.29774684605102e+000,-3.40524350181865e+000

2.26274169979693e+005,-1.29771185768671e+000,-3.45276973302209e+000

2.29432839682530e+005,-1.29767582484210e+000,-3.50095925193900e+000

2.32635602771247e+005,-1.29763871602364e+000,-3.54982132302331e+000

2.35883074766574e+005,-1.29760049880748e+000,-3.59936534075893e+000

2.39175879781588e+005,-1.29756113981399e+000,-3.64960083151705e+000

2.42514650641661e+005,-1.29752060468216e+000,-3.70053745543847e+000

2.45900029006080e+005,-1.29747885804327e+000,-3.75218500834501e+000

2.49332665491357e+005,-1.29743586349368e+000,-3.80455342367992e+000

2.52813219796278e+005,-1.29739158356751e+000,-3.85765277447407e+000

2.56342360828676e+005,-1.29734597970832e+000,-3.91149327534388e+000

2.59920766833993e+005,-1.29729901224030e+000,-3.96608528451678e+000

2.63549125525621e+005,-1.29725064033895e+000,-4.02143930588737e+000

2.67228134217075e+005,-1.29720082200078e+000,-4.07756599110304e+000

2.70958499956006e+005,-1.29714951401257e+000,-4.13447614168104e+000

2.74740939660078e+005,-1.29709667192004e+000,-4.19218071115539e+000

2.78576180254757e+005,-1.29704224999542e+000,-4.25069080725650e+000

2.82464958813007e+005,-1.29698620120468e+000,-4.31001769412191e+000

2.86408022696948e+005,-1.29692847717381e+000,-4.37017279453969e+000

2.90406129701488e+005,-1.29686902815432e+000,-4.43116769222439e+000

2.94460048199957e+005,-1.29680780298814e+000,-4.49301413412655e+000

2.98570557291775e+005,-1.29674474907142e+000,-4.55572403277633e+000

3.02738446952187e+005,-1.29667981231760e+000,-4.61930946866031e+000

3.06964518184081e+005,-1.29661293711981e+000,-4.68378269263438e+000

3.11249583171928e+005,-1.29654406631205e+000,-4.74915612837089e+000

3.15594465437872e+005,-1.29647314112962e+000,-4.81544237484218e+000

3.19999999999997e+005,-1.29640010116852e+000,-4.88265420884017e+000

3.24467033532806e+005,-1.29632488434407e+000,-4.95080458753283e+000

3.28996424529938e+005,-1.29624742684807e+000,-5.01990665105856e+000

3.33589043469155e+005,-1.29616766310542e+000,-5.08997372515760e+000

3.38245772979638e+005,-1.29608552572927e+000,-5.16101932384315e+000

3.42967508011610e+005,-1.29600094547514e+000,-5.23305715211108e+000

3.47755156008335e+005,-1.29591385119404e+000,-5.30610110868935e+000

3.52609637080511e+005,-1.29582416978407e+000,-5.38016528882848e+000

3.57531884183106e+005,-1.29573182614107e+000,-5.45526398713268e+000

3.62522843294651e+005,-1.29563674310771e+000,-5.53141170043308e+000

3.67583473599047e+005,-1.29553884142155e+000,-5.60862313070287e+000

3.72714747669902e+005,-1.29543803966132e+000,-5.68691318801704e+000

3.77917651657445e+005,-1.29533425419221e+000,-5.76629699355405e+000

3.83193185478053e+005,-1.29522739910929e+000,-5.84678988264443e+000

3.88542363006410e+005,-1.29511738617972e+000,-5.92840740786292e+000

3.93966212270369e+005,-1.29500412478307e+000,-6.01116534216846e+000

3.99465775648511e+005,-1.29488752185029e+000,-6.09507968209061e+000

4.05042110070485e+005,-1.29476748180094e+000,-6.18016665096356e+000

4.10696287220124e+005,-1.29464390647849e+000,-6.26644270221019e+000

4.16429393741414e+005,-1.29451669508414e+000,-6.35392452267481e+000

4.22242531447321e+005,-1.29438574410849e+000,-6.44262903600751e+000

4.28136817531551e+005,-1.29425094726156e+000,-6.53257340609923e+000

4.34113384783250e+005,-1.29411219540077e+000,-6.62377504057064e+000

4.40173381804713e+005,-1.29396937645692e+000,-6.71625159431382e+000

4.46317973232124e+005,-1.29382237535790e+000,-6.81002097308912e+000

4.52548339959385e+005,-1.29367107395081e+000,-6.90510133717769e+000

4.58865679365059e+005,-1.29351535092130e+000,-7.00151110509093e+000

4.65271205542494e+005,-1.29335508171114e+000,-7.09926895733843e+000

4.71766149533147e+005,-1.29319013843303e+000,-7.19839384025429e+000

4.78351759563174e+005,-1.29302038978360e+000,-7.29890496988500e+000

4.85029301283321e+005,-1.29284570095363e+000,-7.40082183593774e+000

4.91800058012158e+005,-1.29266593353577e+000,-7.50416420579299e+000

4.98665330982714e+005,-1.29248094543016e+000,-7.60895212857987e+000

5.05626439592555e+005,-1.29229059074682e+000,-7.71520593931876e+000

5.12684721657352e+005,-1.29209471970601e+000,-7.82294626312917e+000

5.19841533667984e+005,-1.29189317853560e+000,-7.93219401950729e+000

5.27098251051240e+005,-1.29168580936553e+000,-8.04297042667263e+000

5.34456268434150e+005,-1.29147245011989e+000,-8.15529700598606e+000

5.41916999912011e+005,-1.29125293440571e+000,-8.26919558644082e+000

