Freq.,VOut,OutRef

1.00000000000000e+004,-1.03009427769720e+001,-1.05912639507912e-001

1.01395947979003e+004,-1.03009433418789e+001,-1.07391021120546e-001

1.02811382665607e+004,-1.03009439226447e+001,-1.08890035768037e-001

1.04246576084112e+004,-1.03009445197136e+001,-1.10409971294104e-001

1.05701804056138e+004,-1.03009451335430e+001,-1.11951119545371e-001

1.07177346253629e+004,-1.03009457646024e+001,-1.13513776439245e-001

1.08673486252606e+004,-1.03009464133746e+001,-1.15098242014539e-001

1.10190511587661e+004,-1.03009470803559e+001,-1.16704820488073e-001

1.11728713807222e+004,-1.03009477660568e+001,-1.18333820313879e-001

1.13288388529580e+004,-1.03009484710016e+001,-1.19985554243776e-001

1.14869835499703e+004,-1.03009491957293e+001,-1.21660339384757e-001

1.16473358646846e+004,-1.03009499407942e+001,-1.23358497259146e-001

1.18099266142953e+004,-1.03009507067658e+001,-1.25080353867366e-001

1.19747870461893e+004,-1.03009514942296e+001,-1.26826239749889e-001

1.21419488439505e+004,-1.03009523037875e+001,-1.28596490045770e-001

1.23114441334492e+004,-1.03009531360580e+001,-1.30391444565585e-001

1.24833054890161e+004,-1.03009539916771e+001,-1.32211447844695e-001

1.26575659397028e+004,-1.03009548712982e+001,-1.34056849219805e-001

1.28342589756290e+004,-1.03009557755934e+001,-1.35928002885161e-001

1.30134185544193e+004,-1.03009567052528e+001,-1.37825267969536e-001

1.31950791077289e+004,-1.03009576609864e+001,-1.39749008595213e-001

1.33792755478611e+004,-1.03009586435236e+001,-1.41699593954384e-001

1.35660432744767e+004,-1.03009596536144e+001,-1.43677398374177e-001

1.37554181813974e+004,-1.03009606920294e+001,-1.45682801391363e-001

1.39474366635040e+004,-1.03009617595606e+001,-1.47716187822878e-001

1.41421356237309e+004,-1.03009628570223e+001,-1.49777947837883e-001

1.43395524801583e+004,-1.03009639852513e+001,-1.51868477032622e-001

1.45397251732031e+004,-1.03009651451074e+001,-1.53988176505816e-001

1.47426921729110e+004,-1.03009663374749e+001,-1.56137452932221e-001

1.49484924863494e+004,-1.03009675632621e+001,-1.58316718643660e-001

1.51571656651040e+004,-1.03009688234028e+001,-1.60526391703337e-001

1.53687518128801e+004,-1.03009701188567e+001,-1.62766895986347e-001

1.55832915932100e+004,-1.03009714506101e+001,-1.65038661259857e-001

1.58008262372675e+004,-1.03009728196766e+001,-1.67342123264547e-001

1.60213975517924e+004,-1.03009742270978e+001,-1.69677723796617e-001

1.62450479271247e+004,-1.03009756739446e+001,-1.72045910789583e-001

1.64718203453514e+004,-1.03009771613172e+001,-1.74447138402386e-001

1.67017583885674e+004,-1.03009786903464e+001,-1.76881867100428e-001

1.69349062472505e+004,-1.03009802621942e+001,-1.79350563747479e-001

1.71713087287550e+004,-1.03009818780549e+001,-1.81853701689177e-001

1.74110112659224e+004,-1.03009835391558e+001,-1.84391760843471e-001

1.76540599258131e+004,-1.03009852467580e+001,-1.86965227793088e-001

1.79005014185594e+004,-1.03009870021574e+001,-1.89574595874833e-001

1.81503831063432e+004,-1.03009888066861e+001,-1.92220365270536e-001

1.84037530124975e+004,-1.03009906617127e+001,-1.94903043105097e-001

1.86606598307361e+004,-1.03009925686433e+001,-1.97623143540404e-001

1.89211529345119e+004,-1.03009945289233e+001,-2.00381187868717e-001

1.91852823865052e+004,-1.03009965440376e+001,-2.03177704614369e-001

1.94530989482457e+004,-1.03009986155120e+001,-2.06013229631163e-001

1.97246540898671e+004,-1.03010007449146e+001,-2.08888306200317e-001

1.99999999999999e+004,-1.03010029338563e+001,-2.11803485136857e-001

2.02791895958005e+004,-1.03010051839922e+001,-2.14759324890844e-001

2.05622765331213e+004,-1.03010074970235e+001,-2.17756391645748e-001

2.08493152168224e+004,-1.03010098746976e+001,-2.20795259434813e-001

2.11403608112276e+004,-1.03010123188097e+001,-2.23876510239483e-001

2.14354692507258e+004,-1.03010148312049e+001,-2.27000734100104e-001

2.17346972505211e+004,-1.03010174137783e+001,-2.30168529228549e-001

2.20381023175322e+004,-1.03010200684768e+001,-2.33380502116867e-001

2.23457427614443e+004,-1.03010227973012e+001,-2.36637267648061e-001

2.26576777059159e+004,-1.03010256023066e+001,-2.39939449213885e-001

2.29739670999406e+004,-1.03010284856043e+001,-2.43287678829691e-001

2.32946717293690e+004,-1.03010314493629e+001,-2.46682597250967e-001

2.36198532285905e+004,-1.03010344958107e+001,-2.50124854090076e-001

2.39495740923785e+004,-1.03010376272364e+001,-2.53615107939641e-001

2.42838976879009e+004,-1.03010408459913e+001,-2.57154026490700e-001

2.46228882668982e+004,-1.03010441544902e+001,-2.60742286660869e-001

2.49666109780322e+004,-1.03010475552141e+001,-2.64380574711589e-001

2.53151318794055e+004,-1.03010510507107e+001,-2.68069586383220e-001

2.56685179512580e+004,-1.03010546435973e+001,-2.71810027015107e-001

2.60268371088386e+004,-1.03010583365618e+001,-2.75602611680634e-001

2.63901582154578e+004,-1.03010621323652e+001,-2.79448065313841e-001

2.67585510957221e+004,-1.03010660338428e+001,-2.83347122847350e-001

2.71320865489533e+004,-1.03010700439066e+001,-2.87300529342093e-001

2.75108363627948e+004,-1.03010741655473e+001,-2.91309040124335e-001

2.78948733270080e+004,-1.03010784018358e+001,-2.95373420927218e-001

2.82842712474618e+004,-1.03010827559259e+001,-2.99494448024512e-001

2.86791049603164e+004,-1.03010872310561e+001,-3.03672908376095e-001

2.90794503464061e+004,-1.03010918305519e+001,-3.07909599769233e-001

2.94853843458219e+004,-1.03010965578276e+001,-3.12205330963537e-001

2.98969849726987e+004,-1.03011014163893e+001,-3.16560921836355e-001

3.03143313302078e+004,-1.03011064098365e+001,-3.20977203533342e-001

3.07375036257601e+004,-1.03011115418649e+001,-3.25455018614913e-001

3.11665831864199e+004,-1.03011168162686e+001,-3.29995221212637e-001

3.16016524745350e+004,-1.03011222369429e+001,-3.34598677176907e-001

3.20427951035848e+004,-1.03011278078859e+001,-3.39266264239447e-001

3.24900958542493e+004,-1.03011335332024e+001,-3.43998872164454e-001

3.29436406907028e+004,-1.03011394171057e+001,-3.48797402910053e-001

3.34035167771346e+004,-1.03011454639201e+001,-3.53662770790851e-001

3.38698124945009e+004,-1.03011516780844e+001,-3.58595902638105e-001

3.43426174575100e+004,-1.03011580641539e+001,-3.63597737966351e-001

3.48220225318448e+004,-1.03011646268037e+001,-3.68669229139356e-001

3.53081198516260e+004,-1.03011713708317e+001,-3.73811341538048e-001

3.58010028371187e+004,-1.03011783011610e+001,-3.79025053733933e-001

3.63007662126863e+004,-1.03011854228436e+001,-3.84311357656733e-001

3.68075060249948e+004,-1.03011927410629e+001,-3.89671258773618e-001

3.73213196614721e+004,-1.03012002611372e+001,-3.95105776262884e-001

3.78423058690237e+004,-1.03012079885224e+001,-4.00615943194448e-001

3.83705647730104e+004,-1.03012159288161e+001,-4.06202806706790e-001

3.89061978964912e+004,-1.03012240877601e+001,-4.11867428192129e-001

3.94493081797342e+004,-1.03012324712440e+001,-4.17610883480469e-001

3.99999999999998e+004,-1.03012410853085e+001,-4.23434263026675e-001

4.05583791916010e+004,-1.03012499361492e+001,-4.29338672095802e-001

4.11245530662425e+004,-1.03012590301199e+001,-4.35325230956875e-001

4.16986304336447e+004,-1.03012683737360e+001,-4.41395075074240e-001

4.22807216224550e+004,-1.03012779736783e+001,-4.47549355302376e-001

4.28709385014515e+004,-1.03012878367969e+001,-4.53789238080775e-001

4.34693945010421e+004,-1.03012979701144e+001,-4.60115905635748e-001

4.40762046350642e+004,-1.03013083808302e+001,-4.66530556178955e-001

4.46914855228886e+004,-1.03013190763237e+001,-4.73034404111148e-001

4.53153554118317e+004,-1.03013300641592e+001,-4.79628680225799e-001

4.59479341998812e+004,-1.03013413520883e+001,-4.86314631918827e-001

4.65893434587380e+004,-1.03013529480555e+001,-4.93093523394563e-001

4.72397064571810e+004,-1.03013648602011e+001,-4.99966635878887e-001

4.78991481847569e+004,-1.03013770968653e+001,-5.06935267832610e-001

4.85677953758016e+004,-1.03013896665930e+001,-5.14000735165306e-001

4.92457765337964e+004,-1.03014025781370e+001,-5.21164371455159e-001

4.99332219560642e+004,-1.03014158404628e+001,-5.28427528165635e-001

5.06302637588109e+004,-1.03014294627523e+001,-5.35791574871028e-001

5.13370359025159e+004,-1.03014434544085e+001,-5.43257899475810e-001

5.20536742176771e+004,-1.03014578250589e+001,-5.50827908445076e-001

5.27803164309155e+004,-1.03014725845607e+001,-5.58503027028850e-001

5.35171021914442e+004,-1.03014877430040e+001,-5.66284699495793e-001

5.42641730979066e+004,-1.03015033107168e+001,-5.74174389361949e-001

5.50216727255895e+004,-1.03015192982691e+001,-5.82173579627076e-001

5.57897466540159e+004,-1.03015357164763e+001,-5.90283773012522e-001

5.65685424949235e+004,-1.03015525764046e+001,-5.98506492197382e-001

5.73582099206328e+004,-1.03015698893744e+001,-6.06843280060267e-001

5.81589006928121e+004,-1.03015876669647e+001,-6.15295699922161e-001

5.89707686916437e+004,-1.03016059210170e+001,-6.23865335792446e-001

5.97939699453972e+004,-1.03016246636396e+001,-6.32553792613845e-001

6.06286626604156e+004,-1.03016439072114e+001,-6.41362696514637e-001

6.14750072515201e+004,-1.03016636643862e+001,-6.50293695056353e-001

6.23331663728396e+004,-1.03016839480959e+001,-6.59348457491649e-001

6.32033049490698e+004,-1.03017047715549e+001,-6.68528675016544e-001

6.40855902071694e+004,-1.03017261482638e+001,-6.77836061028112e-001

6.49801917084985e+004,-1.03017480920125e+001,-6.87272351387628e-001

6.58872813814055e+004,-1.03017706168838e+001,-6.96839304679333e-001

6.68070335542691e+004,-1.03017937372571e+001,-7.06538702476456e-001

6.77396249890018e+004,-1.03018174678113e+001,-7.16372349606337e-001

6.86852349150199e+004,-1.03018418235277e+001,-7.26342074419924e-001

6.96440450636895e+004,-1.03018668196932e+001,-7.36449729061622e-001

7.06162397032520e+004,-1.03018924719026e+001,-7.46697189742858e-001

7.16020056742374e+004,-1.03019187960611e+001,-7.57086357016971e-001

7.26015324253724e+004,-1.03019458083869e+001,-7.67619156055937e-001

7.36150120499896e+004,-1.03019735254127e+001,-7.78297536930811e-001

7.46426393229441e+004,-1.03020019639874e+001,-7.89123474892328e-001

7.56846117380472e+004,-1.03020311412777e+001,-8.00098970657224e-001

7.67411295460207e+004,-1.03020610747697e+001,-8.11226050690568e-001

7.78123957929823e+004,-1.03020917822684e+001,-8.22506767499931e-001

7.88986163594682e+004,-1.03021232818993e+001,-8.33943199921828e-001

7.99999999999995e+004,-1.03021555921079e+001,-8.45537453417746e-001

8.11167583832018e+004,-1.03021887316594e+001,-8.57291660370437e-001

8.22491061324848e+004,-1.03022227196380e+001,-8.69207980380784e-001

8.33972608672892e+004,-1.03022575754454e+001,-8.81288600570657e-001

8.45614432449099e+004,-1.03022933187994e+001,-8.93535735887668e-001

8.57418770029029e+004,-1.03023299697313e+001,-9.05951629408833e-001

8.69387890020841e+004,-1.03023675485834e+001,-9.18538552653353e-001

8.81524092701283e+004,-1.03024060760051e+001,-9.31298805894173e-001

8.93829710457770e+004,-1.03024455729495e+001,-9.44234718472316e-001

9.06307108236633e+004,-1.03024860606686e+001,-9.57348649116585e-001

9.18958683997622e+004,-1.03025275607074e+001,-9.70642986266324e-001

9.31786869174758e+004,-1.03025700948985e+001,-9.84120148396510e-001

9.44794129143618e+004,-1.03026136853550e+001,-9.97782584344299e-001

9.57982963695136e+004,-1.03026583544630e+001,-1.01163277364581e+000

9.71355907516031e+004,-1.03027041248729e+001,-1.02567322686980e+000

9.84915530675926e+004,-1.03027510194904e+001,-1.03990648595870e+000

9.98664439121282e+004,-1.03027990614659e+001,-1.05433512457490e+000

1.01260527517622e+005,-1.03028482741840e+001,-1.06896174844807e+000

1.02674071805032e+005,-1.03028986812503e+001,-1.08378899573030e+000

1.04107348435354e+005,-1.03029503064790e+001,-1.09881953735526e+000

1.05560632861831e+005,-1.03030031738783e+001,-1.11405607740252e+000

1.07034204382888e+005,-1.03030573076349e+001,-1.12950135346561e+000

1.08528346195813e+005,-1.03031127320973e+001,-1.14515813702972e+000

1.10043345451179e+005,-1.03031694717582e+001,-1.16102923385188e+000

1.11579493308032e+005,-1.03032275512353e+001,-1.17711748434932e+000

1.13137084989847e+005,-1.03032869952510e+001,-1.19342576399366e+000

1.14716419841265e+005,-1.03033478286102e+001,-1.20995698371456e+000

1.16317801385624e+005,-1.03034100761777e+001,-1.22671409030705e+000

1.17941537383287e+005,-1.03034737628533e+001,-1.24370006685159e+000

1.19587939890794e+005,-1.03035389135457e+001,-1.26091793313833e+000

1.21257325320831e+005,-1.03036055531451e+001,-1.27837074610324e+000

1.22950014503040e+005,-1.03036737064935e+001,-1.29606160027240e+000

1.24666332745679e+005,-1.03037433983549e+001,-1.31399362821582e+000

1.26406609898139e+005,-1.03038146533815e+001,-1.33217000101498e+000

1.28171180414339e+005,-1.03038874960809e+001,-1.35059392873560e+000

1.29960383416997e+005,-1.03039619507793e+001,-1.36926866091971e+000

1.31774562762811e+005,-1.03040380415845e+001,-1.38819748708327e+000

1.33614067108538e+005,-1.03041157923461e+001,-1.40738373723033e+000

1.35479249978003e+005,-1.03041952266146e+001,-1.42683078238215e+000

1.37370469830040e+005,-1.03042763675983e+001,-1.44654203511725e+000

1.39288090127379e+005,-1.03043592381185e+001,-1.46652095012933e+000

1.41232479406504e+005,-1.03044438605625e+001,-1.48677102480111e+000

1.43204011348474e+005,-1.03045302568354e+001,-1.50729579979306e+000

1.45203064850745e+005,-1.03046184483093e+001,-1.52809885965332e+000

1.47230024099979e+005,-1.03047084557710e+001,-1.54918383344248e+000

1.49285278645888e+005,-1.03048002993678e+001,-1.57055439538033e+000

1.51369223476094e+005,-1.03048939985514e+001,-1.59221426551068e+000

1.53482259092041e+005,-1.03049895720197e+001,-1.61416721039156e+000

1.55624791585964e+005,-1.03050870376573e+001,-1.63641704380220e+000

1.57797232718936e+005,-1.03051864124735e+001,-1.65896762747755e+000

1.59999999999999e+005,-1.03052877125393e+001,-1.68182287186440e+000

1.62233516766403e+005,-1.03053909529220e+001,-1.70498673690504e+000

1.64498212264969e+005,-1.03054961476186e+001,-1.72846323284364e+000

1.66794521734578e+005,-1.03056033094872e+001,-1.75225642106379e+000

1.69122886489819e+005,-1.03057124501775e+001,-1.77637041495058e+000

1.71483754005805e+005,-1.03058235800589e+001,-1.80080938078461e+000

1.73877578004168e+005,-1.03059367081480e+001,-1.82557753866463e+000

1.76304818540256e+005,-1.03060518420346e+001,-1.85067916346144e+000

1.78765942091554e+005,-1.03061689878065e+001,-1.87611858580585e+000

1.81261421647326e+005,-1.03062881499732e+001,-1.90190019310562e+000

1.83791736799524e+005,-1.03064093313891e+001,-1.92802843060146e+000

1.86357373834951e+005,-1.03065325331747e+001,-1.95450780245508e+000

1.88958825828723e+005,-1.03066577546392e+001,-1.98134287287267e+000

1.91596592739027e+005,-1.03067849932006e+001,-2.00853826726747e+000

1.94271181503206e+005,-1.03069142443066e+001,-2.03609867345814e+000

1.96983106135185e+005,-1.03070455013554e+001,-2.06402884290525e+000

1.99732887824256e+005,-1.03071787556159e+001,-2.09233359198830e+000

2.02521055035243e+005,-1.03073139961489e+001,-2.12101780332073e+000

2.05348143610063e+005,-1.03074512097283e+001,-2.15008642710589e+000

2.08214696870707e+005,-1.03075903807628e+001,-2.17954448253464e+000

2.11121265723661e+005,-1.03077314912194e+001,-2.20939705922111e+000

2.14068408765776e+005,-1.03078745205467e+001,-2.23964931868416e+000

2.17056692391625e+005,-1.03080194456012e+001,-2.27030649586632e+000

2.20086690902357e+005,-1.03081662405733e+001,-2.30137390069770e+000

2.23158986616063e+005,-1.03083148769169e+001,-2.33285691970022e+000

2.26274169979693e+005,-1.03084653232800e+001,-2.36476101763463e+000

2.29432839682530e+005,-1.03086175454382e+001,-2.39709173918690e+000

2.32635602771247e+005,-1.03087715062302e+001,-2.42985471070021e+000

2.35883074766574e+005,-1.03089271654971e+001,-2.46305564194380e+000

2.39175879781588e+005,-1.03090844800242e+001,-2.49670032792410e+000

2.42514650641661e+005,-1.03092434034859e+001,-2.53079465073560e+000

2.45900029006080e+005,-1.03094038863947e+001,-2.56534458145131e+000

2.49332665491357e+005,-1.03095658760542e+001,-2.60035618204967e+000

2.52813219796278e+005,-1.03097293165157e+001,-2.63583560738001e+000

2.56342360828676e+005,-1.03098941485391e+001,-2.67178910716408e+000

2.59920766833993e+005,-1.03100603095589e+001,-2.70822302803048e+000

2.63549125525621e+005,-1.03102277336543e+001,-2.74514381558461e+000

2.67228134217075e+005,-1.03103963515247e+001,-2.78255801650991e+000

2.70958499956006e+005,-1.03105660904699e+001,-2.82047228069687e+000

2.74740939660078e+005,-1.03107368743756e+001,-2.85889336340426e+000

2.78576180254757e+005,-1.03109086237048e+001,-2.89782812744385e+000

2.82464958813007e+005,-1.03110812554939e+001,-2.93728354539187e+000

2.86408022696948e+005,-1.03112546833548e+001,-2.97726670182059e+000

2.90406129701488e+005,-1.03114288174831e+001,-3.01778479555406e+000

2.94460048199957e+005,-1.03116035646712e+001,-3.05884514193801e+000

2.98570557291775e+005,-1.03117788283274e+001,-3.10045517512978e+000

3.02738446952187e+005,-1.03119545085013e+001,-3.14262245039946e+000

3.06964518184081e+005,-1.03121305019143e+001,-3.18535464644317e+000

3.11249583171928e+005,-1.03123067019957e+001,-3.22865956770735e+000

3.15594465437872e+005,-1.03124829989250e+001,-3.27254514671658e+000

3.19999999999997e+005,-1.03126592796789e+001,-3.31701944641105e+000

3.24467033532806e+005,-1.03128354280842e+001,-3.36209066248027e+000

3.28996424529938e+005,-1.03130113248754e+001,-3.40776712570291e+000

3.33589043469155e+005,-1.03131868477576e+001,-3.45405730428086e+000

3.38245772979638e+005,-1.03133618714734e+001,-3.50096980617030e+000

3.42967508011610e+005,-1.03135362678756e+001,-3.54851338140645e+000

3.47755156008335e+005,-1.03137099060021e+001,-3.59669692442177e+000

3.52609637080511e+005,-1.03138826521564e+001,-3.64552947635220e+000

3.57531884183106e+005,-1.03140543699906e+001,-3.69502022733280e+000

3.62522843294651e+005,-1.03142249205918e+001,-3.74517851878136e+000

3.67583473599047e+005,-1.03143941625710e+001,-3.79601384566658e+000

3.72714747669902e+005,-1.03145619521546e+001,-3.84753585876105e+000

3.77917651657445e+005,-1.03147281432779e+001,-3.89975436687826e+000

3.83193185478053e+005,-1.03148925876792e+001,-3.95267933909183e+000

3.88542363006410e+005,-1.03150551349963e+001,-4.00632090693695e+000

3.93966212270369e+005,-1.03152156328618e+001,-4.06068936659409e+000

3.99465775648511e+005,-1.03153739269999e+001,-4.11579518105387e+000

4.05042110070485e+005,-1.03155298613219e+001,-4.17164898226353e+000

4.10696287220124e+005,-1.03156832780209e+001,-4.22826157325571e+000

4.16429393741414e+005,-1.03158340176653e+001,-4.28564393026015e+000

4.22242531447321e+005,-1.03159819192900e+001,-4.34380720479635e+000

4.28136817531551e+005,-1.03161268204850e+001,-4.40276272575443e+000

4.34113384783250e+005,-1.03162685574818e+001,-4.46252200145688e+000

4.40173381804713e+005,-1.03164069652355e+001,-4.52309672171021e+000

4.46317973232124e+005,-1.03165418775036e+001,-4.58449875984374e+000

4.52548339959385e+005,-1.03166731269199e+001,-4.64674017473937e+000

4.58865679365059e+005,-1.03168005450645e+001,-4.70983321285189e+000

4.65271205542494e+005,-1.03169239625271e+001,-4.77379031022651e+000

4.71766149533147e+005,-1.03170432089663e+001,-4.83862409451081e+000

4.78351759563174e+005,-1.03171581131616e+001,-4.90434738696712e+000

4.85029301283321e+005,-1.03172685030596e+001,-4.97097320448797e+000

4.91800058012158e+005,-1.03173742058134e+001,-5.03851476161506e+000

4.98665330982714e+005,-1.03174750478147e+001,-5.10698547256745e+000

5.05626439592555e+005,-1.03175708547187e+001,-5.17639895328072e+000

5.12684721657352e+005,-1.03176614514617e+001,-5.24676902346008e+000

5.19841533667984e+005,-1.03177466622701e+001,-5.31810970865266e+000

5.27098251051240e+005,-1.03178263106617e+001,-5.39043524233883e+000

5.34456268434150e+005,-1.03179002194393e+001,-5.46376006805065e+000

5.41916999912011e+005,-1.03179682106746e+001,-5.53809884151650e+000

