Freq.,VOut,OutRef

1.00000000000000e+004,-6.48259987735821e-001,-7.59758375505390e-002

1.01395947979003e+004,-6.48259994546787e-001,-7.70364180807466e-002

1.02811382665607e+004,-6.48260001548508e-001,-7.81118036524144e-002

1.04246576084112e+004,-6.48260008746457e-001,-7.92022009306010e-002

1.05701804056138e+004,-6.48260016146196e-001,-8.03078194652742e-002

1.07177346253629e+004,-6.48260023753283e-001,-8.14288717327880e-002

1.08673486252606e+004,-6.48260031573333e-001,-8.25655731755666e-002

1.10190511587661e+004,-6.48260039612648e-001,-8.37181422404518e-002

1.11728713807222e+004,-6.48260047877137e-001,-8.48868004263129e-002

1.13288388529580e+004,-6.48260056372982e-001,-8.60717723236045e-002

1.14869835499703e+004,-6.48260065106779e-001,-8.72732856558563e-002

1.16473358646846e+004,-6.48260074085252e-001,-8.84915713260301e-002

1.18099266142953e+004,-6.48260083315037e-001,-8.97268634612499e-002

1.19747870461893e+004,-6.48260092803174e-001,-9.09793994559029e-002

1.21419488439505e+004,-6.48260102557037e-001,-9.22494200162489e-002

1.23114441334492e+004,-6.48260112583810e-001,-9.35371692117119e-002

1.24833054890161e+004,-6.48260122891249e-001,-9.48428945155460e-002

1.26575659397028e+004,-6.48260133487042e-001,-9.61668468570920e-002

1.28342589756290e+004,-6.48260144379415e-001,-9.75092806665761e-002

1.30134185544193e+004,-6.48260155576508e-001,-9.88704539267688e-002

1.31950791077289e+004,-6.48260167086641e-001,-1.00250628222372e-001

1.33792755478611e+004,-6.48260178918811e-001,-1.01650068786136e-001

1.35660432744767e+004,-6.48260191081766e-001,-1.03069044555782e-001

1.37554181813974e+004,-6.48260203584870e-001,-1.04507828221095e-001

1.39474366635040e+004,-6.48260216437452e-001,-1.05966696279014e-001

1.41421356237309e+004,-6.48260229649295e-001,-1.07445929085327e-001

1.43395524801583e+004,-6.48260243230181e-001,-1.08945810909955e-001

1.45397251732031e+004,-6.48260257190733e-001,-1.10466629987607e-001

1.47426921729110e+004,-6.48260271541157e-001,-1.12008678579740e-001

1.49484924863494e+004,-6.48260286292423e-001,-1.13572253024884e-001

1.51571656651040e+004,-6.48260301455654e-001,-1.15157653798047e-001

1.53687518128801e+004,-6.48260317042295e-001,-1.16765185567895e-001

1.55832915932100e+004,-6.48260333063965e-001,-1.18395157256888e-001

1.58008262372675e+004,-6.48260349532766e-001,-1.20047882097821e-001

1.60213975517924e+004,-6.48260366461163e-001,-1.21723677695198e-001

1.62450479271247e+004,-6.48260383861732e-001,-1.23422866087722e-001

1.64718203453514e+004,-6.48260401747724e-001,-1.25145773807111e-001

1.67017583885674e+004,-6.48260420132437e-001,-1.26892731943906e-001

1.69349062472505e+004,-6.48260439029725e-001,-1.28664076208963e-001

1.71713087287550e+004,-6.48260458453610e-001,-1.30460146999930e-001

1.74110112659224e+004,-6.48260478418812e-001,-1.32281289462753e-001

1.76540599258131e+004,-6.48260498940185e-001,-1.34127853563152e-001

1.79005014185594e+004,-6.48260520033154e-001,-1.36000194149231e-001

1.81503831063432e+004,-6.48260541713380e-001,-1.37898671023215e-001

1.84037530124975e+004,-6.48260563997077e-001,-1.39823649008028e-001

1.86606598307361e+004,-6.48260586900968e-001,-1.41775498017516e-001

1.89211529345119e+004,-6.48260610442000e-001,-1.43754593130365e-001

1.91852823865052e+004,-6.48260634637666e-001,-1.45761314658301e-001

1.94530989482457e+004,-6.48260659506108e-001,-1.47796048221076e-001

1.97246540898671e+004,-6.48260685065815e-001,-1.49859184819376e-001

1.99999999999999e+004,-6.48260711335680e-001,-1.51951120912898e-001

2.02791895958005e+004,-6.48260738335158e-001,-1.54072258492674e-001

2.05622765331213e+004,-6.48260766084354e-001,-1.56223005160046e-001

2.08493152168224e+004,-6.48260794603850e-001,-1.58403774204574e-001

2.11403608112276e+004,-6.48260823914544e-001,-1.60614984685023e-001

2.14354692507258e+004,-6.48260854038235e-001,-1.62857061506396e-001

2.17346972505211e+004,-6.48260884997214e-001,-1.65130435503814e-001

2.20381023175322e+004,-6.48260916814127e-001,-1.67435543526597e-001

2.23457427614443e+004,-6.48260949512530e-001,-1.69772828517960e-001

2.26576777059159e+004,-6.48260983116435e-001,-1.72142739604136e-001

2.29739670999406e+004,-6.48261017650390e-001,-1.74545732178790e-001

2.32946717293690e+004,-6.48261053139896e-001,-1.76982267989010e-001

2.36198532285905e+004,-6.48261089610864e-001,-1.79452815227426e-001

2.39495740923785e+004,-6.48261127089928e-001,-1.81957848619053e-001

2.42838976879009e+004,-6.48261165604578e-001,-1.84497849512935e-001

2.46228882668982e+004,-6.48261205182775e-001,-1.87073305976733e-001

2.49666109780322e+004,-6.48261245853305e-001,-1.89684712887674e-001

2.53151318794055e+004,-6.48261287645805e-001,-1.92332572028074e-001

2.56685179512580e+004,-6.48261330590660e-001,-1.95017392182264e-001

2.60268371088386e+004,-6.48261374718760e-001,-1.97739689235705e-001

2.63901582154578e+004,-6.48261420062326e-001,-2.00499986268947e-001

2.67585510957221e+004,-6.48261466653780e-001,-2.03298813665424e-001

2.71320865489533e+004,-6.48261514526943e-001,-2.06136709205432e-001

2.75108363627948e+004,-6.48261563716129e-001,-2.09014218175155e-001

2.78948733270080e+004,-6.48261614256672e-001,-2.11931893468891e-001

2.82842712474618e+004,-6.48261666184744e-001,-2.14890295695013e-001

2.86791049603164e+004,-6.48261719537559e-001,-2.17889993283123e-001

2.90794503464061e+004,-6.48261774353046e-001,-2.20931562595755e-001

2.94853843458219e+004,-6.48261830670379e-001,-2.24015588034598e-001

2.98969849726987e+004,-6.48261888529333e-001,-2.27142662157278e-001

3.03143313302078e+004,-6.48261947971084e-001,-2.30313385786864e-001

3.07375036257601e+004,-6.48262009037644e-001,-2.33528368129286e-001

3.11665831864199e+004,-6.48262071772117e-001,-2.36788226889668e-001

3.16016524745350e+004,-6.48262136218370e-001,-2.40093588393056e-001

3.20427951035848e+004,-6.48262202421898e-001,-2.43445087698557e-001

3.24900958542493e+004,-6.48262270428861e-001,-2.46843368727642e-001

3.29436406907028e+004,-6.48262340286775e-001,-2.50289084383796e-001

3.34035167771346e+004,-6.48262412044165e-001,-2.53782896679127e-001

3.38698124945009e+004,-6.48262485750771e-001,-2.57325476860736e-001

3.43426174575100e+004,-6.48262561457754e-001,-2.60917505538260e-001

3.48220225318448e+004,-6.48262639217031e-001,-2.64559672817973e-001

3.53081198516260e+004,-6.48262719082213e-001,-2.68252678430553e-001

3.58010028371187e+004,-6.48262801107855e-001,-2.71997231868499e-001

3.63007662126863e+004,-6.48262885349958e-001,-2.75794052520183e-001

3.68075060249948e+004,-6.48262971865867e-001,-2.79643869808125e-001

3.73213196614721e+004,-6.48263060714068e-001,-2.83547423329843e-001

3.78423058690237e+004,-6.48263151954567e-001,-2.87505462998229e-001

3.83705647730104e+004,-6.48263245648714e-001,-2.91518749185123e-001

3.89061978964912e+004,-6.48263341859122e-001,-2.95588052868982e-001

3.94493081797342e+004,-6.48263440650054e-001,-2.99714155779105e-001

3.99999999999998e+004,-6.48263542086905e-001,-3.03897850549181e-001

4.05583791916010e+004,-6.48263646236878e-001,-3.08139940865634e-001

4.11245530662425e+004,-6.48263753168266e-001,-3.12441241624939e-001

4.16986304336447e+004,-6.48263862951180e-001,-3.16802579085656e-001

4.22807216224550e+004,-6.48263975656994e-001,-3.21224791031028e-001

4.28709385014515e+004,-6.48264091358858e-001,-3.25708726925076e-001

4.34693945010421e+004,-6.48264210131252e-001,-3.30255248078532e-001

4.40762046350642e+004,-6.48264332050278e-001,-3.34865227812527e-001

4.46914855228886e+004,-6.48264457193676e-001,-3.39539551624568e-001

4.53153554118317e+004,-6.48264585640708e-001,-3.44279117360289e-001

4.59479341998812e+004,-6.48264717472227e-001,-3.49084835383254e-001

4.65893434587380e+004,-6.48264852770732e-001,-3.53957628750475e-001

4.72397064571810e+004,-6.48264991620324e-001,-3.58898433387764e-001

4.78991481847569e+004,-6.48265134106795e-001,-3.63908198269722e-001

4.85677953758016e+004,-6.48265280317391e-001,-3.68987885601657e-001

4.92457765337964e+004,-6.48265430341258e-001,-3.74138471001509e-001

4.99332219560642e+004,-6.48265584268918e-001,-3.79360943689315e-001

5.06302637588109e+004,-6.48265742192748e-001,-3.84656306673568e-001

5.13370359025159e+004,-6.48265904206587e-001,-3.90025576945523e-001

5.20536742176771e+004,-6.48266070405959e-001,-3.95469785671668e-001

5.27803164309155e+004,-6.48266240888066e-001,-4.00989978391583e-001

5.35171021914442e+004,-6.48266415751627e-001,-4.06587215218060e-001

5.42641730979066e+004,-6.48266595097110e-001,-4.12262571038486e-001

5.50216727255895e+004,-6.48266779026279e-001,-4.18017135722474e-001

5.57897466540159e+004,-6.48266967642710e-001,-4.23852014327636e-001

5.65685424949235e+004,-6.48267161051413e-001,-4.29768327312064e-001

5.73582099206328e+004,-6.48267359358823e-001,-4.35767210748431e-001

5.81589006928121e+004,-6.48267562672959e-001,-4.41849816540116e-001

5.89707686916437e+004,-6.48267771103197e-001,-4.48017312641588e-001

5.97939699453972e+004,-6.48267984760281e-001,-4.54270883281866e-001

6.06286626604156e+004,-6.48268203756271e-001,-4.60611729190026e-001

6.14750072515201e+004,-6.48268428204500e-001,-4.67041067824897e-001

6.23331663728396e+004,-6.48268658219452e-001,-4.73560133607038e-001

6.32033049490698e+004,-6.48268893916890e-001,-4.80170178153923e-001

6.40855902071694e+004,-6.48269135413477e-001,-4.86872470519991e-001

6.49801917084985e+004,-6.48269382826886e-001,-4.93668297437898e-001

6.58872813814055e+004,-6.48269636275665e-001,-5.00558963564130e-001

6.68070335542691e+004,-6.48269895879158e-001,-5.07545791727961e-001

6.77396249890018e+004,-6.48270161757434e-001,-5.14630123183124e-001

6.86852349150199e+004,-6.48270434030938e-001,-5.21813317865575e-001

6.96440450636895e+004,-6.48270712820636e-001,-5.29096754650261e-001

7.06162397032520e+004,-6.48270998247789e-001,-5.36481831615408e-001

7.16020056742374e+004,-6.48271290433690e-001,-5.43969966309218e-001

7.26015324253724e+004,-6.48271589499607e-001,-5.51562596019527e-001

7.36150120499896e+004,-6.48271895566620e-001,-5.59261178047677e-001

7.46426393229441e+004,-6.48272208755470e-001,-5.67067189986358e-001

7.56846117380472e+004,-6.48272529186055e-001,-5.74982130002059e-001

7.67411295460207e+004,-6.48272856977672e-001,-5.83007517118814e-001

7.78123957929823e+004,-6.48273192248390e-001,-5.91144891509214e-001

7.88986163594682e+004,-6.48273535115058e-001,-5.99395814786205e-001

7.99999999999995e+004,-6.48273885692908e-001,-6.07761870302312e-001

8.11167583832018e+004,-6.48274244095207e-001,-6.16244663450301e-001

8.22491061324848e+004,-6.48274610433184e-001,-6.24845821968086e-001

8.33972608672892e+004,-6.48274984815520e-001,-6.33566996250069e-001

8.45614432449099e+004,-6.48275367347964e-001,-6.42409859660874e-001

8.57418770029029e+004,-6.48275758133121e-001,-6.51376108854135e-001

8.69387890020841e+004,-6.48276157270055e-001,-6.60467464094242e-001

8.81524092701283e+004,-6.48276564853745e-001,-6.69685669585850e-001

8.93829710457770e+004,-6.48276980974600e-001,-6.79032493805072e-001

9.06307108236633e+004,-6.48277405718273e-001,-6.88509729835221e-001

9.18958683997622e+004,-6.48277839165013e-001,-6.98119195708952e-001

9.31786869174758e+004,-6.48278281389000e-001,-7.07862734754760e-001

9.44794129143618e+004,-6.48278732458025e-001,-7.17742215946647e-001

9.57982963695136e+004,-6.48279192432745e-001,-7.27759534261231e-001

9.71355907516031e+004,-6.48279661366265e-001,-7.37916611036866e-001

9.84915530675926e+004,-6.48280139303225e-001,-7.48215394340655e-001

9.98664439121282e+004,-6.48280626279323e-001,-7.58657859338564e-001

1.01260527517622e+005,-6.48281122320543e-001,-7.69246008671620e-001

1.02674071805032e+005,-6.48281627442335e-001,-7.79981872837018e-001

1.04107348435354e+005,-6.48282141648931e-001,-7.90867510574744e-001

1.05560632861831e+005,-6.48282664932403e-001,-8.01905009259502e-001

1.07034204382888e+005,-6.48283197271889e-001,-8.13096485297949e-001

1.08528346195813e+005,-6.48283738632534e-001,-8.24444084532147e-001

1.10043345451179e+005,-6.48284288964621e-001,-8.35949982647738e-001

1.11579493308032e+005,-6.48284848202668e-001,-8.47616385588070e-001

1.13137084989847e+005,-6.48285416263952e-001,-8.59445529976178e-001

1.14716419841265e+005,-6.48285993048018e-001,-8.71439683537776e-001

1.16317801385624e+005,-6.48286578434939e-001,-8.83601145536578e-001

1.17941537383287e+005,-6.48287172284375e-001,-8.95932247210544e-001

1.19587939890794e+005,-6.48287774434302e-001,-9.08435352217049e-001

1.21257325320831e+005,-6.48288384699681e-001,-9.21112857083103e-001

1.22950014503040e+005,-6.48289002870940e-001,-9.33967191663119e-001

1.24666332745679e+005,-6.48289628712740e-001,-9.47000819601734e-001

1.26406609898139e+005,-6.48290261962159e-001,-9.60216238805297e-001

1.28171180414339e+005,-6.48290902327556e-001,-9.73615981916093e-001

1.29960383416997e+005,-6.48291549486488e-001,-9.87202616799547e-001

1.31774562762811e+005,-6.48292203084416e-001,-1.00097874703128e+000

1.33614067108538e+005,-6.48292862732536e-001,-1.01494701239766e+000

1.35479249978003e+005,-6.48293528006416e-001,-1.02911008939781e+000

1.37370469830040e+005,-6.48294198443590e-001,-1.04347069175789e+000

1.39288090127379e+005,-6.48294873541996e-001,-1.05803157094878e+000

1.41232479406504e+005,-6.48295552757788e-001,-1.07279551671349e+000

1.43204011348474e+005,-6.48296235503043e-001,-1.08776535760160e+000

1.45203064850745e+005,-6.48296921143980e-001,-1.10294396151054e+000

1.47230024099979e+005,-6.48297608998280e-001,-1.11833423623654e+000

1.49285278645888e+005,-6.48298298333046e-001,-1.13393913003178e+000

1.51369223476094e+005,-6.48298988362295e-001,-1.14976163217026e+000

1.53482259092041e+005,-6.48299678244321e-001,-1.16580477352304e+000

1.55624791585964e+005,-6.48300367079466e-001,-1.18207162713892e+000

1.57797232718936e+005,-6.48301053907213e-001,-1.19856530883703e+000

1.59999999999999e+005,-6.48301737703619e-001,-1.21528897780565e+000

1.62233516766403e+005,-6.48302417378389e-001,-1.23224583721109e+000

1.64498212264969e+005,-6.48303091772151e-001,-1.24943913481471e+000

1.66794521734578e+005,-6.48303759653617e-001,-1.26687216359859e+000

1.69122886489819e+005,-6.48304419716205e-001,-1.28454826240278e+000

1.71483754005805e+005,-6.48305070575425e-001,-1.30247081656798e+000

1.73877578004168e+005,-6.48305710765442e-001,-1.32064325859156e+000

1.76304818540256e+005,-6.48306338735904e-001,-1.33906906879067e+000

1.78765942091554e+005,-6.48306952848705e-001,-1.35775177597634e+000

1.81261421647326e+005,-6.48307551374699e-001,-1.37669495813651e+000

1.83791736799524e+005,-6.48308132490158e-001,-1.39590224313052e+000

1.86357373834951e+005,-6.48308694273348e-001,-1.41537730939269e+000

1.88958825828723e+005,-6.48309234701149e-001,-1.43512388664632e+000

1.91596592739027e+005,-6.48309751645200e-001,-1.45514575662933e+000

1.94271181503206e+005,-6.48310242868491e-001,-1.47544675382899e+000

1.96983106135185e+005,-6.48310706021690e-001,-1.49603076622855e+000

1.99732887824256e+005,-6.48311138639227e-001,-1.51690173606538e+000

2.02521055035243e+005,-6.48311538135671e-001,-1.53806366059844e+000

2.05348143610063e+005,-6.48311901801940e-001,-1.55952059288907e+000

2.08214696870707e+005,-6.48312226801417e-001,-1.58127664259165e+000

2.11121265723661e+005,-6.48312510166167e-001,-1.60333597675708e+000

2.14068408765776e+005,-6.48312748792845e-001,-1.62570282064772e+000

2.17056692391625e+005,-6.48312939439097e-001,-1.64838145856349e+000

2.20086690902357e+005,-6.48313078719346e-001,-1.67137623468158e+000

2.23158986616063e+005,-6.48313163101128e-001,-1.69469155390699e+000

2.26274169979693e+005,-6.48313188900945e-001,-1.71833188273612e+000

2.29432839682530e+005,-6.48313152280454e-001,-1.74230175013351e+000

2.32635602771247e+005,-6.48313049242523e-001,-1.76660574841976e+000

2.35883074766574e+005,-6.48312875627251e-001,-1.79124853417445e+000

2.39175879781588e+005,-6.48312627108177e-001,-1.81623482914977e+000

2.42514650641661e+005,-6.48312299188302e-001,-1.84156942119956e+000

2.45900029006080e+005,-6.48311887196241e-001,-1.86725716521983e+000

2.49332665491357e+005,-6.48311386282415e-001,-1.89330298410453e+000

2.52813219796278e+005,-6.48310791415362e-001,-1.91971186971293e+000

2.56342360828676e+005,-6.48310097377721e-001,-1.94648888385277e+000

2.59920766833993e+005,-6.48309298762719e-001,-1.97363915927662e+000

2.63549125525621e+005,-6.48308389970361e-001,-2.00116790069156e+000

2.67228134217075e+005,-6.48307365204048e-001,-2.02908038578393e+000

2.70958499956006e+005,-6.48306218466530e-001,-2.05738196625918e+000

2.74740939660078e+005,-6.48304943556888e-001,-2.08607806889425e+000

2.78576180254757e+005,-6.48303534066575e-001,-2.11517419660658e+000

2.82464958813007e+005,-6.48301983376428e-001,-2.14467592953680e+000

2.86408022696948e+005,-6.48300284652874e-001,-2.17458892614702e+000

2.90406129701488e+005,-6.48298430844890e-001,-2.20491892433397e+000

2.94460048199957e+005,-6.48296414680543e-001,-2.23567174255756e+000

2.98570557291775e+005,-6.48294228663821e-001,-2.26685328098485e+000

3.02738446952187e+005,-6.48291865071528e-001,-2.29846952264916e+000

3.06964518184081e+005,-6.48289315949888e-001,-2.33052653462625e+000

3.11249583171928e+005,-6.48286573111748e-001,-2.36303046922474e+000

3.15594465437872e+005,-6.48283628133147e-001,-2.39598756519399e+000

3.19999999999997e+005,-6.48280472350644e-001,-2.42940414894709e+000

3.24467033532806e+005,-6.48277096857789e-001,-2.46328663580178e+000

3.28996424529938e+005,-6.48273492502654e-001,-2.49764153123567e+000

3.33589043469155e+005,-6.48269649884338e-001,-2.53247543216100e+000

3.38245772979638e+005,-6.48265559350201e-001,-2.56779502821416e+000

3.42967508011610e+005,-6.48261210992619e-001,-2.60360710306344e+000

3.47755156008335e+005,-6.48256594646093e-001,-2.63991853573367e+000

3.52609637080511e+005,-6.48251699883942e-001,-2.67673630194882e+000

3.57531884183106e+005,-6.48246516015303e-001,-2.71406747549226e+000

3.62522843294651e+005,-6.48241032081753e-001,-2.75191922958452e+000

3.67583473599047e+005,-6.48235236853996e-001,-2.79029883827994e+000

3.72714747669902e+005,-6.48229118828472e-001,-2.82921367788158e+000

3.77917651657445e+005,-6.48222666223862e-001,-2.86867122837460e+000

3.83193185478053e+005,-6.48215866977297e-001,-2.90867907487887e+000

3.88542363006410e+005,-6.48208708740752e-001,-2.94924490912032e+000

3.93966212270369e+005,-6.48201178876850e-001,-2.99037653092280e+000

3.99465775648511e+005,-6.48193264454964e-001,-3.03208184971816e+000

4.05042110070485e+005,-6.48184952246692e-001,-3.07436888607804e+000

4.10696287220124e+005,-6.48176228721393e-001,-3.11724577326471e+000

4.16429393741414e+005,-6.48167080041308e-001,-3.16072075880376e+000

4.22242531447321e+005,-6.48157492056785e-001,-3.20480220607637e+000

4.28136817531551e+005,-6.48147450300668e-001,-3.24949859593437e+000

4.34113384783250e+005,-6.48136939982890e-001,-3.29481852833624e+000

4.40173381804713e+005,-6.48125945984652e-001,-3.34077072400470e+000

4.46317973232124e+005,-6.48114452851990e-001,-3.38736402610808e+000

4.52548339959385e+005,-6.48102444789450e-001,-3.43460740196311e+000

4.58865679365059e+005,-6.48089905653167e-001,-3.48250994476134e+000

4.65271205542494e+005,-6.48076818943416e-001,-3.53108087531955e+000

4.71766149533147e+005,-6.48063167797125e-001,-3.58032954385379e+000

4.78351759563174e+005,-6.48048934979672e-001,-3.63026543177756e+000

4.85029301283321e+005,-6.48034102876552e-001,-3.68089815352493e+000

4.91800058012158e+005,-6.48018653484264e-001,-3.73223745839949e+000

4.98665330982714e+005,-6.48002568400953e-001,-3.78429323244836e+000

5.05626439592555e+005,-6.47985828816679e-001,-3.83707550036240e+000

5.12684721657352e+005,-6.47968415502824e-001,-3.89059442740334e+000

5.19841533667984e+005,-6.47950308801569e-001,-3.94486032135769e+000

5.27098251051240e+005,-6.47931488614131e-001,-3.99988363451854e+000

5.34456268434150e+005,-6.47911934389228e-001,-4.05567496569524e+000

5.41916999912011e+005,-6.47891625110461e-001,-4.11224506225149e+000

