Freq.,VOut,OutRef

1.00000000000000e+004,-1.02350386576623e+001,-8.48892887819570e-002

1.01395947979003e+004,-1.02350395421701e+001,-8.60741449882737e-002

1.02811382665607e+004,-1.02350404515110e+001,-8.72755346306208e-002

1.04246576084112e+004,-1.02350413863809e+001,-8.84936882329911e-002

1.05701804056138e+004,-1.02350423474958e+001,-8.97288395198187e-002

1.07177346253629e+004,-1.02350433355910e+001,-9.09812254716696e-002

1.08673486252606e+004,-1.02350443514229e+001,-9.22510863594624e-002

1.10190511587661e+004,-1.02350453957688e+001,-9.35386657978373e-002

1.11728713807222e+004,-1.02350464694279e+001,-9.48442107872472e-002

1.13288388529580e+004,-1.02350475732215e+001,-9.61679717614543e-002

1.14869835499703e+004,-1.02350487079942e+001,-9.75102026351644e-002

1.16473358646846e+004,-1.02350498746136e+001,-9.88711608528710e-002

1.18099266142953e+004,-1.02350510739721e+001,-1.00251107435345e-001

1.19747870461893e+004,-1.02350523069864e+001,-1.01650307032198e-001

1.21419488439505e+004,-1.02350535745995e+001,-1.03069027965569e-001

1.23114441334492e+004,-1.02350548777801e+001,-1.04507542289883e-001

1.24833054890161e+004,-1.02350562175242e+001,-1.05966125833554e-001

1.26575659397028e+004,-1.02350575948558e+001,-1.07445058255781e-001

1.28342589756290e+004,-1.02350590108268e+001,-1.08944623102828e-001

1.30134185544193e+004,-1.02350604665190e+001,-1.10465107852159e-001

1.31950791077289e+004,-1.02350619630441e+001,-1.12006803975738e-001

1.33792755478611e+004,-1.02350635015449e+001,-1.13570006986721e-001

1.35660432744767e+004,-1.02350650831959e+001,-1.15155016501508e-001

1.37554181813974e+004,-1.02350667092045e+001,-1.16762136291115e-001

1.39474366635040e+004,-1.02350683808113e+001,-1.18391674343830e-001

1.41421356237309e+004,-1.02350700992920e+001,-1.20043942914697e-001

1.43395524801583e+004,-1.02350718659571e+001,-1.21719258592406e-001

1.45397251732031e+004,-1.02350736821544e+001,-1.23417942350945e-001

1.47426921729110e+004,-1.02350755492681e+001,-1.25140319618248e-001

1.49484924863494e+004,-1.02350774687223e+001,-1.26886720325489e-001

1.51571656651040e+004,-1.02350794419791e+001,-1.28657478981941e-001

1.53687518128801e+004,-1.02350814705425e+001,-1.30452934725226e-001

1.55832915932100e+004,-1.02350835559575e+001,-1.32273431392699e-001

1.58008262372675e+004,-1.02350856998123e+001,-1.34119317581085e-001

1.60213975517924e+004,-1.02350879037391e+001,-1.35990946714928e-001

1.62450479271247e+004,-1.02350901694153e+001,-1.37888677107806e-001

1.64718203453514e+004,-1.02350924985651e+001,-1.39812872031724e-001

1.67017583885674e+004,-1.02350948929600e+001,-1.41763899785367e-001

1.69349062472505e+004,-1.02350973544210e+001,-1.43742133758672e-001

1.71713087287550e+004,-1.02350998848196e+001,-1.45747952504604e-001

1.74110112659224e+004,-1.02351024860786e+001,-1.47781739810081e-001

1.76540599258131e+004,-1.02351051601744e+001,-1.49843884763849e-001

1.79005014185594e+004,-1.02351079091381e+001,-1.51934781829931e-001

1.81503831063432e+004,-1.02351107350567e+001,-1.54054830921345e-001

1.84037530124975e+004,-1.02351136400750e+001,-1.56204437471035e-001

1.86606598307361e+004,-1.02351166263972e+001,-1.58384012507442e-001

1.89211529345119e+004,-1.02351196962879e+001,-1.60593972733365e-001

1.91852823865052e+004,-1.02351228520748e+001,-1.62834740594737e-001

1.94530989482457e+004,-1.02351260961492e+001,-1.65106744367016e-001

1.97246540898671e+004,-1.02351294309686e+001,-1.67410418226168e-001

1.99999999999999e+004,-1.02351328590584e+001,-1.69746202330409e-001

2.02791895958005e+004,-1.02351363830128e+001,-1.72114542904690e-001

2.05622765331213e+004,-1.02351400054985e+001,-1.74515892311650e-001

2.08493152168224e+004,-1.02351437292542e+001,-1.76950709146879e-001

2.11403608112276e+004,-1.02351475570951e+001,-1.79419458310033e-001

2.14354692507258e+004,-1.02351514919128e+001,-1.81922611098700e-001

2.17346972505211e+004,-1.02351555366786e+001,-1.84460645287042e-001

2.20381023175322e+004,-1.02351596944453e+001,-1.87034045214746e-001

2.23457427614443e+004,-1.02351639683495e+001,-1.89643301874850e-001

2.26576777059159e+004,-1.02351683616133e+001,-1.92288912999618e-001

2.29739670999406e+004,-1.02351728775475e+001,-1.94971383153434e-001

2.32946717293690e+004,-1.02351775195527e+001,-1.97691223821299e-001

2.36198532285905e+004,-1.02351822911230e+001,-2.00448953499755e-001

2.39495740923785e+004,-1.02351871958477e+001,-2.03245097789680e-001

2.42838976879009e+004,-1.02351922374141e+001,-2.06080189490828e-001

2.46228882668982e+004,-1.02351974196098e+001,-2.08954768696509e-001

2.49666109780322e+004,-1.02352027463254e+001,-2.11869382890074e-001

2.53151318794055e+004,-1.02352082215578e+001,-2.14824587038265e-001

2.56685179512580e+004,-1.02352138494120e+001,-2.17820943693940e-001

2.60268371088386e+004,-1.02352196341049e+001,-2.20859023091862e-001

2.63901582154578e+004,-1.02352255799674e+001,-2.23939403250567e-001

2.67585510957221e+004,-1.02352316914480e+001,-2.27062670072293e-001

2.71320865489533e+004,-1.02352379731155e+001,-2.30229417448195e-001

2.75108363627948e+004,-1.02352444296620e+001,-2.33440247359027e-001

2.78948733270080e+004,-1.02352510659067e+001,-2.36695769980428e-001

2.82842712474618e+004,-1.02352578867986e+001,-2.39996603789755e-001

2.86791049603164e+004,-1.02352648974199e+001,-2.43343375673007e-001

2.90794503464061e+004,-1.02352721029900e+001,-2.46736721030759e-001

2.94853843458219e+004,-1.02352795088677e+001,-2.50177283892751e-001

2.98969849726987e+004,-1.02352871205567e+001,-2.53665717018952e-001

3.03143313302078e+004,-1.02352949437074e+001,-2.57202682022818e-001

3.07375036257601e+004,-1.02353029841217e+001,-2.60788849473200e-001

3.11665831864199e+004,-1.02353112477566e+001,-2.64424899016401e-001

3.16016524745350e+004,-1.02353197407281e+001,-2.68111519484705e-001

3.20427951035848e+004,-1.02353284693150e+001,-2.71849409016476e-001

3.24900958542493e+004,-1.02353374399635e+001,-2.75639275171546e-001

3.29436406907028e+004,-1.02353466592904e+001,-2.79481835052185e-001

3.34035167771346e+004,-1.02353561340885e+001,-2.83377815418650e-001

3.38698124945009e+004,-1.02353658713305e+001,-2.87327952811631e-001

3.43426174575100e+004,-1.02353758781729e+001,-2.91332993674766e-001

3.48220225318448e+004,-1.02353861619611e+001,-2.95393694478021e-001

3.53081198516260e+004,-1.02353967302343e+001,-2.99510821837234e-001

3.58010028371187e+004,-1.02354075907293e+001,-3.03685152646106e-001

3.63007662126863e+004,-1.02354187513861e+001,-3.07917474195594e-001

3.68075060249948e+004,-1.02354302203523e+001,-3.12208584306397e-001

3.73213196614721e+004,-1.02354420059886e+001,-3.16559291453688e-001

3.78423058690237e+004,-1.02354541168733e+001,-3.20970414898565e-001

3.83705647730104e+004,-1.02354665618078e+001,-3.25442784818803e-001

3.89061978964912e+004,-1.02354793498220e+001,-3.29977242436760e-001

3.94493081797342e+004,-1.02354924901789e+001,-3.34574640159352e-001

3.99999999999998e+004,-1.02355059923816e+001,-3.39235841701642e-001

4.05583791916010e+004,-1.02355198661772e+001,-3.43961722229990e-001

4.11245530662425e+004,-1.02355341215629e+001,-3.48753168495734e-001

4.16986304336447e+004,-1.02355487687929e+001,-3.53611078966286e-001

4.22807216224550e+004,-1.02355638183825e+001,-3.58536363970255e-001

4.28709385014515e+004,-1.02355792811149e+001,-3.63529945831984e-001

4.34693945010421e+004,-1.02355951680474e+001,-3.68592759010817e-001

4.40762046350642e+004,-1.02356114905171e+001,-3.73725750241359e-001

4.46914855228886e+004,-1.02356282601469e+001,-3.78929878677741e-001

4.53153554118317e+004,-1.02356454888525e+001,-3.84206116031203e-001

4.59479341998812e+004,-1.02356631888479e+001,-3.89555446716861e-001

4.65893434587380e+004,-1.02356813726522e+001,-3.94978867994019e-001

4.72397064571810e+004,-1.02357000530964e+001,-4.00477390113105e-001

4.78991481847569e+004,-1.02357192433294e+001,-4.06052036460089e-001

4.85677953758016e+004,-1.02357389568248e+001,-4.11703843702655e-001

4.92457765337964e+004,-1.02357592073878e+001,-4.17433861936321e-001

4.99332219560642e+004,-1.02357800091621e+001,-4.23243154831630e-001

5.06302637588109e+004,-1.02358013766359e+001,-4.29132799783995e-001

5.13370359025159e+004,-1.02358233246496e+001,-4.35103888060146e-001

5.20536742176771e+004,-1.02358458684026e+001,-4.41157524946946e-001

5.27803164309155e+004,-1.02358690234599e+001,-4.47294829903396e-001

5.35171021914442e+004,-1.02358928057591e+001,-4.53516936709476e-001

5.42641730979066e+004,-1.02359172316178e+001,-4.59824993617117e-001

5.50216727255895e+004,-1.02359423177403e+001,-4.66220163500344e-001

5.57897466540159e+004,-1.02359680812245e+001,-4.72703624008016e-001

5.65685424949235e+004,-1.02359945395696e+001,-4.79276567714271e-001

5.73582099206328e+004,-1.02360217106823e+001,-4.85940202272389e-001

5.81589006928121e+004,-1.02360496128841e+001,-4.92695750566599e-001

5.89707686916437e+004,-1.02360782649185e+001,-4.99544450864015e-001

5.97939699453972e+004,-1.02361076859579e+001,-5.06487556966791e-001

6.06286626604156e+004,-1.02361378956098e+001,-5.13526338369358e-001

6.14750072515201e+004,-1.02361689139249e+001,-5.20662080404462e-001

6.23331663728396e+004,-1.02362007614023e+001,-5.27896084404319e-001

6.32033049490698e+004,-1.02362334589974e+001,-5.35229667847324e-001

6.40855902071694e+004,-1.02362670281277e+001,-5.42664164514652e-001

6.49801917084985e+004,-1.02363014906795e+001,-5.50200924642513e-001

6.58872813814055e+004,-1.02363368690137e+001,-5.57841315076462e-001

6.68070335542691e+004,-1.02363731859726e+001,-5.65586719421791e-001

6.77396249890018e+004,-1.02364104648853e+001,-5.73438538198935e-001

6.86852349150199e+004,-1.02364487295732e+001,-5.81398188995065e-001

6.96440450636895e+004,-1.02364880043561e+001,-5.89467106617135e-001

7.06162397032520e+004,-1.02365283140565e+001,-5.97646743242790e-001

7.16020056742374e+004,-1.02365696840058e+001,-6.05938568572685e-001

7.26015324253724e+004,-1.02366121400474e+001,-6.14344069984791e-001

7.36150120499896e+004,-1.02366557085423e+001,-6.22864752681631e-001

7.46426393229441e+004,-1.02367004163722e+001,-6.31502139843767e-001

7.56846117380472e+004,-1.02367462909435e+001,-6.40257772780143e-001

7.67411295460207e+004,-1.02367933601900e+001,-6.49133211079213e-001

7.78123957929823e+004,-1.02368416525765e+001,-6.58130032756206e-001

7.88986163594682e+004,-1.02368911970997e+001,-6.67249834406332e-001

7.99999999999995e+004,-1.02369420232910e+001,-6.76494231351777e-001

8.11167583832018e+004,-1.02369941612171e+001,-6.85864857791122e-001

8.22491061324848e+004,-1.02370476414803e+001,-6.95363366950450e-001

8.33972608672892e+004,-1.02371024952192e+001,-7.04991431227381e-001

8.45614432449099e+004,-1.02371587541073e+001,-7.14750742343807e-001

8.57418770029029e+004,-1.02372164503517e+001,-7.24643011491226e-001

8.69387890020841e+004,-1.02372756166905e+001,-7.34669969481703e-001

8.81524092701283e+004,-1.02373362863906e+001,-7.44833366892654e-001

8.93829710457770e+004,-1.02373984932429e+001,-7.55134974218022e-001

9.06307108236633e+004,-1.02374622715580e+001,-7.65576582013814e-001

9.18958683997622e+004,-1.02375276561604e+001,-7.76160001050352e-001

9.31786869174758e+004,-1.02375946823813e+001,-7.86887062458503e-001

9.44794129143618e+004,-1.02376633860514e+001,-7.97759617881122e-001

9.57982963695136e+004,-1.02377338034915e+001,-8.08779539623107e-001

9.71355907516031e+004,-1.02378059715026e+001,-8.19948720802222e-001

9.84915530675926e+004,-1.02378799273545e+001,-8.31269075502372e-001

9.98664439121282e+004,-1.02379557087731e+001,-8.42742538928794e-001

1.01260527517622e+005,-1.02380333539266e+001,-8.54371067560660e-001

1.02674071805032e+005,-1.02381129014100e+001,-8.66156639311516e-001

1.04107348435354e+005,-1.02381943902282e+001,-8.78101253687041e-001

1.05560632861831e+005,-1.02382778597779e+001,-8.90206931948258e-001

1.07034204382888e+005,-1.02383633498273e+001,-9.02475717275389e-001

1.08528346195813e+005,-1.02384509004947e+001,-9.14909674937642e-001

1.10043345451179e+005,-1.02385405522251e+001,-9.27510892462880e-001

1.11579493308032e+005,-1.02386323457650e+001,-9.40281479814788e-001

1.13137084989847e+005,-1.02387263221353e+001,-9.53223569573651e-001

1.14716419841265e+005,-1.02388225226030e+001,-9.66339317118992e-001

1.16317801385624e+005,-1.02389209886496e+001,-9.79630900823134e-001

1.17941537383287e+005,-1.02390217619386e+001,-9.93100522246124e-001

1.19587939890794e+005,-1.02391248842803e+001,-1.00675040634029e+000

1.21257325320831e+005,-1.02392303975950e+001,-1.02058280165917e+000

1.22950014503040e+005,-1.02393383438732e+001,-1.03459998057872e+000

1.24666332745679e+005,-1.02394487651340e+001,-1.04880423952146e+000

1.26406609898139e+005,-1.02395617033815e+001,-1.06319789919572e+000

1.28171180414339e+005,-1.02396772005578e+001,-1.07778330484135e+000

1.29960383416997e+005,-1.02397952984949e+001,-1.09256282648714e+000

1.31774562762811e+005,-1.02399160388627e+001,-1.10753885922086e+000

1.33614067108538e+005,-1.02400394631161e+001,-1.12271382347119e+000

1.35479249978003e+005,-1.02401656124379e+001,-1.13809016530469e+000

1.37370469830040e+005,-1.02402945276800e+001,-1.15367035673585e+000

1.39288090127379e+005,-1.02404262493027e+001,-1.16945689605286e+000

1.41232479406504e+005,-1.02405608173093e+001,-1.18545230816148e+000

1.43204011348474e+005,-1.02406982711803e+001,-1.20165914494723e+000

1.45203064850745e+005,-1.02408386498037e+001,-1.21807998565184e+000

1.47230024099979e+005,-1.02409819914029e+001,-1.23471743727731e+000

1.49285278645888e+005,-1.02411283334620e+001,-1.25157413500433e+000

1.51369223476094e+005,-1.02412777126486e+001,-1.26865274263776e+000

1.53482259092041e+005,-1.02414301647340e+001,-1.28595595307391e+000

1.55624791585964e+005,-1.02415857245106e+001,-1.30348648879424e+000

1.57797232718936e+005,-1.02417444257071e+001,-1.32124710238315e+000

1.59999999999999e+005,-1.02419063009012e+001,-1.33924057707636e+000

1.62233516766403e+005,-1.02420713814302e+001,-1.35746972733612e+000

1.64498212264969e+005,-1.02422396972981e+001,-1.37593739945985e+000

1.66794521734578e+005,-1.02424112770824e+001,-1.39464647221607e+000

1.69122886489819e+005,-1.02425861478376e+001,-1.41359985751808e+000

1.71483754005805e+005,-1.02427643349968e+001,-1.43280050112837e+000

1.73877578004168e+005,-1.02429458622718e+001,-1.45225138340378e+000

1.76304818540256e+005,-1.02431307515518e+001,-1.47195552007160e+000

1.78765942091554e+005,-1.02433190227999e+001,-1.49191596304943e+000

1.81261421647326e+005,-1.02435106939484e+001,-1.51213580130407e+000

1.83791736799524e+005,-1.02437057807941e+001,-1.53261816174815e+000

1.86357373834951e+005,-1.02439042968909e+001,-1.55336621018447e+000

1.88958825828723e+005,-1.02441062534434e+001,-1.57438315228812e+000

1.91596592739027e+005,-1.02443116591986e+001,-1.59567223463892e+000

1.94271181503206e+005,-1.02445205203389e+001,-1.61723674579515e+000

1.96983106135185e+005,-1.02447328403740e+001,-1.63908001741568e+000

1.99732887824256e+005,-1.02449486200332e+001,-1.66120542543071e+000

2.02521055035243e+005,-1.02451678571598e+001,-1.68361639125846e+000

2.05348143610063e+005,-1.02453905466046e+001,-1.70631638307227e+000

2.08214696870707e+005,-1.02456166801219e+001,-1.72930891711826e+000

2.11121265723661e+005,-1.02458462462671e+001,-1.75259755907993e+000

2.14068408765776e+005,-1.02460792302955e+001,-1.77618592549696e+000

2.17056692391625e+005,-1.02463156140644e+001,-1.80007768523181e+000

2.20086690902357e+005,-1.02465553759373e+001,-1.82427656098740e+000

2.23158986616063e+005,-1.02467984906916e+001,-1.84878633087665e+000

2.26274169979693e+005,-1.02470449294296e+001,-1.87361083004006e+000

2.29432839682530e+005,-1.02472946594933e+001,-1.89875395231572e+000

2.32635602771247e+005,-1.02475476443833e+001,-1.92421965195550e+000

2.35883074766574e+005,-1.02478038436829e+001,-1.95001194539244e+000

2.39175879781588e+005,-1.02480632129867e+001,-1.97613491305340e+000

2.42514650641661e+005,-1.02483257038347e+001,-2.00259270121881e+000

2.45900029006080e+005,-1.02485912636523e+001,-2.02938952392834e+000

2.49332665491357e+005,-1.02488598356963e+001,-2.05652966492694e+000

2.52813219796278e+005,-1.02491313590076e+001,-2.08401747965694e+000

2.56342360828676e+005,-1.02494057683707e+001,-2.11185739728475e+000

2.59920766833993e+005,-1.02496829942796e+001,-2.14005392277055e+000

2.63549125525621e+005,-1.02499629629128e+001,-2.16861163896814e+000

2.67228134217075e+005,-1.02502455961147e+001,-2.19753520876115e+000

2.70958499956006e+005,-1.02505308113853e+001,-2.22682937722845e+000

2.74740939660078e+005,-1.02508185218786e+001,-2.25649897383674e+000

2.78576180254757e+005,-1.02511086364095e+001,-2.28654891465692e+000

2.82464958813007e+005,-1.02514010594685e+001,-2.31698420460409e+000

2.86408022696948e+005,-1.02516956912466e+001,-2.34780993969224e+000

2.90406129701488e+005,-1.02519924276682e+001,-2.37903130930727e+000

2.94460048199957e+005,-1.02522911604333e+001,-2.41065359848850e+000

2.98570557291775e+005,-1.02525917770689e+001,-2.44268219021875e+000

3.02738446952187e+005,-1.02528941609896e+001,-2.47512256772059e+000

3.06964518184081e+005,-1.02531981915670e+001,-2.50798031674889e+000

3.11249583171928e+005,-1.02535037442084e+001,-2.54126112788390e+000

3.15594465437872e+005,-1.02538106904442e+001,-2.57497079881627e+000

3.19999999999997e+005,-1.02541188980243e+001,-2.60911523661962e+000

3.24467033532806e+005,-1.02544282310226e+001,-2.64370046001286e+000

3.28996424529938e+005,-1.02547385499504e+001,-2.67873260160037e+000

3.33589043469155e+005,-1.02550497118774e+001,-2.71421791009274e+000

3.38245772979638e+005,-1.02553615705605e+001,-2.75016275250438e+000

3.42967508011610e+005,-1.02556739765800e+001,-2.78657361631944e+000

3.47755156008335e+005,-1.02559867774825e+001,-2.82345711162935e+000

3.52609637080511e+005,-1.02562998179307e+001,-2.86081997323553e+000

3.57531884183106e+005,-1.02566129398586e+001,-2.89866906271519e+000

3.62522843294651e+005,-1.02569259826329e+001,-2.93701137044575e+000

3.67583473599047e+005,-1.02572387832183e+001,-2.97585401759093e+000

3.72714747669902e+005,-1.02575511763482e+001,-3.01520425804012e+000

3.77917651657445e+005,-1.02578629946983e+001,-3.05506948030301e+000

3.83193185478053e+005,-1.02581740690637e+001,-3.09545720935684e+000

3.88542363006410e+005,-1.02584842285384e+001,-3.13637510844447e+000

3.93966212270369e+005,-1.02587933006962e+001,-3.17783098082461e+000

3.99465775648511e+005,-1.02591011117731e+001,-3.21983277146980e+000

4.05042110070485e+005,-1.02594074868497e+001,-3.26238856871553e+000

4.10696287220124e+005,-1.02597122500335e+001,-3.30550660585787e+000

4.16429393741414e+005,-1.02600152246399e+001,-3.34919526270174e+000

4.22242531447321e+005,-1.02603162333721e+001,-3.39346306705844e+000

4.28136817531551e+005,-1.02606150984969e+001,-3.43831869619723e+000

4.34113384783250e+005,-1.02609116420196e+001,-3.48377097824621e+000

4.40173381804713e+005,-1.02612056858532e+001,-3.52982889355125e+000

4.46317973232124e+005,-1.02614970519838e+001,-3.57650157598819e+000

4.52548339959385e+005,-1.02617855626310e+001,-3.62379831423566e+000

4.58865679365059e+005,-1.02620710404024e+001,-3.67172855300822e+000

4.65271205542494e+005,-1.02623533084410e+001,-3.72030189425321e+000

4.71766149533147e+005,-1.02626321905671e+001,-3.76952809831491e+000

4.78351759563174e+005,-1.02629075114113e+001,-3.81941708506915e+000

4.85029301283321e+005,-1.02631790965402e+001,-3.86997893502981e+000

4.91800058012158e+005,-1.02634467725736e+001,-3.92122389043591e+000

4.98665330982714e+005,-1.02637103672925e+001,-3.97316235631626e+000

5.05626439592555e+005,-1.02639697097382e+001,-4.02580490154215e+000

5.12684721657352e+005,-1.02642246303012e+001,-4.07916225986766e+000

5.19841533667984e+005,-1.02644749608010e+001,-4.13324533096490e+000

5.27098251051240e+005,-1.02647205345545e+001,-4.18806518145644e+000

5.34456268434150e+005,-1.02649611864351e+001,-4.24363304595043e+000

5.41916999912011e+005,-1.02651967529206e+001,-4.29996032808264e+000

