Freq.,VOut,OutRef

1.00000000000000e+004,-1.86317437206150e+001,-2.50630469421833e-001

1.01395947979003e+004,-1.86317457088945e+001,-2.54128886476516e-001

1.02811382665607e+004,-1.86317477530174e+001,-2.57676128838751e-001

1.04246576084112e+004,-1.86317498545502e+001,-2.61272877629343e-001

1.05701804056138e+004,-1.86317520151037e+001,-2.64919823455678e-001

1.07177346253629e+004,-1.86317542363338e+001,-2.68617666545240e-001

1.08673486252606e+004,-1.86317565199425e+001,-2.72367116880882e-001

1.10190511587661e+004,-1.86317588676795e+001,-2.76168894333262e-001

1.11728713807222e+004,-1.86317612813439e+001,-2.80023728799345e-001

1.13288388529580e+004,-1.86317637627845e+001,-2.83932360342189e-001

1.14869835499703e+004,-1.86317663139024e+001,-2.87895539328463e-001

1.16473358646846e+004,-1.86317689366513e+001,-2.91914026578033e-001

1.18099266142953e+004,-1.86317716330401e+001,-2.95988593500329e-001

1.19747870461893e+004,-1.86317744051336e+001,-3.00120022247480e-001

1.21419488439505e+004,-1.86317772550544e+001,-3.04309105859442e-001

1.23114441334492e+004,-1.86317801849843e+001,-3.08556648417499e-001

1.24833054890161e+004,-1.86317831971665e+001,-3.12863465193945e-001

1.26575659397028e+004,-1.86317862939063e+001,-3.17230382810815e-001

1.28342589756290e+004,-1.86317894775740e+001,-3.21658239392646e-001

1.30134185544193e+004,-1.86317927506059e+001,-3.26147884729123e-001

1.31950791077289e+004,-1.86317961155062e+001,-3.30700180435057e-001

1.33792755478611e+004,-1.86317995748492e+001,-3.35316000113333e-001

1.35660432744767e+004,-1.86318031312811e+001,-3.39996229521069e-001

1.37554181813974e+004,-1.86318067875221e+001,-3.44741766738128e-001

1.39474366635040e+004,-1.86318105463681e+001,-3.49553522336185e-001

1.41421356237309e+004,-1.86318144106930e+001,-3.54432419553110e-001

1.43395524801583e+004,-1.86318183834513e+001,-3.59379394464873e-001

1.45397251732031e+004,-1.86318224676794e+001,-3.64395396166166e-001

1.47426921729110e+004,-1.86318266664989e+001,-3.69481386947187e-001

1.49484924863494e+004,-1.86318309831180e+001,-3.74638342476906e-001

1.51571656651040e+004,-1.86318354208347e+001,-3.79867251988566e-001

1.53687518128801e+004,-1.86318399830386e+001,-3.85169118464104e-001

1.55832915932100e+004,-1.86318446732141e+001,-3.90544958825670e-001

1.58008262372675e+004,-1.86318494949424e+001,-3.95995804127168e-001

1.60213975517924e+004,-1.86318544519046e+001,-4.01522699747595e-001

1.62450479271247e+004,-1.86318595478842e+001,-4.07126705590842e-001

1.64718203453514e+004,-1.86318647867702e+001,-4.12808896282093e-001

1.67017583885674e+004,-1.86318701725596e+001,-4.18570361373740e-001

1.69349062472505e+004,-1.86318757093608e+001,-4.24412205548014e-001

1.71713087287550e+004,-1.86318814013962e+001,-4.30335548825960e-001

1.74110112659224e+004,-1.86318872530059e+001,-4.36341526778252e-001

1.76540599258131e+004,-1.86318932686505e+001,-4.42431290738173e-001

1.79005014185594e+004,-1.86318994529146e+001,-4.48606008017623e-001

1.81503831063432e+004,-1.86319058105102e+001,-4.54866862127266e-001

1.84037530124975e+004,-1.86319123462800e+001,-4.61215052997934e-001

1.86606598307361e+004,-1.86319190652012e+001,-4.67651797205549e-001

1.89211529345119e+004,-1.86319259723891e+001,-4.74178328200648e-001

1.91852823865052e+004,-1.86319330731011e+001,-4.80795896535574e-001

1.94530989482457e+004,-1.86319403727400e+001,-4.87505770102788e-001

1.97246540898671e+004,-1.86319478768586e+001,-4.94309234369589e-001

1.99999999999999e+004,-1.86319555911636e+001,-5.01207592617867e-001

2.02791895958005e+004,-1.86319635215196e+001,-5.08202166188716e-001

2.05622765331213e+004,-1.86319716739536e+001,-5.15294294729654e-001

2.08493152168224e+004,-1.86319800546594e+001,-5.22485336441139e-001

2.11403608112276e+004,-1.86319886700022e+001,-5.29776668332091e-001

2.14354692507258e+004,-1.86319975265230e+001,-5.37169686476045e-001

2.17346972505211e+004,-1.86320066309437e+001,-5.44665806268366e-001

2.20381023175322e+004,-1.86320159901718e+001,-5.52266462693300e-001

2.23457427614443e+004,-1.86320256113054e+001,-5.59973110585607e-001

2.26576777059159e+004,-1.86320355016386e+001,-5.67787224903230e-001

2.29739670999406e+004,-1.86320456686666e+001,-5.75710300999385e-001

2.32946717293690e+004,-1.86320561200911e+001,-5.83743854899124e-001

2.36198532285905e+004,-1.86320668638262e+001,-5.91889423579929e-001

2.39495740923785e+004,-1.86320779080036e+001,-6.00148565255230e-001

2.42838976879009e+004,-1.86320892609790e+001,-6.08522859661063e-001

2.46228882668982e+004,-1.86321009313376e+001,-6.17013908348748e-001

2.49666109780322e+004,-1.86321129279005e+001,-6.25623334978378e-001

2.53151318794055e+004,-1.86321252597316e+001,-6.34352785615632e-001

2.56685179512580e+004,-1.86321379361428e+001,-6.43203929037349e-001

2.60268371088386e+004,-1.86321509667021e+001,-6.52178457034038e-001

2.63901582154578e+004,-1.86321643612390e+001,-6.61278084722902e-001

2.67585510957221e+004,-1.86321781298528e+001,-6.70504550857514e-001

2.71320865489533e+004,-1.86321922829189e+001,-6.79859618148517e-001

2.75108363627948e+004,-1.86322068310966e+001,-6.89345073583105e-001

2.78948733270080e+004,-1.86322217853362e+001,-6.98962728751150e-001

2.82842712474618e+004,-1.86322371568871e+001,-7.08714420174533e-001

2.86791049603164e+004,-1.86322529573056e+001,-7.18602009639740e-001

2.90794503464061e+004,-1.86322691984630e+001,-7.28627384535885e-001

2.94853843458219e+004,-1.86322858925538e+001,-7.38792458196775e-001

2.98969849726987e+004,-1.86323030521043e+001,-7.49099170244372e-001

3.03143313302078e+004,-1.86323206899813e+001,-7.59549486941614e-001

3.07375036257601e+004,-1.86323388194010e+001,-7.70145401543862e-001

3.11665831864199e+004,-1.86323574539382e+001,-7.80888934657738e-001

3.16016524745350e+004,-1.86323766075355e+001,-7.91782134604360e-001

3.20427951035848e+004,-1.86323962945130e+001,-8.02827077785477e-001

3.24900958542493e+004,-1.86324165295781e+001,-8.14025869054623e-001

3.29436406907028e+004,-1.86324373278354e+001,-8.25380642092523e-001

3.34035167771346e+004,-1.86324587047974e+001,-8.36893559786293e-001

3.38698124945009e+004,-1.86324806763942e+001,-8.48566814615620e-001

3.43426174575100e+004,-1.86325032589852e+001,-8.60402629038382e-001

3.48220225318448e+004,-1.86325264693692e+001,-8.72403255886851e-001

3.53081198516260e+004,-1.86325503247965e+001,-8.84570978762572e-001

3.58010028371187e+004,-1.86325748429797e+001,-8.96908112440438e-001

3.63007662126863e+004,-1.86326000421058e+001,-9.09417003274347e-001

3.68075060249948e+004,-1.86326259408482e+001,-9.22100029609423e-001

3.73213196614721e+004,-1.86326525583791e+001,-9.34959602195806e-001

3.78423058690237e+004,-1.86326799143817e+001,-9.47998164611518e-001

3.83705647730104e+004,-1.86327080290635e+001,-9.61218193686000e-001

3.89061978964912e+004,-1.86327369231688e+001,-9.74622199930550e-001

3.94493081797342e+004,-1.86327666179931e+001,-9.88212727971234e-001

3.99999999999998e+004,-1.86327971353955e+001,-1.00199235699129e+000

4.05583791916010e+004,-1.86328284978138e+001,-1.01596370117058e+000

4.11245530662425e+004,-1.86328607282781e+001,-1.03012941013801e+000

4.16986304336447e+004,-1.86328938504254e+001,-1.04449216942240e+000

4.22807216224550e+004,-1.86329278885148e+001,-1.05905470091153e+000

4.28709385014515e+004,-1.86329628674423e+001,-1.07381976331509e+000

4.34693945010421e+004,-1.86329988127563e+001,-1.08879015263093e+000

4.40762046350642e+004,-1.86330357506736e+001,-1.10396870261979e+000

4.46914855228886e+004,-1.86330737080951e+001,-1.11935828528046e+000

4.53153554118317e+004,-1.86331127126223e+001,-1.13496181133273e+000

4.59479341998812e+004,-1.86331527925740e+001,-1.15078223070371e+000

4.65893434587380e+004,-1.86331939770032e+001,-1.16682253302085e+000

4.72397064571810e+004,-1.86332362957145e+001,-1.18308574810594e+000

4.78991481847569e+004,-1.86332797792815e+001,-1.19957494647974e+000

4.85677953758016e+004,-1.86333244590645e+001,-1.21629323986569e+000

4.92457765337964e+004,-1.86333703672294e+001,-1.23324378170142e+000

4.99332219560642e+004,-1.86334175367657e+001,-1.25042976765456e+000

5.06302637588109e+004,-1.86334660015049e+001,-1.26785443614519e+000

5.13370359025159e+004,-1.86335157961405e+001,-1.28552106886917e+000

5.20536742176771e+004,-1.86335669562467e+001,-1.30343299132914e+000

5.27803164309155e+004,-1.86336195182984e+001,-1.32159357337035e+000

5.35171021914442e+004,-1.86336735196912e+001,-1.34000622972025e+000

5.42641730979066e+004,-1.86337289987614e+001,-1.35867442053304e+000

5.50216727255895e+004,-1.86337859948068e+001,-1.37760165194045e+000

5.57897466540159e+004,-1.86338445481074e+001,-1.39679147660531e+000

5.65685424949235e+004,-1.86339046999463e+001,-1.41624749428102e+000

5.73582099206328e+004,-1.86339664926317e+001,-1.43597335237478e+000

5.81589006928121e+004,-1.86340299695175e+001,-1.45597274651934e+000

5.89707686916437e+004,-1.86340951750261e+001,-1.47624942114258e+000

5.97939699453972e+004,-1.86341621546696e+001,-1.49680717004930e+000

6.06286626604156e+004,-1.86342309550727e+001,-1.51764983700246e+000

6.14750072515201e+004,-1.86343016239950e+001,-1.53878131631241e+000

6.23331663728396e+004,-1.86343742103533e+001,-1.56020555342755e+000

6.32033049490698e+004,-1.86344487642452e+001,-1.58192654553436e+000

6.40855902071694e+004,-1.86345253369712e+001,-1.60394834215808e+000

6.49801917084985e+004,-1.86346039810586e+001,-1.62627504576898e+000

6.58872813814055e+004,-1.86346847502842e+001,-1.64891081239547e+000

6.68070335542691e+004,-1.86347676996981e+001,-1.67185985223985e+000

6.77396249890018e+004,-1.86348528856469e+001,-1.69512643029888e+000

6.86852349150199e+004,-1.86349403657973e+001,-1.71871486699070e+000

6.96440450636895e+004,-1.86350301991594e+001,-1.74262953878469e+000

7.06162397032520e+004,-1.86351224461106e+001,-1.76687487883702e+000

7.16020056742374e+004,-1.86352171684191e+001,-1.79145537763127e+000

7.26015324253724e+004,-1.86353144292670e+001,-1.81637558362349e+000

7.36150120499896e+004,-1.86354142932739e+001,-1.84164010389162e+000

7.46426393229441e+004,-1.86355168265203e+001,-1.86725360479079e+000

7.56846117380472e+004,-1.86356220965708e+001,-1.89322081261345e+000

7.67411295460207e+004,-1.86357301724966e+001,-1.91954651425379e+000

7.78123957929823e+004,-1.86358411248986e+001,-1.94623555787778e+000

7.88986163594682e+004,-1.86359550259296e+001,-1.97329285359866e+000

7.99999999999995e+004,-1.86360719493168e+001,-2.00072337415662e+000

8.11167583832018e+004,-1.86361919703833e+001,-2.02853215560591e+000

8.22491061324848e+004,-1.86363151660696e+001,-2.05672429800388e+000

8.33972608672892e+004,-1.86364416149544e+001,-2.08530496611070e+000

8.45614432449099e+004,-1.86365713972754e+001,-2.11427939008915e+000

8.57418770029029e+004,-1.86367045949487e+001,-2.14365286621498e+000

8.69387890020841e+004,-1.86368412915887e+001,-2.17343075759001e+000

8.81524092701283e+004,-1.86369815725262e+001,-2.20361849486478e+000

8.93829710457770e+004,-1.86371255248266e+001,-2.23422157696389e+000

9.06307108236633e+004,-1.86372732373071e+001,-2.26524557182132e+000

9.18958683997622e+004,-1.86374248005529e+001,-2.29669611712127e+000

9.31786869174758e+004,-1.86375803069324e+001,-2.32857892104555e+000

9.44794129143618e+004,-1.86377398506120e+001,-2.36089976303086e+000

9.57982963695136e+004,-1.86379035275692e+001,-2.39366449453154e+000

9.71355907516031e+004,-1.86380714356050e+001,-2.42687903979208e+000

9.84915530675926e+004,-1.86382436743553e+001,-2.46054939662733e+000

9.98664439121282e+004,-1.86384203452997e+001,-2.49468163721405e+000

1.01260527517622e+005,-1.86386015517715e+001,-2.52928190888791e+000

1.02674071805032e+005,-1.86387873989635e+001,-2.56435643495540e+000

1.04107348435354e+005,-1.86389779939344e+001,-2.59991151551264e+000

1.05560632861831e+005,-1.86391734456130e+001,-2.63595352827724e+000

1.07034204382888e+005,-1.86393738647997e+001,-2.67248892943191e+000

1.08528346195813e+005,-1.86395793641684e+001,-2.70952425448030e+000

1.10043345451179e+005,-1.86397900582649e+001,-2.74706611911554e+000

1.11579493308032e+005,-1.86400060635040e+001,-2.78512122010379e+000

1.13137084989847e+005,-1.86402274981649e+001,-2.82369633618190e+000

1.14716419841265e+005,-1.86404544823842e+001,-2.86279832897153e+000

1.16317801385624e+005,-1.86406871381472e+001,-2.90243414390795e+000

1.17941537383287e+005,-1.86409255892767e+001,-2.94261081118995e+000

1.19587939890794e+005,-1.86411699614200e+001,-2.98333544674400e+000

1.21257325320831e+005,-1.86414203820330e+001,-3.02461525321134e+000

1.22950014503040e+005,-1.86416769803627e+001,-3.06645752095497e+000

1.24666332745679e+005,-1.86419398874265e+001,-3.10886962908804e+000

1.26406609898139e+005,-1.86422092359901e+001,-3.15185904652574e+000

1.28171180414339e+005,-1.86424851605420e+001,-3.19543333306322e+000

1.29960383416997e+005,-1.86427677972654e+001,-3.23960014047693e+000

1.31774562762811e+005,-1.86430572840087e+001,-3.28436721365551e+000

1.33614067108538e+005,-1.86433537602520e+001,-3.32974239175978e+000

1.35479249978003e+005,-1.86436573670717e+001,-3.37573360941076e+000

1.37370469830040e+005,-1.86439682471027e+001,-3.42234889791313e+000

1.39288090127379e+005,-1.86442865444974e+001,-3.46959638651031e+000

1.41232479406504e+005,-1.86446124048824e+001,-3.51748430367623e+000

1.43204011348474e+005,-1.86449459753127e+001,-3.56602097844458e+000

1.45203064850745e+005,-1.86452874042234e+001,-3.61521484177638e+000

1.47230024099979e+005,-1.86456368413782e+001,-3.66507442797027e+000

1.49285278645888e+005,-1.86459944378169e+001,-3.71560837611536e+000

1.51369223476094e+005,-1.86463603457991e+001,-3.76682543158905e+000

1.53482259092041e+005,-1.86467347187463e+001,-3.81873444760316e+000

1.55624791585964e+005,-1.86471177111823e+001,-3.87134438679880e+000

1.57797232718936e+005,-1.86475094786705e+001,-3.92466432289280e+000

1.59999999999999e+005,-1.86479101777506e+001,-3.97870344237889e+000

1.62233516766403e+005,-1.86483199658727e+001,-4.03347104628391e+000

1.64498212264969e+005,-1.86487390013301e+001,-4.08897655198292e+000

1.66794521734578e+005,-1.86491674431916e+001,-4.14522949507397e+000

1.69122886489819e+005,-1.86496054512315e+001,-4.20223953131683e+000

1.71483754005805e+005,-1.86500531858599e+001,-4.26001643863596e+000

1.73877578004168e+005,-1.86505108080520e+001,-4.31857011918988e+000

1.76304818540256e+005,-1.86509784792774e+001,-4.37791060151104e+000

1.78765942091554e+005,-1.86514563614296e+001,-4.43804804271669e+000

1.81261421647326e+005,-1.86519446167558e+001,-4.49899273079295e+000

1.83791736799524e+005,-1.86524434077881e+001,-4.56075508695425e+000

1.86357373834951e+005,-1.86529528972754e+001,-4.62334566808162e+000

1.88958825828723e+005,-1.86534732481177e+001,-4.68677516923828e+000

1.91596592739027e+005,-1.86540046233022e+001,-4.75105442626771e+000

1.94271181503206e+005,-1.86545471858422e+001,-4.81619441847353e+000

1.96983106135185e+005,-1.86551010987196e+001,-4.88220627138516e+000

1.99732887824256e+005,-1.86556665248308e+001,-4.94910125960626e+000

2.02521055035243e+005,-1.86562436269372e+001,-5.01689080975339e+000

2.05348143610063e+005,-1.86568325676202e+001,-5.08558650347930e+000

2.08214696870707e+005,-1.86574335092426e+001,-5.15520008058710e+000

2.11121265723661e+005,-1.86580466139158e+001,-5.22574344223249e+000

2.14068408765776e+005,-1.86586720434733e+001,-5.29722865421633e+000

2.17056692391625e+005,-1.86593099594524e+001,-5.36966795036675e+000

2.20086690902357e+005,-1.86599605230845e+001,-5.44307373601124e+000

2.23158986616063e+005,-1.86606238952929e+001,-5.51745859153806e+000

2.26274169979693e+005,-1.86613002367019e+001,-5.59283527604715e+000

2.29432839682530e+005,-1.86619897076548e+001,-5.66921673108830e+000

2.32635602771247e+005,-1.86626924682444e+001,-5.74661608448732e+000

2.35883074766574e+005,-1.86634086783539e+001,-5.82504665425571e+000

2.39175879781588e+005,-1.86641384977112e+001,-5.90452195258674e+000

2.42514650641661e+005,-1.86648820859569e+001,-5.98505568993062e+000

2.45900029006080e+005,-1.86656396027247e+001,-6.06666177915049e+000

2.49332665491357e+005,-1.86664112077383e+001,-6.14935433975398e+000

2.52813219796278e+005,-1.86671970609228e+001,-6.23314770219847e+000

2.56342360828676e+005,-1.86679973225318e+001,-6.31805641226686e+000

2.59920766833993e+005,-1.86688121532925e+001,-6.40409523550828e+000

2.63549125525621e+005,-1.86696417145671e+001,-6.49127916174275e+000

2.67228134217075e+005,-1.86704861685324e+001,-6.57962340962338e+000

2.70958499956006e+005,-1.86713456783783e+001,-6.66914343125071e+000

2.74740939660078e+005,-1.86722204085250e+001,-6.75985491683756e+000

2.78576180254757e+005,-1.86731105248603e+001,-6.85177379941540e+000

2.82464958813007e+005,-1.86740161949959e+001,-6.94491625958022e+000

2.86408022696948e+005,-1.86749375885456e+001,-7.03929873026881e+000

2.90406129701488e+005,-1.86758748774229e+001,-7.13493790156343e+000

2.94460048199957e+005,-1.86768282361605e+001,-7.23185072551463e+000

2.98570557291775e+005,-1.86777978422506e+001,-7.33005442098003e+000

3.02738446952187e+005,-1.86787838765072e+001,-7.42956647846946e+000

3.06964518184081e+005,-1.86797865234495e+001,-7.53040466499188e+000

3.11249583171928e+005,-1.86808059717075e+001,-7.63258702889666e+000

3.15594465437872e+005,-1.86818424144483e+001,-7.73613190470358e+000

3.19999999999997e+005,-1.86828960498252e+001,-7.84105791791235e+000

3.24467033532806e+005,-1.86839670814474e+001,-7.94738398978990e+000

3.28996424529938e+005,-1.86850557188707e+001,-8.05512934212331e+000

3.33589043469155e+005,-1.86861621781102e+001,-8.16431350193569e+000

3.38245772979638e+005,-1.86872866821723e+001,-8.27495630615742e+000

3.42967508011610e+005,-1.86884294616079e+001,-8.38707790624683e+000

3.47755156008335e+005,-1.86895907550848e+001,-8.50069877275434e+000

3.52609637080511e+005,-1.86907708099794e+001,-8.61583969982367e+000

3.57531884183106e+005,-1.86919698829870e+001,-8.73252180962560e+000

3.62522843294651e+005,-1.86931882407502e+001,-8.85076655671912e+000

3.67583473599047e+005,-1.86944261605046e+001,-8.97059573233395e+000

3.72714747669902e+005,-1.86956839307409e+001,-9.09203146857092e+000

3.77917651657445e+005,-1.86969618518826e+001,-9.21509624251640e+000

3.83193185478053e+005,-1.86982602369797e+001,-9.33981288026525e+000

3.88542363006410e+005,-1.86995794124151e+001,-9.46620456085104e+000

3.93966212270369e+005,-1.87009197186254e+001,-9.59429482008021e+000

3.99465775648511e+005,-1.87022815108337e+001,-9.72410755426516e+000

4.05042110070485e+005,-1.87036651597941e+001,-9.85566702385895e+000

4.10696287220124e+005,-1.87050710525465e+001,-9.98899785698501e+000

4.16429393741414e+005,-1.87064995931811e+001,-1.01241250528651e+001

4.22242531447321e+005,-1.87079512036127e+001,-1.02610739851412e+001

4.28136817531551e+005,-1.87094263243613e+001,-1.03998704050937e+001

4.34113384783250e+005,-1.87109254153410e+001,-1.05405404447551e+001

4.40173381804713e+005,-1.87124489566547e+001,-1.06831106199197e+001

4.46317973232124e+005,-1.87139974493942e+001,-1.08276078330507e+001

4.52548339959385e+005,-1.87155714164448e+001,-1.09740593760858e+001

4.58865679365059e+005,-1.87171714032938e+001,-1.11224929331436e+001

4.65271205542494e+005,-1.87187979788420e+001,-1.12729365831323e+001

4.71766149533147e+005,-1.87204517362183e+001,-1.14254188022642e+001

4.78351759563174e+005,-1.87221332935949e+001,-1.15799684664765e+001

4.85029301283321e+005,-1.87238432950051e+001,-1.17366148537648e+001

4.91800058012158e+005,-1.87255824111615e+001,-1.18953876464288e+001

4.98665330982714e+005,-1.87273513402735e+001,-1.20563169332370e+001

5.05626439592555e+005,-1.87291508088667e+001,-1.22194332115109e+001

5.12684721657352e+005,-1.87309815726002e+001,-1.23847673891334e+001

5.19841533667984e+005,-1.87328444170846e+001,-1.25523507864875e+001

5.27098251051240e+005,-1.87347401586980e+001,-1.27222151383234e+001

5.34456268434150e+005,-1.87366696454026e+001,-1.28943925955637e+001

5.41916999912011e+005,-1.87386337575589e+001,-1.30689157270463e+001

