Freq.,VOut,OutRef

1.00000000000000e+004,-1.93153947281677e+001,-2.74466218923953e-001

1.01395947979003e+004,-1.93153973214515e+001,-2.78297288942798e-001

1.02811382665607e+004,-1.93153999875696e+001,-2.82181824467160e-001

1.04246576084112e+004,-1.93154027285658e+001,-2.86120571241929e-001

1.05701804056138e+004,-1.93154055465407e+001,-2.90114285399977e-001

1.07177346253629e+004,-1.93154084436538e+001,-2.94163733600858e-001

1.08673486252606e+004,-1.93154114221252e+001,-2.98269693179316e-001

1.10190511587661e+004,-1.93154144842368e+001,-3.02432952292332e-001

1.11728713807222e+004,-1.93154176323349e+001,-3.06654310067173e-001

1.13288388529580e+004,-1.93154208688310e+001,-3.10934576757706e-001

1.14869835499703e+004,-1.93154241962040e+001,-3.15274573894836e-001

1.16473358646846e+004,-1.93154276170027e+001,-3.19675134441756e-001

1.18099266142953e+004,-1.93154311338467e+001,-3.24137102956013e-001

1.19747870461893e+004,-1.93154347494290e+001,-3.28661335746358e-001

1.21419488439505e+004,-1.93154384665178e+001,-3.33248701037378e-001

1.23114441334492e+004,-1.93154422879589e+001,-3.37900079132090e-001

1.24833054890161e+004,-1.93154462166776e+001,-3.42616362580727e-001

1.26575659397028e+004,-1.93154502556807e+001,-3.47398456350151e-001

1.28342589756290e+004,-1.93154544080594e+001,-3.52247277992833e-001

1.30134185544193e+004,-1.93154586769910e+001,-3.57163757823140e-001

1.31950791077289e+004,-1.93154630657417e+001,-3.62148839092372e-001

1.33792755478611e+004,-1.93154675776687e+001,-3.67203478167344e-001

1.35660432744767e+004,-1.93154722162234e+001,-3.72328644711117e-001

1.37554181813974e+004,-1.93154769849531e+001,-3.77525321867106e-001

1.39474366635040e+004,-1.93154818875042e+001,-3.82794506445158e-001

1.41421356237309e+004,-1.93154869276251e+001,-3.88137209106730e-001

1.43395524801583e+004,-1.93154921091686e+001,-3.93554454560088e-001

1.45397251732031e+004,-1.93154974360949e+001,-3.99047281752015e-001

1.47426921729110e+004,-1.93155029124748e+001,-4.04616744061853e-001

1.49484924863494e+004,-1.93155085424928e+001,-4.10263909501789e-001

1.51571656651040e+004,-1.93155143304495e+001,-4.15989860919138e-001

1.53687518128801e+004,-1.93155202807657e+001,-4.21795696198853e-001

1.55832915932100e+004,-1.93155263979855e+001,-4.27682528469506e-001

1.58008262372675e+004,-1.93155326867794e+001,-4.33651486314620e-001

1.60213975517924e+004,-1.93155391519480e+001,-4.39703713983225e-001

1.62450479271247e+004,-1.93155457984255e+001,-4.45840371605040e-001

1.64718203453514e+004,-1.93155526312836e+001,-4.52062635409472e-001

1.67017583885674e+004,-1.93155596557348e+001,-4.58371697945277e-001

1.69349062472505e+004,-1.93155668771371e+001,-4.64768768303962e-001

1.71713087287550e+004,-1.93155743009971e+001,-4.71255072347102e-001

1.74110112659224e+004,-1.93155819329747e+001,-4.77831852934951e-001

1.76540599258131e+004,-1.93155897788869e+001,-4.84500370161215e-001

1.79005014185594e+004,-1.93155978447125e+001,-4.91261901584807e-001

1.81503831063432e+004,-1.93156061365962e+001,-4.98117742472745e-001

1.84037530124975e+004,-1.93156146608537e+001,-5.05069206037896e-001

1.86606598307361e+004,-1.93156234239753e+001,-5.12117623688224e-001

1.89211529345119e+004,-1.93156324326320e+001,-5.19264345270924e-001

1.91852823865052e+004,-1.93156416936796e+001,-5.26510739326432e-001

1.94530989482457e+004,-1.93156512141637e+001,-5.33858193342449e-001

1.97246540898671e+004,-1.93156610013257e+001,-5.41308114010048e-001

1.99999999999999e+004,-1.93156710626072e+001,-5.48861927487948e-001

2.02791895958005e+004,-1.93156814056558e+001,-5.56521079665226e-001

2.05622765331213e+004,-1.93156920383312e+001,-5.64287036429378e-001

2.08493152168224e+004,-1.93157029687100e+001,-5.72161283938307e-001

2.11403608112276e+004,-1.93157142050925e+001,-5.80145328895607e-001

2.14354692507258e+004,-1.93157257560085e+001,-5.88240698826834e-001

2.17346972505211e+004,-1.93157376302231e+001,-5.96448942364117e-001

2.20381023175322e+004,-1.93157498367438e+001,-6.04771629530418e-001

2.23457427614443e+004,-1.93157623848263e+001,-6.13210352028946e-001

2.26576777059159e+004,-1.93157752839820e+001,-6.21766723535480e-001

2.29739670999406e+004,-1.93157885439844e+001,-6.30442379994936e-001

2.32946717293690e+004,-1.93158021748762e+001,-6.39238979922182e-001

2.36198532285905e+004,-1.93158161869767e+001,-6.48158204705842e-001

2.39495740923785e+004,-1.93158305908896e+001,-6.57201758914334e-001

2.42838976879009e+004,-1.93158453975095e+001,-6.66371370611296e-001

2.46228882668982e+004,-1.93158606180312e+001,-6.75668791666311e-001

2.49666109780322e+004,-1.93158762639567e+001,-6.85095798077199e-001

2.53151318794055e+004,-1.93158923471038e+001,-6.94654190292787e-001

2.56685179512580e+004,-1.93159088796146e+001,-7.04345793538814e-001

2.60268371088386e+004,-1.93159258739642e+001,-7.14172458150787e-001

2.63901582154578e+004,-1.93159433429693e+001,-7.24136059908377e-001

2.67585510957221e+004,-1.93159612997973e+001,-7.34238500374761e-001

2.71320865489533e+004,-1.93159797579764e+001,-7.44481707238617e-001

2.75108363627948e+004,-1.93159987314041e+001,-7.54867634664572e-001

2.78948733270080e+004,-1.93160182343575e+001,-7.65398263642221e-001

2.82842712474618e+004,-1.93160382815036e+001,-7.76075602342871e-001

2.86791049603164e+004,-1.93160588879092e+001,-7.86901686479195e-001

2.90794503464061e+004,-1.93160800690515e+001,-7.97878579670743e-001

2.94853843458219e+004,-1.93161018408291e+001,-8.09008373810007e-001

2.98969849726987e+004,-1.93161242195729e+001,-8.20293189437760e-001

3.03143313302078e+004,-1.93161472220575e+001,-8.31735176119116e-001

3.07375036257601e+004,-1.93161708655129e+001,-8.43336512824280e-001

3.11665831864199e+004,-1.93161951676362e+001,-8.55099408316193e-001

3.16016524745350e+004,-1.93162201466037e+001,-8.67026101538837e-001

3.20427951035848e+004,-1.93162458210840e+001,-8.79118862013459e-001

3.24900958542493e+004,-1.93162722102499e+001,-8.91379990237103e-001

3.29436406907028e+004,-1.93162993337918e+001,-9.03811818087202e-001

3.34035167771346e+004,-1.93163272119315e+001,-9.16416709227388e-001

3.38698124945009e+004,-1.93163558654350e+001,-9.29197059522907e-001

3.43426174575100e+004,-1.93163853156275e+001,-9.42155297455865e-001

3.48220225318448e+004,-1.93164155844067e+001,-9.55293884547933e-001

3.53081198516260e+004,-1.93164466942581e+001,-9.68615315786818e-001

3.58010028371187e+004,-1.93164786682697e+001,-9.82122120056665e-001

3.63007662126863e+004,-1.93165115301477e+001,-9.95816860572630e-001

3.68075060249948e+004,-1.93165453042314e+001,-1.00970213532371e+000

3.73213196614721e+004,-1.93165800155098e+001,-1.02378057751491e+000

3.78423058690237e+004,-1.93166156896376e+001,-1.03805485601810e+000

3.83705647730104e+004,-1.93166523529523e+001,-1.05252767582467e+000

3.89061978964912e+004,-1.93166900324906e+001,-1.06720177850647e+000

3.94493081797342e+004,-1.93167287560064e+001,-1.08207994267636e+000

3.99999999999998e+004,-1.93167685519885e+001,-1.09716498445861e+000

4.05583791916010e+004,-1.93168094496783e+001,-1.11245975796070e+000

4.11245530662425e+004,-1.93168514790889e+001,-1.12796715574932e+000

4.16986304336447e+004,-1.93168946710234e+001,-1.14369010933464e+000

4.22807216224550e+004,-1.93169390570951e+001,-1.15963158965554e+000

4.28709385014515e+004,-1.93169846697459e+001,-1.17579460757177e+000

4.34693945010421e+004,-1.93170315422676e+001,-1.19218221435807e+000

4.40762046350642e+004,-1.93170797088214e+001,-1.20879750220769e+000

4.46914855228886e+004,-1.93171292044594e+001,-1.22564360473524e+000

4.53153554118317e+004,-1.93171800651455e+001,-1.24272369748656e+000

4.59479341998812e+004,-1.93172323277769e+001,-1.26004099845482e+000

4.65893434587380e+004,-1.93172860302064e+001,-1.27759876859819e+000

4.72397064571810e+004,-1.93173412112648e+001,-1.29540031236359e+000

4.78991481847569e+004,-1.93173979107834e+001,-1.31344897821467e+000

4.85677953758016e+004,-1.93174561696175e+001,-1.33174815916537e+000

4.92457765337964e+004,-1.93175160296699e+001,-1.35030129331604e+000

4.99332219560642e+004,-1.93175775339147e+001,-1.36911186439488e+000

5.06302637588109e+004,-1.93176407264221e+001,-1.38818340230524e+000

5.13370359025159e+004,-1.93177056523826e+001,-1.40751948367401e+000

5.20536742176771e+004,-1.93177723581324e+001,-1.42712373240924e+000

5.27803164309155e+004,-1.93178408911792e+001,-1.44699982025653e+000

5.35171021914442e+004,-1.93179113002273e+001,-1.46715146736415e+000

5.42641730979066e+004,-1.93179836352046e+001,-1.48758244284996e+000

5.50216727255895e+004,-1.93180579472889e+001,-1.50829656537372e+000

5.57897466540159e+004,-1.93181342889345e+001,-1.52929770371442e+000

5.65685424949235e+004,-1.93182127138999e+001,-1.55058977734813e+000

5.73582099206328e+004,-1.93182932772753e+001,-1.57217675703406e+000

5.81589006928121e+004,-1.93183760355104e+001,-1.59406266540320e+000

5.89707686916437e+004,-1.93184610464425e+001,-1.61625157755036e+000

5.97939699453972e+004,-1.93185483693252e+001,-1.63874762163082e+000

6.06286626604156e+004,-1.93186380648572e+001,-1.66155497946041e+000

6.14750072515201e+004,-1.93187301952108e+001,-1.68467788712139e+000

6.23331663728396e+004,-1.93188248240617e+001,-1.70812063556883e+000

6.32033049490698e+004,-1.93189220166181e+001,-1.73188757124347e+000

6.40855902071694e+004,-1.93190218396506e+001,-1.75598309668840e+000

6.49801917084985e+004,-1.93191243615217e+001,-1.78041167116750e+000

6.58872813814055e+004,-1.93192296522158e+001,-1.80517781128903e+000

6.68070335542691e+004,-1.93193377833695e+001,-1.83028609163401e+000

6.77396249890018e+004,-1.93194488283013e+001,-1.85574114538453e+000

6.86852349150199e+004,-1.93195628620423e+001,-1.88154766495970e+000

6.96440450636895e+004,-1.93196799613659e+001,-1.90771040265420e+000

7.06162397032520e+004,-1.93198002048183e+001,-1.93423417127748e+000

7.16020056742374e+004,-1.93199236727487e+001,-1.96112384480117e+000

7.26015324253724e+004,-1.93200504473388e+001,-1.98838435900675e+000

7.36150120499896e+004,-1.93201806126335e+001,-2.01602071213807e+000

7.46426393229441e+004,-1.93203142545700e+001,-2.04403796555740e+000

7.56846117380472e+004,-1.93204514610076e+001,-2.07244124440525e+000

7.67411295460207e+004,-1.93205923217567e+001,-2.10123573826231e+000

7.78123957929823e+004,-1.93207369286082e+001,-2.13042670181846e+000

7.88986163594682e+004,-1.93208853753613e+001,-2.16001945554251e+000

7.99999999999995e+004,-1.93210377578521e+001,-2.19001938635597e+000

8.11167583832018e+004,-1.93211941739811e+001,-2.22043194831356e+000

8.22491061324848e+004,-1.93213547237401e+001,-2.25126266328413e+000

8.33972608672892e+004,-1.93215195092386e+001,-2.28251712163830e+000

8.45614432449099e+004,-1.93216886347298e+001,-2.31420098293981e+000

8.57418770029029e+004,-1.93218622066351e+001,-2.34631997664005e+000

8.69387890020841e+004,-1.93220403335686e+001,-2.37887990277959e+000

8.81524092701283e+004,-1.93222231263601e+001,-2.41188663269261e+000

8.93829710457770e+004,-1.93224106980772e+001,-2.44534610971745e+000

9.06307108236633e+004,-1.93226031640471e+001,-2.47926434991175e+000

9.18958683997622e+004,-1.93228006418754e+001,-2.51364744277507e+000

9.31786869174758e+004,-1.93230032514663e+001,-2.54850155197424e+000

9.44794129143618e+004,-1.93232111150388e+001,-2.58383291607928e+000

9.57982963695136e+004,-1.93234243571434e+001,-2.61964784930246e+000

9.71355907516031e+004,-1.93236431046763e+001,-2.65595274224639e+000

9.84915530675926e+004,-1.93238674868925e+001,-2.69275406265949e+000

9.98664439121282e+004,-1.93240976354168e+001,-2.73005835619951e+000

1.01260527517622e+005,-1.93243336842532e+001,-2.76787224720588e+000

1.02674071805032e+005,-1.93245757697927e+001,-2.80620243948121e+000

1.04107348435354e+005,-1.93248240308183e+001,-2.84505571708339e+000

1.05560632861831e+005,-1.93250786085088e+001,-2.88443894512804e+000

1.07034204382888e+005,-1.93253396464397e+001,-2.92435907060199e+000

1.08528346195813e+005,-1.93256072905821e+001,-2.96482312319060e+000

1.10043345451179e+005,-1.93258816892996e+001,-3.00583821611665e+000

1.11579493308032e+005,-1.93261629933415e+001,-3.04741154699448e+000

1.13137084989847e+005,-1.93264513558348e+001,-3.08955039869809e+000

1.14716419841265e+005,-1.93267469322723e+001,-3.13226214024826e+000

1.16317801385624e+005,-1.93270498804992e+001,-3.17555422771285e+000

1.17941537383287e+005,-1.93273603606950e+001,-3.21943420513040e+000

1.19587939890794e+005,-1.93276785353543e+001,-3.26390970544925e+000

1.21257325320831e+005,-1.93280045692631e+001,-3.30898845149194e+000

1.22950014503040e+005,-1.93283386294729e+001,-3.35467825693877e+000

1.24666332745679e+005,-1.93286808852710e+001,-3.40098702733891e+000

1.26406609898139e+005,-1.93290315081476e+001,-3.44792276114466e+000

1.28171180414339e+005,-1.93293906717596e+001,-3.49549355077465e+000

1.29960383416997e+005,-1.93297585518911e+001,-3.54370758370638e+000

1.31774562762811e+005,-1.93301353264102e+001,-3.59257314359941e+000

1.33614067108538e+005,-1.93305211752226e+001,-3.64209861145186e+000

1.35479249978003e+005,-1.93309162802210e+001,-3.69229246679178e+000

1.37370469830040e+005,-1.93313208252319e+001,-3.74316328890642e+000

1.39288090127379e+005,-1.93317349959583e+001,-3.79471975810935e+000

1.41232479406504e+005,-1.93321589799189e+001,-3.84697065705122e+000

1.43204011348474e+005,-1.93325929663838e+001,-3.89992487207293e+000

1.45203064850745e+005,-1.93330371463069e+001,-3.95359139460496e+000

1.47230024099979e+005,-1.93334917122549e+001,-4.00797932261698e+000

1.49285278645888e+005,-1.93339568583328e+001,-4.06309786211711e+000

1.51369223476094e+005,-1.93344327801066e+001,-4.11895632870666e+000

1.53482259092041e+005,-1.93349196745223e+001,-4.17556414918959e+000

1.55624791585964e+005,-1.93354177398226e+001,-4.23293086324306e+000

1.57797232718936e+005,-1.93359271754609e+001,-4.29106612514853e+000

1.59999999999999e+005,-1.93364481820117e+001,-4.34997970558912e+000

1.62233516766403e+005,-1.93369809610800e+001,-4.40968149351300e+000

1.64498212264969e+005,-1.93375257152082e+001,-4.47018149806842e+000

1.66794521734578e+005,-1.93380826477805e+001,-4.53148985061130e+000

1.69122886489819e+005,-1.93386519629268e+001,-4.59361680678945e+000

1.71483754005805e+005,-1.93392338654252e+001,-4.65657274870545e+000

1.73877578004168e+005,-1.93398285606031e+001,-4.72036818716124e+000

1.76304818540256e+005,-1.93404362542387e+001,-4.78501376398694e+000

1.78765942091554e+005,-1.93410571524627e+001,-4.85052025445784e+000

1.81261421647326e+005,-1.93416914616595e+001,-4.91689856979988e+000

1.83791736799524e+005,-1.93423393883705e+001,-4.98415975978845e+000

1.86357373834951e+005,-1.93430011391988e+001,-5.05231501544192e+000

1.88958825828723e+005,-1.93436769207155e+001,-5.12137567181166e+000

1.91596592739027e+005,-1.93443669393698e+001,-5.19135321087196e+000

1.94271181503206e+005,-1.93450714014014e+001,-5.26225926451139e+000

1.96983106135185e+005,-1.93457905127579e+001,-5.33410561762711e+000

1.99732887824256e+005,-1.93465244790167e+001,-5.40690421132383e+000

2.02521055035243e+005,-1.93472735053122e+001,-5.48066714622055e+000

2.05348143610063e+005,-1.93480377962700e+001,-5.55540668586171e+000

2.08214696870707e+005,-1.93488175559477e+001,-5.63113526024151e+000

2.11121265723661e+005,-1.93496129877836e+001,-5.70786546943275e+000

2.14068408765776e+005,-1.93504242945549e+001,-5.78561008732895e+000

2.17056692391625e+005,-1.93512516783449e+001,-5.86438206549419e+000

2.20086690902357e+005,-1.93520953405213e+001,-5.94419453712309e+000

2.23158986616063e+005,-1.93529554817253e+001,-6.02506082111027e+000

2.26274169979693e+005,-1.93538323018746e+001,-6.10699442622687e+000

2.29432839682530e+005,-1.93547260001778e+001,-6.19000905540468e+000

2.32635602771247e+005,-1.93556367751651e+001,-6.27411861012493e+000

2.35883074766574e+005,-1.93565648247330e+001,-6.35933719491023e+000

2.39175879781588e+005,-1.93575103462059e+001,-6.44567912191688e+000

2.42514650641661e+005,-1.93584735364145e+001,-6.53315891562451e+000

2.45900029006080e+005,-1.93594545917926e+001,-6.62179131762089e+000

2.49332665491357e+005,-1.93604537084932e+001,-6.71159129147586e+000

2.52813219796278e+005,-1.93614710825238e+001,-6.80257402770259e+000

2.56342360828676e+005,-1.93625069099036e+001,-6.89475494880009e+000

2.59920766833993e+005,-1.93635613868414e+001,-6.98814971437220e+000

2.63549125525621e+005,-1.93646347099368e+001,-7.08277422631771e+000

2.67228134217075e+005,-1.93657270764045e+001,-7.17864463408621e+000

2.70958499956006e+005,-1.93668386843221e+001,-7.27577733999230e+000

2.74740939660078e+005,-1.93679697329034e+001,-7.37418900458236e+000

2.78576180254757e+005,-1.93691204227970e+001,-7.47389655204685e+000

2.82464958813007e+005,-1.93702909564100e+001,-7.57491717567030e+000

2.86408022696948e+005,-1.93714815382589e+001,-7.67726834331169e+000

2.90406129701488e+005,-1.93726923753474e+001,-7.78096780290741e+000

2.94460048199957e+005,-1.93739236775710e+001,-7.88603358798864e+000

2.98570557291775e+005,-1.93751756581493e+001,-7.99248402320321e+000

3.02738446952187e+005,-1.93764485340862e+001,-8.10033772983655e+000

3.06964518184081e+005,-1.93777425266576e+001,-8.20961363131987e+000

3.11249583171928e+005,-1.93790578619274e+001,-8.32033095871806e+000

3.15594465437872e+005,-1.93803947712912e+001,-8.43250925618848e+000

3.19999999999997e+005,-1.93817534920477e+001,-8.54616838640244e+000

3.24467033532806e+005,-1.93831342679975e+001,-8.66132853591737e+000

3.28996424529938e+005,-1.93845373500696e+001,-8.77801022049511e+000

3.33589043469155e+005,-1.93859629969738e+001,-8.89623429035522e+000

3.38245772979638e+005,-1.93874114758807e+001,-9.01602193535422e+000

3.42967508011610e+005,-1.93888830631262e+001,-9.13739469008418e+000

3.47755156008335e+005,-1.93903780449420e+001,-9.26037443888185e+000

3.52609637080511e+005,-1.93918967182100e+001,-9.38498342073992e+000

3.57531884183106e+005,-1.93934393912408e+001,-9.51124423411389e+000

3.62522843294651e+005,-1.93950063845744e+001,-9.63917984161750e+000

3.67583473599047e+005,-1.93965980318027e+001,-9.76881357459951e+000

3.72714747669902e+005,-1.93982146804136e+001,-9.90016913759569e+000

3.77917651657445e+005,-1.93998566926535e+001,-1.00332706126515e+001

3.83193185478053e+005,-1.94015244464098e+001,-1.01681424635084e+001

3.88542363006410e+005,-1.94032183361096e+001,-1.03048095396514e+001

3.93966212270369e+005,-1.94049387736360e+001,-1.04432970802116e+001

3.99465775648511e+005,-1.94066861892583e+001,-1.05836307177222e+001

4.05042110070485e+005,-1.94084610325770e+001,-1.07258364817228e+001

4.10696287220124e+005,-1.94102637734808e+001,-1.08699408022136e+001

4.16429393741414e+005,-1.94120949031155e+001,-1.10159705129525e+001

4.22242531447321e+005,-1.94139549348624e+001,-1.11639528545984e+001

4.28136817531551e+005,-1.94158444053266e+001,-1.13139154776989e+001

4.34113384783250e+005,-1.94177638753322e+001,-1.14658864455209e+001

4.40173381804713e+005,-1.94197139309242e+001,-1.16198942367274e+001

4.46317973232124e+005,-1.94216951843761e+001,-1.17759677478991e+001

4.52548339959385e+005,-1.94237082752020e+001,-1.19341362959044e+001

4.58865679365059e+005,-1.94257538711708e+001,-1.20944296201192e+001

4.65271205542494e+005,-1.94278326693244e+001,-1.22568778844980e+001

4.71766149533147e+005,-1.94299453969954e+001,-1.24215116795028e+001

4.78351759563174e+005,-1.94320928128270e+001,-1.25883620238881e+001

4.85029301283321e+005,-1.94342757077908e+001,-1.27574603663498e+001

4.91800058012158e+005,-1.94364949062050e+001,-1.29288385870405e+001

4.98665330982714e+005,-1.94387512667497e+001,-1.31025289989555e+001

5.05626439592555e+005,-1.94410456834807e+001,-1.32785643491934e+001

5.12684721657352e+005,-1.94433790868398e+001,-1.34569778200964e+001

5.19841533667984e+005,-1.94457524446626e+001,-1.36378030302756e+001

5.27098251051240e+005,-1.94481667631817e+001,-1.38210740355240e+001

5.34456268434150e+005,-1.94506230880268e+001,-1.40068253296238e+001

5.41916999912011e+005,-1.94531225052206e+001,-1.41950918450511e+001

