Freq.,VOut,OutRef

1.00000000000000e+004,-2.10269835954241e+001,-2.68685102839832e-001

1.01395947979003e+004,-2.10269857584139e+001,-2.72435558522661e-001

1.02811382665607e+004,-2.10269879821606e+001,-2.76238358067966e-001

1.04246576084112e+004,-2.10269902683689e+001,-2.80094231723423e-001

1.05701804056138e+004,-2.10269926187920e+001,-2.84003919907756e-001

1.07177346253629e+004,-2.10269950352316e+001,-2.87968173359037e-001

1.08673486252606e+004,-2.10269975195402e+001,-2.91987753273884e-001

1.10190511587661e+004,-2.10270000736220e+001,-2.96063431452204e-001

1.11728713807222e+004,-2.10270026994348e+001,-3.00195990445692e-001

1.13288388529580e+004,-2.10270053989907e+001,-3.04386223708632e-001

1.14869835499703e+004,-2.10270081743587e+001,-3.08634935745087e-001

1.16473358646846e+004,-2.10270110276652e+001,-3.12942942265705e-001

1.18099266142953e+004,-2.10270139610966e+001,-3.17311070340588e-001

1.19747870461893e+004,-2.10270169769003e+001,-3.21740158557518e-001

1.21419488439505e+004,-2.10270200773862e+001,-3.26231057184002e-001

1.23114441334492e+004,-2.10270232649293e+001,-3.30784628325073e-001

1.24833054890161e+004,-2.10270265419711e+001,-3.35401746088656e-001

1.26575659397028e+004,-2.10270299110209e+001,-3.40083296754712e-001

1.28342589756290e+004,-2.10270333746586e+001,-3.44830178939383e-001

1.30134185544193e+004,-2.10270369355360e+001,-3.49643303768414e-001

1.31950791077289e+004,-2.10270405963791e+001,-3.54523595049534e-001

1.33792755478611e+004,-2.10270443599902e+001,-3.59471989448541e-001

1.35660432744767e+004,-2.10270482292499e+001,-3.64489436665104e-001

1.37554181813974e+004,-2.10270522071189e+001,-3.69576899617927e-001

1.39474366635040e+004,-2.10270562966413e+001,-3.74735354620373e-001

1.41421356237309e+004,-2.10270605009458e+001,-3.79965791571561e-001

1.43395524801583e+004,-2.10270648232483e+001,-3.85269214142462e-001

1.45397251732031e+004,-2.10270692668550e+001,-3.90646639964515e-001

1.47426921729110e+004,-2.10270738351641e+001,-3.96099100824034e-001

1.49484924863494e+004,-2.10270785316685e+001,-4.01627642857579e-001

1.51571656651040e+004,-2.10270833599590e+001,-4.07233326749337e-001

1.53687518128801e+004,-2.10270883237262e+001,-4.12917227932299e-001

1.55832915932100e+004,-2.10270934267639e+001,-4.18680436791995e-001

1.58008262372675e+004,-2.10270986729715e+001,-4.24524058872241e-001

1.60213975517924e+004,-2.10271040663573e+001,-4.30449215083276e-001

1.62450479271247e+004,-2.10271096110411e+001,-4.36457041916620e-001

1.64718203453514e+004,-2.10271153112579e+001,-4.42548691654806e-001

1.67017583885674e+004,-2.10271211713604e+001,-4.48725332593655e-001

1.69349062472505e+004,-2.10271271958223e+001,-4.54988149260341e-001

1.71713087287550e+004,-2.10271333892426e+001,-4.61338342635549e-001

1.74110112659224e+004,-2.10271397563477e+001,-4.67777130382580e-001

1.76540599258131e+004,-2.10271463019958e+001,-4.74305747075049e-001

1.79005014185594e+004,-2.10271530311802e+001,-4.80925444429665e-001

1.81503831063432e+004,-2.10271599490331e+001,-4.87637491541716e-001

1.84037530124975e+004,-2.10271670608296e+001,-4.94443175122816e-001

1.86606598307361e+004,-2.10271743719912e+001,-5.01343799744898e-001

1.89211529345119e+004,-2.10271818880902e+001,-5.08340688082079e-001

1.91852823865052e+004,-2.10271896148535e+001,-5.15435181161969e-001

1.94530989482457e+004,-2.10271975581674e+001,-5.22628638615615e-001

1.97246540898671e+004,-2.10272057240814e+001,-5.29922438932032e-001

1.99999999999999e+004,-2.10272141188128e+001,-5.37317979716717e-001

2.02791895958005e+004,-2.10272227487516e+001,-5.44816677954377e-001

2.05622765331213e+004,-2.10272316204649e+001,-5.52419970272101e-001

2.08493152168224e+004,-2.10272407407018e+001,-5.60129313208651e-001

2.11403608112276e+004,-2.10272501163986e+001,-5.67946183486506e-001

2.14354692507258e+004,-2.10272597546835e+001,-5.75872078288366e-001

2.17346972505211e+004,-2.10272696628821e+001,-5.83908515533751e-001

2.20381023175322e+004,-2.10272798485230e+001,-5.92057034163942e-001

2.23457427614443e+004,-2.10272903193428e+001,-6.00319194427262e-001

2.26576777059159e+004,-2.10273010832921e+001,-6.08696578171284e-001

2.29739670999406e+004,-2.10273121485411e+001,-6.17190789133761e-001

2.32946717293690e+004,-2.10273235234861e+001,-6.25803453241194e-001

2.36198532285905e+004,-2.10273352167547e+001,-6.34536218912287e-001

2.39495740923785e+004,-2.10273472372130e+001,-6.43390757360276e-001

2.42838976879009e+004,-2.10273595939715e+001,-6.52368762905605e-001

2.46228882668982e+004,-2.10273722963918e+001,-6.61471953285327e-001

2.49666109780322e+004,-2.10273853540935e+001,-6.70702069974234e-001

2.53151318794055e+004,-2.10273987769611e+001,-6.80060878502967e-001

2.56685179512580e+004,-2.10274125751511e+001,-6.89550168785087e-001

2.60268371088386e+004,-2.10274267590993e+001,-6.99171755445544e-001

2.63901582154578e+004,-2.10274413395284e+001,-7.08927478156194e-001

2.67585510957221e+004,-2.10274563274555e+001,-7.18819201971376e-001

2.71320865489533e+004,-2.10274717342005e+001,-7.28848817669601e-001

2.75108363627948e+004,-2.10274875713934e+001,-7.39018242103453e-001

2.78948733270080e+004,-2.10275038509833e+001,-7.49329418546472e-001

2.82842712474618e+004,-2.10275205852466e+001,-7.59784317048707e-001

2.86791049603164e+004,-2.10275377867956e+001,-7.70384934799123e-001

2.90794503464061e+004,-2.10275554685877e+001,-7.81133296485130e-001

2.94853843458219e+004,-2.10275736439345e+001,-7.92031454664273e-001

2.98969849726987e+004,-2.10275923265109e+001,-8.03081490135419e-001

3.03143313302078e+004,-2.10276115303654e+001,-8.14285512315950e-001

3.07375036257601e+004,-2.10276312699291e+001,-8.25645659624645e-001

3.11665831864199e+004,-2.10276515600265e+001,-8.37164099867876e-001

3.16016524745350e+004,-2.10276724158854e+001,-8.48843030630473e-001

3.20427951035848e+004,-2.10276938531478e+001,-8.60684679672889e-001

3.24900958542493e+004,-2.10277158878806e+001,-8.72691305329358e-001

3.29436406907028e+004,-2.10277385365865e+001,-8.84865196917560e-001

3.34035167771346e+004,-2.10277618162162e+001,-8.97208675144144e-001

3.38698124945009e+004,-2.10277857441791e+001,-9.09724092523383e-001

3.43426174575100e+004,-2.10278103383555e+001,-9.22413833795912e-001

3.48220225318448e+004,-2.10278356171094e+001,-9.35280316353496e-001

3.53081198516260e+004,-2.10278615993003e+001,-9.48325990669181e-001

3.58010028371187e+004,-2.10278883042963e+001,-9.61553340733043e-001

3.63007662126863e+004,-2.10279157519870e+001,-9.74964884490634e-001

3.68075060249948e+004,-2.10279439627973e+001,-9.88563174288848e-001

3.73213196614721e+004,-2.10279729577008e+001,-1.00235079732561e+000

3.78423058690237e+004,-2.10280027582339e+001,-1.01633037610552e+000

3.83705647730104e+004,-2.10280333865100e+001,-1.03050456889988e+000

3.89061978964912e+004,-2.10280648652343e+001,-1.04487607021213e+000

3.94493081797342e+004,-2.10280972177190e+001,-1.05944761124823e+000

3.99999999999998e+004,-2.10281304678980e+001,-1.07422196039409e+000

4.05583791916010e+004,-2.10281646403431e+001,-1.08920192369480e+000

4.11245530662425e+004,-2.10281997602800e+001,-1.10439034534163e+000

4.16986304336447e+004,-2.10282358536043e+001,-1.11979010816411e+000

4.22807216224550e+004,-2.10282729468982e+001,-1.13540413412815e+000

4.28709385014515e+004,-2.10283110674480e+001,-1.15123538483564e+000

4.34693945010421e+004,-2.10283502432610e+001,-1.16728686203547e+000

4.40762046350642e+004,-2.10283905030836e+001,-1.18356160813404e+000

4.46914855228886e+004,-2.10284318764191e+001,-1.20006270671604e+000

4.53153554118317e+004,-2.10284743935466e+001,-1.21679328306594e+000

4.59479341998812e+004,-2.10285180855393e+001,-1.23375650470094e+000

4.65893434587380e+004,-2.10285629842846e+001,-1.25095558190155e+000

4.72397064571810e+004,-2.10286091225027e+001,-1.26839376825543e+000

4.78991481847569e+004,-2.10286565337672e+001,-1.28607436120250e+000

4.85677953758016e+004,-2.10287052525257e+001,-1.30400070258438e+000

4.92457765337964e+004,-2.10287553141198e+001,-1.32217617920391e+000

4.99332219560642e+004,-2.10288067548069e+001,-1.34060422338576e+000

5.06302637588109e+004,-2.10288596117813e+001,-1.35928831354460e+000

5.13370359025159e+004,-2.10289139231964e+001,-1.37823197475923e+000

5.20536742176771e+004,-2.10289697281870e+001,-1.39743877935069e+000

5.27803164309155e+004,-2.10290270668915e+001,-1.41691234746731e+000

5.35171021914442e+004,-2.10290859804756e+001,-1.43665634767424e+000

5.42641730979066e+004,-2.10291465111555e+001,-1.45667449754964e+000

5.50216727255895e+004,-2.10292087022213e+001,-1.47697056428587e+000

5.57897466540159e+004,-2.10292725980618e+001,-1.49754836529539e+000

5.65685424949235e+004,-2.10293382441888e+001,-1.51841176882399e+000

5.73582099206328e+004,-2.10294056872620e+001,-1.53956469456786e+000

5.81589006928121e+004,-2.10294749751142e+001,-1.56101111429766e+000

5.89707686916437e+004,-2.10295461567771e+001,-1.58275505248771e+000

5.97939699453972e+004,-2.10296192825073e+001,-1.60480058694939e+000

6.06286626604156e+004,-2.10296944038125e+001,-1.62715184947259e+000

6.14750072515201e+004,-2.10297715734783e+001,-1.64981302647085e+000

6.23331663728396e+004,-2.10298508455949e+001,-1.67278835963226e+000

6.32033049490698e+004,-2.10299322755849e+001,-1.69608214657788e+000

6.40855902071694e+004,-2.10300159202305e+001,-1.71969874152206e+000

6.49801917084985e+004,-2.10301018377011e+001,-1.74364255594335e+000

6.58872813814055e+004,-2.10301900875824e+001,-1.76791805925505e+000

6.68070335542691e+004,-2.10302807309039e+001,-1.79252977948738e+000

6.77396249890018e+004,-2.10303738301679e+001,-1.81748230397095e+000

6.86852349150199e+004,-2.10304694493785e+001,-1.84278028002816e+000

6.96440450636895e+004,-2.10305676540704e+001,-1.86842841566911e+000

7.06162397032520e+004,-2.10306685113383e+001,-1.89443148029409e+000

7.16020056742374e+004,-2.10307720898665e+001,-1.92079430540136e+000

7.26015324253724e+004,-2.10308784599581e+001,-1.94752178530094e+000

7.36150120499896e+004,-2.10309876935649e+001,-1.97461887783365e+000

7.46426393229441e+004,-2.10310998643171e+001,-2.00209060509775e+000

7.56846117380472e+004,-2.10312150475532e+001,-2.02994205417817e+000

7.67411295460207e+004,-2.10313333203497e+001,-2.05817837788598e+000

7.78123957929823e+004,-2.10314547615514e+001,-2.08680479550037e+000

7.88986163594682e+004,-2.10315794518002e+001,-2.11582659351909e+000

7.99999999999995e+004,-2.10317074735661e+001,-2.14524912641401e+000

8.11167583832018e+004,-2.10318389111760e+001,-2.17507781739287e+000

8.22491061324848e+004,-2.10319738508433e+001,-2.20531815916880e+000

8.33972608672892e+004,-2.10321123806975e+001,-2.23597571473540e+000

8.45614432449099e+004,-2.10322545908130e+001,-2.26705611814827e+000

8.57418770029029e+004,-2.10324005732380e+001,-2.29856507531482e+000

8.69387890020841e+004,-2.10325504220231e+001,-2.33050836478975e+000

8.81524092701283e+004,-2.10327042332492e+001,-2.36289183857885e+000

8.93829710457770e+004,-2.10328621050553e+001,-2.39572142294973e+000

9.06307108236633e+004,-2.10330241376658e+001,-2.42900311925049e+000

9.18958683997622e+004,-2.10331904334173e+001,-2.46274300473629e+000

9.31786869174758e+004,-2.10333610967844e+001,-2.49694723340499e+000

9.44794129143618e+004,-2.10335362344059e+001,-2.53162203683953e+000

9.57982963695136e+004,-2.10337159551088e+001,-2.56677372506175e+000

9.71355907516031e+004,-2.10339003699329e+001,-2.60240868739351e+000

9.84915530675926e+004,-2.10340895921545e+001,-2.63853339332748e+000

9.98664439121282e+004,-2.10342837373077e+001,-2.67515439341099e+000

1.01260527517622e+005,-2.10344829232072e+001,-2.71227832013555e+000

1.02674071805032e+005,-2.10346872699681e+001,-2.74991188884146e+000

1.04107348435354e+005,-2.10348969000253e+001,-2.78806189863306e+000

1.05560632861831e+005,-2.10351119381524e+001,-2.82673523330418e+000

1.07034204382888e+005,-2.10353325114787e+001,-2.86593886227940e+000

1.08528346195813e+005,-2.10355587495049e+001,-2.90567984156646e+000

1.10043345451179e+005,-2.10357907841179e+001,-2.94596531472355e+000

1.11579493308032e+005,-2.10360287496046e+001,-2.98680251384112e+000

1.13137084989847e+005,-2.10362727826631e+001,-3.02819876054026e+000

1.14716419841265e+005,-2.10365230224135e+001,-3.07016146698570e+000

1.16317801385624e+005,-2.10367796104065e+001,-3.11269813691884e+000

1.17941537383287e+005,-2.10370426906310e+001,-3.15581636670578e+000

1.19587939890794e+005,-2.10373124095197e+001,-3.19952384640767e+000

1.21257325320831e+005,-2.10375889159527e+001,-3.24382836086895e+000

1.22950014503040e+005,-2.10378723612600e+001,-3.28873779082882e+000

1.24666332745679e+005,-2.10381628992219e+001,-3.33426011405367e+000

1.26406609898139e+005,-2.10384606860676e+001,-3.38040340649517e+000

1.28171180414339e+005,-2.10387658804719e+001,-3.42717584347049e+000

1.29960383416997e+005,-2.10390786435502e+001,-3.47458570087275e+000

1.31774562762811e+005,-2.10393991388513e+001,-3.52264135640568e+000

1.33614067108538e+005,-2.10397275323489e+001,-3.57135129084953e+000

1.35479249978003e+005,-2.10400639924305e+001,-3.62072408935682e+000

1.37370469830040e+005,-2.10404086898850e+001,-3.67076844278060e+000

1.39288090127379e+005,-2.10407617978879e+001,-3.72149314903723e+000

1.41232479406504e+005,-2.10411234919851e+001,-3.77290711450371e+000

1.43204011348474e+005,-2.10414939500749e+001,-3.82501935545264e+000

1.45203064850745e+005,-2.10418733523879e+001,-3.87783899952665e+000

1.47230024099979e+005,-2.10422618814657e+001,-3.93137528725373e+000

1.49285278645888e+005,-2.10426597221373e+001,-3.98563757360478e+000

1.51369223476094e+005,-2.10430670614950e+001,-4.04063532959706e+000

1.53482259092041e+005,-2.10434840888680e+001,-4.09637814394312e+000

1.55624791585964e+005,-2.10439109957956e+001,-4.15287572474856e+000

1.57797232718936e+005,-2.10443479759983e+001,-4.21013790126279e+000

1.59999999999999e+005,-2.10447952253488e+001,-4.26817462567924e+000

1.62233516766403e+005,-2.10452529418424e+001,-4.32699597499273e+000

1.64498212264969e+005,-2.10457213255656e+001,-4.38661215291356e+000

1.66794521734578e+005,-2.10462005786661e+001,-4.44703349184044e+000

1.69122886489819e+005,-2.10466909053217e+001,-4.50827045489419e+000

1.71483754005805e+005,-2.10471925117093e+001,-4.57033363801617e+000

1.73877578004168e+005,-2.10477056059754e+001,-4.63323377212996e+000

1.76304818540256e+005,-2.10482303982068e+001,-4.69698172537300e+000

1.78765942091554e+005,-2.10487671004019e+001,-4.76158850539548e+000

1.81261421647326e+005,-2.10493159264455e+001,-4.82706526173149e+000

1.83791736799524e+005,-2.10498770920834e+001,-4.89342328824335e+000

1.86357373834951e+005,-2.10504508149010e+001,-4.96067402564086e+000

1.88958825828723e+005,-2.10510373143039e+001,-5.02882906407754e+000

1.91596592739027e+005,-2.10516368115024e+001,-5.09790014582472e+000

1.94271181503206e+005,-2.10522495294995e+001,-5.16789916802520e+000

1.96983106135185e+005,-2.10528756930835e+001,-5.23883818552979e+000

1.99732887824256e+005,-2.10535155288255e+001,-5.31072941381320e+000

2.02521055035243e+005,-2.10541692650824e+001,-5.38358523197697e+000

2.05348143610063e+005,-2.10548371320060e+001,-5.45741818583353e+000

2.08214696870707e+005,-2.10555193615592e+001,-5.53224099107698e+000

2.11121265723661e+005,-2.10562161875390e+001,-5.60806653653928e+000

2.14068408765776e+005,-2.10569278456083e+001,-5.68490788753136e+000

2.17056692391625e+005,-2.10576545733358e+001,-5.76277828927100e+000

2.20086690902357e+005,-2.10583966102458e+001,-5.84169117039555e+000

2.23158986616063e+005,-2.10591541978781e+001,-5.92166014656011e+000

2.26274169979693e+005,-2.10599275798588e+001,-6.00269902412033e+000

2.29432839682530e+005,-2.10607170019824e+001,-6.08482180389801e+000

2.32635602771247e+005,-2.10615227123071e+001,-6.16804268502920e+000

2.35883074766574e+005,-2.10623449612626e+001,-6.25237606889268e+000

2.39175879781588e+005,-2.10631840017714e+001,-6.33783656311771e+000

2.42514650641661e+005,-2.10640400893863e+001,-6.42443898566602e+000

2.45900029006080e+005,-2.10649134824412e+001,-6.51219836899033e+000

2.49332665491357e+005,-2.10658044422198e+001,-6.60112996426215e+000

2.52813219796278e+005,-2.10667132331399e+001,-6.69124924566747e+000

2.56342360828676e+005,-2.10676401229559e+001,-6.78257191476701e+000

2.59920766833993e+005,-2.10685853829794e+001,-6.87511390491684e+000

2.63549125525621e+005,-2.10695492883183e+001,-6.96889138574568e+000

2.67228134217075e+005,-2.10705321181357e+001,-7.06392076768255e+000

2.70958499956006e+005,-2.10715341559289e+001,-7.16021870653289e+000

2.74740939660078e+005,-2.10725556898291e+001,-7.25780210809660e+000

2.78576180254757e+005,-2.10735970129219e+001,-7.35668813282172e+000

2.82464958813007e+005,-2.10746584235898e+001,-7.45689420049013e+000

2.86408022696948e+005,-2.10757402258767e+001,-7.55843799492763e+000

2.90406129701488e+005,-2.10768427298749e+001,-7.66133746873458e+000

2.94460048199957e+005,-2.10779662521350e+001,-7.76561084802782e+000

2.98570557291775e+005,-2.10791111160986e+001,-7.87127663719013e+000

3.02738446952187e+005,-2.10802776525543e+001,-7.97835362361943e+000

3.06964518184081e+005,-2.10814662001181e+001,-8.08686088247087e+000

3.11249583171928e+005,-2.10826771057358e+001,-8.19681778138587e+000

3.15594465437872e+005,-2.10839107252104e+001,-8.30824398519994e+000

3.19999999999997e+005,-2.10851674237524e+001,-8.42115946062418e+000

3.24467033532806e+005,-2.10864475765540e+001,-8.53558448089139e+000

3.28996424529938e+005,-2.10877515693861e+001,-8.65153963036182e+000

3.33589043469155e+005,-2.10890797992193e+001,-8.76904580908122e+000

3.38245772979638e+005,-2.10904326748668e+001,-8.88812423728339e+000

3.42967508011610e+005,-2.10918106176506e+001,-9.00879645983234e+000

3.47755156008335e+005,-2.10932140620896e+001,-9.13108435059661e+000

3.52609637080511e+005,-2.10946434566094e+001,-9.25501011675018e+000

3.57531884183106e+005,-2.10960992642731e+001,-9.38059630299254e+000

3.62522843294651e+005,-2.10975819635328e+001,-9.50786579568493e+000

3.67583473599047e+005,-2.10990920490015e+001,-9.63684182689449e+000

3.72714747669902e+005,-2.11006300322436e+001,-9.76754797834289e+000

3.77917651657445e+005,-2.11021964425850e+001,-9.90000818525369e+000

3.83193185478053e+005,-2.11037918279401e+001,-1.00342467400954e+001

3.88542363006410e+005,-2.11054167556569e+001,-1.01702882962135e+001

3.93966212270369e+005,-2.11070718133776e+001,-1.03081578713517e+001

3.99465775648511e+005,-2.11087576099158e+001,-1.04478808510545e+001

4.05042110070485e+005,-2.11104747761476e+001,-1.05894829919519e+001

4.10696287220124e+005,-2.11122239659169e+001,-1.07329904249222e+001

4.16429393741414e+005,-2.11140058569538e+001,-1.08784296581303e+001

4.22242531447321e+005,-2.11158211518055e+001,-1.10258275799410e+001

4.28136817531551e+005,-2.11176705787783e+001,-1.11752114617047e+001

4.34113384783250e+005,-2.11195548928902e+001,-1.13266089604164e+001

4.40173381804713e+005,-2.11214748768336e+001,-1.14800481212452e+001

4.46317973232124e+005,-2.11234313419470e+001,-1.16355573799356e+001

4.52548339959385e+005,-2.11254251291948e+001,-1.17931655650806e+001

4.58865679365059e+005,-2.11274571101549e+001,-1.19529019002668e+001

4.65271205542494e+005,-2.11295281880134e+001,-1.21147960060916e+001

4.71766149533147e+005,-2.11316392985650e+001,-1.22788779020551e+001

4.78351759563174e+005,-2.11337914112201e+001,-1.24451780083259e+001

4.85029301283321e+005,-2.11359855300161e+001,-1.26137271473845e+001

4.91800058012158e+005,-2.11382226946341e+001,-1.27845565455436e+001

4.98665330982714e+005,-2.11405039814196e+001,-1.29576978343482e+001

5.05626439592555e+005,-2.11428305044070e+001,-1.31331830518578e+001

5.12684721657352e+005,-2.11452034163480e+001,-1.33110446438112e+001

5.19841533667984e+005,-2.11476239097429e+001,-1.34913154646765e+001

5.27098251051240e+005,-2.11500932178755e+001,-1.36740287785884e+001

5.34456268434150e+005,-2.11526126158501e+001,-1.38592182601735e+001

5.41916999912011e+005,-2.11551834216325e+001,-1.40469179952663e+001

