Freq.,VOut,OutRef

1.00000000000000e+004,-1.42095180872257e+001,-4.05001393247301e-002

1.01395947979003e+004,-1.42095186307961e+001,-4.10654092743115e-002

1.02811382665607e+004,-1.42095191896278e+001,-4.16385662439501e-002

1.04246576084112e+004,-1.42095197641495e+001,-4.22197201637263e-002

1.05701804056138e+004,-1.42095203548008e+001,-4.28089824980584e-002

1.07177346253629e+004,-1.42095209620339e+001,-4.34064662581382e-002

1.08673486252606e+004,-1.42095215863137e+001,-4.40122860261953e-002

1.10190511587661e+004,-1.42095222281179e+001,-4.46265579757446e-002

1.11728713807222e+004,-1.42095228879377e+001,-4.52493998922902e-002

1.13288388529580e+004,-1.42095235662782e+001,-4.58809311985625e-002

1.14869835499703e+004,-1.42095242636581e+001,-4.65212729764867e-002

1.16473358646846e+004,-1.42095249806112e+001,-4.71705479854635e-002

1.18099266142953e+004,-1.42095257176855e+001,-4.78288806947360e-002

1.19747870461893e+004,-1.42095264754451e+001,-4.84963972938830e-002

1.21419488439505e+004,-1.42095272544692e+001,-4.91732257292324e-002

1.23114441334492e+004,-1.42095280553535e+001,-4.98594957190174e-002

1.24833054890161e+004,-1.42095288787106e+001,-5.05553387802218e-002

1.26575659397028e+004,-1.42095297251689e+001,-5.12608882611932e-002

1.28342589756290e+004,-1.42095305953761e+001,-5.19762793481980e-002

1.30134185544193e+004,-1.42095314899966e+001,-5.27016491112094e-002

1.31950791077289e+004,-1.42095324097142e+001,-5.34371365132558e-002

1.33792755478611e+004,-1.42095333552312e+001,-5.41828824479748e-002

1.35660432744767e+004,-1.42095343272696e+001,-5.49390297601413e-002

1.37554181813974e+004,-1.42095353265717e+001,-5.57057232710279e-002

1.39474366635040e+004,-1.42095363539001e+001,-5.64831098117999e-002

1.41421356237309e+004,-1.42095374100392e+001,-5.72713382426568e-002

1.43395524801583e+004,-1.42095384957949e+001,-5.80705594855008e-002

1.45397251732031e+004,-1.42095396119951e+001,-5.88809265543731e-002

1.47426921729110e+004,-1.42095407594917e+001,-5.97025945767545e-002

1.49484924863494e+004,-1.42095419391591e+001,-6.05357208293110e-002

1.51571656651040e+004,-1.42095431518975e+001,-6.13804647592770e-002

1.53687518128801e+004,-1.42095443986307e+001,-6.22369880232512e-002

1.55832915932100e+004,-1.42095456803089e+001,-6.31054545107992e-002

1.58008262372675e+004,-1.42095469979085e+001,-6.39860303762585e-002

1.60213975517924e+004,-1.42095483524329e+001,-6.48788840696370e-002

1.62450479271247e+004,-1.42095497449138e+001,-6.57841863663426e-002

1.64718203453514e+004,-1.42095511764109e+001,-6.67021104019353e-002

1.67017583885674e+004,-1.42095526480142e+001,-6.76328316970731e-002

1.69349062472505e+004,-1.42095541608428e+001,-6.85765282016900e-002

1.71713087287550e+004,-1.42095557160474e+001,-6.95333803146124e-002

1.74110112659224e+004,-1.42095573148106e+001,-7.05035709248129e-002

1.76540599258131e+004,-1.42095589583476e+001,-7.14872854425700e-002

1.79005014185594e+004,-1.42095606479075e+001,-7.24847118294902e-002

1.81503831063432e+004,-1.42095623847735e+001,-7.34960406417561e-002

1.84037530124975e+004,-1.42095641702647e+001,-7.45214650560154e-002

1.86606598307361e+004,-1.42095660057368e+001,-7.55611809072933e-002

1.89211529345119e+004,-1.42095678925818e+001,-7.66153867308085e-002

1.91852823865052e+004,-1.42095698322319e+001,-7.76842837835145e-002

1.94530989482457e+004,-1.42095718261575e+001,-7.87680760968488e-002

1.97246540898671e+004,-1.42095738758697e+001,-7.98669705040510e-002

1.99999999999999e+004,-1.42095759829222e+001,-8.09811766754486e-002

2.02791895958005e+004,-1.42095781489104e+001,-8.21109071656017e-002

2.05622765331213e+004,-1.42095803754743e+001,-8.32563774429136e-002

2.08493152168224e+004,-1.42095826642985e+001,-8.44178059335292e-002

2.11403608112276e+004,-1.42095850171145e+001,-8.55954140565715e-002

2.14354692507258e+004,-1.42095874357013e+001,-8.67894262643235e-002

2.17346972505211e+004,-1.42095899218864e+001,-8.80000700867914e-002

2.20381023175322e+004,-1.42095924775477e+001,-8.92275761655861e-002

2.23457427614443e+004,-1.42095951046146e+001,-9.04721783002661e-002

2.26576777059159e+004,-1.42095978050696e+001,-9.17341134840681e-002

2.29739670999406e+004,-1.42096005809489e+001,-9.30136219537507e-002

2.32946717293690e+004,-1.42096034343453e+001,-9.43109472216271e-002

2.36198532285905e+004,-1.42096063674083e+001,-9.56263361281497e-002

2.39495740923785e+004,-1.42096093823461e+001,-9.69600388795661e-002

2.42838976879009e+004,-1.42096124814273e+001,-9.83123090946796e-002

2.46228882668982e+004,-1.42096156669828e+001,-9.96834038431589e-002

2.49666109780322e+004,-1.42096189414064e+001,-1.01073583698850e-001

2.53151318794055e+004,-1.42096223071574e+001,-1.02483112779889e-001

2.56685179512580e+004,-1.42096257667623e+001,-1.03912258791695e-001

2.60268371088386e+004,-1.42096293228158e+001,-1.05361293081613e-001

2.63901582154578e+004,-1.42096329779834e+001,-1.06830490676851e-001

2.67585510957221e+004,-1.42096367350030e+001,-1.08320130335891e-001

2.71320865489533e+004,-1.42096405966865e+001,-1.09830494595751e-001

2.75108363627948e+004,-1.42096445659218e+001,-1.11361869820528e-001

2.78948733270080e+004,-1.42096486456755e+001,-1.12914546247674e-001

2.82842712474618e+004,-1.42096528389939e+001,-1.14488818037941e-001

2.86791049603164e+004,-1.42096571490057e+001,-1.16084983327362e-001

2.90794503464061e+004,-1.42096615789237e+001,-1.17703344273955e-001

2.94853843458219e+004,-1.42096661320475e+001,-1.19344207110848e-001

2.98969849726987e+004,-1.42096708117653e+001,-1.21007882194091e-001

3.03143313302078e+004,-1.42096756215564e+001,-1.22694684056525e-001

3.07375036257601e+004,-1.42096805649936e+001,-1.24404931458473e-001

3.11665831864199e+004,-1.42096856457446e+001,-1.26138947444123e-001

3.16016524745350e+004,-1.42096908675763e+001,-1.27897059385378e-001

3.20427951035848e+004,-1.42096962343554e+001,-1.29679599044725e-001

3.24900958542493e+004,-1.42097017500520e+001,-1.31486902624493e-001

3.29436406907028e+004,-1.42097074187421e+001,-1.33319310819517e-001

3.34035167771346e+004,-1.42097132446100e+001,-1.35177168874953e-001

3.38698124945009e+004,-1.42097192319507e+001,-1.37060826641156e-001

3.43426174575100e+004,-1.42097253851735e+001,-1.38970638626346e-001

3.48220225318448e+004,-1.42097317088039e+001,-1.40906964057361e-001

3.53081198516260e+004,-1.42097382074874e+001,-1.42870166929873e-001

3.58010028371187e+004,-1.42097448859916e+001,-1.44860616070303e-001

3.63007662126863e+004,-1.42097517492096e+001,-1.46878685190893e-001

3.68075060249948e+004,-1.42097588021630e+001,-1.48924752948468e-001

3.73213196614721e+004,-1.42097660500052e+001,-1.50999203000213e-001

3.78423058690237e+004,-1.42097734980238e+001,-1.53102424065288e-001

3.83705647730104e+004,-1.42097811516449e+001,-1.55234809981263e-001

3.89061978964912e+004,-1.42097890164358e+001,-1.57396759762933e-001

3.94493081797342e+004,-1.42097970981084e+001,-1.59588677663436e-001

3.99999999999998e+004,-1.42098054025222e+001,-1.61810973235276e-001

4.05583791916010e+004,-1.42098139356891e+001,-1.64064061385398e-001

4.11245530662425e+004,-1.42098227037751e+001,-1.66348362441623e-001

4.16986304336447e+004,-1.42098317131056e+001,-1.68664302209540e-001

4.22807216224550e+004,-1.42098409701678e+001,-1.71012312035440e-001

4.28709385014515e+004,-1.42098504816150e+001,-1.73392828867612e-001

4.34693945010421e+004,-1.42098602542703e+001,-1.75806295315810e-001

4.40762046350642e+004,-1.42098702951304e+001,-1.78253159716961e-001

4.46914855228886e+004,-1.42098806113696e+001,-1.80733876192440e-001

4.53153554118317e+004,-1.42098912103432e+001,-1.83248904716822e-001

4.59479341998812e+004,-1.42099020995921e+001,-1.85798711173983e-001

4.65893434587380e+004,-1.42099132868470e+001,-1.88383767421837e-001

4.72397064571810e+004,-1.42099247800317e+001,-1.91004551358221e-001

4.78991481847569e+004,-1.42099365872677e+001,-1.93661546979604e-001

4.85677953758016e+004,-1.42099487168786e+001,-1.96355244446239e-001

4.92457765337964e+004,-1.42099611773940e+001,-1.99086140146890e-001

4.99332219560642e+004,-1.42099739775541e+001,-2.01854736756721e-001

5.06302637588109e+004,-1.42099871263134e+001,-2.04661543307897e-001

5.13370359025159e+004,-1.42100006328460e+001,-2.07507075247213e-001

5.20536742176771e+004,-1.42100145065493e+001,-2.10391854500725e-001

5.27803164309155e+004,-1.42100287570486e+001,-2.13316409538713e-001

5.35171021914442e+004,-1.42100433942017e+001,-2.16281275437208e-001

5.42641730979066e+004,-1.42100584281032e+001,-2.19286993942708e-001

5.50216727255895e+004,-1.42100738690893e+001,-2.22334113531822e-001

5.57897466540159e+004,-1.42100897277415e+001,-2.25423189480334e-001

5.65685424949235e+004,-1.42101060148929e+001,-2.28554783917306e-001

5.73582099206328e+004,-1.42101227416305e+001,-2.31729465896047e-001

5.81589006928121e+004,-1.42101399193012e+001,-2.34947811453312e-001

5.89707686916437e+004,-1.42101575595161e+001,-2.38210403667388e-001

5.97939699453972e+004,-1.42101756741549e+001,-2.41517832725610e-001

6.06286626604156e+004,-1.42101942753699e+001,-2.44870695985385e-001

6.14750072515201e+004,-1.42102133755916e+001,-2.48269598029188e-001

6.23331663728396e+004,-1.42102329875320e+001,-2.51715150733725e-001

6.32033049490698e+004,-1.42102531241897e+001,-2.55207973325035e-001

6.40855902071694e+004,-1.42102737988539e+001,-2.58748692439096e-001

6.49801917084985e+004,-1.42102950251089e+001,-2.62337942182575e-001

6.58872813814055e+004,-1.42103168168381e+001,-2.65976364191702e-001

6.68070335542691e+004,-1.42103391882281e+001,-2.69664607690658e-001

6.77396249890018e+004,-1.42103621537733e+001,-2.73403329548315e-001

6.86852349150199e+004,-1.42103857282788e+001,-2.77193194337174e-001

6.96440450636895e+004,-1.42104099268653e+001,-2.81034874389172e-001

7.06162397032520e+004,-1.42104347649717e+001,-2.84929049854429e-001

7.16020056742374e+004,-1.42104602583596e+001,-2.88876408753263e-001

7.26015324253724e+004,-1.42104864231160e+001,-2.92877647033501e-001

7.36150120499896e+004,-1.42105132756566e+001,-2.96933468624144e-001

7.46426393229441e+004,-1.42105408327295e+001,-3.01044585488033e-001

7.56846117380472e+004,-1.42105691114167e+001,-3.05211717676886e-001

7.67411295460207e+004,-1.42105981291380e+001,-3.09435593381217e-001

7.78123957929823e+004,-1.42106279036521e+001,-3.13716948984673e-001

7.88986163594682e+004,-1.42106584530597e+001,-3.18056529111330e-001

7.99999999999995e+004,-1.42106897958048e+001,-3.22455086677480e-001

8.11167583832018e+004,-1.42107219506757e+001,-3.26913382943122e-001

8.22491061324848e+004,-1.42107549368072e+001,-3.31432187555506e-001

8.33972608672892e+004,-1.42107887736805e+001,-3.36012278602268e-001

8.45614432449099e+004,-1.42108234811243e+001,-3.40654442654550e-001

8.57418770029029e+004,-1.42108590793137e+001,-3.45359474817768e-001

8.69387890020841e+004,-1.42108955887713e+001,-3.50128178772385e-001

8.81524092701283e+004,-1.42109330303652e+001,-3.54961366824942e-001

8.93829710457770e+004,-1.42109714253081e+001,-3.59859859947910e-001

9.06307108236633e+004,-1.42110107951555e+001,-3.64824487827834e-001

9.18958683997622e+004,-1.42110511618030e+001,-3.69856088907456e-001

9.31786869174758e+004,-1.42110925474838e+001,-3.74955510429230e-001

9.44794129143618e+004,-1.42111349747652e+001,-3.80123608477192e-001

9.57982963695136e+004,-1.42111784665434e+001,-3.85361248026085e-001

9.71355907516031e+004,-1.42112230460403e+001,-3.90669302975388e-001

9.84915530675926e+004,-1.42112687367970e+001,-3.96048656198453e-001

9.98664439121282e+004,-1.42113155626672e+001,-4.01500199586208e-001

1.01260527517622e+005,-1.42113635478116e+001,-4.07024834084718e-001

1.02674071805032e+005,-1.42114127166884e+001,-4.12623469745885e-001

1.04107348435354e+005,-1.42114630940462e+001,-4.18297025766834e-001

1.05560632861831e+005,-1.42115147049137e+001,-4.24046430536265e-001

1.07034204382888e+005,-1.42115675745892e+001,-4.29872621682546e-001

1.08528346195813e+005,-1.42116217286295e+001,-4.35776546119856e-001

1.10043345451179e+005,-1.42116771928384e+001,-4.41759160093373e-001

1.11579493308032e+005,-1.42117339932517e+001,-4.47821429235565e-001

1.13137084989847e+005,-1.42117921561242e+001,-4.53964328613774e-001

1.14716419841265e+005,-1.42118517079141e+001,-4.60188842784600e-001

1.16317801385624e+005,-1.42119126752654e+001,-4.66495965854630e-001

1.17941537383287e+005,-1.42119750849916e+001,-4.72886701534813e-001

1.19587939890794e+005,-1.42120389640560e+001,-4.79362063204515e-001

1.21257325320831e+005,-1.42121043395514e+001,-4.85923073980261e-001

1.22950014503040e+005,-1.42121712386792e+001,-4.92570766781691e-001

1.24666332745679e+005,-1.42122396887263e+001,-4.99306184407865e-001

1.26406609898139e+005,-1.42123097170415e+001,-5.06130379615596e-001

1.28171180414339e+005,-1.42123813510098e+001,-5.13044415202161e-001

1.29960383416997e+005,-1.42124546180255e+001,-5.20049364097022e-001

1.31774562762811e+005,-1.42125295454647e+001,-5.27146309454682e-001

1.33614067108538e+005,-1.42126061606551e+001,-5.34336344758454e-001

1.35479249978003e+005,-1.42126844908452e+001,-5.41620573930044e-001

1.37370469830040e+005,-1.42127645631719e+001,-5.49000111444003e-001

1.39288090127379e+005,-1.42128464046264e+001,-5.56476082456082e-001

1.41232479406504e+005,-1.42129300420190e+001,-5.64049622934559e-001

1.43204011348474e+005,-1.42130155019419e+001,-5.71721879806431e-001

1.45203064850745e+005,-1.42131028107308e+001,-5.79494011108728e-001

1.47230024099979e+005,-1.42131919944254e+001,-5.87367186155260e-001

1.49285278645888e+005,-1.42132830787274e+001,-5.95342585710216e-001

1.51369223476094e+005,-1.42133760889581e+001,-6.03421402180926e-001

1.53482259092041e+005,-1.42134710500140e+001,-6.11604839813643e-001

1.55624791585964e+005,-1.42135679863208e+001,-6.19894114913305e-001

1.57797232718936e+005,-1.42136669217867e+001,-6.28290456072037e-001

1.59999999999999e+005,-1.42137678797535e+001,-6.36795104412016e-001

1.62233516766403e+005,-1.42138708829474e+001,-6.45409313848241e-001

1.64498212264969e+005,-1.42139759534271e+001,-6.54134351367337e-001

1.66794521734578e+005,-1.42140831125323e+001,-6.62971497319901e-001

1.69122886489819e+005,-1.42141923808301e+001,-6.71922045735636e-001

1.71483754005805e+005,-1.42143037780602e+001,-6.80987304657792e-001

1.73877578004168e+005,-1.42144173230799e+001,-6.90168596494365e-001

1.76304818540256e+005,-1.42145330338077e+001,-6.99467258390838e-001

1.78765942091554e+005,-1.42146509271662e+001,-7.08884642628425e-001

1.81261421647326e+005,-1.42147710190240e+001,-7.18422117039154e-001

1.83791736799524e+005,-1.42148933241381e+001,-7.28081065445530e-001

1.86357373834951e+005,-1.42150178560945e+001,-7.37862888127194e-001

1.88958825828723e+005,-1.42151446272492e+001,-7.47769002308358e-001

1.91596592739027e+005,-1.42152736486695e+001,-7.57800842669639e-001

1.94271181503206e+005,-1.42154049300744e+001,-7.67959861889716e-001

1.96983106135185e+005,-1.42155384797757e+001,-7.78247531207857e-001

1.99732887824256e+005,-1.42156743046194e+001,-7.88665341017848e-001

2.02521055035243e+005,-1.42158124099274e+001,-7.99214801485085e-001

2.05348143610063e+005,-1.42159527994401e+001,-8.09897443195731e-001

2.08214696870707e+005,-1.42160954752602e+001,-8.20714817826151e-001

2.11121265723661e+005,-1.42162404377968e+001,-8.31668498850045e-001

2.14068408765776e+005,-1.42163876857117e+001,-8.42760082265260e-001

2.17056692391625e+005,-1.42165372158663e+001,-8.53991187354767e-001

2.20086690902357e+005,-1.42166890232719e+001,-8.65363457471016e-001

2.23158986616063e+005,-1.42168431010393e+001,-8.76878560854619e-001

2.26274169979693e+005,-1.42169994403335e+001,-8.88538191473565e-001

2.29432839682530e+005,-1.42171580303291e+001,-9.00344069897376e-001

2.32635602771247e+005,-1.42173188581684e+001,-9.12297944193687e-001

2.35883074766574e+005,-1.42174819089234e+001,-9.24401590853855e-001

2.39175879781588e+005,-1.42176471655599e+001,-9.36656815743962e-001

2.42514650641661e+005,-1.42178146089057e+001,-9.49065455083177e-001

2.45900029006080e+005,-1.42179842176219e+001,-9.61629376443123e-001

2.49332665491357e+005,-1.42181559681781e+001,-9.74350479776607e-001

2.52813219796278e+005,-1.42183298348322e+001,-9.87230698461702e-001

2.56342360828676e+005,-1.42185057896135e+001,-1.00027200037656e+000

2.59920766833993e+005,-1.42186838023108e+001,-1.01347638898577e+000

2.63549125525621e+005,-1.42188638404655e+001,-1.02684590445116e+000

2.67228134217075e+005,-1.42190458693684e+001,-1.04038262475874e+000

2.70958499956006e+005,-1.42192298520628e+001,-1.05408866685919e+000

2.74740939660078e+005,-1.42194157493516e+001,-1.06796618782781e+000

2.78576180254757e+005,-1.42196035198105e+001,-1.08201738603088e+000

2.82464958813007e+005,-1.42197931198058e+001,-1.09624450230657e+000

2.86408022696948e+005,-1.42199845035187e+001,-1.11064982115227e+000

2.90406129701488e+005,-1.42201776229742e+001,-1.12523567191987e+000

2.94460048199957e+005,-1.42203724280761e+001,-1.14000443001543e+000

2.98570557291775e+005,-1.42205688666476e+001,-1.15495851809988e+000

3.02738446952187e+005,-1.42207668844774e+001,-1.17010040729084e+000

3.06964518184081e+005,-1.42209664253720e+001,-1.18543261836355e+000

3.11249583171928e+005,-1.42211674312130e+001,-1.20095772294486e+000

3.15594465437872e+005,-1.42213698420203e+001,-1.21667834470208e+000

3.19999999999997e+005,-1.42215735960207e+001,-1.23259716052523e+000

3.24467033532806e+005,-1.42217786297221e+001,-1.24871690169460e+000

3.28996424529938e+005,-1.42219848779927e+001,-1.26504035503709e+000

3.33589043469155e+005,-1.42221922741453e+001,-1.28157036406854e+000

3.38245772979638e+005,-1.42224007500270e+001,-1.29830983011561e+000

3.42967508011610e+005,-1.42226102361128e+001,-1.31526171342207e+000

3.47755156008335e+005,-1.42228206616044e+001,-1.33242903423108e+000

3.52609637080511e+005,-1.42230319545330e+001,-1.34981487384504e+000

3.57531884183106e+005,-1.42232440418657e+001,-1.36742237566222e+000

3.62522843294651e+005,-1.42234568496161e+001,-1.38525474618541e+000

3.67583473599047e+005,-1.42236703029581e+001,-1.40331525600263e+000

3.72714747669902e+005,-1.42238843263424e+001,-1.42160724074094e+000

3.77917651657445e+005,-1.42240988436160e+001,-1.44013410198723e+000

3.83193185478053e+005,-1.42243137781438e+001,-1.45889930818087e+000

3.88542363006410e+005,-1.42245290529325e+001,-1.47790639547015e+000

3.93966212270369e+005,-1.42247445907552e+001,-1.49715896854118e+000

3.99465775648511e+005,-1.42249603142783e+001,-1.51666070141002e+000

4.05042110070485e+005,-1.42251761461881e+001,-1.53641533818172e+000

4.10696287220124e+005,-1.42253920093185e+001,-1.55642669377782e+000

4.16429393741414e+005,-1.42256078267781e+001,-1.57669865462851e+000

4.22242531447321e+005,-1.42258235220771e+001,-1.59723517933349e+000

4.28136817531551e+005,-1.42260390192536e+001,-1.61804029928840e+000

4.34113384783250e+005,-1.42262542429980e+001,-1.63911811927998e+000

4.40173381804713e+005,-1.42264691187760e+001,-1.66047281805230e+000

4.46317973232124e+005,-1.42266835729504e+001,-1.68210864883817e+000

4.52548339959385e+005,-1.42268975328988e+001,-1.70402993986830e+000

4.58865679365059e+005,-1.42271109271304e+001,-1.72624109484603e+000

4.65271205542494e+005,-1.42273236853984e+001,-1.74874659340229e+000

4.71766149533147e+005,-1.42275357388095e+001,-1.77155099152231e+000

4.78351759563174e+005,-1.42277470199299e+001,-1.79465892195126e+000

4.85029301283321e+005,-1.42279574628870e+001,-1.81807509458075e+000

4.91800058012158e+005,-1.42281670034669e+001,-1.84180429681442e+000

4.98665330982714e+005,-1.42283755792075e+001,-1.86585139391898e+000

5.05626439592555e+005,-1.42285831294869e+001,-1.89022132936241e+000

5.12684721657352e+005,-1.42287895956072e+001,-1.91491912513637e+000

5.19841533667984e+005,-1.42289949208726e+001,-1.93994988207397e+000

5.27098251051240e+005,-1.42291990506629e+001,-1.96531878015911e+000

5.34456268434150e+005,-1.42294019325016e+001,-1.99103107883011e+000

5.41916999912011e+005,-1.42296035161183e+001,-2.01709211728310e+000

