Freq.,VOut,OutRef

1.00000000000000e+004,-1.54959542019922e+001,-1.04482823196031e-001

1.01395947979003e+004,-1.54959567416254e+001,-1.05940925721511e-001

1.02811382665607e+004,-1.54959593525642e+001,-1.07419364636533e-001

1.04246576084112e+004,-1.54959620368074e+001,-1.08918423068543e-001

1.05701804056138e+004,-1.54959647964106e+001,-1.10438388059512e-001

1.07177346253629e+004,-1.54959676334864e+001,-1.11979550626415e-001

1.08673486252606e+004,-1.54959705502065e+001,-1.13542205814641e-001

1.10190511587661e+004,-1.54959735488034e+001,-1.15126652750806e-001

1.11728713807222e+004,-1.54959766315720e+001,-1.16733194698983e-001

1.13288388529580e+004,-1.54959798008711e+001,-1.18362139118159e-001

1.14869835499703e+004,-1.54959830591257e+001,-1.20013797716121e-001

1.16473358646846e+004,-1.54959864088285e+001,-1.21688486508928e-001

1.18099266142953e+004,-1.54959898525415e+001,-1.23386525881524e-001

1.19747870461893e+004,-1.54959933928984e+001,-1.25108240642658e-001

1.21419488439505e+004,-1.54959970326066e+001,-1.26853960085422e-001

1.23114441334492e+004,-1.54960007744487e+001,-1.28624018051766e-001

1.24833054890161e+004,-1.54960046212853e+001,-1.30418752987618e-001

1.26575659397028e+004,-1.54960085760566e+001,-1.32238508010420e-001

1.28342589756290e+004,-1.54960126417848e+001,-1.34083630969436e-001

1.30134185544193e+004,-1.54960168215764e+001,-1.35954474508864e-001

1.31950791077289e+004,-1.54960211186247e+001,-1.37851396132712e-001

1.33792755478611e+004,-1.54960255362116e+001,-1.39774758273179e-001

1.35660432744767e+004,-1.54960300777105e+001,-1.41724928352005e-001

1.37554181813974e+004,-1.54960347465894e+001,-1.43702278846838e-001

1.39474366635040e+004,-1.54960395464119e+001,-1.45707187366107e-001

1.41421356237309e+004,-1.54960444808417e+001,-1.47740036708153e-001

1.43395524801583e+004,-1.54960495536440e+001,-1.49801214937372e-001

1.45397251732031e+004,-1.54960547686889e+001,-1.51891115450726e-001

1.47426921729110e+004,-1.54960601299540e+001,-1.54010137050765e-001

1.49484924863494e+004,-1.54960656415279e+001,-1.56158684015399e-001

1.51571656651040e+004,-1.54960713076124e+001,-1.58337166172312e-001

1.53687518128801e+004,-1.54960771325264e+001,-1.60545998971722e-001

1.55832915932100e+004,-1.54960831207087e+001,-1.62785603559686e-001

1.58008262372675e+004,-1.54960892767215e+001,-1.65056406854885e-001

1.60213975517924e+004,-1.54960956052536e+001,-1.67358841624390e-001

1.62450479271247e+004,-1.54961021111236e+001,-1.69693346560733e-001

1.64718203453514e+004,-1.54961087992842e+001,-1.72060366359132e-001

1.67017583885674e+004,-1.54961156748254e+001,-1.74460351795548e-001

1.69349062472505e+004,-1.54961227429784e+001,-1.76893759807231e-001

1.71713087287550e+004,-1.54961300091191e+001,-1.79361053574810e-001

1.74110112659224e+004,-1.54961374787726e+001,-1.81862702600042e-001

1.76540599258131e+004,-1.54961451576167e+001,-1.84399182791530e-001

1.79005014185594e+004,-1.54961530514866e+001,-1.86970976545715e-001

1.81503831063432e+004,-1.54961611663787e+001,-1.89578572831948e-001

1.84037530124975e+004,-1.54961695084555e+001,-1.92222467277102e-001

1.86606598307361e+004,-1.54961780840497e+001,-1.94903162252116e-001

1.89211529345119e+004,-1.54961868996690e+001,-1.97621166955967e-001

1.91852823865052e+004,-1.54961959620006e+001,-2.00376997509409e-001

1.94530989482457e+004,-1.54962052779166e+001,-2.03171177036387e-001

1.97246540898671e+004,-1.54962148544784e+001,-2.06004235758786e-001

1.99999999999999e+004,-1.54962246989420e+001,-2.08876711085936e-001

2.02791895958005e+004,-1.54962348187637e+001,-2.11789147702807e-001

2.05622765331213e+004,-1.54962452216050e+001,-2.14742097664777e-001

2.08493152168224e+004,-1.54962559153380e+001,-2.17736120493354e-001

2.11403608112276e+004,-1.54962669080516e+001,-2.20771783264141e-001

2.14354692507258e+004,-1.54962782080571e+001,-2.23849660705710e-001

2.17346972505211e+004,-1.54962898238939e+001,-2.26970335296216e-001

2.20381023175322e+004,-1.54963017643358e+001,-2.30134397357228e-001

2.23457427614443e+004,-1.54963140383978e+001,-2.33342445152006e-001

2.26576777059159e+004,-1.54963266553412e+001,-2.36595084987348e-001

2.29739670999406e+004,-1.54963396246818e+001,-2.39892931307248e-001

2.32946717293690e+004,-1.54963529561957e+001,-2.43236606795887e-001

2.36198532285905e+004,-1.54963666599262e+001,-2.46626742481582e-001

2.39495740923785e+004,-1.54963807461911e+001,-2.50063977833179e-001

2.42838976879009e+004,-1.54963952255903e+001,-2.53548960866679e-001

2.46228882668982e+004,-1.54964101090126e+001,-2.57082348247325e-001

2.49666109780322e+004,-1.54964254076441e+001,-2.60664805391873e-001

2.53151318794055e+004,-1.54964411329751e+001,-2.64297006579687e-001

2.56685179512580e+004,-1.54964572968091e+001,-2.67979635049995e-001

2.60268371088386e+004,-1.54964739112704e+001,-2.71713383116684e-001

2.63901582154578e+004,-1.54964909888122e+001,-2.75498952271765e-001

2.67585510957221e+004,-1.54965085422265e+001,-2.79337053291340e-001

2.71320865489533e+004,-1.54965265846516e+001,-2.83228406347834e-001

2.75108363627948e+004,-1.54965451295813e+001,-2.87173741121293e-001

2.78948733270080e+004,-1.54965641908753e+001,-2.91173796900838e-001

2.82842712474618e+004,-1.54965837827670e+001,-2.95229322705956e-001

2.86791049603164e+004,-1.54966039198744e+001,-2.99341077390897e-001

2.90794503464061e+004,-1.54966246172097e+001,-3.03509829757548e-001

2.94853843458219e+004,-1.54966458901891e+001,-3.07736358669891e-001

2.98969849726987e+004,-1.54966677546434e+001,-3.12021453166007e-001

3.03143313302078e+004,-1.54966902268290e+001,-3.16365912569448e-001

3.07375036257601e+004,-1.54967133234377e+001,-3.20770546607593e-001

3.11665831864199e+004,-1.54967370616090e+001,-3.25236175520630e-001

3.16016524745350e+004,-1.54967614589409e+001,-3.29763630178850e-001

3.20427951035848e+004,-1.54967865335009e+001,-3.34353752199139e-001

3.24900958542493e+004,-1.54968123038392e+001,-3.39007394055469e-001

3.29436406907028e+004,-1.54968387889993e+001,-3.43725419199366e-001

3.34035167771346e+004,-1.54968660085313e+001,-3.48508702173105e-001

3.38698124945009e+004,-1.54968939825044e+001,-3.53358128723880e-001

3.43426174575100e+004,-1.54969227315198e+001,-3.58274595922267e-001

3.48220225318448e+004,-1.54969522767234e+001,-3.63259012277418e-001

3.53081198516260e+004,-1.54969826398194e+001,-3.68312297852735e-001

3.58010028371187e+004,-1.54970138430846e+001,-3.73435384379867e-001

3.63007662126863e+004,-1.54970459093818e+001,-3.78629215376780e-001

3.68075060249948e+004,-1.54970788621740e+001,-3.83894746261625e-001

3.73213196614721e+004,-1.54971127255391e+001,-3.89232944468154e-001

3.78423058690237e+004,-1.54971475241848e+001,-3.94644789560575e-001

3.83705647730104e+004,-1.54971832834637e+001,-4.00131273347060e-001

3.89061978964912e+004,-1.54972200293884e+001,-4.05693399993721e-001

3.94493081797342e+004,-1.54972577886473e+001,-4.11332186138770e-001

3.99999999999998e+004,-1.54972965886207e+001,-4.17048661002490e-001

4.05583791916010e+004,-1.54973364573971e+001,-4.22843866500192e-001

4.11245530662425e+004,-1.54973774237890e+001,-4.28718857354930e-001

4.16986304336447e+004,-1.54974195173506e+001,-4.34674701204017e-001

4.22807216224550e+004,-1.54974627683942e+001,-4.40712478709271e-001

4.28709385014515e+004,-1.54975072080083e+001,-4.46833283663161e-001

4.34693945010421e+004,-1.54975528680737e+001,-4.53038223099686e-001

4.40762046350642e+004,-1.54975997812836e+001,-4.59328417391738e-001

4.46914855228886e+004,-1.54976479811597e+001,-4.65705000362552e-001

4.53153554118317e+004,-1.54976975020717e+001,-4.72169119380561e-001

4.59479341998812e+004,-1.54977483792559e+001,-4.78721935464183e-001

4.65893434587380e+004,-1.54978006488338e+001,-4.85364623378650e-001

4.72397064571810e+004,-1.54978543478312e+001,-4.92098371731388e-001

4.78991481847569e+004,-1.54979095141983e+001,-4.98924383066740e-001

4.85677953758016e+004,-1.54979661868285e+001,-5.05843873958485e-001

4.92457765337964e+004,-1.54980244055785e+001,-5.12858075097989e-001

4.99332219560642e+004,-1.54980842112887e+001,-5.19968231382607e-001

5.06302637588109e+004,-1.54981456458030e+001,-5.27175601999402e-001

5.13370359025159e+004,-1.54982087519893e+001,-5.34481460505702e-001

5.20536742176771e+004,-1.54982735737605e+001,-5.41887094908875e-001

5.27803164309155e+004,-1.54983401560944e+001,-5.49393807742071e-001

5.35171021914442e+004,-1.54984085450555e+001,-5.57002916133531e-001

5.42641730979066e+004,-1.54984787878155e+001,-5.64715751878354e-001

5.50216727255895e+004,-1.54985509326742e+001,-5.72533661502025e-001

5.57897466540159e+004,-1.54986250290813e+001,-5.80458006320710e-001

5.65685424949235e+004,-1.54987011276571e+001,-5.88490162499855e-001

5.73582099206328e+004,-1.54987792802135e+001,-5.96631521107493e-001

5.81589006928121e+004,-1.54988595397764e+001,-6.04883488159910e-001

5.89707686916437e+004,-1.54989419606052e+001,-6.13247484670781e-001

5.97939699453972e+004,-1.54990265982157e+001,-6.21724946685796e-001

6.06286626604156e+004,-1.54991135094000e+001,-6.30317325320190e-001

6.14750072515201e+004,-1.54992027522476e+001,-6.39026086787656e-001

6.23331663728396e+004,-1.54992943861668e+001,-6.47852712423682e-001

6.32033049490698e+004,-1.54993884719044e+001,-6.56798698706870e-001

6.40855902071694e+004,-1.54994850715670e+001,-6.65865557269419e-001

6.49801917084985e+004,-1.54995842486403e+001,-6.75054814905461e-001

6.58872813814055e+004,-1.54996860680090e+001,-6.84368013574584e-001

6.68070335542691e+004,-1.54997905959764e+001,-6.93806710394743e-001

6.77396249890018e+004,-1.54998979002828e+001,-7.03372477633045e-001

6.86852349150199e+004,-1.55000080501247e+001,-7.13066902685944e-001

6.96440450636895e+004,-1.55001211161719e+001,-7.22891588058709e-001

7.06162397032520e+004,-1.55002371705851e+001,-7.32848151332054e-001

7.16020056742374e+004,-1.55003562870325e+001,-7.42938225124696e-001

7.26015324253724e+004,-1.55004785407057e+001,-7.53163457048123e-001

7.36150120499896e+004,-1.55006040083344e+001,-7.63525509656053e-001

7.46426393229441e+004,-1.55007327682009e+001,-7.74026060383274e-001

7.56846117380472e+004,-1.55008649001533e+001,-7.84666801477245e-001

7.67411295460207e+004,-1.55010004856173e+001,-7.95449439926320e-001

7.78123957929823e+004,-1.55011396076075e+001,-8.06375697375510e-001

7.88986163594682e+004,-1.55012823507369e+001,-8.17447310036684e-001

7.99999999999995e+004,-1.55014288012259e+001,-8.28666028589449e-001

8.11167583832018e+004,-1.55015790469089e+001,-8.40033618076581e-001

8.22491061324848e+004,-1.55017331772395e+001,-8.51551857789423e-001

8.33972608672892e+004,-1.55018912832955e+001,-8.63222541146071e-001

8.45614432449099e+004,-1.55020534577800e+001,-8.75047475561461e-001

8.57418770029029e+004,-1.55022197950223e+001,-8.87028482310490e-001

8.69387890020841e+004,-1.55023903909761e+001,-8.99167396382166e-001

8.81524092701283e+004,-1.55025653432161e+001,-9.11466066325874e-001

8.93829710457770e+004,-1.55027447509315e+001,-9.23926354092559e-001

9.06307108236633e+004,-1.55029287149182e+001,-9.36550134865620e-001

9.18958683997622e+004,-1.55031173375681e+001,-9.49339296886110e-001

9.31786869174758e+004,-1.55033107228556e+001,-9.62295741271310e-001

9.44794129143618e+004,-1.55035089763215e+001,-9.75421381825899e-001

9.57982963695136e+004,-1.55037122050541e+001,-9.88718144846971e-001

9.71355907516031e+004,-1.55039205176670e+001,-1.00218796892496e+000

9.84915530675926e+004,-1.55041340242742e+001,-1.01583280473494e+000

9.98664439121282e+004,-1.55043528364611e+001,-1.02965461482925e+000

1.01260527517622e+005,-1.55045770672529e+001,-1.04365537341825e+000

1.02674071805032e+005,-1.55048068310781e+001,-1.05783706615551e+000

1.04107348435354e+005,-1.55050422437297e+001,-1.07220168991257e+000

1.05560632861831e+005,-1.55052834223211e+001,-1.08675125255514e+000

1.07034204382888e+005,-1.55055304852384e+001,-1.10148777271810e+000

1.08528346195813e+005,-1.55057835520882e+001,-1.11641327957911e+000

1.10043345451179e+005,-1.55060427436412e+001,-1.13152981262955e+000

1.11579493308032e+005,-1.55063081817707e+001,-1.14683942145338e+000

1.13137084989847e+005,-1.55065799893866e+001,-1.16234416550209e+000

1.14716419841265e+005,-1.55068582903639e+001,-1.17804611387688e+000

1.16317801385624e+005,-1.55071432094669e+001,-1.19394734511452e+000

1.17941537383287e+005,-1.55074348722672e+001,-1.21004994698042e+000

1.19587939890794e+005,-1.55077334050564e+001,-1.22635601626876e+000

1.21257325320831e+005,-1.55080389347536e+001,-1.24286765861262e+000

1.22950014503040e+005,-1.55083515888064e+001,-1.25958698830494e+000

1.24666332745679e+005,-1.55086714950869e+001,-1.27651612813159e+000

1.26406609898139e+005,-1.55089987817802e+001,-1.29365720922197e+000

1.28171180414339e+005,-1.55093335772682e+001,-1.31101237091243e+000

1.29960383416997e+005,-1.55096760100060e+001,-1.32858376063229e+000

1.31774562762811e+005,-1.55100262083923e+001,-1.34637353380813e+000

1.33614067108538e+005,-1.55103843006333e+001,-1.36438385379291e+000

1.35479249978003e+005,-1.55107504145995e+001,-1.38261689182008e+000

1.37370469830040e+005,-1.55111246776764e+001,-1.40107482698755e+000

1.39288090127379e+005,-1.55115072166079e+001,-1.41975984627012e+000

1.41232479406504e+005,-1.55118981573334e+001,-1.43867414456747e+000

1.43204011348474e+005,-1.55122976248177e+001,-1.45781992478756e+000

1.45203064850745e+005,-1.55127057428738e+001,-1.47719939797023e+000

1.47230024099979e+005,-1.55131226339801e+001,-1.49681478345237e+000

1.49285278645888e+005,-1.55135484190893e+001,-1.51666830907861e+000

1.51369223476094e+005,-1.55139832174311e+001,-1.53676221146209e+000

1.53482259092041e+005,-1.55144271463094e+001,-1.55709873629459e+000

1.55624791585964e+005,-1.55148803208912e+001,-1.57768013871441e+000

1.57797232718936e+005,-1.55153428539905e+001,-1.59850868373114e+000

1.59999999999999e+005,-1.55158148558456e+001,-1.61958664671315e+000

1.62233516766403e+005,-1.55162964338901e+001,-1.64091631394120e+000

1.64498212264969e+005,-1.55167876925192e+001,-1.66249998322906e+000

1.66794521734578e+005,-1.55172887328490e+001,-1.68433996461944e+000

1.69122886489819e+005,-1.55177996524729e+001,-1.70643858115339e+000

1.71483754005805e+005,-1.55183205452106e+001,-1.72879816972105e+000

1.73877578004168e+005,-1.55188515008553e+001,-1.75142108199548e+000

1.76304818540256e+005,-1.55193926049154e+001,-1.77430968544991e+000

1.78765942091554e+005,-1.55199439383529e+001,-1.79746636446998e+000

1.81261421647326e+005,-1.55205055773198e+001,-1.82089352155406e+000

1.83791736799524e+005,-1.55210775928912e+001,-1.84459357861260e+000

1.86357373834951e+005,-1.55216600507969e+001,-1.86856897836763e+000

1.88958825828723e+005,-1.55222530111521e+001,-1.89282218585140e+000

1.91596592739027e+005,-1.55228565281874e+001,-1.91735569001228e+000

1.94271181503206e+005,-1.55234706499792e+001,-1.94217200542836e+000

1.96983106135185e+005,-1.55240954181809e+001,-1.96727367412935e+000

1.99732887824256e+005,-1.55247308677568e+001,-1.99266326753182e+000

2.02521055035243e+005,-1.55253770267174e+001,-2.01834338848789e+000

2.05348143610063e+005,-1.55260339158591e+001,-2.04431667344905e+000

2.08214696870707e+005,-1.55267015485083e+001,-2.07058579474716e+000

2.11121265723661e+005,-1.55273799302710e+001,-2.09715346299260e+000

2.14068408765776e+005,-1.55280690587883e+001,-2.12402242958917e+000

2.17056692391625e+005,-1.55287689234999e+001,-2.15119548937030e+000

2.20086690902357e+005,-1.55294795054156e+001,-2.17867548335030e+000

2.23158986616063e+005,-1.55302007768967e+001,-2.20646530159476e+000

2.26274169979693e+005,-1.55309327014474e+001,-2.23456788620567e+000

2.29432839682530e+005,-1.55316752335182e+001,-2.26298623442251e+000

2.32635602771247e+005,-1.55324283183220e+001,-2.29172340183537e+000

2.35883074766574e+005,-1.55331918916635e+001,-2.32078250570690e+000

2.39175879781588e+005,-1.55339658797841e+001,-2.35016672840410e+000

2.42514650641661e+005,-1.55347501992224e+001,-2.37987932092955e+000

2.45900029006080e+005,-1.55355447566911e+001,-2.40992360655586e+000

2.49332665491357e+005,-1.55363494489728e+001,-2.44030298455223e+000

2.52813219796278e+005,-1.55371641628344e+001,-2.47102093400116e+000

2.56342360828676e+005,-1.55379887749611e+001,-2.50208101769827e+000

2.59920766833993e+005,-1.55388231519117e+001,-2.53348688613247e+000

2.63549125525621e+005,-1.55396671500952e+001,-2.56524228153326e+000

2.67228134217075e+005,-1.55405206157709e+001,-2.59735104198464e+000

2.70958499956006e+005,-1.55413833850701e+001,-2.62981710559333e+000

2.74740939660078e+005,-1.55422552840438e+001,-2.66264451470712e+000

2.78576180254757e+005,-1.55431361287333e+001,-2.69583742017038e+000

2.82464958813007e+005,-1.55440257252671e+001,-2.72940008561102e+000

2.86408022696948e+005,-1.55449238699828e+001,-2.76333689174878e+000

2.90406129701488e+005,-1.55458303495752e+001,-2.79765234071621e+000

2.94460048199957e+005,-1.55467449412705e+001,-2.83235106037825e+000

2.98570557291775e+005,-1.55476674130269e+001,-2.86743780864770e+000

3.02738446952187e+005,-1.55485975237617e+001,-2.90291747777809e+000

3.06964518184081e+005,-1.55495350236050e+001,-2.93879509862919e+000

3.11249583171928e+005,-1.55504796541788e+001,-2.97507584489365e+000

3.15594465437872e+005,-1.55514311489031e+001,-3.01176503727152e+000

3.19999999999997e+005,-1.55523892333268e+001,-3.04886814758497e+000

3.24467033532806e+005,-1.55533536254838e+001,-3.08639080282166e+000

3.28996424529938e+005,-1.55543240362737e+001,-3.12433878909771e+000

3.33589043469155e+005,-1.55553001698661e+001,-3.16271805552635e+000

3.38245772979638e+005,-1.55562817241270e+001,-3.20153471798850e+000

3.42967508011610e+005,-1.55572683910685e+001,-3.24079506279038e+000

3.47755156008335e+005,-1.55582598573177e+001,-3.28050555020260e+000

3.52609637080511e+005,-1.55592558046059e+001,-3.32067281787046e+000

3.57531884183106e+005,-1.55602559102763e+001,-3.36130368408707e+000

3.62522843294651e+005,-1.55612598478082e+001,-3.40240515092412e+000

3.67583473599047e+005,-1.55622672873564e+001,-3.44398440721169e+000

3.72714747669902e+005,-1.55632778963054e+001,-3.48604883135895e+000

3.77917651657445e+005,-1.55642913398350e+001,-3.52860599401554e+000

3.83193185478053e+005,-1.55653072814970e+001,-3.57166366056389e+000

3.88542363006410e+005,-1.55663253838005e+001,-3.61522979344116e+000

3.93966212270369e+005,-1.55673453088047e+001,-3.65931255428607e+000

3.99465775648511e+005,-1.55683667187167e+001,-3.70392030591111e+000

4.05042110070485e+005,-1.55693892764923e+001,-3.74906161409521e+000

4.10696287220124e+005,-1.55704126464400e+001,-3.79474524919821e+000

4.16429393741414e+005,-1.55714364948226e+001,-3.84098018759736e+000

4.22242531447321e+005,-1.55724604904583e+001,-3.88777561294818e+000

4.28136817531551e+005,-1.55734843053176e+001,-3.93514091726765e+000

4.34113384783250e+005,-1.55745076151137e+001,-3.98308570184801e+000

4.40173381804713e+005,-1.55755300998863e+001,-4.03161977800109e+000

4.46317973232124e+005,-1.55765514445758e+001,-4.08075316763970e+000

4.52548339959385e+005,-1.55775713395865e+001,-4.13049610369907e+000

4.58865679365059e+005,-1.55785894813379e+001,-4.18085903040879e+000

4.65271205542494e+005,-1.55796055728011e+001,-4.23185260341718e+000

4.71766149533147e+005,-1.55806193240204e+001,-4.28348768977845e+000

4.78351759563174e+005,-1.55816304526182e+001,-4.33577536781073e+000

4.85029301283321e+005,-1.55826386842811e+001,-4.38872692683130e+000

4.91800058012158e+005,-1.55836437532278e+001,-4.44235386678173e+000

4.98665330982714e+005,-1.55846454026558e+001,-4.49666789774949e+000

5.05626439592555e+005,-1.55856433851677e+001,-4.55168093939693e+000

5.12684721657352e+005,-1.55866374631745e+001,-4.60740512031025e+000

5.19841533667984e+005,-1.55876274092773e+001,-4.66385277727464e+000

5.27098251051240e+005,-1.55886130066245e+001,-4.72103645448976e+000

5.34456268434150e+005,-1.55895940492462e+001,-4.77896890273722e+000

5.41916999912011e+005,-1.55905703423635e+001,-4.83766307850704e+000

