Freq.,VOut,OutRef

1.00000000000000e+004,-1.01235400531275e+001,-2.81539566289824e-002

1.01395947979003e+004,-1.01235421694691e+001,-2.85466141811302e-002

1.02811382665607e+004,-1.01235443452303e+001,-2.89447378801640e-002

1.04246576084112e+004,-1.01235465820763e+001,-2.93484033936016e-002

1.05701804056138e+004,-1.01235488817212e+001,-2.97576874026251e-002

1.07177346253629e+004,-1.01235512459247e+001,-3.01726676466870e-002

1.08673486252606e+004,-1.01235536764963e+001,-3.05934229155815e-002

1.10190511587661e+004,-1.01235561752962e+001,-3.10200330675952e-002

1.11728713807222e+004,-1.01235587442380e+001,-3.14525790340991e-002

1.13288388529580e+004,-1.01235613852859e+001,-3.18911428635607e-002

1.14869835499703e+004,-1.01235641004604e+001,-3.23358077027462e-002

1.16473358646846e+004,-1.01235668918398e+001,-3.27866578141790e-002

1.18099266142953e+004,-1.01235697615585e+001,-3.32437786142572e-002

1.19747870461893e+004,-1.01235727118103e+001,-3.37072566698630e-002

1.21419488439505e+004,-1.01235757448518e+001,-3.41771797063284e-002

1.23114441334492e+004,-1.01235788630021e+001,-3.46536366345915e-002

1.24833054890161e+004,-1.01235820686435e+001,-3.51367175705153e-002

1.26575659397028e+004,-1.01235853642272e+001,-3.56265138263737e-002

1.28342589756290e+004,-1.01235887522711e+001,-3.61231179510262e-002

1.30134185544193e+004,-1.01235922353637e+001,-3.66266237312923e-002

1.31950791077289e+004,-1.01235958161658e+001,-3.71371262112554e-002

1.33792755478611e+004,-1.01235994974121e+001,-3.76547217060055e-002

1.35660432744767e+004,-1.01236032819132e+001,-3.81795078221199e-002

1.37554181813974e+004,-1.01236071725592e+001,-3.87115834597012e-002

1.39474366635040e+004,-1.01236111723189e+001,-3.92510488497639e-002

1.41421356237309e+004,-1.01236152842461e+001,-3.97980055413073e-002

1.43395524801583e+004,-1.01236195114769e+001,-4.03525564512209e-002

1.45397251732031e+004,-1.01236238572371e+001,-4.09148058465398e-002

1.47426921729110e+004,-1.01236283248402e+001,-4.14848593907757e-002

1.49484924863494e+004,-1.01236329176928e+001,-4.20628241390831e-002

1.51571656651040e+004,-1.01236376392964e+001,-4.26488085580469e-002

1.53687518128801e+004,-1.01236424932497e+001,-4.32429225497862e-002

1.55832915932100e+004,-1.01236474832512e+001,-4.38452774616210e-002

1.58008262372675e+004,-1.01236526131018e+001,-4.44559861094037e-002

1.60213975517924e+004,-1.01236578867081e+001,-4.50751627879487e-002

1.62450479271247e+004,-1.01236633080859e+001,-4.57029232835135e-002

1.64718203453514e+004,-1.01236688813609e+001,-4.63393849083039e-002

1.67017583885674e+004,-1.01236746107749e+001,-4.69846664924467e-002

1.69349062472505e+004,-1.01236805006861e+001,-4.76388884247180e-002

1.71713087287550e+004,-1.01236865555736e+001,-4.83021726556672e-002

1.74110112659224e+004,-1.01236927800410e+001,-4.89746427155149e-002

1.76540599258131e+004,-1.01236991788193e+001,-4.96564237344292e-002

1.79005014185594e+004,-1.01237057567692e+001,-5.03476424660514e-002

1.81503831063432e+004,-1.01237125188884e+001,-5.10484272820908e-002

1.84037530124975e+004,-1.01237194703095e+001,-5.17589082236384e-002

1.86606598307361e+004,-1.01237266163107e+001,-5.24792169766793e-002

1.89211529345119e+004,-1.01237339623122e+001,-5.32094869352274e-002

1.91852823865052e+004,-1.01237415138867e+001,-5.39498531770281e-002

1.94530989482457e+004,-1.01237492767589e+001,-5.47004525088602e-002

1.97246540898671e+004,-1.01237572568122e+001,-5.54614234695134e-002

1.99999999999999e+004,-1.01237654600924e+001,-5.62329063474191e-002

2.02791895958005e+004,-1.01237738928115e+001,-5.70150432029446e-002

2.05622765331213e+004,-1.01237825613516e+001,-5.78079778885275e-002

2.08493152168224e+004,-1.01237914722721e+001,-5.86118560504890e-002

2.11403608112276e+004,-1.01238006323121e+001,-5.94268251560244e-002

2.14354692507258e+004,-1.01238100483955e+001,-6.02530345130336e-002

2.17346972505211e+004,-1.01238197276362e+001,-6.10906352821428e-002

2.20381023175322e+004,-1.01238296773444e+001,-6.19397804863339e-002

2.23457427614443e+004,-1.01238399050300e+001,-6.28006250370324e-002

2.26576777059159e+004,-1.01238504184088e+001,-6.36733257473810e-002

2.29739670999406e+004,-1.01238612254077e+001,-6.45580413457877e-002

2.32946717293690e+004,-1.01238723341715e+001,-6.54549324890195e-002

2.36198532285905e+004,-1.01238837530660e+001,-6.63641617876479e-002

2.39495740923785e+004,-1.01238954906877e+001,-6.72858938025485e-002

2.42838976879009e+004,-1.01239075558662e+001,-6.82202950815444e-002

2.46228882668982e+004,-1.01239199576722e+001,-6.91675341588573e-002

2.49666109780322e+004,-1.01239327054242e+001,-7.01277815708347e-002

2.53151318794055e+004,-1.01239458086942e+001,-7.11012098720832e-002

2.56685179512580e+004,-1.01239592773148e+001,-7.20879936486864e-002

2.60268371088386e+004,-1.01239731213848e+001,-7.30883095345782e-002

2.63901582154578e+004,-1.01239873512784e+001,-7.41023362146887e-002

2.67585510957221e+004,-1.01240019776505e+001,-7.51302544434950e-002

2.71320865489533e+004,-1.01240170114459e+001,-7.61722470481366e-002

2.75108363627948e+004,-1.01240324639040e+001,-7.72284989562922e-002

2.78948733270080e+004,-1.01240483465688e+001,-7.82991971901495e-002

2.82842712474618e+004,-1.01240646712967e+001,-7.93845308780609e-002

2.86791049603164e+004,-1.01240814502632e+001,-8.04846912698133e-002

2.90794503464061e+004,-1.01240986959723e+001,-8.15998717404745e-002

2.94853843458219e+004,-1.01241164212642e+001,-8.27302677978472e-002

2.98969849726987e+004,-1.01241346393250e+001,-8.38760770880610e-002

3.03143313302078e+004,-1.01241533636932e+001,-8.50374994094864e-002

3.07375036257601e+004,-1.01241726082714e+001,-8.62147367062267e-002

3.11665831864199e+004,-1.01241923873348e+001,-8.74079930721766e-002

3.16016524745350e+004,-1.01242127155393e+001,-8.86174747667761e-002

3.20427951035848e+004,-1.01242336079322e+001,-8.98433902047041e-002

3.24900958542493e+004,-1.01242550799623e+001,-9.10859499589011e-002

3.29436406907028e+004,-1.01242771474891e+001,-9.23453667655556e-002

3.34035167771346e+004,-1.01242998267938e+001,-9.36218555152999e-002

3.38698124945009e+004,-1.01243231345890e+001,-9.49156332577400e-002

3.43426174575100e+004,-1.01243470880303e+001,-9.62269191906572e-002

3.48220225318448e+004,-1.01243717047270e+001,-9.75559346548866e-002

3.53081198516260e+004,-1.01243970027523e+001,-9.89029031357763e-002

3.58010028371187e+004,-1.01244230006559e+001,-1.00268050244388e-001

3.63007662126863e+004,-1.01244497174755e+001,-1.01651603708612e-001

3.68075060249948e+004,-1.01244771727477e+001,-1.03053793367513e-001

3.73213196614721e+004,-1.01245053865206e+001,-1.04474851154547e-001

3.78423058690237e+004,-1.01245343793663e+001,-1.05915011079295e-001

3.83705647730104e+004,-1.01245641723935e+001,-1.07374509212190e-001

3.89061978964912e+004,-1.01245947872591e+001,-1.08853583667504e-001

3.94493081797342e+004,-1.01246262461837e+001,-1.10352474572983e-001

3.99999999999998e+004,-1.01246585719618e+001,-1.11871424056294e-001

4.05583791916010e+004,-1.01246917879769e+001,-1.13410676217387e-001

4.11245530662425e+004,-1.01247259182151e+001,-1.14970477092765e-001

4.16986304336447e+004,-1.01247609872792e+001,-1.16551074629799e-001

4.22807216224550e+004,-1.01247970204020e+001,-1.18152718653091e-001

4.28709385014515e+004,-1.01248340434618e+001,-1.19775660823280e-001

4.34693945010421e+004,-1.01248720829953e+001,-1.21420154608922e-001

4.40762046350642e+004,-1.01249111662144e+001,-1.23086455230613e-001

4.46914855228886e+004,-1.01249513210207e+001,-1.24774819619868e-001

4.53153554118317e+004,-1.01249925760189e+001,-1.26485506380617e-001

4.59479341998812e+004,-1.01250349605347e+001,-1.28218775723477e-001

4.65893434587380e+004,-1.01250785046298e+001,-1.29974889415285e-001

4.72397064571810e+004,-1.01251232391164e+001,-1.31754110725451e-001

4.78991481847569e+004,-1.01251691955750e+001,-1.33556704355781e-001

4.85677953758016e+004,-1.01252164063699e+001,-1.35382936376036e-001

4.92457765337964e+004,-1.01252649046648e+001,-1.37233074159224e-001

4.99332219560642e+004,-1.01253147244414e+001,-1.39107386295651e-001

5.06302637588109e+004,-1.01253659005137e+001,-1.41006142524465e-001

5.13370359025159e+004,-1.01254184685466e+001,-1.42929613644656e-001

5.20536742176771e+004,-1.01254724650721e+001,-1.44878071427610e-001

5.27803164309155e+004,-1.01255279275067e+001,-1.46851788524594e-001

5.35171021914442e+004,-1.01255848941685e+001,-1.48851038368579e-001

5.42641730979066e+004,-1.01256434042948e+001,-1.50876095069196e-001

5.50216727255895e+004,-1.01257034980584e+001,-1.52927233311222e-001

5.57897466540159e+004,-1.01257652165863e+001,-1.55004728231486e-001

5.65685424949235e+004,-1.01258286019771e+001,-1.57108855303053e-001

5.73582099206328e+004,-1.01258936973171e+001,-1.59239890212079e-001

5.81589006928121e+004,-1.01259605466988e+001,-1.61398108727873e-001

5.89707686916437e+004,-1.01260291952388e+001,-1.63583786553592e-001

5.97939699453972e+004,-1.01260996890936e+001,-1.65797199198289e-001

6.06286626604156e+004,-1.01261720754785e+001,-1.68038621814671e-001

6.14750072515201e+004,-1.01262464026834e+001,-1.70308329045982e-001

6.23331663728396e+004,-1.01263227200908e+001,-1.72606594862294e-001

6.32033049490698e+004,-1.01264010781920e+001,-1.74933692385459e-001

6.40855902071694e+004,-1.01264815286036e+001,-1.77289893716687e-001

6.49801917084985e+004,-1.01265641240848e+001,-1.79675469740352e-001

6.58872813814055e+004,-1.01266489185517e+001,-1.82090689942355e-001

6.68070335542691e+004,-1.01267359670949e+001,-1.84535822194329e-001

6.77396249890018e+004,-1.01268253259932e+001,-1.87011132557425e-001

6.86852349150199e+004,-1.01269170527298e+001,-1.89516885050720e-001

6.96440450636895e+004,-1.01270112060060e+001,-1.92053341432338e-001

7.06162397032520e+004,-1.01271078457543e+001,-1.94620760966273e-001

7.16020056742374e+004,-1.01272070331534e+001,-1.97219400168709e-001

7.26015324253724e+004,-1.01273088306399e+001,-1.99849512561791e-001

7.36150120499896e+004,-1.01274133019197e+001,-2.02511348409730e-001

7.46426393229441e+004,-1.01275205119802e+001,-2.05205154446216e-001

7.56846117380472e+004,-1.01276305271000e+001,-2.07931173593310e-001

7.67411295460207e+004,-1.01277434148585e+001,-2.10689644671017e-001

7.78123957929823e+004,-1.01278592441439e+001,-2.13480802098676e-001

7.88986163594682e+004,-1.01279780851618e+001,-2.16304875579182e-001

7.99999999999995e+004,-1.01281000094396e+001,-2.19162089787901e-001

8.11167583832018e+004,-1.01282250898336e+001,-2.22052664031985e-001

8.22491061324848e+004,-1.01283534005302e+001,-2.24976811922582e-001

8.33972608672892e+004,-1.01284850170513e+001,-2.27934741010088e-001

8.45614432449099e+004,-1.01286200162525e+001,-2.30926652437167e-001

8.57418770029029e+004,-1.01287584763237e+001,-2.33952740560127e-001

8.69387890020841e+004,-1.01289004767863e+001,-2.37013192571957e-001

8.81524092701283e+004,-1.01290460984890e+001,-2.40108188111135e-001

8.93829710457770e+004,-1.01291954236021e+001,-2.43237898859147e-001

9.06307108236633e+004,-1.01293485356082e+001,-2.46402488134914e-001

9.18958683997622e+004,-1.01295055192940e+001,-2.49602110466061e-001

9.31786869174758e+004,-1.01296664607356e+001,-2.52836911168452e-001

9.44794129143618e+004,-1.01298314472850e+001,-2.56107025902011e-001

9.57982963695136e+004,-1.01300005675525e+001,-2.59412580223200e-001

9.71355907516031e+004,-1.01301739113871e+001,-2.62753689125264e-001

9.84915530675926e+004,-1.01303515698533e+001,-2.66130456575305e-001

9.98664439121282e+004,-1.01305336352057e+001,-2.69542975040467e-001

1.01260527517622e+005,-1.01307202008607e+001,-2.72991325002555e-001

1.02674071805032e+005,-1.01309113613648e+001,-2.76475574473305e-001

1.04107348435354e+005,-1.01311072123592e+001,-2.79995778495008e-001

1.05560632861831e+005,-1.01313078505426e+001,-2.83551978634473e-001

1.07034204382888e+005,-1.01315133736278e+001,-2.87144202484089e-001

1.08528346195813e+005,-1.01317238802971e+001,-2.90772463140183e-001

1.10043345451179e+005,-1.01319394701522e+001,-2.94436758690515e-001

1.11579493308032e+005,-1.01321602436614e+001,-2.98137071690139e-001

1.13137084989847e+005,-1.01323863021014e+001,-3.01873368640535e-001

1.14716419841265e+005,-1.01326177474950e+001,-3.05645599465702e-001

1.16317801385624e+005,-1.01328546825466e+001,-3.09453696980362e-001

1.17941537383287e+005,-1.01330972105692e+001,-3.13297576372316e-001

1.19587939890794e+005,-1.01333454354100e+001,-3.17177134674949e-001

1.21257325320831e+005,-1.01335994613697e+001,-3.21092250250417e-001

1.22950014503040e+005,-1.01338593931174e+001,-3.25042782268807e-001

1.24666332745679e+005,-1.01341253355993e+001,-3.29028570204801e-001

1.26406609898139e+005,-1.01343973939444e+001,-3.33049433327933e-001

1.28171180414339e+005,-1.01346756733625e+001,-3.37105170213822e-001

1.29960383416997e+005,-1.01349602790383e+001,-3.41195558256475e-001

1.31774562762811e+005,-1.01352513160190e+001,-3.45320353205470e-001

1.33614067108538e+005,-1.01355488890976e+001,-3.49479288697632e-001

1.35479249978003e+005,-1.01358531026889e+001,-3.53672075827521e-001

1.37370469830040e+005,-1.01361640607011e+001,-3.57898402720104e-001

1.39288090127379e+005,-1.01364818664014e+001,-3.62157934126020e-001

1.41232479406504e+005,-1.01368066222742e+001,-3.66450311051197e-001

1.43204011348474e+005,-1.01371384298763e+001,-3.70775150394056e-001

1.45203064850745e+005,-1.01374773896838e+001,-3.75132044622408e-001

1.47230024099979e+005,-1.01378236009340e+001,-3.79520561475875e-001

1.49285278645888e+005,-1.01381771614619e+001,-3.83940243701084e-001

1.51369223476094e+005,-1.01385381675304e+001,-3.88390608820683e-001

1.53482259092041e+005,-1.01389067136553e+001,-3.92871148940361e-001

1.55624791585964e+005,-1.01392828924235e+001,-3.97381330600857e-001

1.57797232718936e+005,-1.01396667943081e+001,-4.01920594661715e-001

1.59999999999999e+005,-1.01400585074755e+001,-4.06488356242997e-001

1.62233516766403e+005,-1.01404581175895e+001,-4.11084004709247e-001

1.64498212264969e+005,-1.01408657076096e+001,-4.15706903703572e-001

1.66794521734578e+005,-1.01412813575837e+001,-4.20356391245310e-001

1.69122886489819e+005,-1.01417051444386e+001,-4.25031779870515e-001

1.71483754005805e+005,-1.01421371417641e+001,-4.29732356847560e-001

1.73877578004168e+005,-1.01425774195950e+001,-4.34457384443698e-001

1.76304818540256e+005,-1.01430260441889e+001,-4.39206100264248e-001

1.78765942091554e+005,-1.01434830778005e+001,-4.43977717658422e-001

1.81261421647326e+005,-1.01439485784541e+001,-4.48771426199988e-001

1.83791736799524e+005,-1.01444225997142e+001,-4.53586392231244e-001

1.86357373834951e+005,-1.01449051904531e+001,-4.58421759496011e-001

1.88958825828723e+005,-1.01453963946191e+001,-4.63276649841938e-001

1.91596592739027e+005,-1.01458962510026e+001,-4.68150164010263e-001

1.94271181503206e+005,-1.01464047930033e+001,-4.73041382504230e-001

1.96983106135185e+005,-1.01469220483980e+001,-4.77949366541886e-001

1.99732887824256e+005,-1.01474480391095e+001,-4.82873159098913e-001

2.02521055035243e+005,-1.01479827809775e+001,-4.87811786036777e-001

2.05348143610063e+005,-1.01485262835326e+001,-4.92764257320792e-001

2.08214696870707e+005,-1.01490785497743e+001,-4.97729568326212e-001

2.11121265723661e+005,-1.01496395759520e+001,-5.02706701241196e-001

2.14068408765776e+005,-1.01502093513530e+001,-5.07694626551214e-001

2.17056692391625e+005,-1.01507878580955e+001,-5.12692304621739e-001

2.20086690902357e+005,-1.01513750709281e+001,-5.17698687371818e-001

2.23158986616063e+005,-1.01519709570389e+001,-5.22712720030277e-001

2.26274169979693e+005,-1.01525754758704e+001,-5.27733342993112e-001

2.29432839682530e+005,-1.01531885789471e+001,-5.32759493755090e-001

2.32635602771247e+005,-1.01538102097111e+001,-5.37790108937925e-001

2.35883074766574e+005,-1.01544403033709e+001,-5.42824126394187e-001

2.39175879781588e+005,-1.01550787867609e+001,-5.47860487396516e-001

2.42514650641661e+005,-1.01557255782153e+001,-5.52898138904697e-001

2.45900029006080e+005,-1.01563805874556e+001,-5.57936035901449e-001

2.49332665491357e+005,-1.01570437154924e+001,-5.62973143806238e-001

2.52813219796278e+005,-1.01577148545443e+001,-5.68008440945723e-001

2.56342360828676e+005,-1.01583938879722e+001,-5.73040921093103e-001

2.59920766833993e+005,-1.01590806902315e+001,-5.78069596055932e-001

2.63549125525621e+005,-1.01597751268417e+001,-5.83093498319506e-001

2.67228134217075e+005,-1.01604770543759e+001,-5.88111683726861e-001

2.70958499956006e+005,-1.01611863204690e+001,-5.93123234200354e-001

2.74740939660078e+005,-1.01619027638448e+001,-5.98127260493605e-001

2.78576180254757e+005,-1.01626262143657e+001,-6.03122904961154e-001

2.82464958813007e+005,-1.01633564931021e+001,-6.08109344344774e-001

2.86408022696948e+005,-1.01640934124230e+001,-6.13085792568262e-001

2.90406129701488e+005,-1.01648367761080e+001,-6.18051503530770e-001

2.94460048199957e+005,-1.01655863794825e+001,-6.23005773883836e-001

2.98570557291775e+005,-1.01663420095725e+001,-6.27947945800262e-001

3.02738446952187e+005,-1.01671034452842e+001,-6.32877409704225e-001

3.06964518184081e+005,-1.01678704576022e+001,-6.37793606974419e-001

3.11249583171928e+005,-1.01686428098129e+001,-6.42696032592336e-001

3.15594465437872e+005,-1.01694202577470e+001,-6.47584237742497e-001

3.19999999999997e+005,-1.01702025500433e+001,-6.52457832349610e-001

3.24467033532806e+005,-1.01709894284352e+001,-6.57316487533622e-001

3.28996424529938e+005,-1.01717806280545e+001,-6.62159937997622e-001

3.33589043469155e+005,-1.01725758777579e+001,-6.66987984308256e-001

3.38245772979638e+005,-1.01733749004688e+001,-6.71800495095329e-001

3.42967508011610e+005,-1.01741774135408e+001,-6.76597409129881e-001

3.47755156008335e+005,-1.01749831291352e+001,-6.81378737294361e-001

3.52609637080511e+005,-1.01757917546162e+001,-6.86144564432436e-001

3.57531884183106e+005,-1.01766029929603e+001,-6.90895051064895e-001

3.62522843294651e+005,-1.01774165431807e+001,-6.95630434970598e-001

3.67583473599047e+005,-1.01782321007621e+001,-7.00351032630492e-001

3.72714747669902e+005,-1.01790493581089e+001,-7.05057240519315e-001

3.77917651657445e+005,-1.01798680050020e+001,-7.09749536249095e-001

3.83193185478053e+005,-1.01806877290642e+001,-7.14428479552468e-001

3.88542363006410e+005,-1.01815082162331e+001,-7.19094713111841e-001

3.93966212270369e+005,-1.01823291512387e+001,-7.23748963220032e-001

3.99465775648511e+005,-1.01831502180848e+001,-7.28392040284588e-001

4.05042110070485e+005,-1.01839711005344e+001,-7.33024839154412e-001

4.10696287220124e+005,-1.01847914825930e+001,-7.37648339293398e-001

4.16429393741414e+005,-1.01856110489933e+001,-7.42263604776952e-001

4.22242531447321e+005,-1.01864294856774e+001,-7.46871784124510e-001

4.28136817531551e+005,-1.01872464802730e+001,-7.51474109974819e-001

4.34113384783250e+005,-1.01880617225666e+001,-7.56071898589500e-001

4.40173381804713e+005,-1.01888749049680e+001,-7.60666549204116e-001

4.46317973232124e+005,-1.01896857229666e+001,-7.65259543221756e-001

4.52548339959385e+005,-1.01904938755787e+001,-7.69852443254120e-001

4.58865679365059e+005,-1.01912990657816e+001,-7.74446892018529e-001

4.65271205542494e+005,-1.01921010009370e+001,-7.79044611093620e-001

4.71766149533147e+005,-1.01928993931994e+001,-7.83647399539614e-001

4.78351759563174e+005,-1.01936939599096e+001,-7.88257132391465e-001

4.85029301283321e+005,-1.01944844239728e+001,-7.92875759029908e-001

4.91800058012158e+005,-1.01952705142181e+001,-7.97505301441115e-001

4.98665330982714e+005,-1.01960519657413e+001,-8.02147852369321e-001

5.05626439592555e+005,-1.01968285202284e+001,-8.06805573372019e-001

5.12684721657352e+005,-1.01975999262596e+001,-8.11480692786422e-001

5.19841533667984e+005,-1.01983659395921e+001,-8.16175503617721e-001

5.27098251051240e+005,-1.01991263234240e+001,-8.20892361353049e-001

5.34456268434150e+005,-1.01998808486348e+001,-8.25633681716993e-001

5.41916999912011e+005,-1.02006292940065e+001,-8.30401938369952e-001

