Freq.,VOut,OutRef

1.00000000000000e+004,-1.46751402025556e+001,-1.54695701488613e-001

1.01395947979003e+004,-1.46751410766978e+001,-1.56855037763403e-001

1.02811382665607e+004,-1.46751419753856e+001,-1.59044511511562e-001

1.04246576084112e+004,-1.46751428993076e+001,-1.61264543192209e-001

1.05701804056138e+004,-1.46751438491714e+001,-1.63515559125492e-001

1.07177346253629e+004,-1.46751448257043e+001,-1.65797991570728e-001

1.08673486252606e+004,-1.46751458296544e+001,-1.68112278809901e-001

1.10190511587661e+004,-1.46751468617899e+001,-1.70458865233768e-001

1.11728713807222e+004,-1.46751479229012e+001,-1.72838201421517e-001

1.13288388529580e+004,-1.46751490138007e+001,-1.75250744230919e-001

1.14869835499703e+004,-1.46751501353232e+001,-1.77696956884140e-001

1.16473358646846e+004,-1.46751512883269e+001,-1.80177309055555e-001

1.18099266142953e+004,-1.46751524736944e+001,-1.82692276960978e-001

1.19747870461893e+004,-1.46751536923322e+001,-1.85242343450889e-001

1.21419488439505e+004,-1.46751549451730e+001,-1.87827998098205e-001

1.23114441334492e+004,-1.46751562331747e+001,-1.90449737295678e-001

1.24833054890161e+004,-1.46751575573225e+001,-1.93108064347441e-001

1.26575659397028e+004,-1.46751589186289e+001,-1.95803489566698e-001

1.28342589756290e+004,-1.46751603181347e+001,-1.98536530369766e-001

1.30134185544193e+004,-1.46751617569096e+001,-2.01307711380869e-001

1.31950791077289e+004,-1.46751632360536e+001,-2.04117564522045e-001

1.33792755478611e+004,-1.46751647566966e+001,-2.06966629125513e-001

1.35660432744767e+004,-1.46751663200008e+001,-2.09855452026436e-001

1.37554181813974e+004,-1.46751679271603e+001,-2.12784587673267e-001

1.39474366635040e+004,-1.46751695794025e+001,-2.15754598230347e-001

1.41421356237309e+004,-1.46751712779895e+001,-2.18766053683018e-001

1.43395524801583e+004,-1.46751730242178e+001,-2.21819531950970e-001

1.45397251732031e+004,-1.46751748194205e+001,-2.24915618992226e-001

1.47426921729110e+004,-1.46751766649678e+001,-2.28054908916872e-001

1.49484924863494e+004,-1.46751785622678e+001,-2.31238004101205e-001

1.51571656651040e+004,-1.46751805127680e+001,-2.34465515298078e-001

1.53687518128801e+004,-1.46751825179562e+001,-2.37738061755585e-001

1.55832915932100e+004,-1.46751845793612e+001,-2.41056271334657e-001

1.58008262372675e+004,-1.46751866985548e+001,-2.44420780624070e-001

1.60213975517924e+004,-1.46751888771520e+001,-2.47832235065786e-001

1.62450479271247e+004,-1.46751911168132e+001,-2.51291289072953e-001

1.64718203453514e+004,-1.46751934192444e+001,-2.54798606157322e-001

1.67017583885674e+004,-1.46751957861993e+001,-2.58354859050592e-001

1.69349062472505e+004,-1.46751982194803e+001,-2.61960729833466e-001

1.71713087287550e+004,-1.46752007209393e+001,-2.65616910067277e-001

1.74110112659224e+004,-1.46752032924802e+001,-2.69324100918872e-001

1.76540599258131e+004,-1.46752059360594e+001,-2.73083013295550e-001

1.79005014185594e+004,-1.46752086536876e+001,-2.76894367980153e-001

1.81503831063432e+004,-1.46752114474310e+001,-2.80758895765055e-001

1.84037530124975e+004,-1.46752143194130e+001,-2.84677337591942e-001

1.86606598307361e+004,-1.46752172718162e+001,-2.88650444686914e-001

1.89211529345119e+004,-1.46752203068832e+001,-2.92678978706499e-001

1.91852823865052e+004,-1.46752234269185e+001,-2.96763711879032e-001

1.94530989482457e+004,-1.46752266342908e+001,-3.00905427147200e-001

1.97246540898671e+004,-1.46752299314337e+001,-3.05104918319961e-001

1.99999999999999e+004,-1.46752333208483e+001,-3.09362990217589e-001

2.02791895958005e+004,-1.46752368051047e+001,-3.13680458822074e-001

2.05622765331213e+004,-1.46752403868438e+001,-3.18058151434378e-001

2.08493152168224e+004,-1.46752440687794e+001,-3.22496906824296e-001

2.11403608112276e+004,-1.46752478536999e+001,-3.26997575391052e-001

2.14354692507258e+004,-1.46752517444707e+001,-3.31561019319255e-001

2.17346972505211e+004,-1.46752557440358e+001,-3.36188112742243e-001

2.20381023175322e+004,-1.46752598554207e+001,-3.40879741903667e-001

2.23457427614443e+004,-1.46752640817333e+001,-3.45636805324502e-001

2.26576777059159e+004,-1.46752684261674e+001,-3.50460213968477e-001

2.29739670999406e+004,-1.46752728920045e+001,-3.55350891411765e-001

2.32946717293690e+004,-1.46752774826157e+001,-3.60309774017281e-001

2.36198532285905e+004,-1.46752822014652e+001,-3.65337811104561e-001

2.39495740923785e+004,-1.46752870521111e+001,-3.70435965131701e-001

2.42838976879009e+004,-1.46752920382099e+001,-3.75605211867172e-001

2.46228882668982e+004,-1.46752971635174e+001,-3.80846540575870e-001

2.49666109780322e+004,-1.46753024318926e+001,-3.86160954198516e-001

2.53151318794055e+004,-1.46753078472994e+001,-3.91549469541085e-001

2.56685179512580e+004,-1.46753134138102e+001,-3.97013117459509e-001

2.60268371088386e+004,-1.46753191356082e+001,-4.02552943050447e-001

2.63901582154578e+004,-1.46753250169909e+001,-4.08170005843868e-001

2.67585510957221e+004,-1.46753310623722e+001,-4.13865379999786e-001

2.71320865489533e+004,-1.46753372762865e+001,-4.19640154504718e-001

2.75108363627948e+004,-1.46753436633910e+001,-4.25495433370039e-001

2.78948733270080e+004,-1.46753502284698e+001,-4.31432335836480e-001

2.82842712474618e+004,-1.46753569764359e+001,-4.37451996580400e-001

2.86791049603164e+004,-1.46753639123361e+001,-4.43555565917017e-001

2.90794503464061e+004,-1.46753710413533e+001,-4.49744210015957e-001

2.94853843458219e+004,-1.46753783688108e+001,-4.56019111108752e-001

2.98969849726987e+004,-1.46753859001750e+001,-4.62381467710219e-001

3.03143313302078e+004,-1.46753936410601e+001,-4.68832494830961e-001

3.07375036257601e+004,-1.46754015972315e+001,-4.75373424200846e-001

3.11665831864199e+004,-1.46754097746095e+001,-4.82005504492836e-001

3.16016524745350e+004,-1.46754181792734e+001,-4.88730001548288e-001

3.20427951035848e+004,-1.46754268174656e+001,-4.95548198606280e-001

3.24900958542493e+004,-1.46754356955957e+001,-5.02461396534341e-001

3.29436406907028e+004,-1.46754448202447e+001,-5.09470914066172e-001

3.34035167771346e+004,-1.46754541981695e+001,-5.16578088033535e-001

3.38698124945009e+004,-1.46754638363072e+001,-5.23784273611808e-001

3.43426174575100e+004,-1.46754737417796e+001,-5.31090844560019e-001

3.48220225318448e+004,-1.46754839218976e+001,-5.38499193468418e-001

3.53081198516260e+004,-1.46754943841667e+001,-5.46010732004768e-001

3.58010028371187e+004,-1.46755051362910e+001,-5.53626891169047e-001

3.63007662126863e+004,-1.46755161861782e+001,-5.61349121546277e-001

3.68075060249948e+004,-1.46755275419453e+001,-5.69178893565884e-001

3.73213196614721e+004,-1.46755392119228e+001,-5.77117697760032e-001

3.78423058690237e+004,-1.46755512046608e+001,-5.85167045028404e-001

3.83705647730104e+004,-1.46755635289336e+001,-5.93328466906273e-001

3.89061978964912e+004,-1.46755761937457e+001,-6.01603515831455e-001

3.94493081797342e+004,-1.46755892083368e+001,-6.09993765420465e-001

3.99999999999998e+004,-1.46756025821882e+001,-6.18500810740423e-001

4.05583791916010e+004,-1.46756163250275e+001,-6.27126268592080e-001

4.11245530662425e+004,-1.46756304468357e+001,-6.35871777788754e-001

4.16986304336447e+004,-1.46756449578520e+001,-6.44738999443013e-001

4.22807216224550e+004,-1.46756598685807e+001,-6.53729617255617e-001

4.28709385014515e+004,-1.46756751897968e+001,-6.62845337805969e-001

4.34693945010421e+004,-1.46756909325529e+001,-6.72087890846554e-001

4.40762046350642e+004,-1.46757071081851e+001,-6.81459029602143e-001

4.46914855228886e+004,-1.46757237283196e+001,-6.90960531070284e-001

4.53153554118317e+004,-1.46757408048791e+001,-7.00594196326319e-001

4.59479341998812e+004,-1.46757583500903e+001,-7.10361850829454e-001

4.65893434587380e+004,-1.46757763764896e+001,-7.20265344734426e-001

4.72397064571810e+004,-1.46757948969309e+001,-7.30306553207159e-001

4.78991481847569e+004,-1.46758139245920e+001,-7.40487376739396e-001

4.85677953758016e+004,-1.46758334729821e+001,-7.50809741471488e-001

4.92457765337964e+004,-1.46758535559485e+001,-7.61275599516342e-001

4.99332219560642e+004,-1.46758741876846e+001,-7.71886929284374e-001

5.06302637588109e+004,-1.46758953827365e+001,-7.82645735817720e-001

5.13370359025159e+004,-1.46759171560110e+001,-7.93554051121063e-001

5.20536742176771e+004,-1.46759395227826e+001,-8.04613934501566e-001

5.27803164309155e+004,-1.46759624987019e+001,-8.15827472906501e-001

5.35171021914442e+004,-1.46759860998023e+001,-8.27196781270559e-001

5.42641730979066e+004,-1.46760103425086e+001,-8.38724002860662e-001

5.50216727255895e+004,-1.46760352436439e+001,-8.50411309628483e-001

5.57897466540159e+004,-1.46760608204385e+001,-8.62260902562691e-001

5.65685424949235e+004,-1.46760870905370e+001,-8.74275012049510e-001

5.73582099206328e+004,-1.46761140720064e+001,-8.86455898229807e-001

5.81589006928121e+004,-1.46761417833443e+001,-8.98805851366974e-001

5.89707686916437e+004,-1.46761702434869e+001,-9.11327192211829e-001

5.97939699453972e+004,-1.46761994718166e+001,-9.24022272376252e-001

6.06286626604156e+004,-1.46762294881703e+001,-9.36893474706411e-001

6.14750072515201e+004,-1.46762603128476e+001,-9.49943213661177e-001

6.23331663728396e+004,-1.46762919666186e+001,-9.63173935693741e-001

6.32033049490698e+004,-1.46763244707318e+001,-9.76588119636571e-001

6.40855902071694e+004,-1.46763578469222e+001,-9.90188277089914e-001

6.49801917084985e+004,-1.46763921174189e+001,-1.00397695281487e+000

6.58872813814055e+004,-1.46764273049536e+001,-1.01795672512651e+000

6.68070335542691e+004,-1.46764634327675e+001,-1.03213020629518e+000

6.77396249890018e+004,-1.46765005246197e+001,-1.04650004294887e+000

6.86852349150199e+004,-1.46765386047941e+001,-1.06106891647838e+000

6.96440450636895e+004,-1.46765776981072e+001,-1.07583954344814e+000

7.06162397032520e+004,-1.46766178299157e+001,-1.09081467600841e+000

7.16020056742374e+004,-1.46766590261225e+001,-1.10599710231493e+000

7.26015324253724e+004,-1.46767013131850e+001,-1.12138964694622e+000

7.36150120499896e+004,-1.46767447181207e+001,-1.13699517133134e+000

7.46426393229441e+004,-1.46767892685144e+001,-1.15281657417662e+000

7.56846117380472e+004,-1.46768349925241e+001,-1.16885679189773e+000

7.67411295460207e+004,-1.46768819188869e+001,-1.18511879905643e+000

7.78123957929823e+004,-1.46769300769250e+001,-1.20160560879976e+000

7.88986163594682e+004,-1.46769794965507e+001,-1.21832027330445e+000

7.99999999999995e+004,-1.46770302082715e+001,-1.23526588422504e+000

8.11167583832018e+004,-1.46770822431946e+001,-1.25244557314612e+000

8.22491061324848e+004,-1.46771356330313e+001,-1.26986251203726e+000

8.33972608672892e+004,-1.46771904101005e+001,-1.28751991371610e+000

8.45614432449099e+004,-1.46772466073316e+001,-1.30542103231180e+000

8.57418770029029e+004,-1.46773042582683e+001,-1.32356916373445e+000

8.69387890020841e+004,-1.46773633970694e+001,-1.34196764615099e+000

8.81524092701283e+004,-1.46774240585112e+001,-1.36061986046256e+000

8.93829710457770e+004,-1.46774862779886e+001,-1.37952923078916e+000

9.06307108236633e+004,-1.46775500915145e+001,-1.39869922495880e+000

9.18958683997622e+004,-1.46776155357202e+001,-1.41813335500193e+000

9.31786869174758e+004,-1.46776826478539e+001,-1.43783517765087e+000

9.44794129143618e+004,-1.46777514657787e+001,-1.45780829484482e+000

9.57982963695136e+004,-1.46778220279699e+001,-1.47805635424197e+000

9.71355907516031e+004,-1.46778943735110e+001,-1.49858304973611e+000

9.84915530675926e+004,-1.46779685420895e+001,-1.51939212198052e+000

9.98664439121282e+004,-1.46780445739911e+001,-1.54048735891745e+000

1.01260527517622e+005,-1.46781225100930e+001,-1.56187259631663e+000

1.02674071805032e+005,-1.46782023918562e+001,-1.58355171831834e+000

1.04107348435354e+005,-1.46782842613170e+001,-1.60552865798504e+000

1.05560632861831e+005,-1.46783681610765e+001,-1.62780739786196e+000

1.07034204382888e+005,-1.46784541342896e+001,-1.65039197054436e+000

1.08528346195813e+005,-1.46785422246529e+001,-1.67328645925391e+000

1.10043345451179e+005,-1.46786324763900e+001,-1.69649499842458e+000

1.11579493308032e+005,-1.46787249342373e+001,-1.72002177429734e+000

1.13137084989847e+005,-1.46788196434265e+001,-1.74387102552585e+000

1.14716419841265e+005,-1.46789166496673e+001,-1.76804704379182e+000

1.16317801385624e+005,-1.46790159991270e+001,-1.79255417443135e+000

1.17941537383287e+005,-1.46791177384099e+001,-1.81739681707349e+000

1.19587939890794e+005,-1.46792219145341e+001,-1.84257942629097e+000

1.21257325320831e+005,-1.46793285749071e+001,-1.86810651226334e+000

1.22950014503040e+005,-1.46794377672998e+001,-1.89398264145381e+000

1.24666332745679e+005,-1.46795495398182e+001,-1.92021243730111e+000

1.26406609898139e+005,-1.46796639408736e+001,-1.94680058092497e+000

1.28171180414339e+005,-1.46797810191513e+001,-1.97375181184766e+000

1.29960383416997e+005,-1.46799008235771e+001,-2.00107092873377e+000

1.31774562762811e+005,-1.46800234032813e+001,-2.02876279014528e+000

1.33614067108538e+005,-1.46801488075622e+001,-2.05683231531579e+000

1.35479249978003e+005,-1.46802770858463e+001,-2.08528448494369e+000

1.37370469830040e+005,-1.46804082876470e+001,-2.11412434200666e+000

1.39288090127379e+005,-1.46805424625217e+001,-2.14335699259482e+000

1.41232479406504e+005,-1.46806796600262e+001,-2.17298760676954e+000

1.43204011348474e+005,-1.46808199296676e+001,-2.20302141944191e+000

1.45203064850745e+005,-1.46809633208552e+001,-2.23346373127808e+000

1.47230024099979e+005,-1.46811098828487e+001,-2.26431990962884e+000

1.49285278645888e+005,-1.46812596647057e+001,-2.29559538948600e+000

1.51369223476094e+005,-1.46814127152259e+001,-2.32729567446741e+000

1.53482259092041e+005,-1.46815690828945e+001,-2.35942633782883e+000

1.55624791585964e+005,-1.46817288158229e+001,-2.39199302350910e+000

1.57797232718936e+005,-1.46818919616882e+001,-2.42500144720330e+000

1.59999999999999e+005,-1.46820585676706e+001,-2.45845739747219e+000

1.62233516766403e+005,-1.46822286803889e+001,-2.49236673688302e+000

1.64498212264969e+005,-1.46824023458355e+001,-2.52673540318676e+000

1.66794521734578e+005,-1.46825796093082e+001,-2.56156941053196e+000

1.69122886489819e+005,-1.46827605153421e+001,-2.59687485071680e+000

1.71483754005805e+005,-1.46829451076393e+001,-2.63265789447991e+000

1.73877578004168e+005,-1.46831334289985e+001,-2.66892479283134e+000

1.76304818540256e+005,-1.46833255212419e+001,-2.70568187842709e+000

1.78765942091554e+005,-1.46835214251430e+001,-2.74293556698552e+000

1.81261421647326e+005,-1.46837211803527e+001,-2.78069235874808e+000

1.83791736799524e+005,-1.46839248253255e+001,-2.81895883998606e+000

1.86357373834951e+005,-1.46841323972448e+001,-2.85774168455459e+000

1.88958825828723e+005,-1.46843439319489e+001,-2.89704765549391e+000

1.91596592739027e+005,-1.46845594638561e+001,-2.93688360668018e+000

1.94271181503206e+005,-1.46847790258916e+001,-2.97725648452547e+000

1.96983106135185e+005,-1.46850026494138e+001,-3.01817332973081e+000

1.99732887824256e+005,-1.46852303641419e+001,-3.05964127908923e+000

2.02521055035243e+005,-1.46854621980853e+001,-3.10166756734224e+000

2.05348143610063e+005,-1.46856981774734e+001,-3.14425952909009e+000

2.08214696870707e+005,-1.46859383266882e+001,-3.18742460075690e+000

2.11121265723661e+005,-1.46861826681983e+001,-3.23117032260849e+000

2.14068408765776e+005,-1.46864312224955e+001,-3.27550434082770e+000

2.17056692391625e+005,-1.46866840080346e+001,-3.32043440964300e+000

2.20086690902357e+005,-1.46869410411757e+001,-3.36596839351422e+000

2.23158986616063e+005,-1.46872023361300e+001,-3.41211426937393e+000

2.26274169979693e+005,-1.46874679049098e+001,-3.45888012892268e+000

2.29432839682530e+005,-1.46877377572825e+001,-3.50627418098210e+000

2.32635602771247e+005,-1.46880119007286e+001,-3.55430475390023e+000

2.35883074766574e+005,-1.46882903404054e+001,-3.60298029801360e+000

2.39175879781588e+005,-1.46885730791155e+001,-3.65230938816161e+000

2.42514650641661e+005,-1.46888601172803e+001,-3.70230072625438e+000

2.45900029006080e+005,-1.46891514529209e+001,-3.75296314389135e+000

2.49332665491357e+005,-1.46894470816440e+001,-3.80430560503147e+000

2.52813219796278e+005,-1.46897469966347e+001,-3.85633720871248e+000

2.56342360828676e+005,-1.46900511886565e+001,-3.90906719181795e+000

2.59920766833993e+005,-1.46903596460587e+001,-3.96250493188873e+000

2.63549125525621e+005,-1.46906723547909e+001,-4.01665994998158e+000

2.67228134217075e+005,-1.46909892984257e+001,-4.07154191356637e+000

2.70958499956006e+005,-1.46913104581890e+001,-4.12716063946617e+000

2.74740939660078e+005,-1.46916358129997e+001,-4.18352609683370e+000

2.78576180254757e+005,-1.46919653395169e+001,-4.24064841016263e+000

2.82464958813007e+005,-1.46922990121964e+001,-4.29853786233169e+000

2.86408022696948e+005,-1.46926368033560e+001,-4.35720489768057e+000

2.90406129701488e+005,-1.46929786832503e+001,-4.41666012510941e+000

2.94460048199957e+005,-1.46933246201537e+001,-4.47691432120602e+000

2.98570557291775e+005,-1.46936745804541e+001,-4.53797843339272e+000

3.02738446952187e+005,-1.46940285287543e+001,-4.59986358309193e+000

3.06964518184081e+005,-1.46943864279845e+001,-4.66258106890633e+000

3.11249583171928e+005,-1.46947482395225e+001,-4.72614236981291e+000

3.15594465437872e+005,-1.46951139233242e+001,-4.79055914836423e+000

3.19999999999997e+005,-1.46954834380626e+001,-4.85584325389686e+000

3.24467033532806e+005,-1.46958567412767e+001,-4.92200672574283e+000

3.28996424529938e+005,-1.46962337895281e+001,-4.98906179644029e+000

3.33589043469155e+005,-1.46966145385671e+001,-5.05702089494214e+000

3.38245772979638e+005,-1.46969989435071e+001,-5.12589664981813e+000

3.42967508011610e+005,-1.46973869590067e+001,-5.19570189244860e+000

3.47755156008335e+005,-1.46977785394601e+001,-5.26644966020786e+000

3.52609637080511e+005,-1.46981736391947e+001,-5.33815319963318e+000

3.57531884183106e+005,-1.46985722126760e+001,-5.41082596957730e+000

3.62522843294651e+005,-1.46989742147188e+001,-5.48448164434528e+000

3.67583473599047e+005,-1.46993796007054e+001,-5.55913411680837e+000

3.72714747669902e+005,-1.46997883268087e+001,-5.63479750149905e+000

3.77917651657445e+005,-1.47002003502213e+001,-5.71148613768100e+000

3.83193185478053e+005,-1.47006156293893e+001,-5.78921459239593e+000

3.88542363006410e+005,-1.47010341242501e+001,-5.86799766348503e+000

3.93966212270369e+005,-1.47014557964743e+001,-5.94785038258371e+000

3.99465775648511e+005,-1.47018806097106e+001,-6.02878801809084e+000

4.05042110070485e+005,-1.47023085298340e+001,-6.11082607811064e+000

4.10696287220124e+005,-1.47027395251949e+001,-6.19398031336881e+000

4.16429393741414e+005,-1.47031735668711e+001,-6.27826672010241e+000

4.22242531447321e+005,-1.47036106289200e+001,-6.36370154292329e+000

4.28136817531551e+005,-1.47040506886316e+001,-6.45030127765910e+000

4.34113384783250e+005,-1.47044937267814e+001,-6.53808267416918e+000

4.40173381804713e+005,-1.47049397278825e+001,-6.62706273914004e+000

4.46317973232124e+005,-1.47053886804371e+001,-6.71725873886034e+000

4.52548339959385e+005,-1.47058405771860e+001,-6.80868820197809e+000

4.58865679365059e+005,-1.47062954153558e+001,-6.90136892224191e+000

4.65271205542494e+005,-1.47067531969045e+001,-6.99531896123044e+000

4.71766149533147e+005,-1.47072139287634e+001,-7.09055665106927e+000

4.78351759563174e+005,-1.47076776230759e+001,-7.18710059714214e+000

4.85029301283321e+005,-1.47081442974327e+001,-7.28496968079727e+000

4.91800058012158e+005,-1.47086139751030e+001,-7.38418306205172e+000

4.98665330982714e+005,-1.47090866852618e+001,-7.48476018229941e+000

5.05626439592555e+005,-1.47095624632118e+001,-7.58672076702361e+000

5.12684721657352e+005,-1.47100413506011e+001,-7.69008482852047e+000

5.19841533667984e+005,-1.47105233956367e+001,-7.79487266863356e+000

5.27098251051240e+005,-1.47110086532912e+001,-7.90110488150814e+000

5.34456268434150e+005,-1.47114971855064e+001,-8.00880235636386e+000

5.41916999912011e+005,-1.47119890613897e+001,-8.11798628029420e+000

