Freq.,VOut,OutRef

1.00000000000000e+004,-1.86169553025055e+001,-1.27438759367386e-001

1.01395947979003e+004,-1.86169561642486e+001,-1.29217614811150e-001

1.02811382665607e+004,-1.86169570501917e+001,-1.31021296917885e-001

1.04246576084112e+004,-1.86169579610133e+001,-1.32850152034211e-001

1.05701804056138e+004,-1.86169588974115e+001,-1.34704531329348e-001

1.07177346253629e+004,-1.86169598601034e+001,-1.36584790867643e-001

1.08673486252606e+004,-1.86169608498267e+001,-1.38491291671252e-001

1.10190511587661e+004,-1.86169618673390e+001,-1.40424399795062e-001

1.11728713807222e+004,-1.86169629134200e+001,-1.42384486387670e-001

1.13288388529580e+004,-1.86169639888704e+001,-1.44371927771203e-001

1.14869835499703e+004,-1.86169650945137e+001,-1.46387105507517e-001

1.16473358646846e+004,-1.86169662311962e+001,-1.48430406473186e-001

1.18099266142953e+004,-1.86169673997884e+001,-1.50502222929758e-001

1.19747870461893e+004,-1.86169686011843e+001,-1.52602952604469e-001

1.21419488439505e+004,-1.86169698363035e+001,-1.54732998759837e-001

1.23114441334492e+004,-1.86169711060912e+001,-1.56892770272788e-001

1.24833054890161e+004,-1.86169724115188e+001,-1.59082681715004e-001

1.26575659397028e+004,-1.86169737535847e+001,-1.61303153427376e-001

1.28342589756290e+004,-1.86169751333157e+001,-1.63554611601878e-001

1.30134185544193e+004,-1.86169765517669e+001,-1.65837488362481e-001

1.31950791077289e+004,-1.86169780100230e+001,-1.68152221846566e-001

1.33792755478611e+004,-1.86169795091987e+001,-1.70499256290952e-001

1.35660432744767e+004,-1.86169810504403e+001,-1.72879042110712e-001

1.37554181813974e+004,-1.86169826349254e+001,-1.75292035991863e-001

1.39474366635040e+004,-1.86169842638651e+001,-1.77738700969319e-001

1.41421356237309e+004,-1.86169859385039e+001,-1.80219506523465e-001

1.43395524801583e+004,-1.86169876601211e+001,-1.82734928662249e-001

1.45397251732031e+004,-1.86169894300316e+001,-1.85285450015996e-001

1.47426921729110e+004,-1.86169912495868e+001,-1.87871559926380e-001

1.49484924863494e+004,-1.86169931201763e+001,-1.90493754537455e-001

1.51571656651040e+004,-1.86169950432278e+001,-1.93152536895632e-001

1.53687518128801e+004,-1.86169970202088e+001,-1.95848417038350e-001

1.55832915932100e+004,-1.86169990526280e+001,-1.98581912092688e-001

1.58008262372675e+004,-1.86170011420359e+001,-2.01353546374944e-001

1.60213975517924e+004,-1.86170032900260e+001,-2.04163851487420e-001

1.62450479271247e+004,-1.86170054982362e+001,-2.07013366419372e-001

1.64718203453514e+004,-1.86170077683502e+001,-2.09902637647754e-001

1.67017583885674e+004,-1.86170101020978e+001,-2.12832219244569e-001

1.69349062472505e+004,-1.86170125012578e+001,-2.15802672974227e-001

1.71713087287550e+004,-1.86170149676578e+001,-2.18814568404542e-001

1.74110112659224e+004,-1.86170175031761e+001,-2.21868483014118e-001

1.76540599258131e+004,-1.86170201097433e+001,-2.24965002298430e-001

1.79005014185594e+004,-1.86170227893436e+001,-2.28104719880834e-001

1.81503831063432e+004,-1.86170255440161e+001,-2.31288237624525e-001

1.84037530124975e+004,-1.86170283758566e+001,-2.34516165745339e-001

1.86606598307361e+004,-1.86170312870188e+001,-2.37789122926032e-001

1.89211529345119e+004,-1.86170342797163e+001,-2.41107736433321e-001

1.91852823865052e+004,-1.86170373562236e+001,-2.44472642235601e-001

1.94530989482457e+004,-1.86170405188785e+001,-2.47884485118783e-001

1.97246540898671e+004,-1.86170437700833e+001,-2.51343918811496e-001

1.99999999999999e+004,-1.86170471123069e+001,-2.54851606105317e-001

2.02791895958005e+004,-1.86170505480862e+001,-2.58408218978153e-001

2.05622765331213e+004,-1.86170540800282e+001,-2.62014438720961e-001

2.08493152168224e+004,-1.86170577108121e+001,-2.65670956063244e-001

2.11403608112276e+004,-1.86170614431909e+001,-2.69378471304191e-001

2.14354692507258e+004,-1.86170652799936e+001,-2.73137694441031e-001

2.17346972505211e+004,-1.86170692241272e+001,-2.76949345302054e-001

2.20381023175322e+004,-1.86170732785785e+001,-2.80814153681334e-001

2.23457427614443e+004,-1.86170774464171e+001,-2.84732859472553e-001

2.26576777059159e+004,-1.86170817307964e+001,-2.88706212808787e-001

2.29739670999406e+004,-1.86170861349571e+001,-2.92734974198842e-001

2.32946717293690e+004,-1.86170906622288e+001,-2.96819914669974e-001

2.36198532285905e+004,-1.86170953160324e+001,-3.00961815910854e-001

2.39495740923785e+004,-1.86171000998829e+001,-3.05161470414927e-001

2.42838976879009e+004,-1.86171050173915e+001,-3.09419681627834e-001

2.46228882668982e+004,-1.86171100722689e+001,-3.13737264094437e-001

2.49666109780322e+004,-1.86171152683268e+001,-3.18115043611178e-001

2.53151318794055e+004,-1.86171206094818e+001,-3.22553857374812e-001

2.56685179512580e+004,-1.86171260997570e+001,-3.27054554141305e-001

2.60268371088386e+004,-1.86171317432861e+001,-3.31617994376364e-001

2.63901582154578e+004,-1.86171375443153e+001,-3.36245050415701e-001

2.67585510957221e+004,-1.86171435072069e+001,-3.40936606626565e-001

2.71320865489533e+004,-1.86171496364419e+001,-3.45693559566357e-001

2.75108363627948e+004,-1.86171559366233e+001,-3.50516818149861e-001

2.78948733270080e+004,-1.86171624124799e+001,-3.55407303810776e-001

2.82842712474618e+004,-1.86171690688683e+001,-3.60365950674399e-001

2.86791049603164e+004,-1.86171759107778e+001,-3.65393705724357e-001

2.90794503464061e+004,-1.86171829433323e+001,-3.70491528976365e-001

2.94853843458219e+004,-1.86171901717954e+001,-3.75660393651222e-001

2.98969849726987e+004,-1.86171976015727e+001,-3.80901286351608e-001

3.03143313302078e+004,-1.86172052382161e+001,-3.86215207241096e-001

3.07375036257601e+004,-1.86172130874277e+001,-3.91603170224977e-001

3.11665831864199e+004,-1.86172211550635e+001,-3.97066203130675e-001

3.16016524745350e+004,-1.86172294471372e+001,-4.02605347895994e-001

3.20427951035848e+004,-1.86172379698246e+001,-4.08221660752749e-001

3.24900958542493e+004,-1.86172467294673e+001,-4.13916212421427e-001

3.29436406907028e+004,-1.86172557325777e+001,-4.19690088296047e-001

3.34035167771346e+004,-1.86172649858427e+001,-4.25544388643418e-001

3.38698124945009e+004,-1.86172744961280e+001,-4.31480228797894e-001

3.43426174575100e+004,-1.86172842704834e+001,-4.37498739358006e-001

3.48220225318448e+004,-1.86172943161469e+001,-4.43601066389391e-001

3.53081198516260e+004,-1.86173046405493e+001,-4.49788371628413e-001

3.58010028371187e+004,-1.86173152513198e+001,-4.56061832683735e-001

3.63007662126863e+004,-1.86173261562901e+001,-4.62422643248379e-001

3.68075060249948e+004,-1.86173373634999e+001,-4.68872013308975e-001

3.73213196614721e+004,-1.86173488812019e+001,-4.75411169355603e-001

3.78423058690237e+004,-1.86173607178673e+001,-4.82041354600664e-001

3.83705647730104e+004,-1.86173728821910e+001,-4.88763829192529e-001

3.89061978964912e+004,-1.86173853830973e+001,-4.95579870437466e-001

3.94493081797342e+004,-1.86173982297450e+001,-5.02490773021517e-001

3.99999999999998e+004,-1.86174114315337e+001,-5.09497849234784e-001

4.05583791916010e+004,-1.86174249981093e+001,-5.16602429198385e-001

4.11245530662425e+004,-1.86174389393702e+001,-5.23805861094383e-001

4.16986304336447e+004,-1.86174532654730e+001,-5.31109511396931e-001

4.22807216224550e+004,-1.86174679868389e+001,-5.38514765108211e-001

4.28709385014515e+004,-1.86174831141599e+001,-5.46023025993954e-001

4.34693945010421e+004,-1.86174986584055e+001,-5.53635716823569e-001

4.40762046350642e+004,-1.86175146308288e+001,-5.61354279611463e-001

4.46914855228886e+004,-1.86175310429732e+001,-5.69180175862790e-001

4.53153554118317e+004,-1.86175479066796e+001,-5.77114886818763e-001

4.59479341998812e+004,-1.86175652340924e+001,-5.85159913707695e-001

4.65893434587380e+004,-1.86175830376672e+001,-5.93316777997169e-001

4.72397064571810e+004,-1.86176013301779e+001,-6.01587021646006e-001

4.78991481847569e+004,-1.86176201247234e+001,-6.09972207364935e-001

4.85677953758016e+004,-1.86176394347352e+001,-6.18473918873345e-001

4.92457765337964e+004,-1.86176592739850e+001,-6.27093761163207e-001

4.99332219560642e+004,-1.86176796565916e+001,-6.35833360764100e-001

5.06302637588109e+004,-1.86177005970292e+001,-6.44694366009159e-001

5.13370359025159e+004,-1.86177221101348e+001,-6.53678447305632e-001

5.20536742176771e+004,-1.86177442111162e+001,-6.62787297406895e-001

5.27803164309155e+004,-1.86177669155597e+001,-6.72022631689539e-001

5.35171021914442e+004,-1.86177902394382e+001,-6.81386188427256e-001

5.42641730979066e+004,-1.86178141991194e+001,-6.90879729074680e-001

5.50216727255895e+004,-1.86178388113737e+001,-7.00505038548321e-001

5.57897466540159e+004,-1.86178640933832e+001,-7.10263925510810e-001

5.65685424949235e+004,-1.86178900627491e+001,-7.20158222661494e-001

5.73582099206328e+004,-1.86179167375006e+001,-7.30189787024100e-001

5.81589006928121e+004,-1.86179441361035e+001,-7.40360500241815e-001

5.89707686916437e+004,-1.86179722774684e+001,-7.50672268871250e-001

5.97939699453972e+004,-1.86180011809597e+001,-7.61127024681166e-001

6.06286626604156e+004,-1.86180308664038e+001,-7.71726724953997e-001

6.14750072515201e+004,-1.86180613540980e+001,-7.82473352787174e-001

6.23331663728396e+004,-1.86180926648191e+001,-7.93368917401547e-001

6.32033049490698e+004,-1.86181248198323e+001,-8.04415454446826e-001

6.40855902071694e+004,-1.86181578408996e+001,-8.15615026315082e-001

6.49801917084985e+004,-1.86181917502889e+001,-8.26969722452590e-001

6.58872813814055e+004,-1.86182265707823e+001,-8.38481659677167e-001

6.68070335542691e+004,-1.86182623256852e+001,-8.50152982496024e-001

6.77396249890018e+004,-1.86182990388342e+001,-8.61985863428209e-001

6.86852349150199e+004,-1.86183367346068e+001,-8.73982503326589e-001

6.96440450636895e+004,-1.86183754379289e+001,-8.86145131707038e-001

7.06162397032520e+004,-1.86184151742838e+001,-8.98476007075007e-001

7.16020056742374e+004,-1.86184559697201e+001,-9.10977417260650e-001

7.26015324253724e+004,-1.86184978508604e+001,-9.23651679749161e-001

7.36150120499896e+004,-1.86185408449089e+001,-9.36501142022350e-001

7.46426393229441e+004,-1.86185849796600e+001,-9.49528181895730e-001

7.56846117380472e+004,-1.86186302835050e+001,-9.62735207862933e-001

7.67411295460207e+004,-1.86186767854408e+001,-9.76124659439982e-001

7.78123957929823e+004,-1.86187245150765e+001,-9.89699007514912e-001

7.88986163594682e+004,-1.86187735026407e+001,-1.00346075469872e+000

7.99999999999995e+004,-1.86188237789885e+001,-1.01741243567921e+000

8.11167583832018e+004,-1.86188753756079e+001,-1.03155661757831e+000

8.22491061324848e+004,-1.86189283246261e+001,-1.04589590031345e+000

8.33972608672892e+004,-1.86189826588153e+001,-1.06043291695983e+000

8.45614432449099e+004,-1.86190384115986e+001,-1.07517033411680e+000

8.57418770029029e+004,-1.86190956170546e+001,-1.09011085227995e+000

8.69387890020841e+004,-1.86191543099226e+001,-1.10525720621166e+000

8.81524092701283e+004,-1.86192145256063e+001,-1.12061216532103e+000

8.93829710457770e+004,-1.86192763001785e+001,-1.13617853404104e+000

9.06307108236633e+004,-1.86193396703833e+001,-1.15195915221602e+000

9.18958683997622e+004,-1.86194046736392e+001,-1.16795689548787e+000

9.31786869174758e+004,-1.86194713480417e+001,-1.18417467568810e+000

9.44794129143618e+004,-1.86195397323637e+001,-1.20061544123607e+000

9.57982963695136e+004,-1.86196098660571e+001,-1.21728217753797e+000

9.71355907516031e+004,-1.86196817892526e+001,-1.23417790739338e+000

9.84915530675926e+004,-1.86197555427591e+001,-1.25130569140462e+000

9.98664439121282e+004,-1.86198311680621e+001,-1.26866862839277e+000

1.01260527517622e+005,-1.86199087073213e+001,-1.28626985581742e+000

1.02674071805032e+005,-1.86199882033679e+001,-1.30411255020338e+000

1.04107348435354e+005,-1.86200696997000e+001,-1.32219992757212e+000

1.05560632861831e+005,-1.86201532404778e+001,-1.34053524388066e+000

1.07034204382888e+005,-1.86202388705176e+001,-1.35912179546406e+000

1.08528346195813e+005,-1.86203266352847e+001,-1.37796291948841e+000

1.10043345451179e+005,-1.86204165808852e+001,-1.39706199440874e+000

1.11579493308032e+005,-1.86205087540565e+001,-1.41642244043567e+000

1.13137084989847e+005,-1.86206032021572e+001,-1.43604772000728e+000

1.14716419841265e+005,-1.86206999731552e+001,-1.45594133827378e+000

1.16317801385624e+005,-1.86207991156149e+001,-1.47610684358770e+000

1.17941537383287e+005,-1.86209006786828e+001,-1.49654782800521e+000

1.19587939890794e+005,-1.86210047120721e+001,-1.51726792779582e+000

1.21257325320831e+005,-1.86211112660456e+001,-1.53827082396409e+000

1.22950014503040e+005,-1.86212203913974e+001,-1.55956024278244e+000

1.24666332745679e+005,-1.86213321394332e+001,-1.58113995633427e+000

1.26406609898139e+005,-1.86214465619489e+001,-1.60301378306973e+000

1.28171180414339e+005,-1.86215637112077e+001,-1.62518558837695e+000

1.29960383416997e+005,-1.86216836399163e+001,-1.64765928516280e+000

1.31774562762811e+005,-1.86218064011983e+001,-1.67043883445228e+000

1.33614067108538e+005,-1.86219320485672e+001,-1.69352824600075e+000

1.35479249978003e+005,-1.86220606358969e+001,-1.71693157892237e+000

1.37370469830040e+005,-1.86221922173917e+001,-1.74065294233633e+000

1.39288090127379e+005,-1.86223268475534e+001,-1.76469649603140e+000

1.41232479406504e+005,-1.86224645811475e+001,-1.78906645114636e+000

1.43204011348474e+005,-1.86226054731679e+001,-1.81376707087376e+000

1.45203064850745e+005,-1.86227495787992e+001,-1.83880267118205e+000

1.47230024099979e+005,-1.86228969533786e+001,-1.86417762155972e+000

1.49285278645888e+005,-1.86230476523552e+001,-1.88989634578214e+000

1.51369223476094e+005,-1.86232017312482e+001,-1.91596332270162e+000

1.53482259092041e+005,-1.86233592456034e+001,-1.94238308706450e+000

1.55624791585964e+005,-1.86235202509485e+001,-1.96916023035025e+000

1.57797232718936e+005,-1.86236848027467e+001,-1.99629940164113e+000

1.59999999999999e+005,-1.86238529563494e+001,-2.02380530851743e+000

1.62233516766403e+005,-1.86240247669471e+001,-2.05168271798313e+000

1.64498212264969e+005,-1.86242002895193e+001,-2.07993645742229e+000

1.66794521734578e+005,-1.86243795787834e+001,-2.10857141558599e+000

1.69122886489819e+005,-1.86245626891428e+001,-2.13759254361186e+000

1.71483754005805e+005,-1.86247496746336e+001,-2.16700485607928e+000

1.73877578004168e+005,-1.86249405888710e+001,-2.19681343209716e+000

1.76304818540256e+005,-1.86251354849948e+001,-2.22702341642997e+000

1.78765942091554e+005,-1.86253344156150e+001,-2.25764002065905e+000

1.81261421647326e+005,-1.86255374327562e+001,-2.28866852438478e+000

1.83791736799524e+005,-1.86257445878027e+001,-2.32011427646555e+000

1.86357373834951e+005,-1.86259559314432e+001,-2.35198269629970e+000

1.88958825828723e+005,-1.86261715136166e+001,-2.38427927514632e+000

1.91596592739027e+005,-1.86263913834565e+001,-2.41700957749159e+000

1.94271181503206e+005,-1.86266155892388e+001,-2.45017924245596e+000

1.96983106135185e+005,-1.86268441783283e+001,-2.48379398524686e+000

1.99732887824256e+005,-1.86270771971274e+001,-2.51785959865539e+000

2.02521055035243e+005,-1.86273146910264e+001,-2.55238195460048e+000

2.05348143610063e+005,-1.86275567043552e+001,-2.58736700571746e+000

2.08214696870707e+005,-1.86278032803371e+001,-2.62282078699398e+000

2.11121265723661e+005,-1.86280544610448e+001,-2.65874941745437e+000

2.14068408765776e+005,-1.86283102873600e+001,-2.69515910188984e+000

2.17056692391625e+005,-1.86285707989341e+001,-2.73205613263887e+000

2.20086690902357e+005,-1.86288360341542e+001,-2.76944689141145e+000

2.23158986616063e+005,-1.86291060301113e+001,-2.80733785116703e+000

2.26274169979693e+005,-1.86293808225730e+001,-2.84573557803462e+000

2.29432839682530e+005,-1.86296604459608e+001,-2.88464673328424e+000

2.32635602771247e+005,-1.86299449333310e+001,-2.92407807534418e+000

2.35883074766574e+005,-1.86302343163615e+001,-2.96403646186349e+000

2.39175879781588e+005,-1.86305286253439e+001,-3.00452885182348e+000

2.42514650641661e+005,-1.86308278891803e+001,-3.04556230769069e+000

2.45900029006080e+005,-1.86311321353873e+001,-3.08714399761640e+000

2.49332665491357e+005,-1.86314413901054e+001,-3.12928119767758e+000

2.52813219796278e+005,-1.86317556781155e+001,-3.17198129415982e+000

2.56342360828676e+005,-1.86320750228623e+001,-3.21525178588090e+000

2.59920766833993e+005,-1.86323994464845e+001,-3.25910028655134e+000

2.63549125525621e+005,-1.86327289698536e+001,-3.30353452717264e+000

2.67228134217075e+005,-1.86330636126190e+001,-3.34856235847080e+000

2.70958499956006e+005,-1.86334033932627e+001,-3.39419175336087e+000

2.74740939660078e+005,-1.86337483291616e+001,-3.44043080944341e+000

2.78576180254757e+005,-1.86340984366577e+001,-3.48728775152906e+000

2.82464958813007e+005,-1.86344537311388e+001,-3.53477093418874e+000

2.86408022696948e+005,-1.86348142271261e+001,-3.58288884432590e+000

2.90406129701488e+005,-1.86351799383725e+001,-3.63165010377223e+000

2.94460048199957e+005,-1.86355508779690e+001,-3.68106347189816e+000

2.98570557291775e+005,-1.86359270584609e+001,-3.73113784824081e+000

3.02738446952187e+005,-1.86363084919737e+001,-3.78188227514298e+000

3.06964518184081e+005,-1.86366951903471e+001,-3.83330594040261e+000

3.11249583171928e+005,-1.86370871652800e+001,-3.88541817992727e+000

3.15594465437872e+005,-1.86374844284837e+001,-3.93822848039379e+000

3.19999999999997e+005,-1.86378869918446e+001,-3.99174648190756e+000

3.24467033532806e+005,-1.86382948675971e+001,-4.04598198066002e+000

3.28996424529938e+005,-1.86387080685037e+001,-4.10094493158087e+000

3.33589043469155e+005,-1.86391266080460e+001,-4.15664545098248e+000

3.38245772979638e+005,-1.86395505006229e+001,-4.21309381919374e+000

3.42967508011610e+005,-1.86399797617580e+001,-4.27030048318084e+000

3.47755156008335e+005,-1.86404144083157e+001,-4.32827605915148e+000

3.52609637080511e+005,-1.86408544587238e+001,-4.38703133514214e+000

3.57531884183106e+005,-1.86412999332054e+001,-4.44657727358447e+000

3.62522843294651e+005,-1.86417508540173e+001,-4.50692501384816e+000

3.67583473599047e+005,-1.86422072456950e+001,-4.56808587476161e+000

3.72714747669902e+005,-1.86426691353051e+001,-4.63007135710469e+000

3.77917651657445e+005,-1.86431365527036e+001,-4.69289314607453e+000

3.83193185478053e+005,-1.86436095307993e+001,-4.75656311372270e+000

3.88542363006410e+005,-1.86440881058238e+001,-4.82109332136188e+000

3.93966212270369e+005,-1.86445723176047e+001,-4.88649602194196e+000

3.99465775648511e+005,-1.86450622098451e+001,-4.95278366239518e+000

4.05042110070485e+005,-1.86455578304052e+001,-5.01996888594826e+000

4.10696287220124e+005,-1.86460592315890e+001,-5.08806453440403e+000

4.16429393741414e+005,-1.86465664704326e+001,-5.15708365039036e+000

4.22242531447321e+005,-1.86470796089963e+001,-5.22703947957857e+000

4.28136817531551e+005,-1.86475987146578e+001,-5.29794547286931e+000

4.34113384783250e+005,-1.86481238604076e+001,-5.36981528855168e+000

4.40173381804713e+005,-1.86486551251457e+001,-5.44266279442994e+000

4.46317973232124e+005,-1.86491925939786e+001,-5.51650206992553e+000

4.52548339959385e+005,-1.86497363585170e+001,-5.59134740815239e+000

4.58865679365059e+005,-1.86502865171737e+001,-5.66721331796774e+000

4.65271205542494e+005,-1.86508431754607e+001,-5.74411452600156e+000

4.71766149533147e+005,-1.86514064462860e+001,-5.82206597866548e+000

4.78351759563174e+005,-1.86519764502493e+001,-5.90108284414408e+000

4.85029301283321e+005,-1.86525533159363e+001,-5.98118051437264e+000

4.91800058012158e+005,-1.86531371802119e+001,-6.06237460699941e+000

4.98665330982714e+005,-1.86537281885111e+001,-6.14468096734135e+000

5.05626439592555e+005,-1.86543264951285e+001,-6.22811567033080e+000

5.12684721657352e+005,-1.86549322635056e+001,-6.31269502245960e+000

5.19841533667984e+005,-1.86555456665159e+001,-6.39843556372154e+000

5.27098251051240e+005,-1.86561668867479e+001,-6.48535406955707e+000

5.34456268434150e+005,-1.86567961167860e+001,-6.57346755280403e+000

5.41916999912011e+005,-1.86574335594887e+001,-6.66279326565574e+000

