Freq.,VOut,OutRef

1.00000000000000e+004,-1.88369872920452e+001,-2.27675408000648e-001

1.01395947979003e+004,-1.88369896432597e+001,-2.30853307250996e-001

1.02811382665607e+004,-1.88369920605036e+001,-2.34075554277768e-001

1.04246576084112e+004,-1.88369945456291e+001,-2.37342767556636e-001

1.05701804056138e+004,-1.88369971005401e+001,-2.40655574173506e-001

1.07177346253629e+004,-1.88369997271940e+001,-2.44014609939855e-001

1.08673486252606e+004,-1.88370024276030e+001,-2.47420519516062e-001

1.10190511587661e+004,-1.88370052038354e+001,-2.50873956533289e-001

1.11728713807222e+004,-1.88370080580173e+001,-2.54375583717990e-001

1.13288388529580e+004,-1.88370109923347e+001,-2.57926073014912e-001

1.14869835499703e+004,-1.88370140090344e+001,-2.61526105717948e-001

1.16473358646846e+004,-1.88370171104259e+001,-2.65176372597460e-001

1.18099266142953e+004,-1.88370202988836e+001,-2.68877574031536e-001

1.19747870461893e+004,-1.88370235768481e+001,-2.72630420138082e-001

1.21419488439505e+004,-1.88370269468279e+001,-2.76435630911547e-001

1.23114441334492e+004,-1.88370304114023e+001,-2.80293936353800e-001

1.24833054890161e+004,-1.88370339732220e+001,-2.84206076619569e-001

1.26575659397028e+004,-1.88370376350121e+001,-2.88172802150181e-001

1.28342589756290e+004,-1.88370413995736e+001,-2.92194873818250e-001

1.30134185544193e+004,-1.88370452697860e+001,-2.96273063071181e-001

1.31950791077289e+004,-1.88370492486088e+001,-3.00408152075775e-001

1.33792755478611e+004,-1.88370533390844e+001,-3.04600933868000e-001

1.35660432744767e+004,-1.88370575443400e+001,-3.08852212499066e-001

1.37554181813974e+004,-1.88370618675900e+001,-3.13162803190545e-001

1.39474366635040e+004,-1.88370663121386e+001,-3.17533532485723e-001

1.41421356237309e+004,-1.88370708813818e+001,-3.21965238406438e-001

1.43395524801583e+004,-1.88370755788109e+001,-3.26458770608530e-001

1.45397251732031e+004,-1.88370804080138e+001,-3.31014990545560e-001

1.47426921729110e+004,-1.88370853726789e+001,-3.35634771627736e-001

1.49484924863494e+004,-1.88370904765972e+001,-3.40318999385984e-001

1.51571656651040e+004,-1.88370957236653e+001,-3.45068571638608e-001

1.53687518128801e+004,-1.88371011178882e+001,-3.49884398661545e-001

1.55832915932100e+004,-1.88371066633826e+001,-3.54767403356855e-001

1.58008262372675e+004,-1.88371123643795e+001,-3.59718521425699e-001

1.60213975517924e+004,-1.88371182252280e+001,-3.64738701544030e-001

1.62450479271247e+004,-1.88371242503979e+001,-3.69828905540199e-001

1.64718203453514e+004,-1.88371304444831e+001,-3.74990108575572e-001

1.67017583885674e+004,-1.88371368122057e+001,-3.80223299323400e-001

1.69349062472505e+004,-1.88371433584186e+001,-3.85529480158293e-001

1.71713087287550e+004,-1.88371500881099e+001,-3.90909667337680e-001

1.74110112659224e+004,-1.88371570064057e+001,-3.96364891196256e-001

1.76540599258131e+004,-1.88371641185748e+001,-4.01896196334042e-001

1.79005014185594e+004,-1.88371714300321e+001,-4.07504641812119e-001

1.81503831063432e+004,-1.88371789463428e+001,-4.13191301350002e-001

1.84037530124975e+004,-1.88371866732264e+001,-4.18957263523068e-001

1.86606598307361e+004,-1.88371946165606e+001,-4.24803631967618e-001

1.89211529345119e+004,-1.88372027823866e+001,-4.30731525580987e-001

1.91852823865052e+004,-1.88372111769122e+001,-4.36742078733050e-001

1.94530989482457e+004,-1.88372198065179e+001,-4.42836441472342e-001

1.97246540898671e+004,-1.88372286777598e+001,-4.49015779742226e-001

1.99999999999999e+004,-1.88372377973762e+001,-4.55281275590872e-001

2.02791895958005e+004,-1.88372471722911e+001,-4.61634127394702e-001

2.05622765331213e+004,-1.88372568096203e+001,-4.68075550075041e-001

2.08493152168224e+004,-1.88372667166757e+001,-4.74606775323152e-001

2.11403608112276e+004,-1.88372769009716e+001,-4.81229051825192e-001

2.14354692507258e+004,-1.88372873702291e+001,-4.87943645492345e-001

2.17346972505211e+004,-1.88372981323826e+001,-4.94751839693229e-001

2.20381023175322e+004,-1.88373091955850e+001,-5.01654935486236e-001

2.23457427614443e+004,-1.88373205682140e+001,-5.08654251859092e-001

2.26576777059159e+004,-1.88373322588777e+001,-5.15751125969572e-001

2.29739670999406e+004,-1.88373442764212e+001,-5.22946913387993e-001

2.32946717293690e+004,-1.88373566299331e+001,-5.30242988342512e-001

2.36198532285905e+004,-1.88373693287511e+001,-5.37640743973121e-001

2.39495740923785e+004,-1.88373823824701e+001,-5.45141592578868e-001

2.42838976879009e+004,-1.88373958009477e+001,-5.52746965877108e-001

2.46228882668982e+004,-1.88374095943124e+001,-5.60458315260134e-001

2.49666109780322e+004,-1.88374237729700e+001,-5.68277112058845e-001

2.53151318794055e+004,-1.88374383476112e+001,-5.76204847805240e-001

2.56685179512580e+004,-1.88374533292197e+001,-5.84243034502538e-001

2.60268371088386e+004,-1.88374687290790e+001,-5.92393204896777e-001

2.63901582154578e+004,-1.88374845587815e+001,-6.00656912747667e-001

2.67585510957221e+004,-1.88375008302357e+001,-6.09035733112103e-001

2.71320865489533e+004,-1.88375175556750e+001,-6.17531262618614e-001

2.75108363627948e+004,-1.88375347476666e+001,-6.26145119756748e-001

2.78948733270080e+004,-1.88375524191195e+001,-6.34878945161358e-001

2.82842712474618e+004,-1.88375705832940e+001,-6.43734401905667e-001

2.86791049603164e+004,-1.88375892538112e+001,-6.52713175792472e-001

2.90794503464061e+004,-1.88376084446617e+001,-6.61816975653985e-001

2.94853843458219e+004,-1.88376281702159e+001,-6.71047533652238e-001

2.98969849726987e+004,-1.88376484452334e+001,-6.80406605582232e-001

3.03143313302078e+004,-1.88376692848738e+001,-6.89895971179186e-001

3.07375036257601e+004,-1.88376907047063e+001,-6.99517434430993e-001

3.11665831864199e+004,-1.88377127207209e+001,-7.09272823891559e-001

3.16016524745350e+004,-1.88377353493390e+001,-7.19163992998639e-001

3.20427951035848e+004,-1.88377586074245e+001,-7.29192820393940e-001

3.24900958542493e+004,-1.88377825122955e+001,-7.39361210250516e-001

3.29436406907028e+004,-1.88378070817353e+001,-7.49671092597758e-001

3.34035167771346e+004,-1.88378323340050e+001,-7.60124423654203e-001

3.38698124945009e+004,-1.88378582878555e+001,-7.70723186162885e-001

3.43426174575100e+004,-1.88378849625396e+001,-7.81469389728555e-001

3.48220225318448e+004,-1.88379123778248e+001,-7.92365071161944e-001

3.53081198516260e+004,-1.88379405540068e+001,-8.03412294821944e-001

3.58010028371187e+004,-1.88379695119223e+001,-8.14613152967162e-001

3.63007662126863e+004,-1.88379992729627e+001,-8.25969766106665e-001

3.68075060249948e+004,-1.88380298590880e+001,-8.37484283356753e-001

3.73213196614721e+004,-1.88380612928411e+001,-8.49158882799814e-001

3.78423058690237e+004,-1.88380935973618e+001,-8.60995771847206e-001

3.83705647730104e+004,-1.88381267964025e+001,-8.72997187604816e-001

3.89061978964912e+004,-1.88381609143420e+001,-8.85165397244690e-001

3.94493081797342e+004,-1.88381959762022e+001,-8.97502698375361e-001

3.99999999999998e+004,-1.88382320076626e+001,-9.10011419421318e-001

4.05583791916010e+004,-1.88382690350773e+001,-9.22693920000670e-001

4.11245530662425e+004,-1.88383070854908e+001,-9.35552591309481e-001

4.16986304336447e+004,-1.88383461866545e+001,-9.48589856508685e-001

4.22807216224550e+004,-1.88383863670442e+001,-9.61808171114117e-001

4.28709385014515e+004,-1.88384276558769e+001,-9.75210023389303e-001

4.34693945010421e+004,-1.88384700831286e+001,-9.88797934743468e-001

4.40762046350642e+004,-1.88385136795524e+001,-1.00257446012979e+000

4.46914855228886e+004,-1.88385584766963e+001,-1.01654218845125e+000

4.53153554118317e+004,-1.88386045069219e+001,-1.03070374296504e+000

4.59479341998812e+004,-1.88386518034236e+001,-1.04506178169330e+000

4.65893434587380e+004,-1.88387004002477e+001,-1.05961899783505e+000

4.72397064571810e+004,-1.88387503323113e+001,-1.07437812018452e+000

4.78991481847569e+004,-1.88388016354230e+001,-1.08934191354780e+000

4.85677953758016e+004,-1.88388543463028e+001,-1.10451317916577e+000

4.92457765337964e+004,-1.88389085026018e+001,-1.11989475514099e+000

4.99332219560642e+004,-1.88389641429242e+001,-1.13548951686351e+000

5.06302637588109e+004,-1.88390213068473e+001,-1.15130037744242e+000

5.13370359025159e+004,-1.88390800349433e+001,-1.16733028814181e+000

5.20536742176771e+004,-1.88391403688010e+001,-1.18358223881482e+000

5.27803164309155e+004,-1.88392023510474e+001,-1.20005925834497e+000

5.35171021914442e+004,-1.88392660253701e+001,-1.21676441508779e+000

5.42641730979066e+004,-1.88393314365396e+001,-1.23370081731570e+000

5.50216727255895e+004,-1.88393986304320e+001,-1.25087161366589e+000

5.57897466540159e+004,-1.88394676540520e+001,-1.26827999358913e+000

5.65685424949235e+004,-1.88395385555559e+001,-1.28592918780433e+000

5.73582099206328e+004,-1.88396113842750e+001,-1.30382246875154e+000

5.81589006928121e+004,-1.88396861907391e+001,-1.32196315105026e+000

5.89707686916437e+004,-1.88397630267006e+001,-1.34035459195825e+000

5.97939699453972e+004,-1.88398419451575e+001,-1.35900019183425e+000

6.06286626604156e+004,-1.88399230003784e+001,-1.37790339460136e+000

6.14750072515201e+004,-1.88400062479260e+001,-1.39706768821280e+000

6.23331663728396e+004,-1.88400917446816e+001,-1.41649660512062e+000

6.32033049490698e+004,-1.88401795488692e+001,-1.43619372274568e+000

6.40855902071694e+004,-1.88402697200803e+001,-1.45616266394910e+000

6.49801917084985e+004,-1.88403623192977e+001,-1.47640709750631e+000

6.58872813814055e+004,-1.88404574089204e+001,-1.49693073858292e+000

6.68070335542691e+004,-1.88405550527875e+001,-1.51773734921241e+000

6.77396249890018e+004,-1.88406553162028e+001,-1.53883073877435e+000

6.86852349150199e+004,-1.88407582659588e+001,-1.56021476447483e+000

6.96440450636895e+004,-1.88408639703606e+001,-1.58189333183152e+000

7.06162397032520e+004,-1.88409724992500e+001,-1.60387039515346e+000

7.16020056742374e+004,-1.88410839240287e+001,-1.62614995802999e+000

7.26015324253724e+004,-1.88411983176821e+001,-1.64873607381633e+000

7.36150120499896e+004,-1.88413157548020e+001,-1.67163284612164e+000

7.46426393229441e+004,-1.88414363116091e+001,-1.69484442929982e+000

7.56846117380472e+004,-1.88415600659755e+001,-1.71837502894104e+000

7.67411295460207e+004,-1.88416870974465e+001,-1.74222890236367e+000

7.78123957929823e+004,-1.88418174872616e+001,-1.76641035911002e+000

7.88986163594682e+004,-1.88419513183749e+001,-1.79092376144218e+000

7.99999999999995e+004,-1.88420886754758e+001,-1.81577352483919e+000

8.11167583832018e+004,-1.88422296450074e+001,-1.84096411849692e+000

8.22491061324848e+004,-1.88423743151855e+001,-1.86650006582901e+000

8.33972608672892e+004,-1.88425227760162e+001,-1.89238594497048e+000

8.45614432449099e+004,-1.88426751193124e+001,-1.91862638928151e+000

8.57418770029029e+004,-1.88428314387093e+001,-1.94522608785604e+000

8.69387890020841e+004,-1.88429918296795e+001,-1.97218978603039e+000

8.81524092701283e+004,-1.88431563895460e+001,-1.99952228589518e+000

8.93829710457770e+004,-1.88433252174943e+001,-2.02722844681094e+000

9.06307108236633e+004,-1.88434984145837e+001,-2.05531318592385e+000

9.18958683997622e+004,-1.88436760837562e+001,-2.08378147868818e+000

9.31786869174758e+004,-1.88438583298444e+001,-2.11263835939000e+000

9.44794129143618e+004,-1.88440452595781e+001,-2.14188892167462e+000

9.57982963695136e+004,-1.88442369815884e+001,-2.17153831908028e+000

9.71355907516031e+004,-1.88444336064107e+001,-2.20159176557398e+000

9.84915530675926e+004,-1.88446352464853e+001,-2.23205453609368e+000

9.98664439121282e+004,-1.88448420161558e+001,-2.26293196709686e+000

1.01260527517622e+005,-1.88450540316667e+001,-2.29422945711314e+000

1.02674071805032e+005,-1.88452714111564e+001,-2.32595246730537e+000

1.04107348435354e+005,-1.88454942746504e+001,-2.35810652203698e+000

1.05560632861831e+005,-1.88457227440501e+001,-2.39069720944861e+000

1.07034204382888e+005,-1.88459569431198e+001,-2.42373018204232e+000

1.08528346195813e+005,-1.88461969974714e+001,-2.45721115727502e+000

1.10043345451179e+005,-1.88464430345452e+001,-2.49114591816469e+000

1.11579493308032e+005,-1.88466951835891e+001,-2.52554031390561e+000

1.13137084989847e+005,-1.88469535756336e+001,-2.56040026049655e+000

1.14716419841265e+005,-1.88472183434644e+001,-2.59573174138259e+000

1.16317801385624e+005,-1.88474896215913e+001,-2.63154080811294e+000

1.17941537383287e+005,-1.88477675462143e+001,-2.66783358101045e+000

1.19587939890794e+005,-1.88480522551858e+001,-2.70461624986410e+000

1.21257325320831e+005,-1.88483438879690e+001,-2.74189507463314e+000

1.22950014503040e+005,-1.88486425855938e+001,-2.77967638617727e+000

1.24666332745679e+005,-1.88489484906071e+001,-2.81796658700356e+000

1.26406609898139e+005,-1.88492617470215e+001,-2.85677215203838e+000

1.28171180414339e+005,-1.88495825002580e+001,-2.89609962942403e+000

1.29960383416997e+005,-1.88499108970866e+001,-2.93595564134012e+000

1.31774562762811e+005,-1.88502470855609e+001,-2.97634688485513e+000

1.33614067108538e+005,-1.88505912149507e+001,-3.01728013280596e+000

1.35479249978003e+005,-1.88509434356689e+001,-3.05876223471129e+000

1.37370469830040e+005,-1.88513038991951e+001,-3.10080011771756e+000

1.39288090127379e+005,-1.88516727579943e+001,-3.14340078758230e+000

1.41232479406504e+005,-1.88520501654328e+001,-3.18657132969530e+000

1.43204011348474e+005,-1.88524362756881e+001,-3.23031891014090e+000

1.45203064850745e+005,-1.88528312436560e+001,-3.27465077680399e+000

1.47230024099979e+005,-1.88532352248536e+001,-3.31957426052019e+000

1.49285278645888e+005,-1.88536483753174e+001,-3.36509677627527e+000

1.51369223476094e+005,-1.88540708514983e+001,-3.41122582445652e+000

1.53482259092041e+005,-1.88545028101524e+001,-3.45796899215441e+000

1.55624791585964e+005,-1.88549444082284e+001,-3.50533395452365e+000

1.57797232718936e+005,-1.88553958027508e+001,-3.55332847620121e+000

1.59999999999999e+005,-1.88558571507009e+001,-3.60196041278662e+000

1.62233516766403e+005,-1.88563286088933e+001,-3.65123771238727e+000

1.64498212264969e+005,-1.88568103338504e+001,-3.70116841722917e+000

1.66794521734578e+005,-1.88573024816738e+001,-3.75176066534103e+000

1.69122886489819e+005,-1.88578052079138e+001,-3.80302269230845e+000

1.71483754005805e+005,-1.88583186674361e+001,-3.85496283310545e+000

1.73877578004168e+005,-1.88588430142871e+001,-3.90758952400476e+000

1.76304818540256e+005,-1.88593784015583e+001,-3.96091130456887e+000

1.78765942091554e+005,-1.88599249812492e+001,-4.01493681972616e+000

1.81261421647326e+005,-1.88604829041297e+001,-4.06967482193308e+000

1.83791736799524e+005,-1.88610523196032e+001,-4.12513417342674e+000

1.86357373834951e+005,-1.88616333755691e+001,-4.18132384856839e+000

1.88958825828723e+005,-1.88622262182875e+001,-4.23825293628261e+000

1.91596592739027e+005,-1.88628309922446e+001,-4.29593064259129e+000

1.94271181503206e+005,-1.88634478400212e+001,-4.35436629324884e+000

1.96983106135185e+005,-1.88640769021630e+001,-4.41356933647516e+000

1.99732887824256e+005,-1.88647183170559e+001,-4.47354934579286e+000

2.02521055035243e+005,-1.88653722208041e+001,-4.53431602296810e+000

2.05348143610063e+005,-1.88660387471145e+001,-4.59587920105602e+000

2.08214696870707e+005,-1.88667180271859e+001,-4.65824884755288e+000

2.11121265723661e+005,-1.88674101896054e+001,-4.72143506765564e+000

2.14068408765776e+005,-1.88681153602521e+001,-4.78544810762774e+000

2.17056692391625e+005,-1.88688336622086e+001,-4.85029835827458e+000

2.20086690902357e+005,-1.88695652156824e+001,-4.91599635852498e+000

2.23158986616063e+005,-1.88703101379366e+001,-4.98255279912138e+000

2.26274169979693e+005,-1.88710685432318e+001,-5.04997852641480e+000

2.29432839682530e+005,-1.88718405427798e+001,-5.11828454626723e+000

2.32635602771247e+005,-1.88726262447095e+001,-5.18748202805570e+000

2.35883074766574e+005,-1.88734257540476e+001,-5.25758230877987e+000

2.39175879781588e+005,-1.88742391727120e+001,-5.32859689726853e+000

2.42514650641661e+005,-1.88750665995226e+001,-5.40053747848246e+000

2.45900029006080e+005,-1.88759081302269e+001,-5.47341591791182e+000

2.49332665491357e+005,-1.88767638575434e+001,-5.54724426606353e+000

2.52813219796278e+005,-1.88776338712234e+001,-5.62203476303413e+000

2.56342360828676e+005,-1.88785182581308e+001,-5.69779984316535e+000

2.59920766833993e+005,-1.88794171023426e+001,-5.77455213977578e+000

2.63549125525621e+005,-1.88803304852690e+001,-5.85230448996550e+000

2.67228134217075e+005,-1.88812584857955e+001,-5.93106993948532e+000

2.70958499956006e+005,-1.88822011804463e+001,-6.01086174766804e+000

2.74740939660078e+005,-1.88831586435702e+001,-6.09169339241169e+000

2.78576180254757e+005,-1.88841309475505e+001,-6.17357857521169e+000

2.82464958813007e+005,-1.88851181630373e+001,-6.25653122623199e+000

2.86408022696948e+005,-1.88861203592048e+001,-6.34056550940979e+000

2.90406129701488e+005,-1.88871376040329e+001,-6.42569582758526e+000

2.94460048199957e+005,-1.88881699646129e+001,-6.51193682764881e+000

2.98570557291775e+005,-1.88892175074797e+001,-6.59930340569786e+000

3.02738446952187e+005,-1.88902802989678e+001,-6.68781071219532e+000

3.06964518184081e+005,-1.88913584055930e+001,-6.77747415712098e+000

3.11249583171928e+005,-1.88924518944602e+001,-6.86830941510679e+000

3.15594465437872e+005,-1.88935608336951e+001,-6.96033243054918e+000

3.19999999999997e+005,-1.88946852929017e+001,-7.05355942268990e+000

3.24467033532806e+005,-1.88958253436446e+001,-7.14800689065472e+000

3.28996424529938e+005,-1.88969810599552e+001,-7.24369161844429e+000

3.33589043469155e+005,-1.88981525188625e+001,-7.34063067986839e+000

3.38245772979638e+005,-1.88993398009466e+001,-7.43884144341433e+000

3.42967508011610e+005,-1.89005429909158e+001,-7.53834157704329e+000

3.47755156008335e+005,-1.89017621782051e+001,-7.63914905290725e+000

3.52609637080511e+005,-1.89029974575966e+001,-7.74128215197746e+000

3.57531884183106e+005,-1.89042489298603e+001,-7.84475946858054e+000

3.62522843294651e+005,-1.89055167024143e+001,-7.94959991483357e+000

3.67583473599047e+005,-1.89068008900039e+001,-8.05582272497283e+000

3.72714747669902e+005,-1.89081016153978e+001,-8.16344745957256e+000

3.77917651657445e+005,-1.89094190101016e+001,-8.27249400964583e+000

3.83193185478053e+005,-1.89107532150859e+001,-8.38298260062576e+000

3.88542363006410e+005,-1.89121043815291e+001,-8.49493379622213e+000

3.93966212270369e+005,-1.89134726715724e+001,-8.60836850215061e+000

3.99465775648511e+005,-1.89148582590879e+001,-8.72330796973155e+000

4.05042110070485e+005,-1.89162613304553e+001,-8.83977379935730e+000

4.10696287220124e+005,-1.89176820853496e+001,-8.95778794382560e+000

4.16429393741414e+005,-1.89191207375356e+001,-9.07737271153985e+000

4.22242531447321e+005,-1.89205775156696e+001,-9.19855076957436e+000

4.28136817531551e+005,-1.89220526641058e+001,-9.32134514660690e+000

4.34113384783250e+005,-1.89235464437082e+001,-9.44577923571917e+000

4.40173381804713e+005,-1.89250591326642e+001,-9.57187679706586e+000

4.46317973232124e+005,-1.89265910273009e+001,-9.69966196041653e+000

4.52548339959385e+005,-1.89281424429014e+001,-9.82915922757245e+000

4.58865679365059e+005,-1.89297137145219e+001,-9.96039347466102e+000

4.65271205542494e+005,-1.89313051978062e+001,-1.00933899543128e+001

4.71766149533147e+005,-1.89329172697988e+001,-1.02281742977251e+001

4.78351759563174e+005,-1.89345503297547e+001,-1.03647725166178e+001

4.85029301283321e+005,-1.89362047999453e+001,-1.05032110050839e+001

4.91800058012158e+005,-1.89378811264589e+001,-1.06435165413444e+001

4.98665330982714e+005,-1.89395797799978e+001,-1.07857162894090e+001

5.05626439592555e+005,-1.89413012566675e+001,-1.09298378006527e+001

5.12684721657352e+005,-1.89430460787608e+001,-1.10759090153105e+001

5.19841533667984e+005,-1.89448147955352e+001,-1.12239582639003e+001

5.27098251051240e+005,-1.89466079839831e+001,-1.13740142685772e+001

5.34456268434150e+005,-1.89484262495948e+001,-1.15261061444279e+001

5.41916999912011e+005,-1.89502702271148e+001,-1.16802634007107e+001

