Freq.,VOut,OutRef

1.00000000000000e+004,-2.15499117195690e+001,-3.00738640080675e-001

1.01395947979003e+004,-2.15499141108869e+001,-3.04936542201755e-001

1.02811382665607e+004,-2.15499165693804e+001,-3.09193034125221e-001

1.04246576084112e+004,-2.15499190969351e+001,-3.13508933278969e-001

1.05701804056138e+004,-2.15499216954895e+001,-3.17885068481558e-001

1.07177346253629e+004,-2.15499243670362e+001,-3.22322280103646e-001

1.08673486252606e+004,-2.15499271136236e+001,-3.26821420224855e-001

1.10190511587661e+004,-2.15499299373577e+001,-3.31383352797568e-001

1.11728713807222e+004,-2.15499328404034e+001,-3.36008953812171e-001

1.13288388529580e+004,-2.15499358249862e+001,-3.40699111463013e-001

1.14869835499703e+004,-2.15499388933938e+001,-3.45454726320052e-001

1.16473358646846e+004,-2.15499420479782e+001,-3.50276711496881e-001

1.18099266142953e+004,-2.15499452911572e+001,-3.55165992828029e-001

1.19747870461893e+004,-2.15499486254163e+001,-3.60123509043955e-001

1.21419488439505e+004,-2.15499520533103e+001,-3.65150211950847e-001

1.23114441334492e+004,-2.15499555774659e+001,-3.70247066609881e-001

1.24833054890161e+004,-2.15499592005832e+001,-3.75415051523094e-001

1.26575659397028e+004,-2.15499629254375e+001,-3.80655158819175e-001

1.28342589756290e+004,-2.15499667548823e+001,-3.85968394442033e-001

1.30134185544193e+004,-2.15499706918507e+001,-3.91355778340372e-001

1.31950791077289e+004,-2.15499747393576e+001,-3.96818344666699e-001

1.33792755478611e+004,-2.15499789005025e+001,-4.02357141968078e-001

1.35660432744767e+004,-2.15499831784717e+001,-4.07973233388763e-001

1.37554181813974e+004,-2.15499875765401e+001,-4.13667696872545e-001

1.39474366635040e+004,-2.15499920980745e+001,-4.19441625366654e-001

1.41421356237309e+004,-2.15499967465358e+001,-4.25296127027803e-001

1.43395524801583e+004,-2.15500015254816e+001,-4.31232325435302e-001

1.45397251732031e+004,-2.15500064385687e+001,-4.37251359803736e-001

1.47426921729110e+004,-2.15500114895562e+001,-4.43354385197419e-001

1.49484924863494e+004,-2.15500166823084e+001,-4.49542572750266e-001

1.51571656651040e+004,-2.15500220207971e+001,-4.55817109889713e-001

1.53687518128801e+004,-2.15500275091053e+001,-4.62179200558381e-001

1.55832915932100e+004,-2.15500331514298e+001,-4.68630065446127e-001

1.58008262372675e+004,-2.15500389520846e+001,-4.75170942216935e-001

1.60213975517924e+004,-2.15500449155041e+001,-4.81803085747250e-001

1.62450479271247e+004,-2.15500510462465e+001,-4.88527768358812e-001

1.64718203453514e+004,-2.15500573489968e+001,-4.95346280065974e-001

1.67017583885674e+004,-2.15500638285711e+001,-5.02259928811964e-001

1.69349062472505e+004,-2.15500704899193e+001,-5.09270040721454e-001

1.71713087287550e+004,-2.15500773381296e+001,-5.16377960349431e-001

1.74110112659224e+004,-2.15500843784320e+001,-5.23585050933788e-001

1.76540599258131e+004,-2.15500916162019e+001,-5.30892694655414e-001

1.79005014185594e+004,-2.15500990569646e+001,-5.38302292895299e-001

1.81503831063432e+004,-2.15501067063993e+001,-5.45815266501310e-001

1.84037530124975e+004,-2.15501145703432e+001,-5.53433056055960e-001

1.86606598307361e+004,-2.15501226547959e+001,-5.61157122145283e-001

1.89211529345119e+004,-2.15501309659241e+001,-5.68988945636028e-001

1.91852823865052e+004,-2.15501395100657e+001,-5.76930027954335e-001

1.94530989482457e+004,-2.15501482937352e+001,-5.84981891364468e-001

1.97246540898671e+004,-2.15501573236279e+001,-5.93146079259405e-001

1.99999999999999e+004,-2.15501666066252e+001,-6.01424156448356e-001

2.02791895958005e+004,-2.15501761497996e+001,-6.09817709450396e-001

2.05622765331213e+004,-2.15501859604201e+001,-6.18328346790931e-001

2.08493152168224e+004,-2.15501960459575e+001,-6.26957699305007e-001

2.11403608112276e+004,-2.15502064140896e+001,-6.35707420442666e-001

2.14354692507258e+004,-2.15502170727077e+001,-6.44579186575656e-001

2.17346972505211e+004,-2.15502280299213e+001,-6.53574697314418e-001

2.20381023175322e+004,-2.15502392940651e+001,-6.62695675822223e-001

2.23457427614443e+004,-2.15502508737045e+001,-6.71943869139820e-001

2.26576777059159e+004,-2.15502627776423e+001,-6.81321048508598e-001

2.29739670999406e+004,-2.15502750149248e+001,-6.90829009703282e-001

2.32946717293690e+004,-2.15502875948486e+001,-7.00469573364472e-001

2.36198532285905e+004,-2.15503005269677e+001,-7.10244585337340e-001

2.39495740923785e+004,-2.15503138210998e+001,-7.20155917016885e-001

2.42838976879009e+004,-2.15503274873343e+001,-7.30205465692409e-001

2.46228882668982e+004,-2.15503415360389e+001,-7.40395154902284e-001

2.49666109780322e+004,-2.15503559778678e+001,-7.50726934787616e-001

2.53151318794055e+004,-2.15503708237690e+001,-7.61202782457502e-001

2.56685179512580e+004,-2.15503860849924e+001,-7.71824702350670e-001

2.60268371088386e+004,-2.15504017730980e+001,-7.82594726607369e-001

2.63901582154578e+004,-2.15504178999641e+001,-7.93514915446336e-001

2.67585510957221e+004,-2.15504344777963e+001,-8.04587357541121e-001

2.71320865489533e+004,-2.15504515191356e+001,-8.15814170408495e-001

2.75108363627948e+004,-2.15504690368683e+001,-8.27197500794962e-001

2.78948733270080e+004,-2.15504870442345e+001,-8.38739525073606e-001

2.82842712474618e+004,-2.15505055548380e+001,-8.50442449641972e-001

2.86791049603164e+004,-2.15505245826559e+001,-8.62308511326873e-001

2.90794503464061e+004,-2.15505441420486e+001,-8.74339977794938e-001

2.94853843458219e+004,-2.15505642477702e+001,-8.86539147965724e-001

2.98969849726987e+004,-2.15505849149788e+001,-8.98908352432636e-001

3.03143313302078e+004,-2.15506061592471e+001,-9.11449953887010e-001

3.07375036257601e+004,-2.15506279965740e+001,-9.24166347548864e-001

3.11665831864199e+004,-2.15506504433953e+001,-9.37059961602552e-001

3.16016524745350e+004,-2.15506735165956e+001,-9.50133257636889e-001

3.20427951035848e+004,-2.15506972335201e+001,-9.63388731092048e-001

3.24900958542493e+004,-2.15507216119869e+001,-9.76828911710551e-001

3.29436406907028e+004,-2.15507466702991e+001,-9.90456363995644e-001

3.34035167771346e+004,-2.15507724272580e+001,-1.00427368767173e+000

3.38698124945009e+004,-2.15507989021759e+001,-1.01828351815506e+000

3.43426174575100e+004,-2.15508261148893e+001,-1.03248852702613e+000

3.48220225318448e+004,-2.15508540857734e+001,-1.04689142250946e+000

3.53081198516260e+004,-2.15508828357553e+001,-1.06149494995767e+000

3.58010028371187e+004,-2.15509123863287e+001,-1.07630189234497e+000

3.63007662126863e+004,-2.15509427595688e+001,-1.09131507076154e+000

3.68075060249948e+004,-2.15509739781471e+001,-1.10653734491659e+000

3.73213196614721e+004,-2.15510060653469e+001,-1.12197161364740e+000

3.78423058690237e+004,-2.15510390450792e+001,-1.13762081543264e+000

3.83705647730104e+004,-2.15510729418989e+001,-1.15348792891368e+000

3.89061978964912e+004,-2.15511077810209e+001,-1.16957597341886e+000

3.94493081797342e+004,-2.15511435883376e+001,-1.18588800949870e+000

3.99999999999998e+004,-2.15511803904357e+001,-1.20242713946155e+000

4.05583791916010e+004,-2.15512182146143e+001,-1.21919650791830e+000

4.11245530662425e+004,-2.15512570889024e+001,-1.23619930233528e+000

4.16986304336447e+004,-2.15512970420781e+001,-1.25343875358656e+000

4.22807216224550e+004,-2.15513381036870e+001,-1.27091813652185e+000

4.28709385014515e+004,-2.15513803040617e+001,-1.28864077053125e+000

4.34693945010421e+004,-2.15514236743415e+001,-1.30661002012331e+000

4.40762046350642e+004,-2.15514682464923e+001,-1.32482929550533e+000

4.46914855228886e+004,-2.15515140533278e+001,-1.34330205317178e+000

4.53153554118317e+004,-2.15515611285297e+001,-1.36203179649884e+000

4.59479341998812e+004,-2.15516095066701e+001,-1.38102207634478e+000

4.65893434587380e+004,-2.15516592232326e+001,-1.40027649165646e+000

4.72397064571810e+004,-2.15517103146349e+001,-1.41979869008464e+000

4.78991481847569e+004,-2.15517628182520e+001,-1.43959236860121e+000

4.85677953758016e+004,-2.15518167724391e+001,-1.45966127412867e+000

4.92457765337964e+004,-2.15518722165551e+001,-1.48000920417100e+000

4.99332219560642e+004,-2.15519291909874e+001,-1.50064000745372e+000

5.06302637588109e+004,-2.15519877371764e+001,-1.52155758456978e+000

5.13370359025159e+004,-2.15520478976403e+001,-1.54276588863267e+000

5.20536742176771e+004,-2.15521097160010e+001,-1.56426892593503e+000

5.27803164309155e+004,-2.15521732370103e+001,-1.58607075661436e+000

5.35171021914442e+004,-2.15522385065761e+001,-1.60817549532624e+000

5.42641730979066e+004,-2.15523055717898e+001,-1.63058731192273e+000

5.50216727255895e+004,-2.15523744809538e+001,-1.65331043213683e+000

5.57897466540159e+004,-2.15524452836093e+001,-1.67634913827759e+000

5.65685424949235e+004,-2.15525180305648e+001,-1.69970776992674e+000

5.73582099206328e+004,-2.15525927739253e+001,-1.72339072464520e+000

5.81589006928121e+004,-2.15526695671216e+001,-1.74740245868543e+000

5.89707686916437e+004,-2.15527484649401e+001,-1.77174748771133e+000

5.97939699453972e+004,-2.15528295235533e+001,-1.79643038752254e+000

6.06286626604156e+004,-2.15529128005506e+001,-1.82145579478881e+000

6.14750072515201e+004,-2.15529983549695e+001,-1.84682840778784e+000

6.23331663728396e+004,-2.15530862473274e+001,-1.87255298715283e+000

6.32033049490698e+004,-2.15531765396538e+001,-1.89863435662461e+000

6.40855902071694e+004,-2.15532692955231e+001,-1.92507740381196e+000

6.49801917084985e+004,-2.15533645800871e+001,-1.95188708095786e+000

6.58872813814055e+004,-2.15534624601091e+001,-1.97906840571360e+000

6.68070335542691e+004,-2.15535630039972e+001,-2.00662646191872e+000

6.77396249890018e+004,-2.15536662818390e+001,-2.03456640038870e+000

6.86852349150199e+004,-2.15537723654360e+001,-2.06289343970939e+000

6.96440450636895e+004,-2.15538813283387e+001,-2.09161286703800e+000

7.06162397032520e+004,-2.15539932458815e+001,-2.12073003891219e+000

7.16020056742374e+004,-2.15541081952193e+001,-2.15025038206453e+000

7.26015324253724e+004,-2.15542262553625e+001,-2.18017939424555e+000

7.36150120499896e+004,-2.15543475072140e+001,-2.21052264505438e+000

7.46426393229441e+004,-2.15544720336052e+001,-2.24128577677423e+000

7.56846117380472e+004,-2.15545999193331e+001,-2.27247450521792e+000

7.67411295460207e+004,-2.15547312511974e+001,-2.30409462057873e+000

7.78123957929823e+004,-2.15548661180373e+001,-2.33615198829069e+000

7.88986163594682e+004,-2.15550046107692e+001,-2.36865254989437e+000

7.99999999999995e+004,-2.15551468224242e+001,-2.40160232391197e+000

8.11167583832018e+004,-2.15552928481856e+001,-2.43500740672930e+000

8.22491061324848e+004,-2.15554427854264e+001,-2.46887397348604e+000

8.33972608672892e+004,-2.15555967337476e+001,-2.50320827897415e+000

8.45614432449099e+004,-2.15557547950154e+001,-2.53801665854400e+000

8.57418770029029e+004,-2.15559170733990e+001,-2.57330552902000e+000

8.69387890020841e+004,-2.15560836754085e+001,-2.60908138962307e+000

8.81524092701283e+004,-2.15562547099320e+001,-2.64535082290359e+000

8.93829710457770e+004,-2.15564302882734e+001,-2.68212049568283e+000

9.06307108236633e+004,-2.15566105241890e+001,-2.71939716000302e+000

9.18958683997622e+004,-2.15567955339253e+001,-2.75718765408739e+000

9.31786869174758e+004,-2.15569854362545e+001,-2.79549890331082e+000

9.44794129143618e+004,-2.15571803525116e+001,-2.83433792117887e+000

9.57982963695136e+004,-2.15573804066300e+001,-2.87371181031916e+000

9.71355907516031e+004,-2.15575857251771e+001,-2.91362776348229e+000

9.84915530675926e+004,-2.15577964373890e+001,-2.95409306455465e+000

9.98664439121282e+004,-2.15580126752051e+001,-2.99511508958237e+000

1.01260527517622e+005,-2.15582345733019e+001,-3.03670130780839e+000

1.02674071805032e+005,-2.15584622691263e+001,-3.07885928272073e+000

1.04107348435354e+005,-2.15586959029279e+001,-3.12159667311531e+000

1.05560632861831e+005,-2.15589356177906e+001,-3.16492123417190e+000

1.07034204382888e+005,-2.15591815596640e+001,-3.20884081854361e+000

1.08528346195813e+005,-2.15594338773927e+001,-3.25336337746353e+000

1.10043345451179e+005,-2.15596927227462e+001,-3.29849696186419e+000

1.11579493308032e+005,-2.15599582504465e+001,-3.34424972351654e+000

1.13137084989847e+005,-2.15602306181956e+001,-3.39062991618316e+000

1.14716419841265e+005,-2.15605099867012e+001,-3.43764589679185e+000

1.16317801385624e+005,-2.15607965197022e+001,-3.48530612662659e+000

1.17941537383287e+005,-2.15610903839918e+001,-3.53361917253886e+000

1.19587939890794e+005,-2.15613917494408e+001,-3.58259370818107e+000

1.21257325320831e+005,-2.15617007890186e+001,-3.63223851525904e+000

1.22950014503040e+005,-2.15620176788133e+001,-3.68256248481009e+000

1.24666332745679e+005,-2.15623425980508e+001,-3.73357461850373e+000

1.26406609898139e+005,-2.15626757291118e+001,-3.78528402996891e+000

1.28171180414339e+005,-2.15630172575486e+001,-3.83769994614585e+000

1.29960383416997e+005,-2.15633673720993e+001,-3.89083170866824e+000

1.31774562762811e+005,-2.15637262647019e+001,-3.94468877527237e+000

1.33614067108538e+005,-2.15640941305059e+001,-3.99928072123897e+000

1.35479249978003e+005,-2.15644711678833e+001,-4.05461724086578e+000

1.37370469830040e+005,-2.15648575784382e+001,-4.11070814897452e+000

1.39288090127379e+005,-2.15652535670150e+001,-4.16756338245315e+000

1.41232479406504e+005,-2.15656593417054e+001,-4.22519300183492e+000

1.43204011348474e+005,-2.15660751138541e+001,-4.28360719291658e+000

1.45203064850745e+005,-2.15665010980639e+001,-4.34281626841675e+000

1.47230024099979e+005,-2.15669375121990e+001,-4.40283066967578e+000

1.49285278645888e+005,-2.15673845773881e+001,-4.46366096840228e+000

1.51369223476094e+005,-2.15678425180268e+001,-4.52531786846197e+000

1.53482259092041e+005,-2.15683115617780e+001,-4.58781220771828e+000

1.55624791585964e+005,-2.15687919395737e+001,-4.65115495992013e+000

1.57797232718936e+005,-2.15692838856152e+001,-4.71535723664299e+000

1.59999999999999e+005,-2.15697876373733e+001,-4.78043028928384e+000

1.62233516766403e+005,-2.15703034355889e+001,-4.84638551111117e+000

1.64498212264969e+005,-2.15708315242737e+001,-4.91323443937475e+000

1.66794521734578e+005,-2.15713721507115e+001,-4.98098875747345e+000

1.69122886489819e+005,-2.15719255654600e+001,-5.04966029718693e+000

1.71483754005805e+005,-2.15724920223543e+001,-5.11926104097057e+000

1.73877578004168e+005,-2.15730717785112e+001,-5.18980312431648e+000

1.76304818540256e+005,-2.15736650943358e+001,-5.26129883818333e+000

1.78765942091554e+005,-2.15742722335301e+001,-5.33376063149506e+000

1.81261421647326e+005,-2.15748934631037e+001,-5.40720111371266e+000

1.83791736799524e+005,-2.15755290533883e+001,-5.48163305747957e+000

1.86357373834951e+005,-2.15761792780552e+001,-5.55706940134025e+000

1.88958825828723e+005,-2.15768444141363e+001,-5.63352325253958e+000

1.91596592739027e+005,-2.15775247420504e+001,-5.71100788989719e+000

1.94271181503206e+005,-2.15782205456340e+001,-5.78953676676342e+000

1.96983106135185e+005,-2.15789321121774e+001,-5.86912351405644e+000

1.99732887824256e+005,-2.15796597324669e+001,-5.94978194338091e+000

2.02521055035243e+005,-2.15804037008348e+001,-6.03152605022941e+000

2.05348143610063e+005,-2.15811643152148e+001,-6.11437001726954e+000

2.08214696870707e+005,-2.15819418772070e+001,-6.19832821771348e+000

2.11121265723661e+005,-2.15827366921511e+001,-6.28341521877293e+000

2.14068408765776e+005,-2.15835490692082e+001,-6.36964578519978e+000

2.17056692391625e+005,-2.15843793214544e+001,-6.45703488291012e+000

2.20086690902357e+005,-2.15852277659831e+001,-6.54559768269365e+000

2.23158986616063e+005,-2.15860947240206e+001,-6.63534956400622e+000

2.26274169979693e+005,-2.15869805210529e+001,-6.72630611884563e+000

2.29432839682530e+005,-2.15878854869662e+001,-6.81848315570876e+000

2.32635602771247e+005,-2.15888099562012e+001,-6.91189670362871e+000

2.35883074766574e+005,-2.15897542679213e+001,-7.00656301629048e+000

2.39175879781588e+005,-2.15907187661974e+001,-7.10249857622192e+000

2.42514650641661e+005,-2.15917038002079e+001,-7.19972009905996e+000

2.45900029006080e+005,-2.15927097244563e+001,-7.29824453788606e+000

2.49332665491357e+005,-2.15937368990060e+001,-7.39808908762997e+000

2.52813219796278e+005,-2.15947856897340e+001,-7.49927118953792e+000

2.56342360828676e+005,-2.15958564686035e+001,-7.60180853570124e+000

2.59920766833993e+005,-2.15969496139567e+001,-7.70571907364089e+000

2.63549125525621e+005,-2.15980655108282e+001,-7.81102101094378e+000

2.67228134217075e+005,-2.15992045512789e+001,-7.91773281994722e+000

2.70958499956006e+005,-2.16003671347535e+001,-8.02587324246357e+000

2.74740939660078e+005,-2.16015536684585e+001,-8.13546129454289e+000

2.78576180254757e+005,-2.16027645677646e+001,-8.24651627126553e+000

2.82464958813007e+005,-2.16040002566326e+001,-8.35905775155998e+000

2.86408022696948e+005,-2.16052611680623e+001,-8.47310560303906e+000

2.90406129701488e+005,-2.16065477445673e+001,-8.58867998684847e+000

2.94460048199957e+005,-2.16078604386734e+001,-8.70580136252002e+000

2.98570557291775e+005,-2.16091997134428e+001,-8.82449049282503e+000

3.02738446952187e+005,-2.16105660430238e+001,-8.94476844861697e+000

3.06964518184081e+005,-2.16119599132251e+001,-9.06665661366008e+000

3.11249583171928e+005,-2.16133818221176e+001,-9.19017668943415e+000

3.15594465437872e+005,-2.16148322806597e+001,-9.31535069990892e+000

3.19999999999997e+005,-2.16163118133506e+001,-9.44220099628096e+000

3.24467033532806e+005,-2.16178209589076e+001,-9.57075026166402e+000

3.28996424529938e+005,-2.16193602709702e+001,-9.70102151572788e+000

3.33589043469155e+005,-2.16209303188289e+001,-9.83303811927640e+000

3.38245772979638e+005,-2.16225316881795e+001,-9.96682377875741e+000

3.42967508011610e+005,-2.16241649819022e+001,-1.01024025506981e+001

3.47755156008335e+005,-2.16258308208648e+001,-1.02397988460589e+001

3.52609637080511e+005,-2.16275298447506e+001,-1.03790374344979e+001

3.57531884183106e+005,-2.16292627129093e+001,-1.05201434485398e+001

3.62522843294651e+005,-2.16310301052312e+001,-1.06631423876421e+001

3.67583473599047e+005,-2.16328327230434e+001,-1.08080601221552e+001

3.72714747669902e+005,-2.16346712900283e+001,-1.09549228971651e+001

3.77917651657445e+005,-2.16365465531624e+001,-1.11037573362183e+001

3.83193185478053e+005,-2.16384592836765e+001,-1.12545904449209e+001

3.88542363006410e+005,-2.16404102780343e+001,-1.14074496144072e+001

3.93966212270369e+005,-2.16424003589306e+001,-1.15623626246736e+001

3.99465775648511e+005,-2.16444303763070e+001,-1.17193576477729e+001

4.05042110070485e+005,-2.16465012083851e+001,-1.18784632508664e+001

4.10696287220124e+005,-2.16486137627157e+001,-1.20397083991285e+001

4.16429393741414e+005,-2.16507689772434e+001,-1.22031224585017e+001

4.22242531447321e+005,-2.16529678213864e+001,-1.23687351982994e+001

4.28136817531551e+005,-2.16552112971289e+001,-1.25365767936530e+001

4.34113384783250e+005,-2.16575004401275e+001,-1.27066778278026e+001

4.40173381804713e+005,-2.16598363208289e+001,-1.28790692942286e+001

4.46317973232124e+005,-2.16622200455992e+001,-1.30537825986223e+001

4.52548339959385e+005,-2.16646527578638e+001,-1.32308495606970e+001

4.58865679365059e+005,-2.16671356392562e+001,-1.34103024158342e+001

4.65271205542494e+005,-2.16696699107768e+001,-1.35921738165693e+001

4.71766149533147e+005,-2.16722568339589e+001,-1.37764968339136e+001

4.78351759563174e+005,-2.16748977120434e+001,-1.39633049585115e+001

4.85029301283321e+005,-2.16775938911593e+001,-1.41526321016368e+001

4.91800058012158e+005,-2.16803467615117e+001,-1.43445125960232e+001

4.98665330982714e+005,-2.16831577585742e+001,-1.45389811965342e+001

5.05626439592555e+005,-2.16860283642886e+001,-1.47360730806683e+001

5.12684721657352e+005,-2.16889601082674e+001,-1.49358238489027e+001

5.19841533667984e+005,-2.16919545690022e+001,-1.51382695248751e+001

5.27098251051240e+005,-2.16950133750760e+001,-1.53434465554022e+001

5.34456268434150e+005,-2.16981382063784e+001,-1.55513918103380e+001

5.41916999912011e+005,-2.17013307953259e+001,-1.57621425822684e+001

