Freq.,VOut,OutRef

1.00000000000000e+004,-1.67771355131549e+001,-2.01972276587520e-001

1.01395947979003e+004,-1.67771365406787e+001,-2.04791572940719e-001

1.02811382665607e+004,-1.67771375970614e+001,-2.07650219623430e-001

1.04246576084112e+004,-1.67771386831130e+001,-2.10548765707207e-001

1.05701804056138e+004,-1.67771397996656e+001,-2.13487767922111e-001

1.07177346253629e+004,-1.67771409475749e+001,-2.16467790756847e-001

1.08673486252606e+004,-1.67771421277208e+001,-2.19489406568972e-001

1.10190511587661e+004,-1.67771433410074e+001,-2.22553195695958e-001

1.11728713807222e+004,-1.67771445883644e+001,-2.25659746563441e-001

1.13288388529580e+004,-1.67771458707471e+001,-2.28809655801488e-001

1.14869835499703e+004,-1.67771471891380e+001,-2.32003528352057e-001

1.16473358646846e+004,-1.67771485445468e+001,-2.35241977591518e-001

1.18099266142953e+004,-1.67771499380116e+001,-2.38525625442236e-001

1.19747870461893e+004,-1.67771513705996e+001,-2.41855102495609e-001

1.21419488439505e+004,-1.67771528434074e+001,-2.45231048130165e-001

1.23114441334492e+004,-1.67771543575627e+001,-2.48654110634377e-001

1.24833054890161e+004,-1.67771559142248e+001,-2.52124947327909e-001

1.26575659397028e+004,-1.67771575145849e+001,-2.55644224691649e-001

1.28342589756290e+004,-1.67771591598679e+001,-2.59212618490571e-001

1.30134185544193e+004,-1.67771608513328e+001,-2.62830813906377e-001

1.31950791077289e+004,-1.67771625902739e+001,-2.66499505662808e-001

1.33792755478611e+004,-1.67771643780214e+001,-2.70219398165379e-001

1.35660432744767e+004,-1.67771662159427e+001,-2.73991205628470e-001

1.37554181813974e+004,-1.67771681054436e+001,-2.77815652215340e-001

1.39474366635040e+004,-1.67771700479690e+001,-2.81693472176023e-001

1.41421356237309e+004,-1.67771720450039e+001,-2.85625409986596e-001

1.43395524801583e+004,-1.67771740980753e+001,-2.89612220488154e-001

1.45397251732031e+004,-1.67771762087522e+001,-2.93654669036841e-001

1.47426921729110e+004,-1.67771783786476e+001,-2.97753531643337e-001

1.49484924863494e+004,-1.67771806094197e+001,-3.01909595121903e-001

1.51571656651040e+004,-1.67771829027725e+001,-3.06123657244470e-001

1.53687518128801e+004,-1.67771852604580e+001,-3.10396526885042e-001

1.55832915932100e+004,-1.67771876842764e+001,-3.14729024179885e-001

1.58008262372675e+004,-1.67771901760787e+001,-3.19121980678433e-001

1.60213975517924e+004,-1.67771927377669e+001,-3.23576239506510e-001

1.62450479271247e+004,-1.67771953712964e+001,-3.28092655520391e-001

1.64718203453514e+004,-1.67771980786766e+001,-3.32672095474145e-001

1.67017583885674e+004,-1.67772008619731e+001,-3.37315438181251e-001

1.69349062472505e+004,-1.67772037233091e+001,-3.42023574681234e-001

1.71713087287550e+004,-1.67772066648666e+001,-3.46797408410941e-001

1.74110112659224e+004,-1.67772096888882e+001,-3.51637855373912e-001

1.76540599258131e+004,-1.67772127976791e+001,-3.56545844314889e-001

1.79005014185594e+004,-1.67772159936082e+001,-3.61522316894648e-001

1.81503831063432e+004,-1.67772192791107e+001,-3.66568227868387e-001

1.84037530124975e+004,-1.67772226566891e+001,-3.71684545267789e-001

1.86606598307361e+004,-1.67772261289151e+001,-3.76872250584318e-001

1.89211529345119e+004,-1.67772296984324e+001,-3.82132338950340e-001

1.91852823865052e+004,-1.67772333679575e+001,-3.87465819334886e-001

1.94530989482457e+004,-1.67772371402824e+001,-3.92873714727157e-001

1.97246540898671e+004,-1.67772410182766e+001,-3.98357062333233e-001

1.99999999999999e+004,-1.67772450048889e+001,-4.03916913772269e-001

2.02791895958005e+004,-1.67772491031498e+001,-4.09554335272136e-001

2.05622765331213e+004,-1.67772533161738e+001,-4.15270407874235e-001

2.08493152168224e+004,-1.67772576471615e+001,-4.21066227632476e-001

2.11403608112276e+004,-1.67772620994021e+001,-4.26942905824876e-001

2.14354692507258e+004,-1.67772666762756e+001,-4.32901569158403e-001

2.17346972505211e+004,-1.67772713812552e+001,-4.38943359984632e-001

2.20381023175322e+004,-1.67772762179107e+001,-4.45069436510618e-001

2.23457427614443e+004,-1.67772811899097e+001,-4.51280973020471e-001

2.26576777059159e+004,-1.67772863010215e+001,-4.57579160092718e-001

2.29739670999406e+004,-1.67772915551189e+001,-4.63965204826759e-001

2.32946717293690e+004,-1.67772969561817e+001,-4.70440331066190e-001

2.36198532285905e+004,-1.67773025082995e+001,-4.77005779629647e-001

2.39495740923785e+004,-1.67773082156740e+001,-4.83662808544566e-001

2.42838976879009e+004,-1.67773140826227e+001,-4.90412693280091e-001

2.46228882668982e+004,-1.67773201135820e+001,-4.97256726987651e-001

2.49666109780322e+004,-1.67773263131101e+001,-5.04196220741138e-001

2.53151318794055e+004,-1.67773326858900e+001,-5.11232503784028e-001

2.56685179512580e+004,-1.67773392367339e+001,-5.18366923773507e-001

2.60268371088386e+004,-1.67773459705853e+001,-5.25600847037190e-001

2.63901582154578e+004,-1.67773528925236e+001,-5.32935658822442e-001

2.67585510957221e+004,-1.67773600077670e+001,-5.40372763557689e-001

2.71320865489533e+004,-1.67773673216766e+001,-5.47913585113070e-001

2.75108363627948e+004,-1.67773748397601e+001,-5.55559567062880e-001

2.78948733270080e+004,-1.67773825676757e+001,-5.63312172957649e-001

2.82842712474618e+004,-1.67773905112359e+001,-5.71172886591110e-001

2.86791049603164e+004,-1.67773986764120e+001,-5.79143212278241e-001

2.90794503464061e+004,-1.67774070693376e+001,-5.87224675133517e-001

2.94853843458219e+004,-1.67774156963137e+001,-5.95418821351804e-001

2.98969849726987e+004,-1.67774245638125e+001,-6.03727218494690e-001

3.03143313302078e+004,-1.67774336784820e+001,-6.12151455780112e-001

3.07375036257601e+004,-1.67774430471510e+001,-6.20693144375446e-001

3.11665831864199e+004,-1.67774526768334e+001,-6.29353917692504e-001

3.16016524745350e+004,-1.67774625747328e+001,-6.38135431691385e-001

3.20427951035848e+004,-1.67774727482483e+001,-6.47039365181140e-001

3.24900958542493e+004,-1.67774832049786e+001,-6.56067420131634e-001

3.29436406907028e+004,-1.67774939527280e+001,-6.65221321981025e-001

3.34035167771346e+004,-1.67775049995112e+001,-6.74502819956637e-001

3.38698124945009e+004,-1.67775163535586e+001,-6.83913687391280e-001

3.43426174575100e+004,-1.67775280233223e+001,-6.93455722048714e-001

3.48220225318448e+004,-1.67775400174818e+001,-7.03130746450371e-001

3.53081198516260e+004,-1.67775523449492e+001,-7.12940608208966e-001

3.58010028371187e+004,-1.67775650148758e+001,-7.22887180362287e-001

3.63007662126863e+004,-1.67775780366577e+001,-7.32972361716252e-001

3.68075060249948e+004,-1.67775914199423e+001,-7.43198077186435e-001

3.73213196614721e+004,-1.67776051746345e+001,-7.53566278148849e-001

3.78423058690237e+004,-1.67776193109034e+001,-7.64078942790659e-001

3.83705647730104e+004,-1.67776338391884e+001,-7.74738076469846e-001

3.89061978964912e+004,-1.67776487702066e+001,-7.85545712074292e-001

3.94493081797342e+004,-1.67776641149594e+001,-7.96503910387984e-001

3.99999999999998e+004,-1.67776798847396e+001,-8.07614760463003e-001

4.05583791916010e+004,-1.67776960911383e+001,-8.18880379992276e-001

4.11245530662425e+004,-1.67777127460531e+001,-8.30302915688801e-001

4.16986304336447e+004,-1.67777298616945e+001,-8.41884543670295e-001

4.22807216224550e+004,-1.67777474505945e+001,-8.53627469846520e-001

4.28709385014515e+004,-1.67777655256138e+001,-8.65533930312070e-001

4.34693945010421e+004,-1.67777840999501e+001,-8.77606191744413e-001

4.40762046350642e+004,-1.67778031871461e+001,-8.89846551804289e-001

4.46914855228886e+004,-1.67778228010977e+001,-9.02257339544457e-001

4.53153554118317e+004,-1.67778429560627e+001,-9.14840915819556e-001

4.59479341998812e+004,-1.67778636666688e+001,-9.27599673703027e-001

4.65893434587380e+004,-1.67778849479233e+001,-9.40536038907680e-001

4.72397064571810e+004,-1.67779068152210e+001,-9.53652470211236e-001

4.78991481847569e+004,-1.67779292843540e+001,-9.66951459888031e-001

4.85677953758016e+004,-1.67779523715204e+001,-9.80435534143205e-001

4.92457765337964e+004,-1.67779760933343e+001,-9.94107253554157e-001

4.99332219560642e+004,-1.67780004668345e+001,-1.00796921351508e+000

5.06302637588109e+004,-1.67780255094948e+001,-1.02202404468875e+000

5.13370359025159e+004,-1.67780512392337e+001,-1.03627441346038e+000

5.20536742176771e+004,-1.67780776744244e+001,-1.05072302239906e+000

5.27803164309155e+004,-1.67781048339049e+001,-1.06537261072296e+000

5.35171021914442e+004,-1.67781327369880e+001,-1.08022595477103e+000

5.42641730979066e+004,-1.67781614034725e+001,-1.09528586847706e+000

5.50216727255895e+004,-1.67781908536530e+001,-1.11055520385259e+000

5.57897466540159e+004,-1.67782211083308e+001,-1.12603685147277e+000

5.65685424949235e+004,-1.67782521888253e+001,-1.14173374096645e+000

5.73582099206328e+004,-1.67782841169840e+001,-1.15764884151593e+000

5.81589006928121e+004,-1.67783169151947e+001,-1.17378516235666e+000

5.89707686916437e+004,-1.67783506063958e+001,-1.19014575328627e+000

5.97939699453972e+004,-1.67783852140882e+001,-1.20673370517645e+000

6.06286626604156e+004,-1.67784207623464e+001,-1.22355215049363e+000

6.14750072515201e+004,-1.67784572758304e+001,-1.24060426382033e+000

6.23331663728396e+004,-1.67784947797973e+001,-1.25789326238618e+000

6.32033049490698e+004,-1.67785333001126e+001,-1.27542240660238e+000

6.40855902071694e+004,-1.67785728632626e+001,-1.29319500060306e+000

6.49801917084985e+004,-1.67786134963659e+001,-1.31121439279100e+000

6.58872813814055e+004,-1.67786552271856e+001,-1.32948397638998e+000

6.68070335542691e+004,-1.67786980841409e+001,-1.34800719000242e+000

6.77396249890018e+004,-1.67787420963196e+001,-1.36678751817276e+000

6.86852349150199e+004,-1.67787872934900e+001,-1.38582849195739e+000

6.96440450636895e+004,-1.67788337061127e+001,-1.40513368949974e+000

7.06162397032520e+004,-1.67788813653531e+001,-1.42470673661132e+000

7.16020056742374e+004,-1.67789303030932e+001,-1.44455130735906e+000

7.26015324253724e+004,-1.67789805519436e+001,-1.46467112465955e+000

7.36150120499896e+004,-1.67790321452555e+001,-1.48506996087758e+000

7.46426393229441e+004,-1.67790851171328e+001,-1.50575163843188e+000

7.56846117380472e+004,-1.67791395024436e+001,-1.52672003040870e+000

7.67411295460207e+004,-1.67791953368322e+001,-1.54797906117791e+000

7.78123957929823e+004,-1.67792526567306e+001,-1.56953270702051e+000

7.88986163594682e+004,-1.67793114993698e+001,-1.59138499675804e+000

7.99999999999995e+004,-1.67793719027914e+001,-1.61354001239208e+000

8.11167583832018e+004,-1.67794339058585e+001,-1.63600188974902e+000

8.22491061324848e+004,-1.67794975482666e+001,-1.65877481913167e+000

8.33972608672892e+004,-1.67795628705542e+001,-1.68186304597773e+000

8.45614432449099e+004,-1.67796299141134e+001,-1.70527087152742e+000

8.57418770029029e+004,-1.67796987211998e+001,-1.72900265349477e+000

8.69387890020841e+004,-1.67797693349422e+001,-1.75306280675054e+000

8.81524092701283e+004,-1.67798417993523e+001,-1.77745580400884e+000

8.93829710457770e+004,-1.67799161593334e+001,-1.80218617652438e+000

9.06307108236633e+004,-1.67799924606893e+001,-1.82725851479667e+000

9.18958683997622e+004,-1.67800707501323e+001,-1.85267746928204e+000

9.31786869174758e+004,-1.67801510752910e+001,-1.87844775111418e+000

9.44794129143618e+004,-1.67802334847172e+001,-1.90457413283414e+000

9.57982963695136e+004,-1.67803180278932e+001,-1.93106144912800e+000

9.71355907516031e+004,-1.67804047552369e+001,-1.95791459757513e+000

9.84915530675926e+004,-1.67804937181081e+001,-1.98513853940315e+000

9.98664439121282e+004,-1.67805849688126e+001,-2.01273830025640e+000

1.01260527517622e+005,-1.67806785606067e+001,-2.04071897097162e+000

1.02674071805032e+005,-1.67807745477003e+001,-2.06908570836381e+000

1.04107348435354e+005,-1.67808729852594e+001,-2.09784373602518e+000

1.05560632861831e+005,-1.67809739294080e+001,-2.12699834513338e+000

1.07034204382888e+005,-1.67810774372286e+001,-2.15655489527065e+000

1.08528346195813e+005,-1.67811835667628e+001,-2.18651881525709e+000

1.10043345451179e+005,-1.67812923770095e+001,-2.21689560399387e+000

1.11579493308032e+005,-1.67814039279238e+001,-2.24769083132111e+000

1.13137084989847e+005,-1.67815182804133e+001,-2.27891013888824e+000

1.14716419841265e+005,-1.67816354963344e+001,-2.31055924103864e+000

1.16317801385624e+005,-1.67817556384871e+001,-2.34264392570741e+000

1.17941537383287e+005,-1.67818787706087e+001,-2.37517005533678e+000

1.19587939890794e+005,-1.67820049573668e+001,-2.40814356780377e+000

1.21257325320831e+005,-1.67821342643499e+001,-2.44157047736826e+000

1.22950014503040e+005,-1.67822667580580e+001,-2.47545687563333e+000

1.24666332745679e+005,-1.67824025058916e+001,-2.50980893252741e+000

1.26406609898139e+005,-1.67825415761388e+001,-2.54463289730264e+000

1.28171180414339e+005,-1.67826840379621e+001,-2.57993509955304e+000

1.29960383416997e+005,-1.67828299613830e+001,-2.61572195025260e+000

1.31774562762811e+005,-1.67829794172656e+001,-2.65199994281493e+000

1.33614067108538e+005,-1.67831324772990e+001,-2.68877565417332e+000

1.35479249978003e+005,-1.67832892139779e+001,-2.72605574588516e+000

1.37370469830040e+005,-1.67834497005822e+001,-2.76384696525880e+000

1.39288090127379e+005,-1.67836140111550e+001,-2.80215614650604e+000

1.41232479406504e+005,-1.67837822204792e+001,-2.84099021191933e+000

1.43204011348474e+005,-1.67839544040532e+001,-2.88035617307602e+000

1.45203064850745e+005,-1.67841306380643e+001,-2.92026113207156e+000

1.47230024099979e+005,-1.67843109993619e+001,-2.96071228277975e+000

1.49285278645888e+005,-1.67844955654284e+001,-3.00171691214479e+000

1.51369223476094e+005,-1.67846844143500e+001,-3.04328240150306e+000

1.53482259092041e+005,-1.67848776247848e+001,-3.08541622793941e+000

1.55624791585964e+005,-1.67850752759313e+001,-3.12812596567479e+000

1.57797232718936e+005,-1.67852774474947e+001,-3.17141928749054e+000

1.59999999999999e+005,-1.67854842196529e+001,-3.21530396618864e+000

1.62233516766403e+005,-1.67856956730212e+001,-3.25978787608809e+000

1.64498212264969e+005,-1.67859118886166e+001,-3.30487899456229e+000

1.66794521734578e+005,-1.67861329478208e+001,-3.35058540361475e+000

1.69122886489819e+005,-1.67863589323433e+001,-3.39691529149682e+000

1.71483754005805e+005,-1.67865899241837e+001,-3.44387695436733e+000

1.73877578004168e+005,-1.67868260055937e+001,-3.49147879799804e+000

1.76304818540256e+005,-1.67870672590393e+001,-3.53972933952176e+000

1.78765942091554e+005,-1.67873137671625e+001,-3.58863720922954e+000

1.81261421647326e+005,-1.67875656127443e+001,-3.63821115241249e+000

1.83791736799524e+005,-1.67878228786665e+001,-3.68846003125593e+000

1.86357373834951e+005,-1.67880856478757e+001,-3.73939282678154e+000

1.88958825828723e+005,-1.67883540033476e+001,-3.79101864084031e+000

1.91596592739027e+005,-1.67886280280522e+001,-3.84334669815896e+000

1.94271181503206e+005,-1.67889078049208e+001,-3.89638634844015e+000

1.96983106135185e+005,-1.67891934168143e+001,-3.95014706851493e+000

1.99732887824256e+005,-1.67894849464940e+001,-4.00463846455136e+000

2.02521055035243e+005,-1.67897824765940e+001,-4.05987027432017e+000

2.05348143610063e+005,-1.67900860895965e+001,-4.11585236951527e+000

2.08214696870707e+005,-1.67903958678098e+001,-4.17259475813236e+000

2.11121265723661e+005,-1.67907118933499e+001,-4.23010758690537e+000

2.14068408765776e+005,-1.67910342481251e+001,-4.28840114380065e+000

2.17056692391625e+005,-1.67913630138250e+001,-4.34748586057074e+000

2.20086690902357e+005,-1.67916982719133e+001,-4.40737231536531e+000

2.23158986616063e+005,-1.67920401036254e+001,-4.46807123540144e+000

2.26274169979693e+005,-1.67923885899714e+001,-4.52959349969393e+000

2.29432839682530e+005,-1.67927438117439e+001,-4.59195014184016e+000

2.32635602771247e+005,-1.67931058495314e+001,-4.65515235286813e+000

2.35883074766574e+005,-1.67934747837392e+001,-4.71921148413661e+000

2.39175879781588e+005,-1.67938506946149e+001,-4.78413905029660e+000

2.42514650641661e+005,-1.67942336622821e+001,-4.84994673230547e+000

2.45900029006080e+005,-1.67946237667813e+001,-4.91664638049701e+000

2.49332665491357e+005,-1.67950210881179e+001,-4.98425001770600e+000

2.52813219796278e+005,-1.67954257063187e+001,-5.05276984244310e+000

2.56342360828676e+005,-1.67958377014967e+001,-5.12221823212273e+000

2.59920766833993e+005,-1.67962571539245e+001,-5.19260774633825e+000

2.63549125525621e+005,-1.67966841441167e+001,-5.26395113018558e+000

2.67228134217075e+005,-1.67971187529222e+001,-5.33626131763124e+000

2.70958499956006e+005,-1.67975610616259e+001,-5.40955143492391e+000

2.74740939660078e+005,-1.67980111520598e+001,-5.48383480404743e+000

2.78576180254757e+005,-1.67984691067253e+001,-5.55912494621063e+000

2.82464958813007e+005,-1.67989350089257e+001,-5.63543558537457e+000

2.86408022696948e+005,-1.67994089429088e+001,-5.71278065181221e+000

2.90406129701488e+005,-1.67998909940214e+001,-5.79117428569822e+000

2.94460048199957e+005,-1.68003812488737e+001,-5.87063084072744e+000

2.98570557291775e+005,-1.68008797955163e+001,-5.95116488775579e+000

3.02738446952187e+005,-1.68013867236268e+001,-6.03279121846607e+000

3.06964518184081e+005,-1.68019021247093e+001,-6.11552484904757e+000

3.11249583171928e+005,-1.68024260923044e+001,-6.19938102389589e+000

3.15594465437872e+005,-1.68029587222107e+001,-6.28437521932195e+000

3.19999999999997e+005,-1.68035001127182e+001,-6.37052314727019e+000

3.24467033532806e+005,-1.68040503648523e+001,-6.45784075904451e+000

3.28996424529938e+005,-1.68046095826293e+001,-6.54634424903536e+000

3.33589043469155e+005,-1.68051778733232e+001,-6.63605005844722e+000

3.38245772979638e+005,-1.68057553477433e+001,-6.72697487902382e+000

3.42967508011610e+005,-1.68063421205221e+001,-6.81913565676600e+000

3.47755156008335e+005,-1.68069383104143e+001,-6.91254959564194e+000

3.52609637080511e+005,-1.68075440406058e+001,-7.00723416128561e+000

3.57531884183106e+005,-1.68081594390324e+001,-7.10320708468191e+000

3.62522843294651e+005,-1.68087846387086e+001,-7.20048636583418e+000

3.67583473599047e+005,-1.68094197780655e+001,-7.29909027741606e+000

3.72714747669902e+005,-1.68100650012972e+001,-7.39903736840041e+000

3.77917651657445e+005,-1.68107204587164e+001,-7.50034646766791e+000

3.83193185478053e+005,-1.68113863071180e+001,-7.60303668759155e+000

3.88542363006410e+005,-1.68120627101503e+001,-7.70712742759591e+000

3.93966212270369e+005,-1.68127498386932e+001,-7.81263837769174e+000

3.99465775648511e+005,-1.68134478712441e+001,-7.91958952198180e+000

4.05042110070485e+005,-1.68141569943093e+001,-8.02800114214146e+000

4.10696287220124e+005,-1.68148774028024e+001,-8.13789382086943e+000

4.16429393741414e+005,-1.68156093004470e+001,-8.24928844531204e+000

4.22242531447321e+005,-1.68163529001857e+001,-8.36220621045948e+000

4.28136817531551e+005,-1.68171084245932e+001,-8.47666862251369e+000

4.34113384783250e+005,-1.68178761062935e+001,-8.59269750223091e+000

4.40173381804713e+005,-1.68186561883815e+001,-8.71031498823747e+000

4.46317973232124e+005,-1.68194489248471e+001,-8.82954354032059e+000

4.52548339959385e+005,-1.68202545810038e+001,-8.95040594269592e+000

4.58865679365059e+005,-1.68210734339183e+001,-9.07292530725289e+000

4.65271205542494e+005,-1.68219057728440e+001,-9.19712507677987e+000

4.71766149533147e+005,-1.68227518996559e+001,-9.32302902816969e+000

4.78351759563174e+005,-1.68236121292868e+001,-9.45066127561052e+000

4.85029301283321e+005,-1.68244867901666e+001,-9.58004627375996e+000

4.91800058012158e+005,-1.68253762246611e+001,-9.71120882090925e+000

4.98665330982714e+005,-1.68262807895134e+001,-9.84417406213565e+000

5.05626439592555e+005,-1.68272008562856e+001,-9.97896749244897e+000

5.12684721657352e+005,-1.68281368118022e+001,-1.01156149599326e+001

5.19841533667984e+005,-1.68290890585933e+001,-1.02541426688818e+001

5.27098251051240e+005,-1.68300580153393e+001,-1.03945771829438e+001

5.34456268434150e+005,-1.68310441173169e+001,-1.05369454282590e+001

5.41916999912011e+005,-1.68320478168452e+001,-1.06812746966086e+001

