Freq.,VOut,OutRef

1.00000000000000e+004,-3.73454220076578e+001,-2.61451511288090e-001

1.01395947979003e+004,-3.73454239961419e+001,-2.65101050334007e-001

1.02811382665607e+004,-3.73454260404905e+001,-2.68801527068006e-001

1.04246576084112e+004,-3.73454281422721e+001,-2.72553652214276e-001

1.05701804056138e+004,-3.73454303030988e+001,-2.76358146407033e-001

1.07177346253629e+004,-3.73454325246282e+001,-2.80215740321417e-001

1.08673486252606e+004,-3.73454348085643e+001,-2.84127174819635e-001

1.10190511587661e+004,-3.73454371566585e+001,-2.88093201089166e-001

1.11728713807222e+004,-3.73454395707118e+001,-2.92114580786354e-001

1.13288388529580e+004,-3.73454420525755e+001,-2.96192086181266e-001

1.14869835499703e+004,-3.73454446041525e+001,-3.00326500308473e-001

1.16473358646846e+004,-3.73454472273995e+001,-3.04518617111210e-001

1.18099266142953e+004,-3.73454499243274e+001,-3.08769241599087e-001

1.19747870461893e+004,-3.73454526970040e+001,-3.13079189995434e-001

1.21419488439505e+004,-3.73454555475547e+001,-3.17449289897610e-001

1.23114441334492e+004,-3.73454584781644e+001,-3.21880380432982e-001

1.24833054890161e+004,-3.73454614910794e+001,-3.26373312418675e-001

1.26575659397028e+004,-3.73454645886087e+001,-3.30928948524485e-001

1.28342589756290e+004,-3.73454677731258e+001,-3.35548163438005e-001

1.30134185544193e+004,-3.73454710470712e+001,-3.40231844027645e-001

1.31950791077289e+004,-3.73454744129531e+001,-3.44980889517564e-001

1.33792755478611e+004,-3.73454778733501e+001,-3.49796211653542e-001

1.35660432744767e+004,-3.73454814309131e+001,-3.54678734878683e-001

1.37554181813974e+004,-3.73454850883669e+001,-3.59629396510783e-001

1.39474366635040e+004,-3.73454888485126e+001,-3.64649146918729e-001

1.41421356237309e+004,-3.73454927142300e+001,-3.69738949702459e-001

1.43395524801583e+004,-3.73454966884788e+001,-3.74899781879473e-001

1.45397251732031e+004,-3.73455007743019e+001,-3.80132634067851e-001

1.47426921729110e+004,-3.73455049748272e+001,-3.85438510676375e-001

1.49484924863494e+004,-3.73455092932699e+001,-3.90818430093566e-001

1.51571656651040e+004,-3.73455137329351e+001,-3.96273424882600e-001

1.53687518128801e+004,-3.73455182972203e+001,-4.01804541977454e-001

1.55832915932100e+004,-3.73455229896179e+001,-4.07412842879912e-001

1.58008262372675e+004,-3.73455278137180e+001,-4.13099403862600e-001

1.60213975517924e+004,-3.73455327732106e+001,-4.18865316174025e-001

1.62450479271247e+004,-3.73455378718891e+001,-4.24711686242087e-001

1.64718203453514e+004,-3.73455431136526e+001,-4.30639635888793e-001

1.67017583885674e+004,-3.73455485025088e+001,-4.36650302538800e-001

1.69349062472505e+004,-3.73455540425779e+001,-4.42744839434793e-001

1.71713087287550e+004,-3.73455597380945e+001,-4.48924415859927e-001

1.74110112659224e+004,-3.73455655934115e+001,-4.55190217354552e-001

1.76540599258131e+004,-3.73455716130032e+001,-4.61543445942845e-001

1.79005014185594e+004,-3.73455778014685e+001,-4.67985320360784e-001

1.81503831063432e+004,-3.73455841635348e+001,-4.74517076284575e-001

1.84037530124975e+004,-3.73455907040608e+001,-4.81139966565471e-001

1.86606598307361e+004,-3.73455974280411e+001,-4.87855261465335e-001

1.89211529345119e+004,-3.73456043406090e+001,-4.94664248897918e-001

1.91852823865052e+004,-3.73456114470410e+001,-5.01568234669737e-001

1.94530989482457e+004,-3.73456187527602e+001,-5.08568542729907e-001

1.97246540898671e+004,-3.73456262633411e+001,-5.15666515414896e-001

1.99999999999999e+004,-3.73456339845128e+001,-5.22863513705485e-001

2.02791895958005e+004,-3.73456419221640e+001,-5.30160917480703e-001

2.05622765331213e+004,-3.73456500823472e+001,-5.37560125778046e-001

2.08493152168224e+004,-3.73456584712832e+001,-5.45062557057120e-001

2.11403608112276e+004,-3.73456670953654e+001,-5.52669649465504e-001

2.14354692507258e+004,-3.73456759611651e+001,-5.60382861109444e-001

2.17346972505211e+004,-3.73456850754359e+001,-5.68203670327495e-001

2.20381023175322e+004,-3.73456944451190e+001,-5.76133575966997e-001

2.23457427614443e+004,-3.73457040773483e+001,-5.84174097665839e-001

2.26576777059159e+004,-3.73457139794554e+001,-5.92326776137968e-001

2.29739670999406e+004,-3.73457241589753e+001,-6.00593173460313e-001

2.32946717293690e+004,-3.73457346236521e+001,-6.08974873364795e-001

2.36198532285905e+004,-3.73457453814441e+001,-6.17473481536786e-001

2.39495740923785e+004,-3.73457564405305e+001,-6.26090625911829e-001

2.42838976879009e+004,-3.73457678093164e+001,-6.34827956982779e-001

2.46228882668982e+004,-3.73457794964402e+001,-6.43687148104149e-001

2.49666109780322e+004,-3.73457915107787e+001,-6.52669895806858e-001

2.53151318794055e+004,-3.73458038614544e+001,-6.61777920113402e-001

2.56685179512580e+004,-3.73458165578418e+001,-6.71012964856152e-001

2.60268371088386e+004,-3.73458296095746e+001,-6.80376798004021e-001

2.63901582154578e+004,-3.73458430265522e+001,-6.89871211988968e-001

2.67585510957221e+004,-3.73458568189475e+001,-6.99498024038574e-001

2.71320865489533e+004,-3.73458709972137e+001,-7.09259076514604e-001

2.75108363627948e+004,-3.73458855720924e+001,-7.19156237251711e-001

2.78948733270080e+004,-3.73459005546211e+001,-7.29191399905049e-001

2.82842712474618e+004,-3.73459159561413e+001,-7.39366484298558e-001

2.86791049603164e+004,-3.73459317883064e+001,-7.49683436781798e-001

2.90794503464061e+004,-3.73459480630906e+001,-7.60144230584557e-001

2.94853843458219e+004,-3.73459647927972e+001,-7.70750866185096e-001

2.98969849726987e+004,-3.73459819900674e+001,-7.81505371675312e-001

3.03143313302078e+004,-3.73459996678893e+001,-7.92409803134185e-001

3.07375036257601e+004,-3.73460178396077e+001,-8.03466245004852e-001

3.11665831864199e+004,-3.73460365189329e+001,-8.14676810477180e-001

3.16016524745350e+004,-3.73460557199511e+001,-8.26043641874644e-001

3.20427951035848e+004,-3.73460754571339e+001,-8.37568911046040e-001

3.24900958542493e+004,-3.73460957453490e+001,-8.49254819761273e-001

3.29436406907028e+004,-3.73461165998703e+001,-8.61103600114230e-001

3.34035167771346e+004,-3.73461380363890e+001,-8.73117514928001e-001

3.38698124945009e+004,-3.73461600710245e+001,-8.85298858167475e-001

3.43426174575100e+004,-3.73461827203360e+001,-8.97649955354431e-001

3.48220225318448e+004,-3.73462060013333e+001,-9.10173163991924e-001

3.53081198516260e+004,-3.73462299314900e+001,-9.22870873986969e-001

3.58010028371187e+004,-3.73462545287544e+001,-9.35745508085955e-001

3.63007662126863e+004,-3.73462798115624e+001,-9.48799522311051e-001

3.68075060249948e+004,-3.73463057988509e+001,-9.62035406401369e-001

3.73213196614721e+004,-3.73463325100698e+001,-9.75455684262227e-001

3.78423058690237e+004,-3.73463599651964e+001,-9.89062914417799e-001

3.83705647730104e+004,-3.73463881847484e+001,-1.00285969046879e+000

3.89061978964912e+004,-3.73464171897982e+001,-1.01684864155821e+000

3.94493081797342e+004,-3.73464470019873e+001,-1.03103243284000e+000

3.99999999999998e+004,-3.73464776435411e+001,-1.04541376595376e+000

4.05583791916010e+004,-3.73465091372838e+001,-1.05999537950488e+000

4.11245530662425e+004,-3.73465415066536e+001,-1.07478004955278e+000

4.16986304336447e+004,-3.73465747757192e+001,-1.08977059010019e+000

4.22807216224550e+004,-3.73466089691949e+001,-1.10496985359307e+000

4.28709385014515e+004,-3.73466441124580e+001,-1.12038073142197e+000

4.34693945010421e+004,-3.73466802315650e+001,-1.13600615443229e+000

4.40762046350642e+004,-3.73467173532694e+001,-1.15184909343851e+000

4.46914855228886e+004,-3.73467555050388e+001,-1.16791255974602e+000

4.53153554118317e+004,-3.73467947150733e+001,-1.18419960567524e+000

4.59479341998812e+004,-3.73468350123238e+001,-1.20071332509729e+000

4.65893434587380e+004,-3.73468764265107e+001,-1.21745685397002e+000

4.72397064571810e+004,-3.73469189881432e+001,-1.23443337088378e+000

4.78991481847569e+004,-3.73469627285392e+001,-1.25164609761076e+000

4.85677953758016e+004,-3.73470076798449e+001,-1.26909829966323e+000

4.92457765337964e+004,-3.73470538750555e+001,-1.28679328685452e+000

4.99332219560642e+004,-3.73471013480361e+001,-1.30473441386860e+000

5.06302637588109e+004,-3.73471501335431e+001,-1.32292508083442e+000

5.13370359025159e+004,-3.73472002672458e+001,-1.34136873390835e+000

5.20536742176771e+004,-3.73472517857490e+001,-1.36006886585942e+000

5.27803164309155e+004,-3.73473047266148e+001,-1.37902901666519e+000

5.35171021914442e+004,-3.73473591283869e+001,-1.39825277410936e+000

5.42641730979066e+004,-3.73474150306131e+001,-1.41774377438994e+000

5.50216727255895e+004,-3.73474724738699e+001,-1.43750570273086e+000

5.57897466540159e+004,-3.73475314997867e+001,-1.45754229400004e+000

5.65685424949235e+004,-3.73475921510711e+001,-1.47785733333631e+000

5.73582099206328e+004,-3.73476544715337e+001,-1.49845465678087e+000

5.81589006928121e+004,-3.73477185061143e+001,-1.51933815191397e+000

5.89707686916437e+004,-3.73477843009083e+001,-1.54051175850128e+000

5.97939699453972e+004,-3.73478519031933e+001,-1.56197946914489e+000

6.06286626604156e+004,-3.73479213614564e+001,-1.58374532993995e+000

6.14750072515201e+004,-3.73479927254218e+001,-1.60581344114058e+000

6.23331663728396e+004,-3.73480660460791e+001,-1.62818795783004e+000

6.32033049490698e+004,-3.73481413757118e+001,-1.65087309059850e+000

6.40855902071694e+004,-3.73482187679267e+001,-1.67387310622715e+000

6.49801917084985e+004,-3.73482982776827e+001,-1.69719232838043e+000

6.58872813814055e+004,-3.73483799613218e+001,-1.72083513830254e+000

6.68070335542691e+004,-3.73484638765988e+001,-1.74480597552249e+000

6.77396249890018e+004,-3.73485500827122e+001,-1.76910933856670e+000

6.86852349150199e+004,-3.73486386403360e+001,-1.79374978567597e+000

6.96440450636895e+004,-3.73487296116510e+001,-1.81873193553135e+000

7.06162397032520e+004,-3.73488230603772e+001,-1.84406046798750e+000

7.16020056742374e+004,-3.73489190518064e+001,-1.86974012481012e+000

7.26015324253724e+004,-3.73490176528348e+001,-1.89577571042516e+000

7.36150120499896e+004,-3.73491189319969e+001,-1.92217209266962e+000

7.46426393229441e+004,-3.73492229594991e+001,-1.94893420355507e+000

7.56846117380472e+004,-3.73493298072537e+001,-1.97606704003429e+000

7.67411295460207e+004,-3.73494395489135e+001,-2.00357566477811e+000

7.78123957929823e+004,-3.73495522599066e+001,-2.03146520695762e+000

7.88986163594682e+004,-3.73496680174718e+001,-2.05974086303544e+000

7.99999999999995e+004,-3.73497869006939e+001,-2.08840789756412e+000

8.11167583832018e+004,-3.73499089905392e+001,-2.11747164399276e+000

8.22491061324848e+004,-3.73500343698925e+001,-2.14693750548048e+000

8.33972608672892e+004,-3.73501631235921e+001,-2.17681095571918e+000

8.45614432449099e+004,-3.73502953384678e+001,-2.20709753976314e+000

8.57418770029029e+004,-3.73504311033765e+001,-2.23780287486907e+000

8.69387890020841e+004,-3.73505705092401e+001,-2.26893265134177e+000

8.81524092701283e+004,-3.73507136490818e+001,-2.30049263339183e+000

8.93829710457770e+004,-3.73508606180646e+001,-2.33248865999812e+000

9.06307108236633e+004,-3.73510115135273e+001,-2.36492664578393e+000

9.18958683997622e+004,-3.73511664350234e+001,-2.39781258189851e+000

9.31786869174758e+004,-3.73513254843578e+001,-2.43115253690996e+000

9.44794129143618e+004,-3.73514887656250e+001,-2.46495265770872e+000

9.57982963695136e+004,-3.73516563852464e+001,-2.49921917041876e+000

9.71355907516031e+004,-3.73518284520084e+001,-2.53395838132085e+000

9.84915530675926e+004,-3.73520050770997e+001,-2.56917667778706e+000

9.98664439121282e+004,-3.73521863741492e+001,-2.60488052922347e+000

1.01260527517622e+005,-3.73523724592630e+001,-2.64107648802809e+000

1.02674071805032e+005,-3.73525634510622e+001,-2.67777119055760e+000

1.04107348435354e+005,-3.73527594707200e+001,-2.71497135810712e+000

1.05560632861831e+005,-3.73529606419985e+001,-2.75268379790356e+000

1.07034204382888e+005,-3.73531670912856e+001,-2.79091540411115e+000

1.08528346195813e+005,-3.73533789476317e+001,-2.82967315884986e+000

1.10043345451179e+005,-3.73535963427857e+001,-2.86896413323069e+000

1.11579493308032e+005,-3.73538194112312e+001,-2.90879548840209e+000

1.13137084989847e+005,-3.73540482902218e+001,-2.94917447661507e+000

1.14716419841265e+005,-3.73542831198170e+001,-2.99010844230130e+000

1.16317801385624e+005,-3.73545240429163e+001,-3.03160482317111e+000

1.17941537383287e+005,-3.73547712052944e+001,-3.07367115132512e+000

1.19587939890794e+005,-3.73550247556349e+001,-3.11631505438741e+000

1.21257325320831e+005,-3.73552848455645e+001,-3.15954425665530e+000

1.22950014503040e+005,-3.73555516296854e+001,-3.20336658027002e+000

1.24666332745679e+005,-3.73558252656089e+001,-3.24778994640765e+000

1.26406609898139e+005,-3.73561059139874e+001,-3.29282237649092e+000

1.28171180414339e+005,-3.73563937385465e+001,-3.33847199342510e+000

1.29960383416997e+005,-3.73566889061162e+001,-3.38474702285576e+000

1.31774562762811e+005,-3.73569915866622e+001,-3.43165579445117e+000

1.33614067108538e+005,-3.73573019533166e+001,-3.47920674321174e+000

1.35479249978003e+005,-3.73576201824080e+001,-3.52740841080469e+000

1.37370469830040e+005,-3.73579464534915e+001,-3.57626944692651e+000

1.39288090127379e+005,-3.73582809493785e+001,-3.62579861069615e+000

1.41232479406504e+005,-3.73586238561658e+001,-3.67600477207615e+000

1.43204011348474e+005,-3.73589753632651e+001,-3.72689691332779e+000

1.45203064850745e+005,-3.73593356634320e+001,-3.77848413049713e+000

1.47230024099979e+005,-3.73597049527947e+001,-3.83077563493646e+000

1.49285278645888e+005,-3.73600834308837e+001,-3.88378075486177e+000

1.51369223476094e+005,-3.73604713006606e+001,-3.93750893694554e+000

1.53482259092041e+005,-3.73608687685479e+001,-3.99196974794993e+000

1.55624791585964e+005,-3.73612760444586e+001,-4.04717287639945e+000

1.57797232718936e+005,-3.73616933418274e+001,-4.10312813429434e+000

1.59999999999999e+005,-3.73621208776409e+001,-4.15984545886780e+000

1.62233516766403e+005,-3.73625588724706e+001,-4.21733491438741e+000

1.64498212264969e+005,-3.73630075505058e+001,-4.27560669400275e+000

1.66794521734578e+005,-3.73634671395879e+001,-4.33467112164024e+000

1.69122886489819e+005,-3.73639378712465e+001,-4.39453865394724e+000

1.71483754005805e+005,-3.73644199807376e+001,-4.45521988228734e+000

1.73877578004168e+005,-3.73649137070827e+001,-4.51672553478579e+000

1.76304818540256e+005,-3.73654192931114e+001,-4.57906647843152e+000

1.78765942091554e+005,-3.73659369855061e+001,-4.64225372123047e+000

1.81261421647326e+005,-3.73664670348496e+001,-4.70629841441906e+000

1.83791736799524e+005,-3.73670096956761e+001,-4.77121185473129e+000

1.86357373834951e+005,-3.73675652265257e+001,-4.83700548672819e+000

1.88958825828723e+005,-3.73681338900035e+001,-4.90369090518563e+000

1.91596592739027e+005,-3.73687159528419e+001,-4.97127985754303e+000

1.94271181503206e+005,-3.73693116859695e+001,-5.03978424641567e+000

1.96983106135185e+005,-3.73699213645835e+001,-5.10921613216910e+000

1.99732887824256e+005,-3.73705452682293e+001,-5.17958773555663e+000

2.02521055035243e+005,-3.73711836808853e+001,-5.25091144042464e+000

2.05348143610063e+005,-3.73718368910554e+001,-5.32319979647870e+000

2.08214696870707e+005,-3.73725051918681e+001,-5.39646552211858e+000

2.11121265723661e+005,-3.73731888811832e+001,-5.47072150733762e+000

2.14068408765776e+005,-3.73738882617082e+001,-5.54598081668773e+000

2.17056692391625e+005,-3.73746036411214e+001,-5.62225669231132e+000

2.20086690902357e+005,-3.73753353322071e+001,-5.69956255703655e+000

2.23158986616063e+005,-3.73760836529987e+001,-5.77791201754021e+000

2.26274169979693e+005,-3.73768489269336e+001,-5.85731886757243e+000

2.29432839682530e+005,-3.73776314830195e+001,-5.93779709124568e+000

2.32635602771247e+005,-3.73784316560120e+001,-6.01936086638604e+000

2.35883074766574e+005,-3.73792497866051e+001,-6.10202456794501e+000

2.39175879781588e+005,-3.73800862216350e+001,-6.18580277146978e+000

2.42514650641661e+005,-3.73809413142974e+001,-6.27071025663189e+000

2.45900029006080e+005,-3.73818154243795e+001,-6.35676201081036e+000

2.49332665491357e+005,-3.73827089185066e+001,-6.44397323272703e+000

2.52813219796278e+005,-3.73836221704048e+001,-6.53235933613338e+000

2.56342360828676e+005,-3.73845555611800e+001,-6.62193595354305e+000

2.59920766833993e+005,-3.73855094796128e+001,-6.71271894000941e+000

2.63549125525621e+005,-3.73864843224721e+001,-6.80472437694369e+000

2.67228134217075e+005,-3.73874804948454e+001,-6.89796857596994e+000

2.70958499956006e+005,-3.73884984104886e+001,-6.99246808281308e+000

2.74740939660078e+005,-3.73895384921938e+001,-7.08823968121680e+000

2.78576180254757e+005,-3.73906011721773e+001,-7.18530039688519e+000

2.82464958813007e+005,-3.73916868924870e+001,-7.28366750144557e+000

2.86408022696948e+005,-3.73927961054302e+001,-7.38335851642563e+000

2.90406129701488e+005,-3.73939292740223e+001,-7.48439121724275e+000

2.94460048199957e+005,-3.73950868724561e+001,-7.58678363719730e+000

2.98570557291775e+005,-3.73962693865924e+001,-7.69055407146666e+000

3.02738446952187e+005,-3.73974773144728e+001,-7.79572108109501e+000

3.06964518184081e+005,-3.73987111668532e+001,-7.90230349697032e+000

3.11249583171928e+005,-3.73999714677605e+001,-8.01032042378747e+000

3.15594465437872e+005,-3.74012587550703e+001,-8.11979124398734e+000

3.19999999999997e+005,-3.74025735811070e+001,-8.23073562167017e+000

3.24467033532806e+005,-3.74039165132671e+001,-8.34317350647359e+000

3.28996424529938e+005,-3.74052881346628e+001,-8.45712513741289e+000

3.33589043469155e+005,-3.74066890447894e+001,-8.57261104667601e+000

3.38245772979638e+005,-3.74081198602142e+001,-8.68965206336724e+000

3.42967508011610e+005,-3.74095812152868e+001,-8.80826931719569e+000

3.47755156008335e+005,-3.74110737628716e+001,-8.92848424210124e+000

3.52609637080511e+005,-3.74125981751019e+001,-9.05031857981388e+000

3.57531884183106e+005,-3.74141551441546e+001,-9.17379438333940e+000

3.62522843294651e+005,-3.74157453830461e+001,-9.29893402036915e+000

3.67583473599047e+005,-3.74173696264492e+001,-9.42576017660529e+000

3.72714747669902e+005,-3.74190286315292e+001,-9.55429585899991e+000

3.77917651657445e+005,-3.74207231788002e+001,-9.68456439890169e+000

3.83193185478053e+005,-3.74224540730011e+001,-9.81658945510575e+000

3.88542363006410e+005,-3.74242221439899e+001,-9.95039501680398e+000

3.93966212270369e+005,-3.74260282476566e+001,-1.00860054064294e+001

3.99465775648511e+005,-3.74278732668537e+001,-1.02234452823941e+001

4.05042110070485e+005,-3.74297581123449e+001,-1.03627396417142e+001

4.10696287220124e+005,-3.74316837237693e+001,-1.05039138225213e+001

4.16429393741414e+005,-3.74336510706233e+001,-1.06469935064554e+001

4.22242531447321e+005,-3.74356611532575e+001,-1.07920047209382e+001

4.28136817531551e+005,-3.74377150038892e+001,-1.09389738413234e+001

4.34113384783250e+005,-3.74398136876295e+001,-1.10879275929223e+001

4.40173381804713e+005,-3.74419583035250e+001,-1.12388930529031e+001

4.46317973232124e+005,-3.74441499856131e+001,-1.13918976520599e+001

4.52548339959385e+005,-3.74463899039907e+001,-1.15469691764537e+001

4.58865679365059e+005,-3.74486792658958e+001,-1.17041357689209e+001

4.65271205542494e+005,-3.74510193168018e+001,-1.18634259304487e+001

4.71766149533147e+005,-3.74534113415235e+001,-1.20248685214172e+001

4.78351759563174e+005,-3.74558566653353e+001,-1.21884927627063e+001

4.85029301283321e+005,-3.74583566551002e+001,-1.23543282366672e+001

4.91800058012158e+005,-3.74609127204110e+001,-1.25224048879571e+001

4.98665330982714e+005,-3.74635263147408e+001,-1.26927530242361e+001

5.05626439592555e+005,-3.74661989366055e+001,-1.28654033167263e+001

5.12684721657352e+005,-3.74689321307360e+001,-1.30403868006316e+001

5.19841533667984e+005,-3.74717274892607e+001,-1.32177348754175e+001

5.27098251051240e+005,-3.74745866528982e+001,-1.33974793049497e+001

5.34456268434150e+005,-3.74775113121600e+001,-1.35796522174906e+001

5.41916999912011e+005,-3.74805032085634e+001,-1.37642861055526e+001

