Freq.,VOut,OutRef

1.00000000000000e+004,-1.15699208942661e+000,-5.95425809865039e-002

1.01395947979003e+004,-1.15699211412678e+000,-6.03737585333265e-002

1.02811382665607e+004,-1.15699213951985e+000,-6.12165386365897e-002

1.04246576084112e+004,-1.15699216562554e+000,-6.20710832500685e-002

1.05701804056138e+004,-1.15699219246368e+000,-6.29375565892662e-002

1.07177346253629e+004,-1.15699222005472e+000,-6.38161251624022e-002

1.08673486252606e+004,-1.15699224841998e+000,-6.47069577984278e-002

1.10190511587661e+004,-1.15699227758095e+000,-6.56102256866339e-002

1.11728713807222e+004,-1.15699230755986e+000,-6.65261024031940e-002

1.13288388529580e+004,-1.15699233837966e+000,-6.74547639471244e-002

1.14869835499703e+004,-1.15699237006383e+000,-6.83963887736905e-002

1.16473358646846e+004,-1.15699240263666e+000,-6.93511578287398e-002

1.18099266142953e+004,-1.15699243612301e+000,-7.03192545832083e-002

1.19747870461893e+004,-1.15699247054843e+000,-7.13008650683938e-002

1.21419488439505e+004,-1.15699250593902e+000,-7.22961779135749e-002

1.23114441334492e+004,-1.15699254232188e+000,-7.33053843784106e-002

1.24833054890161e+004,-1.15699257972478e+000,-7.43286783917120e-002

1.26575659397028e+004,-1.15699261817624e+000,-7.53662565899327e-002

1.28342589756290e+004,-1.15699265770563e+000,-7.64183183524438e-002

1.30134185544193e+004,-1.15699269834287e+000,-7.74850658427711e-002

1.31950791077289e+004,-1.15699274011908e+000,-7.85667040438681e-002

1.33792755478611e+004,-1.15699278306603e+000,-7.96634407996877e-002

1.35660432744767e+004,-1.15699282721638e+000,-8.07754868554162e-002

1.37554181813974e+004,-1.15699287260386e+000,-8.19030558958318e-002

1.39474366635040e+004,-1.15699291926281e+000,-8.30463645895983e-002

1.41421356237309e+004,-1.15699296722897e+000,-8.42056326257384e-002

1.43395524801583e+004,-1.15699301653860e+000,-8.53810827624147e-002

1.45397251732031e+004,-1.15699306722932e+000,-8.65729408641874e-002

1.47426921729110e+004,-1.15699311933956e+000,-8.77814359477142e-002

1.49484924863494e+004,-1.15699317290915e+000,-8.90068002242862e-002

1.51571656651040e+004,-1.15699322797853e+000,-9.02492691478766e-002

1.53687518128801e+004,-1.15699328458963e+000,-9.15090814561702e-002

1.55832915932100e+004,-1.15699334278536e+000,-9.27864792187236e-002

1.58008262372675e+004,-1.15699340260984e+000,-9.40817078825880e-002

1.60213975517924e+004,-1.15699346410859e+000,-9.53950163187130e-002

1.62450479271247e+004,-1.15699352732821e+000,-9.67266568714323e-002

1.64718203453514e+004,-1.15699359231653e+000,-9.80768854064783e-002

1.67017583885674e+004,-1.15699365912284e+000,-9.94459613584015e-002

1.69349062472505e+004,-1.15699372779785e+000,-1.00834147781472e-001

1.71713087287550e+004,-1.15699379839322e+000,-1.02241711402972e-001

1.74110112659224e+004,-1.15699387096278e+000,-1.03668922666283e-001

1.76540599258131e+004,-1.15699394556103e+000,-1.05116055793951e-001

1.79005014185594e+004,-1.15699402224464e+000,-1.06583388829183e-001

1.81503831063432e+004,-1.15699410107148e+000,-1.08071203697282e-001

1.84037530124975e+004,-1.15699418210105e+000,-1.09579786255940e-001

1.86606598307361e+004,-1.15699426539445e+000,-1.11109426351424e-001

1.89211529345119e+004,-1.15699435101471e+000,-1.12660417871688e-001

1.91852823865052e+004,-1.15699443902631e+000,-1.14233058806459e-001

1.94530989482457e+004,-1.15699452949550e+000,-1.15827651302450e-001

1.97246540898671e+004,-1.15699462249054e+000,-1.17444501719765e-001

1.99999999999999e+004,-1.15699471808121e+000,-1.19083920694543e-001

2.02791895958005e+004,-1.15699481633988e+000,-1.20746223192037e-001

2.05622765331213e+004,-1.15699491733995e+000,-1.22431728576670e-001

2.08493152168224e+004,-1.15699502115764e+000,-1.24140760662292e-001

2.11403608112276e+004,-1.15699512787076e+000,-1.25873647782661e-001

2.14354692507258e+004,-1.15699523755937e+000,-1.27630722850720e-001

2.17346972505211e+004,-1.15699535030581e+000,-1.29412323421822e-001

2.20381023175322e+004,-1.15699546619458e+000,-1.31218791760123e-001

2.23457427614443e+004,-1.15699558531243e+000,-1.33050474903756e-001

2.26576777059159e+004,-1.15699570774847e+000,-1.34907724730489e-001

2.29739670999406e+004,-1.15699583359433e+000,-1.36790898025283e-001

2.32946717293690e+004,-1.15699596294404e+000,-1.38700356549608e-001

2.36198532285905e+004,-1.15699609589404e+000,-1.40636467110454e-001

2.39495740923785e+004,-1.15699623254355e+000,-1.42599601629270e-001

2.42838976879009e+004,-1.15699637299449e+000,-1.44590137213514e-001

2.46228882668982e+004,-1.15699651735127e+000,-1.46608456231481e-001

2.49666109780322e+004,-1.15699666572151e+000,-1.48654946380304e-001

2.53151318794055e+004,-1.15699681821540e+000,-1.50730000765547e-001

2.56685179512580e+004,-1.15699697494612e+000,-1.52834017973560e-001

2.60268371088386e+004,-1.15699713602989e+000,-1.54967402148239e-001

2.63901582154578e+004,-1.15699730158623e+000,-1.57130563067217e-001

2.67585510957221e+004,-1.15699747173753e+000,-1.59323916223229e-001

2.71320865489533e+004,-1.15699764660980e+000,-1.61547882899770e-001

2.75108363627948e+004,-1.15699782633206e+000,-1.63802890255065e-001

2.78948733270080e+004,-1.15699801103694e+000,-1.66089371402066e-001

2.82842712474618e+004,-1.15699820086054e+000,-1.68407765490746e-001

2.86791049603164e+004,-1.15699839594271e+000,-1.70758517792853e-001

2.90794503464061e+004,-1.15699859642669e+000,-1.73142079787734e-001

2.94853843458219e+004,-1.15699880245983e+000,-1.75558909246514e-001

2.98969849726987e+004,-1.15699901419305e+000,-1.78009470322570e-001

3.03143313302078e+004,-1.15699923178150e+000,-1.80494233636519e-001

3.07375036257601e+004,-1.15699945538422e+000,-1.83013676369578e-001

3.11665831864199e+004,-1.15699968516455e+000,-1.85568282351801e-001

3.16016524745350e+004,-1.15699992128995e+000,-1.88158542156999e-001

3.20427951035848e+004,-1.15700016393239e+000,-1.90784953194526e-001

3.24900958542493e+004,-1.15700041326812e+000,-1.93448019805673e-001

3.29436406907028e+004,-1.15700066947822e+000,-1.96148253357672e-001

3.34035167771346e+004,-1.15700093274820e+000,-1.98886172344580e-001

3.38698124945009e+004,-1.15700120326842e+000,-2.01662302483511e-001

3.43426174575100e+004,-1.15700148123439e+000,-2.04477176814777e-001

3.48220225318448e+004,-1.15700176684623e+000,-2.07331335806489e-001

3.53081198516260e+004,-1.15700206030948e+000,-2.10225327454203e-001

3.58010028371187e+004,-1.15700236183482e+000,-2.13159707387477e-001

3.63007662126863e+004,-1.15700267163822e+000,-2.16135038975187e-001

3.68075060249948e+004,-1.15700298994136e+000,-2.19151893431981e-001

3.73213196614721e+004,-1.15700331697134e+000,-2.22210849928319e-001

3.78423058690237e+004,-1.15700365296090e+000,-2.25312495701668e-001

3.83705647730104e+004,-1.15700399814882e+000,-2.28457426165074e-001

3.89061978964912e+004,-1.15700435277988e+000,-2.31646245023052e-001

3.94493081797342e+004,-1.15700471710472e+000,-2.34879564387322e-001

3.99999999999998e+004,-1.15700509138036e+000,-2.38158004890621e-001

4.05583791916010e+004,-1.15700547587025e+000,-2.41482195805646e-001

4.11245530662425e+004,-1.15700587084423e+000,-2.44852775166280e-001

4.16986304336447e+004,-1.15700627657880e+000,-2.48270389887159e-001

4.22807216224550e+004,-1.15700669335713e+000,-2.51735695887811e-001

4.28709385014515e+004,-1.15700712146953e+000,-2.55249358215519e-001

4.34693945010421e+004,-1.15700756121303e+000,-2.58812051174519e-001

4.40762046350642e+004,-1.15700801289203e+000,-2.62424458451815e-001

4.46914855228886e+004,-1.15700847681819e+000,-2.66087273246983e-001

4.53153554118317e+004,-1.15700895331045e+000,-2.69801198406307e-001

4.59479341998812e+004,-1.15700944269556e+000,-2.73566946552681e-001

4.65893434587380e+004,-1.15700994530784e+000,-2.77385240223356e-001

4.72397064571810e+004,-1.15701046148947e+000,-2.81256812005659e-001

4.78991481847569e+004,-1.15701099159068e+000,-2.85182404676531e-001

4.85677953758016e+004,-1.15701153596969e+000,-2.89162771343830e-001

4.92457765337964e+004,-1.15701209499308e+000,-2.93198675587695e-001

4.99332219560642e+004,-1.15701266903583e+000,-2.97290891605563e-001

5.06302637588109e+004,-1.15701325848129e+000,-3.01440204360778e-001

5.13370359025159e+004,-1.15701386372163e+000,-3.05647409727765e-001

5.20536742176771e+004,-1.15701448515761e+000,-3.09913314645807e-001

5.27803164309155e+004,-1.15701512319912e+000,-3.14238737269772e-001

5.35171021914442e+004,-1.15701577826495e+000,-3.18624507125042e-001

5.42641730979066e+004,-1.15701645078303e+000,-3.23071465265592e-001

5.50216727255895e+004,-1.15701714119050e+000,-3.27580464432359e-001

5.57897466540159e+004,-1.15701784993392e+000,-3.32152369213885e-001

5.65685424949235e+004,-1.15701857746943e+000,-3.36788056209394e-001

5.73582099206328e+004,-1.15701932426266e+000,-3.41488414195085e-001

5.81589006928121e+004,-1.15702009078888e+000,-3.46254344292284e-001

5.89707686916437e+004,-1.15702087753313e+000,-3.51086760136737e-001

5.97939699453972e+004,-1.15702168499054e+000,-3.55986588049557e-001

6.06286626604156e+004,-1.15702251366579e+000,-3.60954767215743e-001

6.14750072515201e+004,-1.15702336407391e+000,-3.65992249856830e-001

6.23331663728396e+004,-1.15702423673977e+000,-3.71100001413166e-001

6.32033049490698e+004,-1.15702513219854e+000,-3.76279000724559e-001

6.40855902071694e+004,-1.15702605099529e+000,-3.81530240215422e-001

6.49801917084985e+004,-1.15702699368564e+000,-3.86854726079827e-001

6.58872813814055e+004,-1.15702796083510e+000,-3.92253478473361e-001

6.68070335542691e+004,-1.15702895301952e+000,-3.97727531702708e-001

6.77396249890018e+004,-1.15702997082502e+000,-4.03277934421401e-001

6.86852349150199e+004,-1.15703101484782e+000,-4.08905749825926e-001

6.96440450636895e+004,-1.15703208569438e+000,-4.14612055856506e-001

7.06162397032520e+004,-1.15703318398107e+000,-4.20397945399092e-001

7.16020056742374e+004,-1.15703431033460e+000,-4.26264526489796e-001

7.26015324253724e+004,-1.15703546539127e+000,-4.32212922525005e-001

7.36150120499896e+004,-1.15703664979749e+000,-4.38244272468558e-001

7.46426393229441e+004,-1.15703786420915e+000,-4.44359731069385e-001

7.56846117380472e+004,-1.15703910929189e+000,-4.50560469074666e-001

7.67411295460207e+004,-1.15704038572051e+000,-4.56847673451391e-001

7.78123957929823e+004,-1.15704169417908e+000,-4.63222547607638e-001

7.88986163594682e+004,-1.15704303536058e+000,-4.69686311618475e-001

7.99999999999995e+004,-1.15704440996660e+000,-4.76240202454491e-001

8.11167583832018e+004,-1.15704581870724e+000,-4.82885474212207e-001

8.22491061324848e+004,-1.15704726230048e+000,-4.89623398350690e-001

8.33972608672892e+004,-1.15704874147205e+000,-4.96455263928075e-001

8.45614432449099e+004,-1.15705025695502e+000,-5.03382377842898e-001

8.57418770029029e+004,-1.15705180948922e+000,-5.10406065078987e-001

8.69387890020841e+004,-1.15705339982107e+000,-5.17527668952161e-001

8.81524092701283e+004,-1.15705502870262e+000,-5.24748551363118e-001

8.93829710457770e+004,-1.15705669689140e+000,-5.32070093049712e-001

9.06307108236633e+004,-1.15705840514969e+000,-5.39493693846640e-001

9.18958683997622e+004,-1.15706015424361e+000,-5.47020772947053e-001

9.31786869174758e+004,-1.15706194494299e+000,-5.54652769166171e-001

9.44794129143618e+004,-1.15706377801992e+000,-5.62391141212082e-001

9.57982963695136e+004,-1.15706565424844e+000,-5.70237367956471e-001

9.71355907516031e+004,-1.15706757440357e+000,-5.78192948711978e-001

9.84915530675926e+004,-1.15706953926023e+000,-5.86259403511938e-001

9.98664439121282e+004,-1.15707154959239e+000,-5.94438273394095e-001

1.01260527517622e+005,-1.15707360617187e+000,-6.02731120689560e-001

1.02674071805032e+005,-1.15707570976731e+000,-6.11139529313478e-001

1.04107348435354e+005,-1.15707786114311e+000,-6.19665105061018e-001

1.05560632861831e+005,-1.15708006105782e+000,-6.28309475908412e-001

1.07034204382888e+005,-1.15708231026296e+000,-6.37074292317621e-001

1.08528346195813e+005,-1.15708460950175e+000,-6.45961227542771e-001

1.10043345451179e+005,-1.15708695950726e+000,-6.54971977946130e-001

1.11579493308032e+005,-1.15708936100106e+000,-6.64108263312993e-001

1.13137084989847e+005,-1.15709181469140e+000,-6.73371827175349e-001

1.14716419841265e+005,-1.15709432127160e+000,-6.82764437137131e-001

1.16317801385624e+005,-1.15709688141777e+000,-6.92287885207070e-001

1.17941537383287e+005,-1.15709949578737e+000,-7.01943988132592e-001

1.19587939890794e+005,-1.15710216501666e+000,-7.11734587742668e-001

1.21257325320831e+005,-1.15710488971894e+000,-7.21661551291614e-001

1.22950014503040e+005,-1.15710767048180e+000,-7.31726771811662e-001

1.24666332745679e+005,-1.15711050786501e+000,-7.41932168468223e-001

1.26406609898139e+005,-1.15711340239809e+000,-7.52279686919865e-001

1.28171180414339e+005,-1.15711635457739e+000,-7.62771299686534e-001

1.29960383416997e+005,-1.15711936486357e+000,-7.73409006520535e-001

1.31774562762811e+005,-1.15712243367862e+000,-7.84194834783569e-001

1.33614067108538e+005,-1.15712556140300e+000,-7.95130839829766e-001

1.35479249978003e+005,-1.15712874837241e+000,-8.06219105395086e-001

1.37370469830040e+005,-1.15713199487452e+000,-8.17461743991509e-001

1.39288090127379e+005,-1.15713530114581e+000,-8.28860897306844e-001

1.41232479406504e+005,-1.15713866736778e+000,-8.40418736612533e-001

1.43204011348474e+005,-1.15714209366360e+000,-8.52137463175128e-001

1.45203064850745e+005,-1.15714558009427e+000,-8.64019308675724e-001

1.47230024099979e+005,-1.15714912665458e+000,-8.76066535636343e-001

1.49285278645888e+005,-1.15715273326933e+000,-8.88281437850523e-001

1.51369223476094e+005,-1.15715639978894e+000,-9.00666340823294e-001

1.53482259092041e+005,-1.15716012598541e+000,-9.13223602215421e-001

1.55624791585964e+005,-1.15716391154762e+000,-9.25955612297358e-001

1.57797232718936e+005,-1.15716775607706e+000,-9.38864794407630e-001

1.59999999999999e+005,-1.15717165908285e+000,-9.51953605420336e-001

1.62233516766403e+005,-1.15717561997725e+000,-9.65224536218450e-001

1.64498212264969e+005,-1.15717963807048e+000,-9.78680112176479e-001

1.66794521734578e+005,-1.15718371256576e+000,-9.92322893649220e-001

1.69122886489819e+005,-1.15718784255412e+000,-1.00615547646816e+000

1.71483754005805e+005,-1.15719202700901e+000,-1.02018049244831e+000

1.73877578004168e+005,-1.15719626478106e+000,-1.03440060989900e+000

1.76304818540256e+005,-1.15720055459249e+000,-1.04881853414655e+000

1.78765942091554e+005,-1.15720489503133e+000,-1.06343700806390e+000

1.81261421647326e+005,-1.15720928454596e+000,-1.07825881260822e+000

1.83791736799524e+005,-1.15721372143917e+000,-1.09328676736753e+000

1.86357373834951e+005,-1.15721820386218e+000,-1.10852373111745e+000

1.88958825828723e+005,-1.15722272980876e+000,-1.12397260238485e+000

1.91596592739027e+005,-1.15722729710924e+000,-1.13963632002115e+000

1.94271181503206e+005,-1.15723190342434e+000,-1.15551786378633e+000

1.96983106135185e+005,-1.15723654623905e+000,-1.17162025494055e+000

1.99732887824256e+005,-1.15724122285619e+000,-1.18794655684636e+000

2.02521055035243e+005,-1.15724593039073e+000,-1.20449987557903e+000

2.05348143610063e+005,-1.15725066576295e+000,-1.22128336054965e+000

2.08214696870707e+005,-1.15725542569253e+000,-1.23830020513523e+000

2.11121265723661e+005,-1.15726020669215e+000,-1.25555364731966e+000

2.14068408765776e+005,-1.15726500506127e+000,-1.27304697034688e+000

2.17056692391625e+005,-1.15726981688002e+000,-1.29078350337991e+000

2.20086690902357e+005,-1.15727463800271e+000,-1.30876662217660e+000

2.23158986616063e+005,-1.15727946405198e+000,-1.32699974976957e+000

2.26274169979693e+005,-1.15728429041273e+000,-1.34548635716053e+000

2.29432839682530e+005,-1.15728911222579e+000,-1.36422996402539e+000

2.32635602771247e+005,-1.15729392438241e+000,-1.38323413942813e+000

2.35883074766574e+005,-1.15729872151804e+000,-1.40250250254882e+000

2.39175879781588e+005,-1.15730349800714e+000,-1.42203872341766e+000

2.42514650641661e+005,-1.15730824795696e+000,-1.44184652366689e+000

2.45900029006080e+005,-1.15731296520265e+000,-1.46192967728774e+000

2.49332665491357e+005,-1.15731764330176e+000,-1.48229201140239e+000

2.52813219796278e+005,-1.15732227552896e+000,-1.50293740704638e+000

2.56342360828676e+005,-1.15732685487135e+000,-1.52386979996202e+000

2.59920766833993e+005,-1.15733137402342e+000,-1.54509318140377e+000

2.63549125525621e+005,-1.15733582538289e+000,-1.56661159895423e+000

2.67228134217075e+005,-1.15734020104567e+000,-1.58842915735435e+000

2.70958499956006e+005,-1.15734449280227e+000,-1.61055001934153e+000

2.74740939660078e+005,-1.15734869213359e+000,-1.63297840650255e+000

2.78576180254757e+005,-1.15735279020716e+000,-1.65571860013693e+000

2.82464958813007e+005,-1.15735677787376e+000,-1.67877494213163e+000

2.86408022696948e+005,-1.15736064566393e+000,-1.70215183584875e+000

2.90406129701488e+005,-1.15736438378506e+000,-1.72585374702416e+000

2.94460048199957e+005,-1.15736798211861e+000,-1.74988520467826e+000

2.98570557291775e+005,-1.15737143021724e+000,-1.77425080203843e+000

3.02738446952187e+005,-1.15737471730277e+000,-1.79895519747431e+000

3.06964518184081e+005,-1.15737783226384e+000,-1.82400311544293e+000

3.11249583171928e+005,-1.15738076365396e+000,-1.84939934744842e+000

3.15594465437872e+005,-1.15738349968982e+000,-1.87514875301193e+000

3.19999999999997e+005,-1.15738602824976e+000,-1.90125626065428e+000

3.24467033532806e+005,-1.15738833687247e+000,-1.92772686888956e+000

3.28996424529938e+005,-1.15739041275570e+000,-1.95456564723315e+000

3.33589043469155e+005,-1.15739224275524e+000,-1.98177773721962e+000

3.38245772979638e+005,-1.15739381338416e+000,-2.00936835343389e+000

3.42967508011610e+005,-1.15739511081199e+000,-2.03734278455443e+000

3.47755156008335e+005,-1.15739612086408e+000,-2.06570639440846e+000

3.52609637080511e+005,-1.15739682902091e+000,-2.09446462304078e+000

3.57531884183106e+005,-1.15739722041778e+000,-2.12362298779339e+000

3.62522843294651e+005,-1.15739727984411e+000,-2.15318708439910e+000

3.67583473599047e+005,-1.15739699174308e+000,-2.18316258808704e+000

3.72714747669902e+005,-1.15739634021113e+000,-2.21355525470109e+000

3.77917651657445e+005,-1.15739530899740e+000,-2.24437092183205e+000

3.83193185478053e+005,-1.15739388150296e+000,-2.27561550996205e+000

3.88542363006410e+005,-1.15739204078022e+000,-2.30729502362253e+000

3.93966212270369e+005,-1.15738976953204e+000,-2.33941555256553e+000

3.99465775648511e+005,-1.15738705011042e+000,-2.37198327294968e+000

4.05042110070485e+005,-1.15738386451562e+000,-2.40500444853798e+000

4.10696287220124e+005,-1.15738019439424e+000,-2.43848543191251e+000

4.16429393741414e+005,-1.15737602103769e+000,-2.47243266570062e+000

4.22242531447321e+005,-1.15737132537987e+000,-2.50685268381810e+000

4.28136817531551e+005,-1.15736608799501e+000,-2.54175211272526e+000

4.34113384783250e+005,-1.15736028909440e+000,-2.57713767270063e+000

4.40173381804713e+005,-1.15735390852354e+000,-2.61301617912713e+000

4.46317973232124e+005,-1.15734692575825e+000,-2.64939454379683e+000

4.52548339959385e+005,-1.15733931990053e+000,-2.68627977623051e+000

4.58865679365059e+005,-1.15733106967390e+000,-2.72367898501347e+000

4.65271205542494e+005,-1.15732215341806e+000,-2.76159937914970e+000

4.71766149533147e+005,-1.15731254908330e+000,-2.80004826943157e+000

4.78351759563174e+005,-1.15730223422382e+000,-2.83903306982844e+000

4.85029301283321e+005,-1.15729118599108e+000,-2.87856129889271e+000

4.91800058012158e+005,-1.15727938112565e+000,-2.91864058118546e+000

4.98665330982714e+005,-1.15726679594925e+000,-2.95927864871915e+000

5.05626439592555e+005,-1.15725340635547e+000,-3.00048334242147e+000

5.12684721657352e+005,-1.15723918779989e+000,-3.04226261361911e+000

5.19841533667984e+005,-1.15722411528977e+000,-3.08462452553944e+000

5.27098251051240e+005,-1.15720816337249e+000,-3.12757725483656e+000

5.34456268434150e+005,-1.15719130612343e+000,-3.17112909313593e+000

5.41916999912011e+005,-1.15717351713324e+000,-3.21528844860181e+000

