Freq.,VOut,OutRef

1.00000000000000e+004,-1.81176512532830e+001,-1.44126491666757e-001

1.01395947979003e+004,-1.81176535510761e+001,-1.46138056378424e-001

1.02811382665607e+004,-1.81176559133884e+001,-1.48177685952136e-001

1.04246576084112e+004,-1.81176583420290e+001,-1.50245771501059e-001

1.05701804056138e+004,-1.81176608388577e+001,-1.52342709568974e-001

1.07177346253629e+004,-1.81176634057866e+001,-1.54468902205691e-001

1.08673486252606e+004,-1.81176660447809e+001,-1.56624757044490e-001

1.10190511587661e+004,-1.81176687578611e+001,-1.58810687375997e-001

1.11728713807222e+004,-1.81176715471037e+001,-1.61027112229048e-001

1.13288388529580e+004,-1.81176744146437e+001,-1.63274456445262e-001

1.14869835499703e+004,-1.81176773626755e+001,-1.65553150762791e-001

1.16473358646846e+004,-1.81176803934549e+001,-1.67863631894376e-001

1.18099266142953e+004,-1.81176835093007e+001,-1.70206342611527e-001

1.19747870461893e+004,-1.81176867125964e+001,-1.72581731825311e-001

1.21419488439505e+004,-1.81176900057921e+001,-1.74990254670414e-001

1.23114441334492e+004,-1.81176933914063e+001,-1.77432372591948e-001

1.24833054890161e+004,-1.81176968720280e+001,-1.79908553429880e-001

1.26575659397028e+004,-1.81177004503178e+001,-1.82419271509558e-001

1.28342589756290e+004,-1.81177041290115e+001,-1.84965007723649e-001

1.30134185544193e+004,-1.81177079109203e+001,-1.87546249630221e-001

1.31950791077289e+004,-1.81177117989343e+001,-1.90163491537182e-001

1.33792755478611e+004,-1.81177157960241e+001,-1.92817234595765e-001

1.35660432744767e+004,-1.81177199052433e+001,-1.95507986895113e-001

1.37554181813974e+004,-1.81177241297300e+001,-1.98236263556943e-001

1.39474366635040e+004,-1.81177284727102e+001,-2.01002586828624e-001

1.41421356237309e+004,-1.81177329374998e+001,-2.03807486180716e-001

1.43395524801583e+004,-1.81177375275070e+001,-2.06651498406642e-001

1.45397251732031e+004,-1.81177422462345e+001,-2.09535167721552e-001

1.47426921729110e+004,-1.81177470972830e+001,-2.12459045861216e-001

1.49484924863494e+004,-1.81177520843533e+001,-2.15423692184274e-001

1.51571656651040e+004,-1.81177572112487e+001,-2.18429673778149e-001

1.53687518128801e+004,-1.81177624818788e+001,-2.21477565560231e-001

1.55832915932100e+004,-1.81177679002615e+001,-2.24567950384316e-001

1.58008262372675e+004,-1.81177734705266e+001,-2.27701419148283e-001

1.60213975517924e+004,-1.81177791969186e+001,-2.30878570902192e-001

1.62450479271247e+004,-1.81177850837998e+001,-2.34100012958190e-001

1.64718203453514e+004,-1.81177911356536e+001,-2.37366361002548e-001

1.67017583885674e+004,-1.81177973570880e+001,-2.40678239204607e-001

1.69349062472505e+004,-1.81178037528384e+001,-2.44036280336701e-001

1.71713087287550e+004,-1.81178103277722e+001,-2.47441125882238e-001

1.74110112659224e+004,-1.81178170868910e+001,-2.50893426159584e-001

1.76540599258131e+004,-1.81178240353356e+001,-2.54393840433128e-001

1.79005014185594e+004,-1.81178311783889e+001,-2.57943037038567e-001

1.81503831063432e+004,-1.81178385214799e+001,-2.61541693501377e-001

1.84037530124975e+004,-1.81178460701884e+001,-2.65190496659335e-001

1.86606598307361e+004,-1.81178538302479e+001,-2.68890142785997e-001

1.89211529345119e+004,-1.81178618075508e+001,-2.72641337718152e-001

1.91852823865052e+004,-1.81178700081524e+001,-2.76444796980015e-001

1.94530989482457e+004,-1.81178784382749e+001,-2.80301245913115e-001

1.97246540898671e+004,-1.81178871043129e+001,-2.84211419805070e-001

1.99999999999999e+004,-1.81178960128368e+001,-2.88176064023073e-001

2.02791895958005e+004,-1.81179051705987e+001,-2.92195934144903e-001

2.05622765331213e+004,-1.81179145845366e+001,-2.96271796094355e-001

2.08493152168224e+004,-1.81179242617796e+001,-3.00404426275687e-001

2.11403608112276e+004,-1.81179342096532e+001,-3.04594611714012e-001

2.14354692507258e+004,-1.81179444356847e+001,-3.08843150190465e-001

2.17346972505211e+004,-1.81179549476079e+001,-3.13150850386839e-001

2.20381023175322e+004,-1.81179657533695e+001,-3.17518532025811e-001

2.23457427614443e+004,-1.81179768611344e+001,-3.21947026014856e-001

2.26576777059159e+004,-1.81179882792918e+001,-3.26437174590425e-001

2.29739670999406e+004,-1.81180000164606e+001,-3.30989831468065e-001

2.32946717293690e+004,-1.81180120814961e+001,-3.35605861989355e-001

2.36198532285905e+004,-1.81180244834965e+001,-3.40286143269609e-001

2.39495740923785e+004,-1.81180372318086e+001,-3.45031564354147e-001

2.42838976879009e+004,-1.81180503360348e+001,-3.49843026368992e-001

2.46228882668982e+004,-1.81180638060403e+001,-3.54721442675287e-001

2.49666109780322e+004,-1.81180776519593e+001,-3.59667739028508e-001

2.53151318794055e+004,-1.81180918842026e+001,-3.64682853733891e-001

2.56685179512580e+004,-1.81181065134649e+001,-3.69767737807110e-001

2.60268371088386e+004,-1.81181215507320e+001,-3.74923355137053e-001

2.63901582154578e+004,-1.81181370072887e+001,-3.80150682647524e-001

2.67585510957221e+004,-1.81181528947265e+001,-3.85450710461682e-001

2.71320865489533e+004,-1.81181692249519e+001,-3.90824442067070e-001

2.75108363627948e+004,-1.81181860101942e+001,-3.96272894488204e-001

2.78948733270080e+004,-1.81182032630144e+001,-4.01797098449578e-001

2.82842712474618e+004,-1.81182209963132e+001,-4.07398098551729e-001

2.86791049603164e+004,-1.81182392233408e+001,-4.13076953440121e-001

2.90794503464061e+004,-1.81182579577048e+001,-4.18834735981240e-001

2.94853843458219e+004,-1.81182772133801e+001,-4.24672533438765e-001

2.98969849726987e+004,-1.81182970047187e+001,-4.30591447647181e-001

3.03143313302078e+004,-1.81183173464584e+001,-4.36592595195821e-001

3.07375036257601e+004,-1.81183382537336e+001,-4.42677107603780e-001

3.11665831864199e+004,-1.81183597420849e+001,-4.48846131504832e-001

3.16016524745350e+004,-1.81183818274698e+001,-4.55100828829379e-001

3.20427951035848e+004,-1.81184045262728e+001,-4.61442376989280e-001

3.24900958542493e+004,-1.81184278553171e+001,-4.67871969063757e-001

3.29436406907028e+004,-1.81184518318745e+001,-4.74390813986845e-001

3.34035167771346e+004,-1.81184764736779e+001,-4.81000136735079e-001

3.38698124945009e+004,-1.81185017989318e+001,-4.87701178521544e-001

3.43426174575100e+004,-1.81185278263249e+001,-4.94495196980876e-001

3.48220225318448e+004,-1.81185545750415e+001,-5.01383466368132e-001

3.53081198516260e+004,-1.81185820647746e+001,-5.08367277749000e-001

3.58010028371187e+004,-1.81186103157376e+001,-5.15447939196907e-001

3.63007662126863e+004,-1.81186393486778e+001,-5.22626775988025e-001

3.68075060249948e+004,-1.81186691848888e+001,-5.29905130800538e-001

3.73213196614721e+004,-1.81186998462246e+001,-5.37284363912159e-001

3.78423058690237e+004,-1.81187313551128e+001,-5.44765853399336e-001

3.83705647730104e+004,-1.81187637345683e+001,-5.52350995340528e-001

3.89061978964912e+004,-1.81187970082079e+001,-5.60041204014127e-001

3.94493081797342e+004,-1.81188312002643e+001,-5.67837912105023e-001

3.99999999999998e+004,-1.81188663356010e+001,-5.75742570905714e-001

4.05583791916010e+004,-1.81189024397274e+001,-5.83756650520454e-001

4.11245530662425e+004,-1.81189395388133e+001,-5.91881640072888e-001

4.16986304336447e+004,-1.81189776597056e+001,-6.00119047908368e-001

4.22807216224550e+004,-1.81190168299427e+001,-6.08470401803438e-001

4.28709385014515e+004,-1.81190570777716e+001,-6.16937249170477e-001

4.34693945010421e+004,-1.81190984321638e+001,-6.25521157266636e-001

4.40762046350642e+004,-1.81191409228315e+001,-6.34223713401563e-001

4.46914855228886e+004,-1.81191845802449e+001,-6.43046525144814e-001

4.53153554118317e+004,-1.81192294356492e+001,-6.51991220535443e-001

4.59479341998812e+004,-1.81192755210819e+001,-6.61059448288982e-001

4.65893434587380e+004,-1.81193228693902e+001,-6.70252878008213e-001

4.72397064571810e+004,-1.81193715142489e+001,-6.79573200391362e-001

4.78991481847569e+004,-1.81194214901786e+001,-6.89022127439636e-001

4.85677953758016e+004,-1.81194728325640e+001,-6.98601392666397e-001

4.92457765337964e+004,-1.81195255776720e+001,-7.08312751307323e-001

4.99332219560642e+004,-1.81195797626711e+001,-7.18157980524989e-001

5.06302637588109e+004,-1.81196354256500e+001,-7.28138879618166e-001

5.13370359025159e+004,-1.81196926056364e+001,-7.38257270229489e-001

5.20536742176771e+004,-1.81197513426170e+001,-7.48514996549209e-001

5.27803164309155e+004,-1.81198116775567e+001,-7.58913925523152e-001

5.35171021914442e+004,-1.81198736524179e+001,-7.69455947055657e-001

5.42641730979066e+004,-1.81199373101809e+001,-7.80142974213063e-001

5.50216727255895e+004,-1.81200026948637e+001,-7.90976943426673e-001

5.57897466540159e+004,-1.81200698515416e+001,-8.01959814694359e-001

5.65685424949235e+004,-1.81201388263680e+001,-8.13093571777577e-001

5.73582099206328e+004,-1.81202096665941e+001,-8.24380222403590e-001

5.81589006928121e+004,-1.81202824205895e+001,-8.35821798458245e-001

5.89707686916437e+004,-1.81203571378623e+001,-8.47420356183907e-001

5.97939699453972e+004,-1.81204338690798e+001,-8.59177976369434e-001

6.06286626604156e+004,-1.81205126660880e+001,-8.71096764544298e-001

6.14750072515201e+004,-1.81205935819328e+001,-8.83178851164452e-001

6.23331663728396e+004,-1.81206766708798e+001,-8.95426391800143e-001

6.32033049490698e+004,-1.81207619884336e+001,-9.07841567322170e-001

6.40855902071694e+004,-1.81208495913592e+001,-9.20426584078470e-001

6.49801917084985e+004,-1.81209395377004e+001,-9.33183674078309e-001

6.58872813814055e+004,-1.81210318868001e+001,-9.46115095165676e-001

6.68070335542691e+004,-1.81211266993191e+001,-9.59223131193110e-001

6.77396249890018e+004,-1.81212240372556e+001,-9.72510092191829e-001

6.86852349150199e+004,-1.81213239639629e+001,-9.85978314540286e-001

6.96440450636895e+004,-1.81214265441687e+001,-9.99630161126032e-001

7.06162397032520e+004,-1.81215318439920e+001,-1.01346802150832e+000

7.16020056742374e+004,-1.81216399309607e+001,-1.02749431207398e+000

7.26015324253724e+004,-1.81217508740283e+001,-1.04171147619156e+000

7.36150120499896e+004,-1.81218647435900e+001,-1.05612198436086e+000

7.46426393229441e+004,-1.81219816114980e+001,-1.07072833436094e+000

7.56846117380472e+004,-1.81221015510761e+001,-1.08553305139078e+000

7.67411295460207e+004,-1.81222246371341e+001,-1.10053868820801e+000

7.78123957929823e+004,-1.81223509459796e+001,-1.11574782526597e+000

7.88986163594682e+004,-1.81224805554314e+001,-1.13116307084252e+000

7.99999999999995e+004,-1.81226135448295e+001,-1.14678706116813e+000

8.11167583832018e+004,-1.81227499950451e+001,-1.16262246054921e+000

8.22491061324848e+004,-1.81228899884898e+001,-1.17867196148645e+000

8.33972608672892e+004,-1.81230336091223e+001,-1.19493828479150e+000

8.45614432449099e+004,-1.81231809424544e+001,-1.21142417969892e+000

8.57418770029029e+004,-1.81233320755563e+001,-1.22813242397161e+000

8.69387890020841e+004,-1.81234870970584e+001,-1.24506582400904e+000

8.81524092701283e+004,-1.81236460971535e+001,-1.26222721494439e+000

8.93829710457770e+004,-1.81238091675955e+001,-1.27961946074542e+000

9.06307108236633e+004,-1.81239764016975e+001,-1.29724545430645e+000

9.18958683997622e+004,-1.81241478943271e+001,-1.31510811754194e+000

9.31786869174758e+004,-1.81243237419000e+001,-1.33321040147418e+000

9.44794129143618e+004,-1.81245040423710e+001,-1.35155528632027e+000

9.57982963695136e+004,-1.81246888952231e+001,-1.37014578157780e+000

9.71355907516031e+004,-1.81248784014536e+001,-1.38898492610644e+000

9.84915530675926e+004,-1.81250726635580e+001,-1.40807578821071e+000

9.98664439121282e+004,-1.81252717855109e+001,-1.42742146572132e+000

1.01260527517622e+005,-1.81254758727441e+001,-1.44702508607583e+000

1.02674071805032e+005,-1.81256850321219e+001,-1.46688980640022e+000

1.04107348435354e+005,-1.81258993719130e+001,-1.48701881359146e+000

1.05560632861831e+005,-1.81261190017589e+001,-1.50741532440083e+000

1.07034204382888e+005,-1.81263440326397e+001,-1.52808258552140e+000

1.08528346195813e+005,-1.81265745768349e+001,-1.54902387367833e+000

1.10043345451179e+005,-1.81268107478826e+001,-1.57024249572106e+000

1.11579493308032e+005,-1.81270526605326e+001,-1.59174178872401e+000

1.13137084989847e+005,-1.81273004306968e+001,-1.61352512009155e+000

1.14716419841265e+005,-1.81275541753956e+001,-1.63559588766943e+000

1.16317801385624e+005,-1.81278140126994e+001,-1.65795751986669e+000

1.17941537383287e+005,-1.81280800616656e+001,-1.68061347578633e+000

1.19587939890794e+005,-1.81283524422721e+001,-1.70356724536474e+000

1.21257325320831e+005,-1.81286312753450e+001,-1.72682234952774e+000

1.22950014503040e+005,-1.81289166824820e+001,-1.75038234035742e+000

1.24666332745679e+005,-1.81292087859711e+001,-1.77425080127499e+000

1.26406609898139e+005,-1.81295077087039e+001,-1.79843134724100e+000

1.28171180414339e+005,-1.81298135740837e+001,-1.82292762497562e+000

1.29960383416997e+005,-1.81301265059291e+001,-1.84774331319726e+000

1.31774562762811e+005,-1.81304466283715e+001,-1.87288212288675e+000

1.33614067108538e+005,-1.81307740657473e+001,-1.89834779757403e+000

1.35479249978003e+005,-1.81311089424854e+001,-1.92414411365226e+000

1.37370469830040e+005,-1.81314513829879e+001,-1.95027488072305e+000

1.39288090127379e+005,-1.81318015115065e+001,-1.97674394197061e+000

1.41232479406504e+005,-1.81321594520129e+001,-2.00355517456984e+000

1.43204011348474e+005,-1.81325253280628e+001,-2.03071249013419e+000

1.45203064850745e+005,-1.81328992626558e+001,-2.05821983519806e+000

1.47230024099979e+005,-1.81332813780883e+001,-2.08608119174416e+000

1.49285278645888e+005,-1.81336717958020e+001,-2.11430057777289e+000

1.51369223476094e+005,-1.81340706362263e+001,-2.14288204792054e+000

1.53482259092041e+005,-1.81344780186152e+001,-2.17182969412760e+000

1.55624791585964e+005,-1.81348940608799e+001,-2.20114764635823e+000

1.57797232718936e+005,-1.81353188794151e+001,-2.23084007337842e+000

1.59999999999999e+005,-1.81357525889212e+001,-2.26091118359047e+000

1.62233516766403e+005,-1.81361953022214e+001,-2.29136522593159e+000

1.64498212264969e+005,-1.81366471300743e+001,-2.32220649083686e+000

1.66794521734578e+005,-1.81371081809822e+001,-2.35343931127020e+000

1.69122886489819e+005,-1.81375785609959e+001,-2.38506806382696e+000

1.71483754005805e+005,-1.81380583735146e+001,-2.41709716991293e+000

1.73877578004168e+005,-1.81385477190843e+001,-2.44953109699624e+000

1.76304818540256e+005,-1.81390466951915e+001,-2.48237435994495e+000

1.78765942091554e+005,-1.81395553960555e+001,-2.51563152244562e+000

1.81261421647326e+005,-1.81400739124183e+001,-2.54930719850848e+000

1.83791736799524e+005,-1.81406023313329e+001,-2.58340605406220e+000

1.86357373834951e+005,-1.81411407359505e+001,-2.61793280864209e+000

1.88958825828723e+005,-1.81416892053081e+001,-2.65289223716916e+000

1.91596592739027e+005,-1.81422478141143e+001,-2.68828917183191e+000

1.94271181503206e+005,-1.81428166325385e+001,-2.72412850406153e+000

1.96983106135185e+005,-1.81433957259991e+001,-2.76041518661306e+000

1.99732887824256e+005,-1.81439851549557e+001,-2.79715423574850e+000

2.02521055035243e+005,-1.81445849747029e+001,-2.83435073352308e+000

2.05348143610063e+005,-1.81451952351688e+001,-2.87200983018163e+000

2.08214696870707e+005,-1.81458159807176e+001,-2.91013674665928e+000

2.11121265723661e+005,-1.81464472499573e+001,-2.94873677719233e+000

2.14068408765776e+005,-1.81470890755537e+001,-2.98781529203801e+000

2.17056692391625e+005,-1.81477414840518e+001,-3.02737774030381e+000

2.20086690902357e+005,-1.81484044957052e+001,-3.06742965288398e+000

2.23158986616063e+005,-1.81490781243138e+001,-3.10797664550750e+000

2.26274169979693e+005,-1.81497623770715e+001,-3.14902442189208e+000

2.29432839682530e+005,-1.81504572544260e+001,-3.19057877700423e+000

2.32635602771247e+005,-1.81511627499479e+001,-3.23264560042645e+000

2.35883074766574e+005,-1.81518788502147e+001,-3.27523087982444e+000

2.39175879781588e+005,-1.81526055347074e+001,-3.31834070451571e+000

2.42514650641661e+005,-1.81533427757221e+001,-3.36198126913559e+000

2.45900029006080e+005,-1.81540905382966e+001,-3.40615887739582e+000

2.49332665491357e+005,-1.81548487801539e+001,-3.45087994593415e+000

2.52813219796278e+005,-1.81556174516630e+001,-3.49615100824836e+000

2.56342360828676e+005,-1.81563964958180e+001,-3.54197871871137e+000

2.59920766833993e+005,-1.81571858482354e+001,-3.58836985666076e+000

2.63549125525621e+005,-1.81579854371726e+001,-3.63533133055942e+000

2.67228134217075e+005,-1.81587951835656e+001,-3.68287018221830e+000

2.70958499956006e+005,-1.81596150010886e+001,-3.73099359107676e+000

2.74740939660078e+005,-1.81604447962357e+001,-3.77970887853228e+000

2.78576180254757e+005,-1.81612844684243e+001,-3.82902351231313e+000

2.82464958813007e+005,-1.81621339101220e+001,-3.87894511088681e+000

2.86408022696948e+005,-1.81629930069966e+001,-3.92948144789398e+000

2.90406129701488e+005,-1.81638616380898e+001,-3.98064045660244e+000

2.94460048199957e+005,-1.81647396760152e+001,-4.03243023437063e+000

2.98570557291775e+005,-1.81656269871795e+001,-4.08485904711366e+000

3.02738446952187e+005,-1.81665234320295e+001,-4.13793533376023e+000

3.06964518184081e+005,-1.81674288653214e+001,-4.19166771069617e+000

3.11249583171928e+005,-1.81683431364159e+001,-4.24606497617942e+000

3.15594465437872e+005,-1.81692660895964e+001,-4.30113611472278e+000

3.19999999999997e+005,-1.81701975644104e+001,-4.35689030143268e+000

3.24467033532806e+005,-1.81711373960354e+001,-4.41333690629495e+000

3.28996424529938e+005,-1.81720854156661e+001,-4.47048549839949e+000

3.33589043469155e+005,-1.81730414509249e+001,-4.52834585009593e+000

3.38245772979638e+005,-1.81740053262928e+001,-4.58692794106881e+000

3.42967508011610e+005,-1.81749768635617e+001,-4.64624196232823e+000

3.47755156008335e+005,-1.81759558823066e+001,-4.70629832010444e+000

3.52609637080511e+005,-1.81769422003749e+001,-4.76710763964244e+000

3.57531884183106e+005,-1.81779356343962e+001,-4.82868076888588e+000

3.62522843294651e+005,-1.81789360003063e+001,-4.89102878204627e+000

3.67583473599047e+005,-1.81799431138872e+001,-4.95416298305231e+000

3.72714747669902e+005,-1.81809567913223e+001,-5.01809490887062e+000

3.77917651657445e+005,-1.81819768497629e+001,-5.08283633269624e+000

3.83193185478053e+005,-1.81830031079067e+001,-5.14839926700739e+000

3.88542363006410e+005,-1.81840353865862e+001,-5.21479596648110e+000

3.93966212270369e+005,-1.81850735093657e+001,-5.28203893076752e+000

3.99465775648511e+005,-1.81861173031449e+001,-5.35014090711975e+000

4.05042110070485e+005,-1.81871665987681e+001,-5.41911489287956e+000

4.10696287220124e+005,-1.81882212316373e+001,-5.48897413781632e+000

4.16429393741414e+005,-1.81892810423274e+001,-5.55973214632231e+000

4.22242531447321e+005,-1.81903458772025e+001,-5.63140267946112e+000

4.28136817531551e+005,-1.81914155890314e+001,-5.70399975687543e+000

4.34113384783250e+005,-1.81924900376007e+001,-5.77753765855307e+000

4.40173381804713e+005,-1.81935690903243e+001,-5.85203092645666e+000

4.46317973232124e+005,-1.81946526228482e+001,-5.92749436601912e+000

4.52548339959385e+005,-1.81957405196478e+001,-6.00394304751102e+000

4.58865679365059e+005,-1.81968326746187e+001,-6.08139230728328e+000

4.65271205542494e+005,-1.81979289916577e+001,-6.15985774889239e+000

4.71766149533147e+005,-1.81990293852335e+001,-6.23935524411368e+000

4.78351759563174e+005,-1.82001337809466e+001,-6.31990093385036e+000

4.85029301283321e+005,-1.82012421160766e+001,-6.40151122894307e+000

4.91800058012158e+005,-1.82023543401166e+001,-6.48420281089184e+000

4.98665330982714e+005,-1.82034704152923e+001,-6.56799263249507e+000

5.05626439592555e+005,-1.82045903170684e+001,-6.65289791841526e+000

5.12684721657352e+005,-1.82057140346377e+001,-6.73893616568010e+000

5.19841533667984e+005,-1.82068415713950e+001,-6.82612514412819e+000

5.27098251051240e+005,-1.82079729453947e+001,-6.91448289680882e+000

5.34456268434150e+005,-1.82091081897916e+001,-7.00402774034242e+000

5.41916999912011e+005,-1.82102473532641e+001,-7.09477826525639e+000

