Freq.,VOut,OutRef

1.00000000000000e+004,-4.27294960005018e+001,-4.62072737446934e-001

1.01395947979003e+004,-4.27295010664057e+001,-4.68522607847536e-001

1.02811382665607e+004,-4.27295062746485e+001,-4.75062497064245e-001

1.04246576084112e+004,-4.27295116292272e+001,-4.81693660950033e-001

1.05701804056138e+004,-4.27295171342508e+001,-4.88417372854823e-001

1.07177346253629e+004,-4.27295227939437e+001,-4.95234923869844e-001

1.08673486252606e+004,-4.27295286126486e+001,-5.02147623075440e-001

1.10190511587661e+004,-4.27295345948299e+001,-5.09156797788835e-001

1.11728713807222e+004,-4.27295407450775e+001,-5.16263793816979e-001

1.13288388529580e+004,-4.27295470681099e+001,-5.23469975714327e-001

1.14869835499703e+004,-4.27295535687773e+001,-5.30776727043418e-001

1.16473358646846e+004,-4.27295602520669e+001,-5.38185450634600e-001

1.18099266142953e+004,-4.27295671231048e+001,-5.45697568858626e-001

1.19747870461893e+004,-4.27295741871612e+001,-5.53314523893357e-001

1.21419488439505e+004,-4.27295814496538e+001,-5.61037778000108e-001

1.23114441334492e+004,-4.27295889161523e+001,-5.68868813801454e-001

1.24833054890161e+004,-4.27295965923823e+001,-5.76809134563687e-001

1.26575659397028e+004,-4.27296044842300e+001,-5.84860264481136e-001

1.28342589756290e+004,-4.27296125977463e+001,-5.93023748969778e-001

1.30134185544193e+004,-4.27296209391517e+001,-6.01301154955745e-001

1.31950791077289e+004,-4.27296295148409e+001,-6.09694071178295e-001

1.33792755478611e+004,-4.27296383313877e+001,-6.18204108487546e-001

1.35660432744767e+004,-4.27296473955501e+001,-6.26832900152271e-001

1.37554181813974e+004,-4.27296567142751e+001,-6.35582102170758e-001

1.39474366635040e+004,-4.27296662947044e+001,-6.44453393582874e-001

1.41421356237309e+004,-4.27296761441795e+001,-6.53448476790087e-001

1.43395524801583e+004,-4.27296862702473e+001,-6.62569077878837e-001

1.45397251732031e+004,-4.27296966806662e+001,-6.71816946945789e-001

1.47426921729110e+004,-4.27297073834114e+001,-6.81193858431632e-001

1.49484924863494e+004,-4.27297183866816e+001,-6.90701611455280e-001

1.51571656651040e+004,-4.27297296989043e+001,-7.00342030156576e-001

1.53687518128801e+004,-4.27297413287434e+001,-7.10116964039490e-001

1.55832915932100e+004,-4.27297532851045e+001,-7.20028288324077e-001

1.58008262372675e+004,-4.27297655771427e+001,-7.30077904298380e-001

1.60213975517924e+004,-4.27297782142688e+001,-7.40267739681151e-001

1.62450479271247e+004,-4.27297912061569e+001,-7.50599748983740e-001

1.64718203453514e+004,-4.27298045627512e+001,-7.61075913879968e-001

1.67017583885674e+004,-4.27298182942740e+001,-7.71698243579550e-001

1.69349062472505e+004,-4.27298324112333e+001,-7.82468775208403e-001

1.71713087287550e+004,-4.27298469244305e+001,-7.93389574191871e-001

1.74110112659224e+004,-4.27298618449686e+001,-8.04462734644630e-001

1.76540599258131e+004,-4.27298771842611e+001,-8.15690379763035e-001

1.79005014185594e+004,-4.27298929540396e+001,-8.27074662228668e-001

1.81503831063432e+004,-4.27299091663638e+001,-8.38617764609733e-001

1.84037530124975e+004,-4.27299258336295e+001,-8.50321899773299e-001

1.86606598307361e+004,-4.27299429685788e+001,-8.62189311301007e-001

1.89211529345119e+004,-4.27299605843088e+001,-8.74222273910161e-001

1.91852823865052e+004,-4.27299786942824e+001,-8.86423093880757e-001

1.94530989482457e+004,-4.27299973123377e+001,-8.98794109487761e-001

1.97246540898671e+004,-4.27300164526987e+001,-9.11337691439483e-001

1.99999999999999e+004,-4.27300361299858e+001,-9.24056243322335e-001

2.02791895958005e+004,-4.27300563592268e+001,-9.36952202049842e-001

2.05622765331213e+004,-4.27300771558683e+001,-9.50028038319245e-001

2.08493152168224e+004,-4.27300985357872e+001,-9.63286257071790e-001

2.11403608112276e+004,-4.27301205153022e+001,-9.76729397962391e-001

2.14354692507258e+004,-4.27301431111866e+001,-9.90360035832551e-001

2.17346972505211e+004,-4.27301663406804e+001,-1.00418078119087e+000

2.20381023175322e+004,-4.27301902215033e+001,-1.01819428069809e+000

2.23457427614443e+004,-4.27302147718677e+001,-1.03240321766203e+000

2.26576777059159e+004,-4.27302400104928e+001,-1.04681031253405e+000

2.29739670999406e+004,-4.27302659566176e+001,-1.06141832341714e+000

2.32946717293690e+004,-4.27302926300165e+001,-1.07623004657518e+000

2.36198532285905e+004,-4.27303200510125e+001,-1.09124831695359e+000

2.39495740923785e+004,-4.27303482404934e+001,-1.10647600870439e+000

2.42838976879009e+004,-4.27303772199267e+001,-1.12191603571679e+000

2.46228882668982e+004,-4.27304070113758e+001,-1.13757135215668e+000

2.49666109780322e+004,-4.27304376375161e+001,-1.15344495301291e+000

2.53151318794055e+004,-4.27304691216518e+001,-1.16953987464902e+000

2.56685179512580e+004,-4.27305014877331e+001,-1.18585919536357e+000

2.60268371088386e+004,-4.27305347603740e+001,-1.20240603595468e+000

2.63901582154578e+004,-4.27305689648701e+001,-1.21918356029727e+000

2.67585510957221e+004,-4.27306041272174e+001,-1.23619497592131e+000

2.71320865489533e+004,-4.27306402741315e+001,-1.25344353460028e+000

2.75108363627948e+004,-4.27306774330666e+001,-1.27093253294897e+000

2.78948733270080e+004,-4.27307156322367e+001,-1.28866531302334e+000

2.82842712474618e+004,-4.27307549006349e+001,-1.30664526293416e+000

2.86791049603164e+004,-4.27307952680557e+001,-1.32487581746206e+000

2.90794503464061e+004,-4.27308367651160e+001,-1.34336045868641e+000

2.94853843458219e+004,-4.27308794232777e+001,-1.36210271661623e+000

2.98969849726987e+004,-4.27309232748705e+001,-1.38110616983212e+000

3.03143313302078e+004,-4.27309683531155e+001,-1.40037444613538e+000

3.07375036257601e+004,-4.27310146921490e+001,-1.41991122320522e+000

3.11665831864199e+004,-4.27310623270474e+001,-1.43972022926277e+000

3.16016524745350e+004,-4.27311112938524e+001,-1.45980524374439e+000

3.20427951035848e+004,-4.27311616295971e+001,-1.48017009798284e+000

3.24900958542493e+004,-4.27312133723325e+001,-1.50081867589520e+000

3.29436406907028e+004,-4.27312665611552e+001,-1.52175491468168e+000

3.34035167771346e+004,-4.27313212362348e+001,-1.54298280553009e+000

3.38698124945009e+004,-4.27313774388431e+001,-1.56450639433045e+000

3.43426174575100e+004,-4.27314352113835e+001,-1.58632978239573e+000

3.48220225318448e+004,-4.27314945974212e+001,-1.60845712719450e+000

3.53081198516260e+004,-4.27315556417141e+001,-1.63089264308850e+000

3.58010028371187e+004,-4.27316183902445e+001,-1.65364060208176e+000

3.63007662126863e+004,-4.27316828902518e+001,-1.67670533457531e+000

3.68075060249948e+004,-4.27317491902659e+001,-1.70009123013366e+000

3.73213196614721e+004,-4.27318173401412e+001,-1.72380273825779e+000

3.78423058690237e+004,-4.27318873910916e+001,-1.74784436916698e+000

3.83705647730104e+004,-4.27319593957268e+001,-1.77222069459170e+000

3.89061978964912e+004,-4.27320334080886e+001,-1.79693634857208e+000

3.94493081797342e+004,-4.27321094836887e+001,-1.82199602826794e+000

3.99999999999998e+004,-4.27321876795478e+001,-1.84740449477615e+000

4.05583791916010e+004,-4.27322680542344e+001,-1.87316657395778e+000

4.11245530662425e+004,-4.27323506679057e+001,-1.89928715727381e+000

4.16986304336447e+004,-4.27324355823492e+001,-1.92577120263024e+000

4.22807216224550e+004,-4.27325228610247e+001,-1.95262373523245e+000

4.28709385014515e+004,-4.27326125691083e+001,-1.97984984844736e+000

4.34693945010421e+004,-4.27327047735366e+001,-2.00745470467761e+000

4.40762046350642e+004,-4.27327995430523e+001,-2.03544353624045e+000

4.46914855228886e+004,-4.27328969482509e+001,-2.06382164626056e+000

4.53153554118317e+004,-4.27329970616285e+001,-2.09259440956892e+000

4.59479341998812e+004,-4.27330999576304e+001,-2.12176727361227e+000

4.65893434587380e+004,-4.27332057127013e+001,-2.15134575937167e+000

4.72397064571810e+004,-4.27333144053362e+001,-2.18133546228899e+000

4.78991481847569e+004,-4.27334261161328e+001,-2.21174205320546e+000

4.85677953758016e+004,-4.27335409278450e+001,-2.24257127930687e+000

4.92457765337964e+004,-4.27336589254374e+001,-2.27382896507936e+000

4.99332219560642e+004,-4.27337801961414e+001,-2.30552101327402e+000

5.06302637588109e+004,-4.27339048295120e+001,-2.33765340588151e+000

5.13370359025159e+004,-4.27340329174866e+001,-2.37023220511456e+000

5.20536742176771e+004,-4.27341645544443e+001,-2.40326355440190e+000

5.27803164309155e+004,-4.27342998372670e+001,-2.43675367938873e+000

5.35171021914442e+004,-4.27344388654019e+001,-2.47070888894968e+000

5.42641730979066e+004,-4.27345817409245e+001,-2.50513557620798e+000

5.50216727255895e+004,-4.27347285686044e+001,-2.54004021956566e+000

5.57897466540159e+004,-4.27348794559705e+001,-2.57542938374311e+000

5.65685424949235e+004,-4.27350345133800e+001,-2.61130972082625e+000

5.73582099206328e+004,-4.27351938540864e+001,-2.64768797132491e+000

5.81589006928121e+004,-4.27353575943105e+001,-2.68457096523905e+000

5.89707686916437e+004,-4.27355258533121e+001,-2.72196562313444e+000

5.97939699453972e+004,-4.27356987534637e+001,-2.75987895722750e+000

6.06286626604156e+004,-4.27358764203248e+001,-2.79831807247947e+000

6.14750072515201e+004,-4.27360589827187e+001,-2.83729016769915e+000

6.23331663728396e+004,-4.27362465728098e+001,-2.87680253665501e+000

6.32033049490698e+004,-4.27364393261830e+001,-2.91686256919620e+000

6.40855902071694e+004,-4.27366373819244e+001,-2.95747775238290e+000

6.49801917084985e+004,-4.27368408827035e+001,-2.99865567162418e+000

6.58872813814055e+004,-4.27370499748570e+001,-3.04040401182759e+000

6.68070335542691e+004,-4.27372648084737e+001,-3.08273055855408e+000

6.77396249890018e+004,-4.27374855374817e+001,-3.12564319918442e+000

6.86852349150199e+004,-4.27377123197364e+001,-3.16914992409335e+000

6.96440450636895e+004,-4.27379453171105e+001,-3.21325882783295e+000

7.06162397032520e+004,-4.27381846955849e+001,-3.25797811032439e+000

7.16020056742374e+004,-4.27384306253421e+001,-3.30331607805803e+000

7.26015324253724e+004,-4.27386832808599e+001,-3.34928114530391e+000

7.36150120499896e+004,-4.27389428410083e+001,-3.39588183532894e+000

7.46426393229441e+004,-4.27392094891456e+001,-3.44312678162406e+000

7.56846117380472e+004,-4.27394834132187e+001,-3.49102472913966e+000

7.67411295460207e+004,-4.27397648058623e+001,-3.53958453553023e+000

7.78123957929823e+004,-4.27400538645015e+001,-3.58881517240706e+000

7.88986163594682e+004,-4.27403507914553e+001,-3.63872572660000e+000

7.99999999999995e+004,-4.27406557940409e+001,-3.68932540142841e+000

8.11167583832018e+004,-4.27409690846806e+001,-3.74062351798071e+000

8.22491061324848e+004,-4.27412908810091e+001,-3.79262951640262e+000

8.33972608672892e+004,-4.27416214059830e+001,-3.84535295719473e+000

8.45614432449099e+004,-4.27419608879914e+001,-3.89880352251970e+000

8.57418770029029e+004,-4.27423095609677e+001,-3.95299101751695e+000

8.69387890020841e+004,-4.27426676645029e+001,-4.00792537162946e+000

8.81524092701283e+004,-4.27430354439604e+001,-4.06361663993782e+000

8.93829710457770e+004,-4.27434131505922e+001,-4.12007500450435e+000

9.06307108236633e+004,-4.27438010416556e+001,-4.17731077572813e+000

9.18958683997622e+004,-4.27441993805321e+001,-4.23533439370986e+000

9.31786869174758e+004,-4.27446084368474e+001,-4.29415642962599e+000

9.44794129143618e+004,-4.27450284865915e+001,-4.35378758711501e+000

9.57982963695136e+004,-4.27454598122418e+001,-4.41423870367425e+000

9.71355907516031e+004,-4.27459027028857e+001,-4.47552075206698e+000

9.84915530675926e+004,-4.27463574543448e+001,-4.53764484174363e+000

9.98664439121282e+004,-4.27468243693011e+001,-4.60062222027234e+000

1.01260527517622e+005,-4.27473037574226e+001,-4.66446427478447e+000

1.02674071805032e+005,-4.27477959354911e+001,-4.72918253343170e+000

1.04107348435354e+005,-4.27483012275308e+001,-4.79478866685771e+000

1.05560632861831e+005,-4.27488199649370e+001,-4.86129448968428e+000

1.07034204382888e+005,-4.27493524866071e+001,-4.92871196201056e+000

1.08528346195813e+005,-4.27498991390712e+001,-4.99705319093120e+000

1.10043345451179e+005,-4.27504602766245e+001,-5.06633043206710e+000

1.11579493308032e+005,-4.27510362614594e+001,-5.13655609111702e+000

1.13137084989847e+005,-4.27516274638001e+001,-5.20774272542400e+000

1.14716419841265e+005,-4.27522342620361e+001,-5.27990304556330e+000

1.16317801385624e+005,-4.27528570428581e+001,-5.35304991694861e+000

1.17941537383287e+005,-4.27534962013933e+001,-5.42719636146040e+000

1.19587939890794e+005,-4.27541521413429e+001,-5.50235555909544e+000

1.21257325320831e+005,-4.27548252751190e+001,-5.57854084964058e+000

1.22950014503040e+005,-4.27555160239830e+001,-5.65576573437080e+000

1.24666332745679e+005,-4.27562248181852e+001,-5.73404387777240e+000

1.26406609898139e+005,-4.27569520971041e+001,-5.81338910929423e+000

1.28171180414339e+005,-4.27576983093880e+001,-5.89381542512792e+000

1.29960383416997e+005,-4.27584639130961e+001,-5.97533699001693e+000

1.31774562762811e+005,-4.27592493758417e+001,-6.05796813909972e+000

1.33614067108538e+005,-4.27600551749361e+001,-6.14172337978322e+000

1.35479249978003e+005,-4.27608817975336e+001,-6.22661739365492e+000

1.37370469830040e+005,-4.27617297407778e+001,-6.31266503842923e+000

1.39288090127379e+005,-4.27625995119493e+001,-6.39988134993449e+000

1.41232479406504e+005,-4.27634916286153e+001,-6.48828154413933e+000

1.43204011348474e+005,-4.27644066187804e+001,-6.57788101922277e+000

1.45203064850745e+005,-4.27653450210396e+001,-6.66869535768842e+000

1.47230024099979e+005,-4.27663073847332e+001,-6.76074032852588e+000

1.49285278645888e+005,-4.27672942701045e+001,-6.85403188942082e+000

1.51369223476094e+005,-4.27683062484596e+001,-6.94858618901564e+000

1.53482259092041e+005,-4.27693439023299e+001,-7.04441956922430e+000

1.55624791585964e+005,-4.27704078256387e+001,-7.14154856760177e+000

1.57797232718936e+005,-4.27714986238706e+001,-7.23998991977076e+000

1.59999999999999e+005,-4.27726169142447e+001,-7.33976056190950e+000

1.62233516766403e+005,-4.27737633258924e+001,-7.44087763330015e+000

1.64498212264969e+005,-4.27749385000401e+001,-7.54335847894173e+000

1.66794521734578e+005,-4.27761430901964e+001,-7.64722065222975e+000

1.69122886489819e+005,-4.27773777623461e+001,-7.75248191770315e+000

1.71483754005805e+005,-4.27786431951489e+001,-7.85916025386296e+000

1.73877578004168e+005,-4.27799400801469e+001,-7.96727385606160e+000

1.76304818540256e+005,-4.27812691219772e+001,-8.07684113946749e+000

1.78765942091554e+005,-4.27826310385946e+001,-8.18788074210576e+000

1.81261421647326e+005,-4.27840265615021e+001,-8.30041152797408e+000

1.83791736799524e+005,-4.27854564359908e+001,-8.41445259024084e+000

1.86357373834951e+005,-4.27869214213906e+001,-8.53002325452015e+000

1.88958825828723e+005,-4.27884222913315e+001,-8.64714308223006e+000

1.91596592739027e+005,-4.27899598340171e+001,-8.76583187403236e+000

1.94271181503206e+005,-4.27915348525109e+001,-8.88610967335422e+000

1.96983106135185e+005,-4.27931481650362e+001,-9.00799676999437e+000

1.99732887824256e+005,-4.27948006052907e+001,-9.13151370381086e+000

2.02521055035243e+005,-4.27964930227772e+001,-9.25668126849206e+000

2.05348143610063e+005,-4.27982262831503e+001,-9.38352051541079e+000

2.08214696870707e+005,-4.28000012685815e+001,-9.51205275755799e+000

2.11121265723661e+005,-4.28018188781431e+001,-9.64229957355871e+000

2.14068408765776e+005,-4.28036800282118e+001,-9.77428281176366e+000

2.17056692391625e+005,-4.28055856528937e+001,-9.90802459441898e+000

2.20086690902357e+005,-4.28075367044717e+001,-1.00435473219083e+001

2.23158986616063e+005,-4.28095341538760e+001,-1.01808736770657e+001

2.26274169979693e+005,-4.28115789911800e+001,-1.03200266295552e+001

2.29432839682530e+005,-4.28136722261211e+001,-1.04610294403130e+001

2.32635602771247e+005,-4.28158148886495e+001,-1.06039056660475e+001

2.35883074766574e+005,-4.28180080295050e+001,-1.07486791637932e+001

2.39175879781588e+005,-4.28202527208232e+001,-1.08953740955098e+001

2.42514650641661e+005,-4.28225500567726e+001,-1.10440149327247e+001

2.45900029006080e+005,-4.28249011542232e+001,-1.11946264612066e+001

2.49332665491357e+005,-4.28273071534492e+001,-1.13472337856678e+001

2.52813219796278e+005,-4.28297692188643e+001,-1.15018623344838e+001

2.56342360828676e+005,-4.28322885397935e+001,-1.16585378644222e+001

2.59920766833993e+005,-4.28348663312809e+001,-1.18172864653734e+001

2.63549125525621e+005,-4.28375038349346e+001,-1.19781345650693e+001

2.67228134217075e+005,-4.28402023198098e+001,-1.21411089337853e+001

2.70958499956006e+005,-4.28429630833316e+001,-1.23062366890084e+001

2.74740939660078e+005,-4.28457874522573e+001,-1.24735453000644e+001

2.78576180254757e+005,-4.28486767836792e+001,-1.26430625926903e+001

2.82464958813007e+005,-4.28516324660694e+001,-1.28148167535388e+001

2.86408022696948e+005,-4.28546559203664e+001,-1.29888363346027e+001

2.90406129701488e+005,-4.28577486011033e+001,-1.31651502575463e+001

2.94460048199957e+005,-4.28609119975802e+001,-1.33437878179271e+001

2.98570557291775e+005,-4.28641476350787e+001,-1.35247786892971e+001

3.02738446952187e+005,-4.28674570761199e+001,-1.37081529271656e+001

3.06964518184081e+005,-4.28708419217660e+001,-1.38939409728113e+001

3.11249583171928e+005,-4.28743038129647e+001,-1.40821736569260e+001

3.15594465437872e+005,-4.28778444319374e+001,-1.42728822030764e+001

3.19999999999997e+005,-4.28814655036094e+001,-1.44660982309664e+001

3.24467033532806e+005,-4.28851687970834e+001,-1.46618537594866e+001

3.28996424529938e+005,-4.28889561271537e+001,-1.48601812095325e+001

3.33589043469155e+005,-4.28928293558629e+001,-1.50611134065770e+001

3.38245772979638e+005,-4.28967903940974e+001,-1.52646835829814e+001

3.42967508011610e+005,-4.29008412032239e+001,-1.54709253800291e+001

3.47755156008335e+005,-4.29049837967631e+001,-1.56798728496654e+001

3.52609637080511e+005,-4.29092202421008e+001,-1.58915604559298e+001

3.57531884183106e+005,-4.29135526622353e+001,-1.61060230760632e+001

3.62522843294651e+005,-4.29179832375587e+001,-1.63232960012790e+001

3.67583473599047e+005,-4.29225142076710e+001,-1.65434149371784e+001

3.72714747669902e+005,-4.29271478732258e+001,-1.67664160038008e+001

3.77917651657445e+005,-4.29318865978051e+001,-1.69923357352922e+001

3.83193185478053e+005,-4.29367328098214e+001,-1.72212110791796e+001

3.88542363006410e+005,-4.29416890044459e+001,-1.74530793952392e+001

3.93966212270369e+005,-4.29467577455597e+001,-1.76879784539452e+001

3.99465775648511e+005,-4.29519416677260e+001,-1.79259464344872e+001

4.05042110070485e+005,-4.29572434781821e+001,-1.81670219223470e+001

4.10696287220124e+005,-4.29626659588476e+001,-1.84112439064225e+001

4.16429393741414e+005,-4.29682119683464e+001,-1.86586517756892e+001

4.22242531447321e+005,-4.29738844440416e+001,-1.89092853153905e+001

4.28136817531551e+005,-4.29796864040788e+001,-1.91631847027483e+001

4.34113384783250e+005,-4.29856209494364e+001,-1.94203905021844e+001

4.40173381804713e+005,-4.29916912659797e+001,-1.96809436600477e+001

4.46317973232124e+005,-4.29979006265171e+001,-1.99448854988385e+001

4.52548339959385e+005,-4.30042523928540e+001,-2.02122577109235e+001

4.58865679365059e+005,-4.30107500178437e+001,-2.04831023517387e+001

4.65271205542494e+005,-4.30173970474300e+001,-2.07574618324720e+001

4.71766149533147e+005,-4.30241971226818e+001,-2.10353789122221e+001

4.78351759563174e+005,-4.30311539818143e+001,-2.13168966896319e+001

4.85029301283321e+005,-4.30382714621945e+001,-2.16020585939891e+001

4.91800058012158e+005,-4.30455535023298e+001,-2.18909083757957e+001

4.98665330982714e+005,-4.30530041438339e+001,-2.21834900967999e+001

5.05626439592555e+005,-4.30606275333702e+001,-2.24798481194920e+001

5.12684721657352e+005,-4.30684279245673e+001,-2.27800270960603e+001

5.19841533667984e+005,-4.30764096799048e+001,-2.30840719568081e+001

5.27098251051240e+005,-4.30845772725666e+001,-2.33920278980298e+001

5.34456268434150e+005,-4.30929352882580e+001,-2.37039403693467e+001

5.41916999912011e+005,-4.31014884269839e+001,-2.40198550605029e+001

