Freq.,VOut,OutRef

1.00000000000000e+004,-1.74907021864450e+001,-2.83246395944920e-001

1.01395947979003e+004,-1.74907037901671e+001,-2.87200189697242e-001

1.02811382665607e+004,-1.74907054389378e+001,-2.91209168776696e-001

1.04246576084112e+004,-1.74907071340215e+001,-2.95274103219742e-001

1.05701804056138e+004,-1.74907088767179e+001,-2.99395773799726e-001

1.07177346253629e+004,-1.74907106683634e+001,-3.03574972173695e-001

1.08673486252606e+004,-1.74907125103312e+001,-3.07812501036965e-001

1.10190511587661e+004,-1.74907144040337e+001,-3.12109174272273e-001

1.11728713807222e+004,-1.74907163509223e+001,-3.16465817109403e-001

1.13288388529580e+004,-1.74907183524893e+001,-3.20883266281326e-001

1.14869835499703e+004,-1.74907204102687e+001,-3.25362370182069e-001

1.16473358646846e+004,-1.74907225258375e+001,-3.29903989032825e-001

1.18099266142953e+004,-1.74907247008168e+001,-3.34508995042336e-001

1.19747870461893e+004,-1.74907269368730e+001,-3.39178272576938e-001

1.21419488439505e+004,-1.74907292357193e+001,-3.43912718325654e-001

1.23114441334492e+004,-1.74907315991167e+001,-3.48713241474737e-001

1.24833054890161e+004,-1.74907340288757e+001,-3.53580763879091e-001

1.26575659397028e+004,-1.74907365268572e+001,-3.58516220238809e-001

1.28342589756290e+004,-1.74907390949741e+001,-3.63520558279891e-001

1.30134185544193e+004,-1.74907417351929e+001,-3.68594738929574e-001

1.31950791077289e+004,-1.74907444495353e+001,-3.73739736503774e-001

1.33792755478611e+004,-1.74907472400792e+001,-3.78956538893404e-001

1.35660432744767e+004,-1.74907501089607e+001,-3.84246147749211e-001

1.37554181813974e+004,-1.74907530583756e+001,-3.89609578675838e-001

1.39474366635040e+004,-1.74907560905812e+001,-3.95047861422614e-001

1.41421356237309e+004,-1.74907592078975e+001,-4.00562040083267e-001

1.43395524801583e+004,-1.74907624127098e+001,-4.06153173290984e-001

1.45397251732031e+004,-1.74907657074697e+001,-4.11822334422327e-001

1.47426921729110e+004,-1.74907690946972e+001,-4.17570611801525e-001

1.49484924863494e+004,-1.74907725769829e+001,-4.23399108905967e-001

1.51571656651040e+004,-1.74907761569895e+001,-4.29308944577503e-001

1.53687518128801e+004,-1.74907798374542e+001,-4.35301253234819e-001

1.55832915932100e+004,-1.74907836211904e+001,-4.41377185089141e-001

1.58008262372675e+004,-1.74907875110900e+001,-4.47537906363978e-001

1.60213975517924e+004,-1.74907915101257e+001,-4.53784599514048e-001

1.62450479271247e+004,-1.74907956213530e+001,-4.60118463451999e-001

1.64718203453514e+004,-1.74907998479126e+001,-4.66540713775849e-001

1.67017583885674e+004,-1.74908041930327e+001,-4.73052582999745e-001

1.69349062472505e+004,-1.74908086600313e+001,-4.79655320787631e-001

1.71713087287550e+004,-1.74908132523193e+001,-4.86350194189350e-001

1.74110112659224e+004,-1.74908179734020e+001,-4.93138487883590e-001

1.76540599258131e+004,-1.74908228268827e+001,-5.00021504418019e-001

1.79005014185594e+004,-1.74908278164648e+001,-5.07000564458669e-001

1.81503831063432e+004,-1.74908329459550e+001,-5.14077007039237e-001

1.84037530124975e+004,-1.74908382192655e+001,-5.21252189814559e-001

1.86606598307361e+004,-1.74908436404176e+001,-5.28527489318298e-001

1.89211529345119e+004,-1.74908492135443e+001,-5.35904301221642e-001

1.91852823865052e+004,-1.74908549428936e+001,-5.43384040598315e-001

1.94530989482457e+004,-1.74908608328313e+001,-5.50968142193742e-001

1.97246540898671e+004,-1.74908668878446e+001,-5.58658060692851e-001

1.99999999999999e+004,-1.74908731125453e+001,-5.66455270996807e-001

2.02791895958005e+004,-1.74908795116731e+001,-5.74361268501943e-001

2.05622765331213e+004,-1.74908860900992e+001,-5.82377569379601e-001

2.08493152168224e+004,-1.74908928528302e+001,-5.90505710864321e-001

2.11403608112276e+004,-1.74908998050111e+001,-5.98747251542869e-001

2.14354692507258e+004,-1.74909069519297e+001,-6.07103771646938e-001

2.17346972505211e+004,-1.74909142990203e+001,-6.15576873351252e-001

2.20381023175322e+004,-1.74909218518675e+001,-6.24168181076453e-001

2.23457427614443e+004,-1.74909296162108e+001,-6.32879341791493e-001

2.26576777059159e+004,-1.74909375979482e+001,-6.41712025326712e-001

2.29739670999406e+004,-1.74909458031409e+001,-6.50667924684894e-001

2.32946717293690e+004,-1.74909542380176e+001,-6.59748756359220e-001

2.36198532285905e+004,-1.74909629089793e+001,-6.68956260657244e-001

2.39495740923785e+004,-1.74909718226035e+001,-6.78292202024739e-001

2.42838976879009e+004,-1.74909809856494e+001,-6.87758369378299e-001

2.46228882668982e+004,-1.74909904050625e+001,-6.97356576439162e-001

2.49666109780322e+004,-1.74910000879801e+001,-7.07088662071485e-001

2.53151318794055e+004,-1.74910100417358e+001,-7.16956490628818e-001

2.56685179512580e+004,-1.74910202738655e+001,-7.26961952299991e-001

2.60268371088386e+004,-1.74910307921123e+001,-7.37106963463063e-001

2.63901582154578e+004,-1.74910416044325e+001,-7.47393467042323e-001

2.67585510957221e+004,-1.74910527190011e+001,-7.57823432870190e-001

2.71320865489533e+004,-1.74910641442174e+001,-7.68398858054953e-001

2.75108363627948e+004,-1.74910758887117e+001,-7.79121767351549e-001

2.78948733270080e+004,-1.74910879613510e+001,-7.89994213537142e-001

2.82842712474618e+004,-1.74911003712454e+001,-8.01018277794720e-001

2.86791049603164e+004,-1.74911131277545e+001,-8.12196070096549e-001

2.90794503464061e+004,-1.74911262404943e+001,-8.23529729597450e-001

2.94853843458219e+004,-1.74911397193439e+001,-8.35021425029499e-001

2.98969849726987e+004,-1.74911535744525e+001,-8.46673355104114e-001

3.03143313302078e+004,-1.74911678162465e+001,-8.58487748917359e-001

3.07375036257601e+004,-1.74911824554368e+001,-8.70466866364100e-001

3.11665831864199e+004,-1.74911975030266e+001,-8.82612998551011e-001

3.16016524745350e+004,-1.74912129703187e+001,-8.94928468221530e-001

3.20427951035848e+004,-1.74912288689239e+001,-9.07415630182230e-001

3.24900958542493e+004,-1.74912452107686e+001,-9.20076871735539e-001

3.29436406907028e+004,-1.74912620081034e+001,-9.32914613119056e-001

3.34035167771346e+004,-1.74912792735113e+001,-9.45931307948428e-001

3.38698124945009e+004,-1.74912970199170e+001,-9.59129443665457e-001

3.43426174575100e+004,-1.74913152605948e+001,-9.72511541996470e-001

3.48220225318448e+004,-1.74913340091788e+001,-9.86080159410376e-001

3.53081198516260e+004,-1.74913532796714e+001,-9.99837887585571e-001

3.58010028371187e+004,-1.74913730864534e+001,-1.01378735388230e+000

3.63007662126863e+004,-1.74913934442933e+001,-1.02793122182075e+000

3.68075060249948e+004,-1.74914143683577e+001,-1.04227219156513e+000

3.73213196614721e+004,-1.74914358742213e+001,-1.05681300041256e+000

3.78423058690237e+004,-1.74914579778776e+001,-1.07155642329033e+000

3.83705647730104e+004,-1.74914806957491e+001,-1.08650527325711e+000

3.89061978964912e+004,-1.74915040446990e+001,-1.10166240200995e+000

3.94493081797342e+004,-1.74915280420416e+001,-1.11703070040065e+000

3.99999999999998e+004,-1.74915527055543e+001,-1.13261309895410e+000

4.05583791916010e+004,-1.74915780534894e+001,-1.14841256839565e+000

4.11245530662425e+004,-1.74916041045854e+001,-1.16443212018457e+000

4.16986304336447e+004,-1.74916308780797e+001,-1.18067480705286e+000

4.22807216224550e+004,-1.74916583937211e+001,-1.19714372355104e+000

4.28709385014515e+004,-1.74916866717824e+001,-1.21384200659954e+000

4.34693945010421e+004,-1.74917157330735e+001,-1.23077283604940e+000

4.40762046350642e+004,-1.74917455989547e+001,-1.24793943524561e+000

4.46914855228886e+004,-1.74917762913501e+001,-1.26534507160055e+000

4.53153554118317e+004,-1.74918078327619e+001,-1.28299305717111e+000

4.59479341998812e+004,-1.74918402462839e+001,-1.30088674924532e+000

4.65893434587380e+004,-1.74918735556166e+001,-1.31902955093406e+000

4.72397064571810e+004,-1.74919077850814e+001,-1.33742491176945e+000

4.78991481847569e+004,-1.74919429596358e+001,-1.35607632831166e+000

4.85677953758016e+004,-1.74919791048887e+001,-1.37498734476111e+000

4.92457765337964e+004,-1.74920162471160e+001,-1.39416155357778e+000

4.99332219560642e+004,-1.74920544132765e+001,-1.41360259610906e+000

5.06302637588109e+004,-1.74920936310279e+001,-1.43331416322199e+000

5.13370359025159e+004,-1.74921339287438e+001,-1.45329999594571e+000

5.20536742176771e+004,-1.74921753355294e+001,-1.47356388611994e+000

5.27803164309155e+004,-1.74922178812399e+001,-1.49410967704750e+000

5.35171021914442e+004,-1.74922615964969e+001,-1.51494126416030e+000

5.42641730979066e+004,-1.74923065127065e+001,-1.53606259568689e+000

5.50216727255895e+004,-1.74923526620770e+001,-1.55747767333164e+000

5.57897466540159e+004,-1.74924000776374e+001,-1.57919055295735e+000

5.65685424949235e+004,-1.74924487932560e+001,-1.60120534527936e+000

5.73582099206328e+004,-1.74924988436588e+001,-1.62352621656410e+000

5.81589006928121e+004,-1.74925502644490e+001,-1.64615738933629e+000

5.89707686916437e+004,-1.74926030921262e+001,-1.66910314309525e+000

5.97939699453972e+004,-1.74926573641063e+001,-1.69236781503581e+000

6.06286626604156e+004,-1.74927131187413e+001,-1.71595580077858e+000

6.14750072515201e+004,-1.74927703953396e+001,-1.73987155510913e+000

6.23331663728396e+004,-1.74928292341862e+001,-1.76411959272406e+000

6.32033049490698e+004,-1.74928896765640e+001,-1.78870448898249e+000

6.40855902071694e+004,-1.74929517647741e+001,-1.81363088067054e+000

6.49801917084985e+004,-1.74930155421577e+001,-1.83890346676910e+000

6.58872813814055e+004,-1.74930810531170e+001,-1.86452700923258e+000

6.68070335542691e+004,-1.74931483431374e+001,-1.89050633377482e+000

6.77396249890018e+004,-1.74932174588089e+001,-1.91684633066277e+000

6.86852349150199e+004,-1.74932884478484e+001,-1.94355195551886e+000

6.96440450636895e+004,-1.74933613591222e+001,-1.97062823013237e+000

7.06162397032520e+004,-1.74934362426679e+001,-1.99808024327826e+000

7.16020056742374e+004,-1.74935131497176e+001,-2.02591315154456e+000

7.26015324253724e+004,-1.74935921327204e+001,-2.05413218016938e+000

7.36150120499896e+004,-1.74936732453649e+001,-2.08274262388485e+000

7.46426393229441e+004,-1.74937565426030e+001,-2.11174984777201e+000

7.56846117380472e+004,-1.74938420806721e+001,-2.14115928812290e+000

7.67411295460207e+004,-1.74939299171189e+001,-2.17097645331169e+000

7.78123957929823e+004,-1.74940201108222e+001,-2.20120692467712e+000

7.88986163594682e+004,-1.74941127220163e+001,-2.23185635741011e+000

7.99999999999995e+004,-1.74942078123141e+001,-2.26293048145541e+000

8.11167583832018e+004,-1.74943054447304e+001,-2.29443510241923e+000

8.22491061324848e+004,-1.74944056837048e+001,-2.32637610248793e+000

8.33972608672892e+004,-1.74945085951252e+001,-2.35875944135684e+000

8.45614432449099e+004,-1.74946142463503e+001,-2.39159115716867e+000

8.57418770029029e+004,-1.74947227062327e+001,-2.42487736746189e+000

8.69387890020841e+004,-1.74948340451414e+001,-2.45862427012932e+000

8.81524092701283e+004,-1.74949483349846e+001,-2.49283814438868e+000

8.93829710457770e+004,-1.74950656492314e+001,-2.52752535176229e+000

9.06307108236633e+004,-1.74951860629341e+001,-2.56269233706922e+000

9.18958683997622e+004,-1.74953096527499e+001,-2.59834562942730e+000

9.31786869174758e+004,-1.74954364969620e+001,-2.63449184326808e+000

9.44794129143618e+004,-1.74955666755008e+001,-2.67113767936367e+000

9.57982963695136e+004,-1.74957002699642e+001,-2.70828992586429e+000

9.71355907516031e+004,-1.74958373636379e+001,-2.74595545935023e+000

9.84915530675926e+004,-1.74959780415149e+001,-2.78414124589583e+000

9.98664439121282e+004,-1.74961223903143e+001,-2.82285434214638e+000

1.01260527517622e+005,-1.74962704985002e+001,-2.86210189640984e+000

1.02674071805032e+005,-1.74964224562992e+001,-2.90189114976194e+000

1.04107348435354e+005,-1.74965783557180e+001,-2.94222943716568e+000

1.05560632861831e+005,-1.74967382905594e+001,-2.98312418860655e+000

1.07034204382888e+005,-1.74969023564383e+001,-3.02458293024369e+000

1.08528346195813e+005,-1.74970706507965e+001,-3.06661328557553e+000

1.10043345451179e+005,-1.74972432729169e+001,-3.10922297662431e+000

1.11579493308032e+005,-1.74974203239371e+001,-3.15241982513605e+000

1.13137084989847e+005,-1.74976019068609e+001,-3.19621175380042e+000

1.14716419841265e+005,-1.74977881265703e+001,-3.24060678748752e+000

1.16317801385624e+005,-1.74979790898356e+001,-3.28561305450570e+000

1.17941537383287e+005,-1.74981749053252e+001,-3.33123878787798e+000

1.19587939890794e+005,-1.74983756836129e+001,-3.37749232664110e+000

1.21257325320831e+005,-1.74985815371862e+001,-3.42438211716468e+000

1.22950014503040e+005,-1.74987925804515e+001,-3.47191671449494e+000

1.24666332745679e+005,-1.74990089297396e+001,-3.52010478372070e+000

1.26406609898139e+005,-1.74992307033090e+001,-3.56895510136415e+000

1.28171180414339e+005,-1.74994580213487e+001,-3.61847655679829e+000

1.29960383416997e+005,-1.74996910059794e+001,-3.66867815368945e+000

1.31774562762811e+005,-1.74999297812538e+001,-3.71956901146885e+000

1.33614067108538e+005,-1.75001744731552e+001,-3.77115836683286e+000

1.35479249978003e+005,-1.75004252095956e+001,-3.82345557527277e+000

1.37370469830040e+005,-1.75006821204118e+001,-3.87647011263640e+000

1.39288090127379e+005,-1.75009453373610e+001,-3.93021157672229e+000

1.41232479406504e+005,-1.75012149941148e+001,-3.98468968890734e+000

1.43204011348474e+005,-1.75014912262522e+001,-4.03991429581068e+000

1.45203064850745e+005,-1.75017741712518e+001,-4.09589537099340e+000

1.47230024099979e+005,-1.75020639684824e+001,-4.15264301669592e+000

1.49285278645888e+005,-1.75023607591930e+001,-4.21016746561656e+000

1.51369223476094e+005,-1.75026646865022e+001,-4.26847908272993e+000

1.53482259092041e+005,-1.75029758953860e+001,-4.32758836714745e+000

1.55624791585964e+005,-1.75032945326656e+001,-4.38750595402380e+000

1.57797232718936e+005,-1.75036207469944e+001,-4.44824261650728e+000

1.59999999999999e+005,-1.75039546888445e+001,-4.50980926773865e+000

1.62233516766403e+005,-1.75042965104924e+001,-4.57221696289820e+000

1.64498212264969e+005,-1.75046463660060e+001,-4.63547690130366e+000

1.66794521734578e+005,-1.75050044112294e+001,-4.69960042856106e+000

1.69122886489819e+005,-1.75053708037702e+001,-4.76459903876757e+000

1.71483754005805e+005,-1.75057457029851e+001,-4.83048437677190e+000

1.73877578004168e+005,-1.75061292699681e+001,-4.89726824048977e+000

1.76304818540256e+005,-1.75065216675377e+001,-4.96496258327993e+000

1.78765942091554e+005,-1.75069230602266e+001,-5.03357951637913e+000

1.81261421647326e+005,-1.75073336142720e+001,-5.10313131139862e+000

1.83791736799524e+005,-1.75077534976081e+001,-5.17363040288515e+000

1.86357373834951e+005,-1.75081828798601e+001,-5.24508939094525e+000

1.88958825828723e+005,-1.75086219323408e+001,-5.31752104393632e+000

1.91596592739027e+005,-1.75090708280502e+001,-5.39093830122447e+000

1.94271181503206e+005,-1.75095297416773e+001,-5.46535427601134e+000

1.96983106135185e+005,-1.75099988496064e+001,-5.54078225822989e+000

1.99732887824256e+005,-1.75104783299263e+001,-5.61723571751155e+000

2.02521055035243e+005,-1.75109683624443e+001,-5.69472830622403e+000

2.05348143610063e+005,-1.75114691287048e+001,-5.77327386258228e+000

2.08214696870707e+005,-1.75119808120133e+001,-5.85288641383151e+000

2.11121265723661e+005,-1.75125035974654e+001,-5.93358017950425e+000

2.14068408765776e+005,-1.75130376719826e+001,-6.01536957475099e+000

2.17056692391625e+005,-1.75135832243543e+001,-6.09826921374452e+000

2.20086690902357e+005,-1.75141404452875e+001,-6.18229391315855e+000

2.23158986616063e+005,-1.75147095274633e+001,-6.26745869572004e+000

2.26274169979693e+005,-1.75152906656023e+001,-6.35377879383452e+000

2.29432839682530e+005,-1.75158840565388e+001,-6.44126965328493e+000

2.32635602771247e+005,-1.75164898993035e+001,-6.52994693700164e+000

2.35883074766574e+005,-1.75171083952168e+001,-6.61982652890454e+000

2.39175879781588e+005,-1.75177397479924e+001,-6.71092453781408e+000

2.42514650641661e+005,-1.75183841638511e+001,-6.80325730143118e+000

2.45900029006080e+005,-1.75190418516473e+001,-6.89684139038361e+000

2.49332665491357e+005,-1.75197130230061e+001,-6.99169361233755e+000

2.52813219796278e+005,-1.75203978924742e+001,-7.08783101617159e+000

2.56342360828676e+005,-1.75210966776828e+001,-7.18527089621145e+000

2.59920766833993e+005,-1.75218095995249e+001,-7.28403079652142e+000

2.63549125525621e+005,-1.75225368823463e+001,-7.38412851525216e+000

2.67228134217075e+005,-1.75232787541503e+001,-7.48558210904016e+000

2.70958499956006e+005,-1.75240354468193e+001,-7.58840989745416e+000

2.74740939660078e+005,-1.75248071963494e+001,-7.69263046748910e+000

2.78576180254757e+005,-1.75255942431028e+001,-7.79826267810023e+000

2.82464958813007e+005,-1.75263968320747e+001,-7.90532566477533e+000

2.86408022696948e+005,-1.75272152131780e+001,-8.01383884413995e+000

2.90406129701488e+005,-1.75280496415436e+001,-8.12382191859376e+000

2.94460048199957e+005,-1.75289003778385e+001,-8.23529488096931e+000

2.98570557291775e+005,-1.75297676886007e+001,-8.34827801921485e+000

3.02738446952187e+005,-1.75306518465917e+001,-8.46279192108953e+000

3.06964518184081e+005,-1.75315531311662e+001,-8.57885747887382e+000

3.11249583171928e+005,-1.75324718286599e+001,-8.69649589408349e+000

3.15594465437872e+005,-1.75334082327945e+001,-8.81572868218756e+000

3.19999999999997e+005,-1.75343626451010e+001,-8.93657767732210e+000

3.24467033532806e+005,-1.75353353753597e+001,-9.05906503699739e+000

3.28996424529938e+005,-1.75363267420588e+001,-9.18321324679170e+000

3.33589043469155e+005,-1.75373370728693e+001,-9.30904512502886e+000

3.38245772979638e+005,-1.75383667051385e+001,-9.43658382743265e+000

3.42967508011610e+005,-1.75394159863991e+001,-9.56585285175649e+000

3.47755156008335e+005,-1.75404852748960e+001,-9.69687604238020e+000

3.52609637080511e+005,-1.75415749401291e+001,-9.82967759487310e+000

3.57531884183106e+005,-1.75426853634128e+001,-9.96428206051710e+000

3.62522843294651e+005,-1.75438169384503e+001,-1.01007143507861e+001

3.67583473599047e+005,-1.75449700719240e+001,-1.02389997417789e+001

3.72714747669902e+005,-1.75461451841004e+001,-1.03791638786006e+001

3.77917651657445e+005,-1.75473427094495e+001,-1.05212327796903e+001

3.83193185478053e+005,-1.75485630972783e+001,-1.06652328410913e+001

3.88542363006410e+005,-1.75498068123771e+001,-1.08111908406618e+001

3.93966212270369e+005,-1.75510743356794e+001,-1.09591339422220e+001

3.99465775648511e+005,-1.75523661649334e+001,-1.11090896996373e+001

4.05042110070485e+005,-1.75536828153856e+001,-1.12610860608332e+001

4.10696287220124e+005,-1.75550248204757e+001,-1.14151513717437e+001

4.16429393741414e+005,-1.75563927325414e+001,-1.15713143801866e+001

4.22242531447321e+005,-1.75577871235340e+001,-1.17296042396700e+001

4.28136817531551e+005,-1.75592085857432e+001,-1.18900505131251e+001

4.34113384783250e+005,-1.75606577325300e+001,-1.20526831765669e+001

4.40173381804713e+005,-1.75621351990695e+001,-1.22175326226812e+001

4.46317973232124e+005,-1.75636416431001e+001,-1.23846296643382e+001

4.52548339959385e+005,-1.75651777456807e+001,-1.25540055380333e+001

4.58865679365059e+005,-1.75667442119544e+001,-1.27256919072549e+001

4.65271205542494e+005,-1.75683417719190e+001,-1.28997208657790e+001

4.71766149533147e+005,-1.75699711812031e+001,-1.30761249408925e+001

4.78351759563174e+005,-1.75716332218478e+001,-1.32549370965466e+001

4.85029301283321e+005,-1.75733287030938e+001,-1.34361907364384e+001

4.91800058012158e+005,-1.75750584621729e+001,-1.36199197070254e+001

4.98665330982714e+005,-1.75768233651046e+001,-1.38061583004702e+001

5.05626439592555e+005,-1.75786243074971e+001,-1.39949412575215e+001

5.12684721657352e+005,-1.75804622153518e+001,-1.41863037703269e+001

5.19841533667984e+005,-1.75823380458723e+001,-1.43802814851838e+001

5.27098251051240e+005,-1.75842527882770e+001,-1.45769105052254e+001

5.34456268434150e+005,-1.75862074646157e+001,-1.47762273930470e+001

5.41916999912011e+005,-1.75882031305896e+001,-1.49782691732692e+001

