Freq.,VOut,OutRef

1.00000000000000e+004,-7.83615916976862e+000,-6.65502611310885e-002

1.01395947979003e+004,-7.83616015309156e+000,-6.74790977385326e-002

1.02811382665607e+004,-7.83616116402195e+000,-6.84208931906525e-002

1.04246576084112e+004,-7.83616220333379e+000,-6.93758280798083e-002

1.05701804056138e+004,-7.83616327182258e+000,-7.03440855069825e-002

1.07177346253629e+004,-7.83616437030614e+000,-7.13258511155554e-002

1.08673486252606e+004,-7.83616549962573e+000,-7.23213131215133e-002

1.10190511587661e+004,-7.83616666064493e+000,-7.33306623621704e-002

1.11728713807222e+004,-7.83616785425236e+000,-7.43540923173741e-002

1.13288388529580e+004,-7.83616908136135e+000,-7.53917991522560e-002

1.14869835499703e+004,-7.83617034291056e+000,-7.64439817550588e-002

1.16473358646846e+004,-7.83617163986472e+000,-7.75108417738808e-002

1.18099266142953e+004,-7.83617297321581e+000,-7.85925836516575e-002

1.19747870461893e+004,-7.83617434398354e+000,-7.96894146661885e-002

1.21419488439505e+004,-7.83617575321568e+000,-8.08015449716678e-002

1.23114441334492e+004,-7.83617720198927e+000,-8.19291876347085e-002

1.24833054890161e+004,-7.83617869141191e+000,-8.30725586723538e-002

1.26575659397028e+004,-7.83618022262156e+000,-8.42318770978708e-002

1.28342589756290e+004,-7.83618179678817e+000,-8.54073649568926e-002

1.30134185544193e+004,-7.83618341511449e+000,-8.65992473693405e-002

1.31950791077289e+004,-7.83618507883597e+000,-8.78077525781455e-002

1.33792755478611e+004,-7.83618678922343e+000,-8.90331119796950e-002

1.35660432744767e+004,-7.83618854758263e+000,-9.02755601762699e-002

1.37554181813974e+004,-7.83619035525567e+000,-9.15353350165466e-002

1.39474366635040e+004,-7.83619221362221e+000,-9.28126776389084e-002

1.41421356237309e+004,-7.83619412410010e+000,-9.41078325179026e-002

1.43395524801583e+004,-7.83619608814707e+000,-9.54210475058739e-002

1.45397251732031e+004,-7.83619810726064e+000,-9.67525738863920e-002

1.47426921729110e+004,-7.83620018298054e+000,-9.81026664121537e-002

1.49484924863494e+004,-7.83620231688934e+000,-9.94715833551741e-002

1.51571656651040e+004,-7.83620451061307e+000,-1.00859586558242e-001

1.53687518128801e+004,-7.83620676582362e+000,-1.02266941475195e-001

1.55832915932100e+004,-7.83620908423877e+000,-1.03693917227652e-001

1.58008262372675e+004,-7.83621146762412e+000,-1.05140786650167e-001

1.60213975517924e+004,-7.83621391779462e+000,-1.06607826338930e-001

1.62450479271247e+004,-7.83621643661509e+000,-1.08095316707094e-001

1.64718203453514e+004,-7.83621902600215e+000,-1.09603542033671e-001

1.67017583885674e+004,-7.83622168792590e+000,-1.11132790512461e-001

1.69349062472505e+004,-7.83622442441050e+000,-1.12683354311225e-001

1.71713087287550e+004,-7.83622723753671e+000,-1.14255529617428e-001

1.74110112659224e+004,-7.83623012944257e+000,-1.15849616697844e-001

1.76540599258131e+004,-7.83623310232521e+000,-1.17465919951794e-001

1.79005014185594e+004,-7.83623615844302e+000,-1.19104747961809e-001

1.81503831063432e+004,-7.83623930011617e+000,-1.20766413557933e-001

1.84037530124975e+004,-7.83624252972926e+000,-1.22451233867087e-001

1.86606598307361e+004,-7.83624584973286e+000,-1.24159530372374e-001

1.89211529345119e+004,-7.83624926264538e+000,-1.25891628969432e-001

1.91852823865052e+004,-7.83625277105409e+000,-1.27647860031036e-001

1.94530989482457e+004,-7.83625637761819e+000,-1.29428558458374e-001

1.97246540898671e+004,-7.83626008506971e+000,-1.31234063747656e-001

1.99999999999999e+004,-7.83626389621652e+000,-1.33064720043603e-001

2.02791895958005e+004,-7.83626781394327e+000,-1.34920876208589e-001

2.05622765331213e+004,-7.83627184121417e+000,-1.36802885879761e-001

2.08493152168224e+004,-7.83627598107518e+000,-1.38711107531479e-001

2.11403608112276e+004,-7.83628023665536e+000,-1.40645904543702e-001

2.14354692507258e+004,-7.83628461117046e+000,-1.42607645258753e-001

2.17346972505211e+004,-7.83628910792407e+000,-1.44596703052086e-001

2.20381023175322e+004,-7.83629373031027e+000,-1.46613456397176e-001

2.23457427614443e+004,-7.83629848181655e+000,-1.48658288927873e-001

2.26576777059159e+004,-7.83630336602551e+000,-1.50731589511219e-001

2.29739670999406e+004,-7.83630838661816e+000,-1.52833752310144e-001

2.32946717293690e+004,-7.83631354737581e+000,-1.54965176855894e-001

2.36198532285905e+004,-7.83631885218357e+000,-1.57126268113193e-001

2.39495740923785e+004,-7.83632430503195e+000,-1.59317436556445e-001

2.42838976879009e+004,-7.83632991002109e+000,-1.61539098232281e-001

2.46228882668982e+004,-7.83633567136212e+000,-1.63791674839737e-001

2.49666109780322e+004,-7.83634159338143e+000,-1.66075593794918e-001

2.53151318794055e+004,-7.83634768052297e+000,-1.68391288308022e-001

2.56685179512580e+004,-7.83635393735114e+000,-1.70739197458224e-001

2.60268371088386e+004,-7.83636036855478e+000,-1.73119766263201e-001

2.63901582154578e+004,-7.83636697894956e+000,-1.75533445759470e-001

2.67585510957221e+004,-7.83637377348195e+000,-1.77980693074626e-001

2.71320865489533e+004,-7.83638075723201e+000,-1.80461971506162e-001

2.75108363627948e+004,-7.83638793541748e+000,-1.82977750597651e-001

2.78948733270080e+004,-7.83639531339658e+000,-1.85528506218948e-001

2.82842712474618e+004,-7.83640289667270e+000,-1.88114720640324e-001

2.86791049603164e+004,-7.83641069089701e+000,-1.90736882617555e-001

2.90794503464061e+004,-7.83641870187315e+000,-1.93395487467814e-001

2.94853843458219e+004,-7.83642693556039e+000,-1.96091037154653e-001

2.98969849726987e+004,-7.83643539807836e+000,-1.98824040364902e-001

3.03143313302078e+004,-7.83644409571041e+000,-2.01595012596125e-001

3.07375036257601e+004,-7.83645303490844e+000,-2.04404476234411e-001

3.11665831864199e+004,-7.83646222229665e+000,-2.07252960641990e-001

3.16016524745350e+004,-7.83647166467597e+000,-2.10141002242205e-001

3.20427951035848e+004,-7.83648136902890e+000,-2.13069144599328e-001

3.24900958542493e+004,-7.83649134252354e+000,-2.16037938510427e-001

3.29436406907028e+004,-7.83650159251842e+000,-2.19047942088417e-001

3.34035167771346e+004,-7.83651212656747e+000,-2.22099720849018e-001

3.38698124945009e+004,-7.83652295242453e+000,-2.25193847799657e-001

3.43426174575100e+004,-7.83653407804838e+000,-2.28330903526972e-001

3.48220225318448e+004,-7.83654551160810e+000,-2.31511476284192e-001

3.53081198516260e+004,-7.83655726148750e+000,-2.34736162084616e-001

3.58010028371187e+004,-7.83656933629117e+000,-2.38005564786259e-001

3.63007662126863e+004,-7.83658174484924e+000,-2.41320296186672e-001

3.68075060249948e+004,-7.83659449622305e+000,-2.44680976111935e-001

3.73213196614721e+004,-7.83660759971064e+000,-2.48088232508557e-001

3.78423058690237e+004,-7.83662106485281e+000,-2.51542701533652e-001

3.83705647730104e+004,-7.83663490143820e+000,-2.55045027650628e-001

3.89061978964912e+004,-7.83664911950956e+000,-2.58595863720741e-001

3.94493081797342e+004,-7.83666372936973e+000,-2.62195871095205e-001

3.99999999999998e+004,-7.83667874158775e+000,-2.65845719709357e-001

4.05583791916010e+004,-7.83669416700465e+000,-2.69546088178781e-001

4.11245530662425e+004,-7.83671001674048e+000,-2.73297663889874e-001

4.16986304336447e+004,-7.83672630219985e+000,-2.77101143098446e-001

4.22807216224550e+004,-7.83674303507904e+000,-2.80957231022112e-001

4.28709385014515e+004,-7.83676022737234e+000,-2.84866641936375e-001

4.34693945010421e+004,-7.83677789137883e+000,-2.88830099269861e-001

4.40762046350642e+004,-7.83679603970911e+000,-2.92848335699645e-001

4.46914855228886e+004,-7.83681468529210e+000,-2.96922093248659e-001

4.53153554118317e+004,-7.83683384138239e+000,-3.01052123377978e-001

4.59479341998812e+004,-7.83685352156675e+000,-3.05239187087338e-001

4.65893434587380e+004,-7.83687373977174e+000,-3.09484055007230e-001

4.72397064571810e+004,-7.83689451027090e+000,-3.13787507496257e-001

4.78991481847569e+004,-7.83691584769176e+000,-3.18150334737845e-001

4.85677953758016e+004,-7.83693776702348e+000,-3.22573336835303e-001

4.92457765337964e+004,-7.83696028362455e+000,-3.27057323906314e-001

4.99332219560642e+004,-7.83698341322979e+000,-3.31603116180493e-001

5.06302637588109e+004,-7.83700717195841e+000,-3.36211544093508e-001

5.13370359025159e+004,-7.83703157632160e+000,-3.40883448380828e-001

5.20536742176771e+004,-7.83705664323014e+000,-3.45619680174427e-001

5.27803164309155e+004,-7.83708239000193e+000,-3.50421101097126e-001

5.35171021914442e+004,-7.83710883437052e+000,-3.55288583353006e-001

5.42641730979066e+004,-7.83713599449210e+000,-3.60223009825148e-001

5.50216727255895e+004,-7.83716388895382e+000,-3.65225274165390e-001

5.57897466540159e+004,-7.83719253678163e+000,-3.70296280887384e-001

5.65685424949235e+004,-7.83722195744816e+000,-3.75436945456960e-001

5.73582099206328e+004,-7.83725217088024e+000,-3.80648194385548e-001

5.81589006928121e+004,-7.83728319746712e+000,-3.85930965317741e-001

5.89707686916437e+004,-7.83731505806844e+000,-3.91286207119355e-001

5.97939699453972e+004,-7.83734777402115e+000,-3.96714879970785e-001

6.06286626604156e+004,-7.83738136714826e+000,-4.02217955447876e-001

6.14750072515201e+004,-7.83741585976574e+000,-4.07796416612770e-001

6.23331663728396e+004,-7.83745127469041e+000,-4.13451258097232e-001

6.32033049490698e+004,-7.83748763524733e+000,-4.19183486186426e-001

6.40855902071694e+004,-7.83752496527696e+000,-4.24994118903064e-001

6.49801917084985e+004,-7.83756328914254e+000,-4.30884186088107e-001

6.58872813814055e+004,-7.83760263173705e+000,-4.36854729481310e-001

6.68070335542691e+004,-7.83764301849022e+000,-4.42906802798481e-001

6.77396249890018e+004,-7.83768447537467e+000,-4.49041471812922e-001

6.86852349150199e+004,-7.83772702891283e+000,-4.55259814427984e-001

6.96440450636895e+004,-7.83777070618315e+000,-4.61562920751285e-001

7.06162397032520e+004,-7.83781553482550e+000,-4.67951893170831e-001

7.16020056742374e+004,-7.83786154304720e+000,-4.74427846423323e-001

7.26015324253724e+004,-7.83790875962804e+000,-4.80991907666097e-001

7.36150120499896e+004,-7.83795721392545e+000,-4.87645216541758e-001

7.46426393229441e+004,-7.83800693587877e+000,-4.94388925248034e-001

7.56846117380472e+004,-7.83805795601346e+000,-5.01224198599611e-001

7.67411295460207e+004,-7.83811030544472e+000,-5.08152214091647e-001

7.78123957929823e+004,-7.83816401588077e+000,-5.15174161959955e-001

7.88986163594682e+004,-7.83821911962501e+000,-5.22291245242094e-001

7.99999999999995e+004,-7.83827564957874e+000,-5.29504679830760e-001

8.11167583832018e+004,-7.83833363924216e+000,-5.36815694531671e-001

8.22491061324848e+004,-7.83839312271529e+000,-5.44225531116128e-001

8.33972608672892e+004,-7.83845413469799e+000,-5.51735444373291e-001

8.45614432449099e+004,-7.83851671048932e+000,-5.59346702159304e-001

8.57418770029029e+004,-7.83858088598650e+000,-5.67060585444441e-001

8.69387890020841e+004,-7.83864669768192e+000,-5.74878388361928e-001

8.81524092701283e+004,-7.83871418266071e+000,-5.82801418249868e-001

8.93829710457770e+004,-7.83878337859617e+000,-5.90830995696808e-001

9.06307108236633e+004,-7.83885432374512e+000,-5.98968454580713e-001

9.18958683997622e+004,-7.83892705694124e+000,-6.07215142112467e-001

9.31786869174758e+004,-7.83900161758848e+000,-6.15572418871788e-001

9.44794129143618e+004,-7.83907804565188e+000,-6.24041658849103e-001

9.57982963695136e+004,-7.83915638164891e+000,-6.32624249476747e-001

9.71355907516031e+004,-7.83923666663783e+000,-6.41321591671100e-001

9.84915530675926e+004,-7.83931894220579e+000,-6.50135099864271e-001

9.98664439121282e+004,-7.83940325045482e+000,-6.59066202042995e-001

1.01260527517622e+005,-7.83948963398747e+000,-6.68116339778384e-001

1.02674071805032e+005,-7.83957813588917e+000,-6.77286968267197e-001

1.04107348435354e+005,-7.83966879971054e+000,-6.86579556364376e-001

1.05560632861831e+005,-7.83976166944736e+000,-6.95995586619711e-001

1.07034204382888e+005,-7.83985678951851e+000,-7.05536555317389e-001

1.08528346195813e+005,-7.83995420474298e+000,-7.15203972512456e-001

1.10043345451179e+005,-7.84005396031386e+000,-7.24999362074855e-001

1.11579493308032e+005,-7.84015610177126e+000,-7.34924261731046e-001

1.13137084989847e+005,-7.84026067497285e+000,-7.44980223111007e-001

1.14716419841265e+005,-7.84036772606228e+000,-7.55168811797754e-001

1.16317801385624e+005,-7.84047730143539e+000,-7.65491607381470e-001

1.17941537383287e+005,-7.84058944770454e+000,-7.75950203516549e-001

1.19587939890794e+005,-7.84070421165995e+000,-7.86546207985836e-001

1.21257325320831e+005,-7.84082164022933e+000,-7.97281242770113e-001

1.22950014503040e+005,-7.84094178043471e+000,-8.08156944121863e-001

1.24666332745679e+005,-7.84106467934719e+000,-8.19174962648158e-001

1.26406609898139e+005,-7.84119038403819e+000,-8.30336963403461e-001

1.28171180414339e+005,-7.84131894152926e+000,-8.41644625987040e-001

1.29960383416997e+005,-7.84145039873834e+000,-8.53099644653091e-001

1.31774562762811e+005,-7.84158480242390e+000,-8.64703728430290e-001

1.33614067108538e+005,-7.84172219912571e+000,-8.76458601254290e-001

1.35479249978003e+005,-7.84186263510349e+000,-8.88366002110243e-001

1.37370469830040e+005,-7.84200615627223e+000,-9.00427685191523e-001

1.39288090127379e+005,-7.84215280813476e+000,-9.12645420072149e-001

1.41232479406504e+005,-7.84230263571159e+000,-9.25020991894961e-001

1.43204011348474e+005,-7.84245568346773e+000,-9.37556201576835e-001

1.45203064850745e+005,-7.84261199523660e+000,-9.50252866032444e-001

1.47230024099979e+005,-7.84277161414110e+000,-9.63112818417699e-001

1.49285278645888e+005,-7.84293458251181e+000,-9.76137908392910e-001

1.51369223476094e+005,-7.84310094180228e+000,-9.89330002409155e-001

1.53482259092041e+005,-7.84327073250136e+000,-1.00269098401841e+000

1.55624791585964e+005,-7.84344399404324e+000,-1.01622275420618e+000

1.57797232718936e+005,-7.84362076471385e+000,-1.02992723175463e+000

1.59999999999999e+005,-7.84380108155574e+000,-1.04380635362808e+000

1.62233516766403e+005,-7.84398498026947e+000,-1.05786207539158e+000

1.64498212264969e+005,-7.84417249511276e+000,-1.07209637165993e+000

1.66794521734578e+005,-7.84436365879764e+000,-1.08651123657511e+000

1.69122886489819e+005,-7.84455850238459e+000,-1.10110868432273e+000

1.71483754005805e+005,-7.84475705517540e+000,-1.11589074967798e+000

1.73877578004168e+005,-7.84495934460332e+000,-1.13085948859214e+000

1.76304818540256e+005,-7.84516539612201e+000,-1.14601697881442e+000

1.78765942091554e+005,-7.84537523309228e+000,-1.16136532055497e+000

1.81261421647326e+005,-7.84558887666810e+000,-1.17690663718663e+000

1.83791736799524e+005,-7.84580634568060e+000,-1.19264307599047e+000

1.86357373834951e+005,-7.84602765652203e+000,-1.20857680894288e+000

1.88958825828723e+005,-7.84625282302799e+000,-1.22471003354980e+000

1.91596592739027e+005,-7.84648185636019e+000,-1.24104497372305e+000

1.94271181503206e+005,-7.84671476488846e+000,-1.25758388070615e+000

1.96983106135185e+005,-7.84695155407279e+000,-1.27432903404838e+000

1.99732887824256e+005,-7.84719222634649e+000,-1.29128274262455e+000

2.02521055035243e+005,-7.84743678099936e+000,-1.30844734570779e+000

2.05348143610063e+005,-7.84768521406263e+000,-1.32582521408980e+000

2.08214696870707e+005,-7.84793751819493e+000,-1.34341875125365e+000

2.11121265723661e+005,-7.84819368257042e+000,-1.36123039459776e+000

2.14068408765776e+005,-7.84845369276911e+000,-1.37926261670965e+000

2.17056692391625e+005,-7.84871753066969e+000,-1.39751792669422e+000

2.20086690902357e+005,-7.84898517434558e+000,-1.41599887155152e+000

2.23158986616063e+005,-7.84925659796450e+000,-1.43470803760626e+000

2.26274169979693e+005,-7.84953177169174e+000,-1.45364805198953e+000

2.29432839682530e+005,-7.84981066159776e+000,-1.47282158417079e+000

2.32635602771247e+005,-7.85009322957080e+000,-1.49223134753834e+000

2.35883074766574e+005,-7.85037943323423e+000,-1.51188010103135e+000

2.39175879781588e+005,-7.85066922587006e+000,-1.53177065081592e+000

2.42514650641661e+005,-7.85096255634787e+000,-1.55190585201187e+000

2.45900029006080e+005,-7.85125936906057e+000,-1.57228861046040e+000

2.49332665491357e+005,-7.85155960386691e+000,-1.59292188453751e+000

2.52813219796278e+005,-7.85186319604110e+000,-1.61380868700787e+000

2.56342360828676e+005,-7.85217007623036e+000,-1.63495208691556e+000

2.59920766833993e+005,-7.85248017041990e+000,-1.65635521151584e+000

2.63549125525621e+005,-7.85279339990693e+000,-1.67802124823515e+000

2.67228134217075e+005,-7.85310968128282e+000,-1.69995344666645e+000

2.70958499956006e+005,-7.85342892642423e+000,-1.72215512059112e+000

2.74740939660078e+005,-7.85375104249378e+000,-1.74462965002542e+000

2.78576180254757e+005,-7.85407593194996e+000,-1.76738048328856e+000

2.82464958813007e+005,-7.85440349256659e+000,-1.79041113909007e+000

2.86408022696948e+005,-7.85473361746249e+000,-1.81372520862917e+000

2.90406129701488e+005,-7.85506619514069e+000,-1.83732635770732e+000

2.94460048199957e+005,-7.85540110953818e+000,-1.86121832884492e+000

2.98570557291775e+005,-7.85573824008538e+000,-1.88540494340277e+000

3.02738446952187e+005,-7.85607746177596e+000,-1.90989010370106e+000

3.06964518184081e+005,-7.85641864524681e+000,-1.93467779513254e+000

3.11249583171928e+005,-7.85676165686801e+000,-1.95977208826648e+000

3.15594465437872e+005,-7.85710635884267e+000,-1.98517714093857e+000

3.19999999999997e+005,-7.85745260931627e+000,-2.01089720032416e+000

3.24467033532806e+005,-7.85780026249628e+000,-2.03693660498492e+000

3.28996424529938e+005,-7.85814916878020e+000,-2.06329978689482e+000

3.33589043469155e+005,-7.85849917489298e+000,-2.08999127343242e+000

3.38245772979638e+005,-7.85885012403292e+000,-2.11701568933951e+000

3.42967508011610e+005,-7.85920185602579e+000,-2.14437775864252e+000

3.47755156008335e+005,-7.85955420748662e+000,-2.17208230653242e+000

3.52609637080511e+005,-7.85990701198888e+000,-2.20013426119867e+000

3.57531884183106e+005,-7.86026010023990e+000,-2.22853865561768e+000

3.62522843294651e+005,-7.86061330026318e+000,-2.25730062928700e+000

3.67583473599047e+005,-7.86096643758536e+000,-2.28642542990930e+000

3.72714747669902e+005,-7.86131933542870e+000,-2.31591841501735e+000

3.77917651657445e+005,-7.86167181490768e+000,-2.34578505354210e+000

3.83193185478053e+005,-7.86202369522848e+000,-2.37603092732251e+000

3.88542363006410e+005,-7.86237479389208e+000,-2.40666173255031e+000

3.93966212270369e+005,-7.86272492689904e+000,-2.43768328115394e+000

3.99465775648511e+005,-7.86307390895524e+000,-2.46910150212052e+000

4.05042110070485e+005,-7.86342155367849e+000,-2.50092244275134e+000

4.10696287220124e+005,-7.86376767380503e+000,-2.53315226985342e+000

4.16429393741414e+005,-7.86411208139435e+000,-2.56579727086985e+000

4.22242531447321e+005,-7.86445458803287e+000,-2.59886385494292e+000

4.28136817531551e+005,-7.86479500503446e+000,-2.63235855391877e+000

4.34113384783250e+005,-7.86513314363792e+000,-2.66628802328824e+000

4.40173381804713e+005,-7.86546881520025e+000,-2.70065904306936e+000

4.46317973232124e+005,-7.86580183138494e+000,-2.73547851863340e+000

4.52548339959385e+005,-7.86613200434502e+000,-2.77075348147297e+000

4.58865679365059e+005,-7.86645914689946e+000,-2.80649108992158e+000

4.65271205542494e+005,-7.86678307270289e+000,-2.84269862982017e+000

4.71766149533147e+005,-7.86710359640770e+000,-2.87938351513985e+000

4.78351759563174e+005,-7.86742053381826e+000,-2.91655328855891e+000

4.85029301283321e+005,-7.86773370203597e+000,-2.95421562200401e+000

4.91800058012158e+005,-7.86804291959563e+000,-2.99237831715273e+000

4.98665330982714e+005,-7.86834800659180e+000,-3.03104930590725e+000

5.05626439592555e+005,-7.86864878479523e+000,-3.07023665083964e+000

5.12684721657352e+005,-7.86894507775865e+000,-3.10994854561579e+000

5.19841533667984e+005,-7.86923671091198e+000,-3.15019331539940e+000

5.27098251051240e+005,-7.86952351164624e+000,-3.19097941724477e+000

5.34456268434150e+005,-7.86980530938613e+000,-3.23231544047901e+000

5.41916999912011e+005,-7.87008193565107e+000,-3.27421010708101e+000

