Freq.,VOut,OutRef

1.00000000000000e+004,-9.28304087022439e+000,-9.24282629843454e-002

1.01395947979003e+004,-9.28304114968125e+000,-9.37184571589468e-002

1.02811382665607e+004,-9.28304143698247e+000,-9.50266593831915e-002

1.04246576084112e+004,-9.28304173234751e+000,-9.63531209410365e-002

1.05701804056138e+004,-9.28304203600257e+000,-9.76980966164288e-002

1.07177346253629e+004,-9.28304234817961e+000,-9.90618447481829e-002

1.08673486252606e+004,-9.28304266911772e+000,-1.00444627273642e-001

1.10190511587661e+004,-9.28304299906223e+000,-1.01846709784063e-001

1.11728713807222e+004,-9.28304333826533e+000,-1.03268361572891e-001

1.13288388529580e+004,-9.28304368698642e+000,-1.04709855686665e-001

1.14869835499703e+004,-9.28304404549191e+000,-1.06171468979248e-001

1.16473358646846e+004,-9.28304441405577e+000,-1.07653482162954e-001

1.18099266142953e+004,-9.28304479295981e+000,-1.09156179861143e-001

1.19747870461893e+004,-9.28304518249343e+000,-1.10679850665933e-001

1.21419488439505e+004,-9.28304558295392e+000,-1.12224787193015e-001

1.23114441334492e+004,-9.28304599464755e+000,-1.13791286130899e-001

1.24833054890161e+004,-9.28304641788828e+000,-1.15379648308917e-001

1.26575659397028e+004,-9.28304685299927e+000,-1.16990178744873e-001

1.28342589756290e+004,-9.28304730031260e+000,-1.18623186707575e-001

1.30134185544193e+004,-9.28304776016981e+000,-1.20278985773696e-001

1.31950791077289e+004,-9.28304823292146e+000,-1.21957893892161e-001

1.33792755478611e+004,-9.28304871892847e+000,-1.23660233437312e-001

1.35660432744767e+004,-9.28304921856108e+000,-1.25386331279911e-001

1.37554181813974e+004,-9.28304973220056e+000,-1.27136518838978e-001

1.39474366635040e+004,-9.28305026023811e+000,-1.28911132154350e-001

1.41421356237309e+004,-9.28305080307640e+000,-1.30710511943361e-001

1.43395524801583e+004,-9.28305136112894e+000,-1.32535003670726e-001

1.45397251732031e+004,-9.28305193482056e+000,-1.34384957613195e-001

1.47426921729110e+004,-9.28305252458842e+000,-1.36260728923211e-001

1.49484924863494e+004,-9.28305313088109e+000,-1.38162677702721e-001

1.51571656651040e+004,-9.28305375416056e+000,-1.40091169061729e-001

1.53687518128801e+004,-9.28305439490055e+000,-1.42046573200882e-001

1.55832915932100e+004,-9.28305505358863e+000,-1.44029265470714e-001

1.58008262372675e+004,-9.28305573072546e+000,-1.46039626449358e-001

1.60213975517924e+004,-9.28305642682612e+000,-1.48078042009605e-001

1.62450479271247e+004,-9.28305714241921e+000,-1.50144903399967e-001

1.64718203453514e+004,-9.28305787804864e+000,-1.52240607310100e-001

1.67017583885674e+004,-9.28305863427287e+000,-1.54365555953836e-001

1.69349062472505e+004,-9.28305941166598e+000,-1.56520157140443e-001

1.71713087287550e+004,-9.28306021081812e+000,-1.58704824353284e-001

1.74110112659224e+004,-9.28306103233527e+000,-1.60919976831219e-001

1.76540599258131e+004,-9.28306187684045e+000,-1.63166039643658e-001

1.79005014185594e+004,-9.28306274497380e+000,-1.65443443773834e-001

1.81503831063432e+004,-9.28306363739306e+000,-1.67752626200135e-001

1.84037530124975e+004,-9.28306455477440e+000,-1.70094029976292e-001

1.86606598307361e+004,-9.28306549781214e+000,-1.72468104320898e-001

1.89211529345119e+004,-9.28306646722008e+000,-1.74875304696692e-001

1.91852823865052e+004,-9.28306746373125e+000,-1.77316092901600e-001

1.94530989482457e+004,-9.28306848809945e+000,-1.79790937149760e-001

1.97246540898671e+004,-9.28306954109847e+000,-1.82300312168552e-001

1.99999999999999e+004,-9.28307062352381e+000,-1.84844699280535e-001

2.02791895958005e+004,-9.28307173619267e+000,-1.87424586498532e-001

2.05622765331213e+004,-9.28307287994473e+000,-1.90040468616173e-001

2.08493152168224e+004,-9.28307405564263e+000,-1.92692847301866e-001

2.11403608112276e+004,-9.28307526417239e+000,-1.95382231195122e-001

2.14354692507258e+004,-9.28307650644472e+000,-1.98109135997606e-001

2.17346972505211e+004,-9.28307778339485e+000,-2.00874084575812e-001

2.20381023175322e+004,-9.28307909598359e+000,-2.03677607057019e-001

2.23457427614443e+004,-9.28308044519805e+000,-2.06520240928583e-001

2.26576777059159e+004,-9.28308183205251e+000,-2.09402531137434e-001

2.29739670999406e+004,-9.28308325758843e+000,-2.12325030198243e-001

2.32946717293690e+004,-9.28308472287574e+000,-2.15288298292461e-001

2.36198532285905e+004,-9.28308622901368e+000,-2.18292903373040e-001

2.39495740923785e+004,-9.28308777713103e+000,-2.21339421275612e-001

2.42838976879009e+004,-9.28308936838761e+000,-2.24428435819657e-001

2.46228882668982e+004,-9.28309100397413e+000,-2.27560538926115e-001

2.49666109780322e+004,-9.28309268511408e+000,-2.30736330720027e-001

2.53151318794055e+004,-9.28309441306374e+000,-2.33956419649070e-001

2.56685179512580e+004,-9.28309618911330e+000,-2.37221422594478e-001

2.60268371088386e+004,-9.28309801458805e+000,-2.40531964986013e-001

2.63901582154578e+004,-9.28309989084863e+000,-2.43888680920713e-001

2.67585510957221e+004,-9.28310181929269e+000,-2.47292213278285e-001

2.71320865489533e+004,-9.28310380135526e+000,-2.50743213843826e-001

2.75108363627948e+004,-9.28310583850998e+000,-2.54242343427678e-001

2.78948733270080e+004,-9.28310793226983e+000,-2.57790271989771e-001

2.82842712474618e+004,-9.28311008418844e+000,-2.61387678762309e-001

2.86791049603164e+004,-9.28311229586120e+000,-2.65035252375932e-001

2.90794503464061e+004,-9.28311456892567e+000,-2.68733690991072e-001

2.94853843458219e+004,-9.28311690506354e+000,-2.72483702421639e-001

2.98969849726987e+004,-9.28311930600079e+000,-2.76286004272747e-001

3.03143313302078e+004,-9.28312177350972e+000,-2.80141324066907e-001

3.07375036257601e+004,-9.28312430940946e+000,-2.84050399384160e-001

3.11665831864199e+004,-9.28312691556722e+000,-2.88013977995263e-001

3.16016524745350e+004,-9.28312959389975e+000,-2.92032818000166e-001

3.20427951035848e+004,-9.28313234637448e+000,-2.96107687967526e-001

3.24900958542493e+004,-9.28313517501041e+000,-3.00239367077792e-001

3.29436406907028e+004,-9.28313808187993e+000,-3.04428645264184e-001

3.34035167771346e+004,-9.28314106910955e+000,-3.08676323359810e-001

3.38698124945009e+004,-9.28314413888173e+000,-3.12983213243531e-001

3.43426174575100e+004,-9.28314729343584e+000,-3.17350137988614e-001

3.48220225318448e+004,-9.28315053506958e+000,-3.21777932014858e-001

3.53081198516260e+004,-9.28315386614048e+000,-3.26267441239558e-001

3.58010028371187e+004,-9.28315728906743e+000,-3.30819523231815e-001

3.63007662126863e+004,-9.28316080633187e+000,-3.35435047370042e-001

3.68075060249948e+004,-9.28316442047936e+000,-3.40114894999677e-001

3.73213196614721e+004,-9.28316813412099e+000,-3.44859959593672e-001

3.78423058690237e+004,-9.28317194993492e+000,-3.49671146915458e-001

3.83705647730104e+004,-9.28317587066844e+000,-3.54549375178925e-001

3.89061978964912e+004,-9.28317989913827e+000,-3.59495575222810e-001

3.94493081797342e+004,-9.28318403823352e+000,-3.64510690671130e-001

3.99999999999998e+004,-9.28318829091652e+000,-3.69595678106888e-001

4.05583791916010e+004,-9.28319266022471e+000,-3.74751507244293e-001

4.11245530662425e+004,-9.28319714927228e+000,-3.79979161102644e-001

4.16986304336447e+004,-9.28320176125152e+000,-3.85279636185071e-001

4.22807216224550e+004,-9.28320649943510e+000,-3.90653942653346e-001

4.28709385014515e+004,-9.28321136717735e+000,-3.96103104512221e-001

4.34693945010421e+004,-9.28321636791637e+000,-4.01628159788636e-001

4.40762046350642e+004,-9.28322150517517e+000,-4.07230160722455e-001

4.46914855228886e+004,-9.28322678256413e+000,-4.12910173948649e-001

4.53153554118317e+004,-9.28323220378257e+000,-4.18669280688014e-001

4.59479341998812e+004,-9.28323777262016e+000,-4.24508576942212e-001

4.65893434587380e+004,-9.28324349295950e+000,-4.30429173682206e-001

4.72397064571810e+004,-9.28324936877719e+000,-4.36432197050219e-001

4.78991481847569e+004,-9.28325540414615e+000,-4.42518788554350e-001

4.85677953758016e+004,-9.28326160323749e+000,-4.48690105270455e-001

4.92457765337964e+004,-9.28326797032197e+000,-4.54947320047045e-001

4.99332219560642e+004,-9.28327450977245e+000,-4.61291621707606e-001

5.06302637588109e+004,-9.28328122606517e+000,-4.67724215261877e-001

5.13370359025159e+004,-9.28328812378199e+000,-4.74246322113933e-001

5.20536742176771e+004,-9.28329520761236e+000,-4.80859180274272e-001

5.27803164309155e+004,-9.28330248235475e+000,-4.87564044577433e-001

5.35171021914442e+004,-9.28330995291896e+000,-4.94362186897003e-001

5.42641730979066e+004,-9.28331762432762e+000,-5.01254896366953e-001

5.50216727255895e+004,-9.28332550171825e+000,-5.08243479603359e-001

5.57897466540159e+004,-9.28333359034518e+000,-5.15329260928359e-001

5.65685424949235e+004,-9.28334189558092e+000,-5.22513582599454e-001

5.73582099206328e+004,-9.28335042291828e+000,-5.29797805038927e-001

5.81589006928121e+004,-9.28335917797219e+000,-5.37183307063596e-001

5.89707686916437e+004,-9.28336816648104e+000,-5.44671486123369e-001

5.97939699453972e+004,-9.28337739430871e+000,-5.52263758536571e-001

6.06286626604156e+004,-9.28338686744581e+000,-5.59961559731234e-001

6.14750072515201e+004,-9.28339659201178e+000,-5.67766344485944e-001

6.23331663728396e+004,-9.28340657425595e+000,-5.75679587177254e-001

6.32033049490698e+004,-9.28341682055915e+000,-5.83702782027013e-001

6.40855902071694e+004,-9.28342733743508e+000,-5.91837443352860e-001

6.49801917084985e+004,-9.28343813153182e+000,-6.00085105820684e-001

6.58872813814055e+004,-9.28344920963276e+000,-6.08447324702746e-001

6.68070335542691e+004,-9.28346057865793e+000,-6.16925676134923e-001

6.77396249890018e+004,-9.28347224566478e+000,-6.25521757380274e-001

6.86852349150199e+004,-9.28348421784955e+000,-6.34237187090329e-001

6.96440450636895e+004,-9.28349650254776e+000,-6.43073605575683e-001

7.06162397032520e+004,-9.28350910723501e+000,-6.52032675073997e-001

7.16020056742374e+004,-9.28352203952755e+000,-6.61116080023835e-001

7.26015324253724e+004,-9.28353530718240e+000,-6.70325527342197e-001

7.36150120499896e+004,-9.28354891809827e+000,-6.79662746699841e-001

7.46426393229441e+004,-9.28356288031497e+000,-6.89129490806687e-001

7.56846117380472e+004,-9.28357720201359e+000,-6.98727535695794e-001

7.67411295460207e+004,-9.28359189151625e+000,-7.08458681010987e-001

7.78123957929823e+004,-9.28360695728557e+000,-7.18324750298707e-001

7.88986163594682e+004,-9.28362240792399e+000,-7.28327591301740e-001

7.99999999999995e+004,-9.28363825217276e+000,-7.38469076257804e-001

8.11167583832018e+004,-9.28365449891066e+000,-7.48751102200921e-001

8.22491061324848e+004,-9.28367115715275e+000,-7.59175591264369e-001

8.33972608672892e+004,-9.28368823604869e+000,-7.69744490988508e-001

8.45614432449099e+004,-9.28370574488042e+000,-7.80459774633397e-001

8.57418770029029e+004,-9.28372369305992e+000,-7.91323441492902e-001

8.69387890020841e+004,-9.28374209012680e+000,-8.02337517212132e-001

8.81524092701283e+004,-9.28376094574484e+000,-8.13504054111618e-001

8.93829710457770e+004,-9.28378026969916e+000,-8.24825131510251e-001

9.06307108236633e+004,-9.28380007189177e+000,-8.36302856058474e-001

9.18958683997622e+004,-9.28382036233807e+000,-8.47939362068850e-001

9.31786869174758e+004,-9.28384115116171e+000,-8.59736811856349e-001

9.44794129143618e+004,-9.28386244859004e+000,-8.71697396078136e-001

9.57982963695136e+004,-9.28388426494801e+000,-8.83823334082286e-001

9.71355907516031e+004,-9.28390661065268e+000,-8.96116874255809e-001

9.84915530675926e+004,-9.28392949620641e+000,-9.08580294382420e-001

9.98664439121282e+004,-9.28395293218986e+000,-9.21215902000711e-001

1.01260527517622e+005,-9.28397692925431e+000,-9.34026034770311e-001

1.02674071805032e+005,-9.28400149811366e+000,-9.47013060840057e-001

1.04107348435354e+005,-9.28402664953521e+000,-9.60179379224836e-001

1.05560632861831e+005,-9.28405239433060e+000,-9.73527420184703e-001

1.07034204382888e+005,-9.28407874334546e+000,-9.87059645611279e-001

1.08528346195813e+005,-9.28410570744859e+000,-1.00077854941919e+000

1.10043345451179e+005,-9.28413329752059e+000,-1.01468665794343e+000

1.11579493308032e+005,-9.28416152444144e+000,-1.02878653034369e+000

1.13137084989847e+005,-9.28419039907757e+000,-1.04308075901391e+000

1.14716419841265e+005,-9.28421993226797e+000,-1.05757196999953e+000

1.16317801385624e+005,-9.28425013480966e+000,-1.07226282342052e+000

1.17941537383287e+005,-9.28428101744202e+000,-1.08715601390409e+000

1.19587939890794e+005,-9.28431259083068e+000,-1.10225427102039e+000

1.21257325320831e+005,-9.28434486555011e+000,-1.11756035973097e+000

1.22950014503040e+005,-9.28437785206560e+000,-1.13307708084156e+000

1.24666332745679e+005,-9.28441156071402e+000,-1.14880727146623e+000

1.26406609898139e+005,-9.28444600168399e+000,-1.16475380549697e+000

1.28171180414339e+005,-9.28448118499448e+000,-1.18091959408684e+000

1.29960383416997e+005,-9.28451712047324e+000,-1.19730758613709e+000

1.31774562762811e+005,-9.28455381773331e+000,-1.21392076879999e+000

1.33614067108538e+005,-9.28459128614908e+000,-1.23076216798801e+000

1.35479249978003e+005,-9.28462953483128e+000,-1.24783484889417e+000

1.37370469830040e+005,-9.28466857260040e+000,-1.26514191652614e+000

1.39288090127379e+005,-9.28470840795964e+000,-1.28268651624901e+000

1.41232479406504e+005,-9.28474904906629e+000,-1.30047183434208e+000

1.43204011348474e+005,-9.28479050370239e+000,-1.31850109856635e+000

1.45203064850745e+005,-9.28483277924385e+000,-1.33677757874877e+000

1.47230024099979e+005,-9.28487588262887e+000,-1.35530458737513e+000

1.49285278645888e+005,-9.28491982032500e+000,-1.37408548020115e+000

1.51369223476094e+005,-9.28496459829498e+000,-1.39312365687748e+000

1.53482259092041e+005,-9.28501022196202e+000,-1.41242256158698e+000

1.55624791585964e+005,-9.28505669617318e+000,-1.43198568370318e+000

1.57797232718936e+005,-9.28510402516235e+000,-1.45181655845981e+000

1.59999999999999e+005,-9.28515221251173e+000,-1.47191876764114e+000

1.62233516766403e+005,-9.28520126111254e+000,-1.49229594028799e+000

1.64498212264969e+005,-9.28525117312462e+000,-1.51295175342213e+000

1.66794521734578e+005,-9.28530194993482e+000,-1.53388993279068e+000

1.69122886489819e+005,-9.28535359211480e+000,-1.55511425362820e+000

1.71483754005805e+005,-9.28540609937783e+000,-1.57662854143985e+000

1.73877578004168e+005,-9.28545947053423e+000,-1.59843667280589e+000

1.76304818540256e+005,-9.28551370344682e+000,-1.62054257620530e+000

1.78765942091554e+005,-9.28556879498504e+000,-1.64295023286258e+000

1.81261421647326e+005,-9.28562474097832e+000,-1.66566367761818e+000

1.83791736799524e+005,-9.28568153616921e+000,-1.68868699981879e+000

1.86357373834951e+005,-9.28573917416558e+000,-1.71202434423431e+000

1.88958825828723e+005,-9.28579764739246e+000,-1.73567991199741e+000

1.91596592739027e+005,-9.28585694704354e+000,-1.75965796156785e+000

1.94271181503206e+005,-9.28591706303222e+000,-1.78396280972177e+000

1.96983106135185e+005,-9.28597798394252e+000,-1.80859883256736e+000

1.99732887824256e+005,-9.28603969697965e+000,-1.83357046658702e+000

2.02521055035243e+005,-9.28610218792107e+000,-1.85888220970294e+000

2.05348143610063e+005,-9.28616544106676e+000,-1.88453862237525e+000

2.08214696870707e+005,-9.28622943919070e+000,-1.91054432872074e+000

2.11121265723661e+005,-9.28629416349179e+000,-1.93690401766426e+000

2.14068408765776e+005,-9.28635959354564e+000,-1.96362244411630e+000

2.17056692391625e+005,-9.28642570725681e+000,-1.99070443017791e+000

2.20086690902357e+005,-9.28649248081181e+000,-2.01815486637377e+000

2.23158986616063e+005,-9.28655988863258e+000,-2.04597871291524e+000

2.26274169979693e+005,-9.28662790333132e+000,-2.07418100099048e+000

2.29432839682530e+005,-9.28669649566606e+000,-2.10276683408264e+000

2.32635602771247e+005,-9.28676563449767e+000,-2.13174138931681e+000

2.35883074766574e+005,-9.28683528674797e+000,-2.16110991883532e+000

2.39175879781588e+005,-9.28690541735935e+000,-2.19087775120138e+000

2.42514650641661e+005,-9.28697598925619e+000,-2.22105029282851e+000

2.45900029006080e+005,-9.28704696330765e+000,-2.25163302943989e+000

2.49332665491357e+005,-9.28711829829265e+000,-2.28263152755257e+000

2.52813219796278e+005,-9.28718995086647e+000,-2.31405143598972e+000

2.56342360828676e+005,-9.28726187552958e+000,-2.34589848741801e+000

2.59920766833993e+005,-9.28733402459884e+000,-2.37817849991026e+000

2.63549125525621e+005,-9.28740634818064e+000,-2.41089737853341e+000

2.67228134217075e+005,-9.28747879414667e+000,-2.44406111696011e+000

2.70958499956006e+005,-9.28755130811185e+000,-2.47767579910444e+000

2.74740939660078e+005,-9.28762383341541e+000,-2.51174760077787e+000

2.78576180254757e+005,-9.28769631110379e+000,-2.54628279136945e+000

2.82464958813007e+005,-9.28776867991698e+000,-2.58128773554382e+000

2.86408022696948e+005,-9.28784087627683e+000,-2.61676889496177e+000

2.90406129701488e+005,-9.28791283427878e+000,-2.65273283001644e+000

2.94460048199957e+005,-9.28798448568591e+000,-2.68918620158869e+000

2.98570557291775e+005,-9.28805575992574e+000,-2.72613577281933e+000

3.02738446952187e+005,-9.28812658409027e+000,-2.76358841089426e+000

3.06964518184081e+005,-9.28819688293809e+000,-2.80155108884650e+000

3.11249583171928e+005,-9.28826657889958e+000,-2.84003088736958e+000

3.15594465437872e+005,-9.28833559208469e+000,-2.87903499664320e+000

3.19999999999997e+005,-9.28840384029314e+000,-2.91857071817025e+000

3.24467033532806e+005,-9.28847123902717e+000,-2.95864546662247e+000

3.28996424529938e+005,-9.28853770150665e+000,-2.99926677169549e+000

3.33589043469155e+005,-9.28860313868636e+000,-3.04044227997117e+000

3.38245772979638e+005,-9.28866745927549e+000,-3.08217975678658e+000

3.42967508011610e+005,-9.28873056975882e+000,-3.12448708810775e+000

3.47755156008335e+005,-9.28879237441998e+000,-3.16737228241002e+000

3.52609637080511e+005,-9.28885277536606e+000,-3.21084347255993e+000

3.57531884183106e+005,-9.28891167255363e+000,-3.25490891770218e+000

3.62522843294651e+005,-9.28896896381607e+000,-3.29957700514759e+000

3.67583473599047e+005,-9.28902454489171e+000,-3.34485625226353e+000

3.72714747669902e+005,-9.28907830945254e+000,-3.39075530836692e+000

3.77917651657445e+005,-9.28913014913375e+000,-3.43728295661522e+000

3.83193185478053e+005,-9.28917995356317e+000,-3.48444811590116e+000

3.88542363006410e+005,-9.28922761039052e+000,-3.53225984274714e+000

3.93966212270369e+005,-9.28927300531683e+000,-3.58072733319896e+000

3.99465775648511e+005,-9.28931602212258e+000,-3.62985992472213e+000

4.05042110070485e+005,-9.28935654269539e+000,-3.67966709809754e+000

4.10696287220124e+005,-9.28939444705652e+000,-3.73015847931854e+000

4.16429393741414e+005,-9.28942961338528e+000,-3.78134384149091e+000

4.22242531447321e+005,-9.28946191804252e+000,-3.83323310673366e+000

4.28136817531551e+005,-9.28949123559151e+000,-3.88583634808215e+000

4.34113384783250e+005,-9.28951743881643e+000,-3.93916379139826e+000

4.40173381804713e+005,-9.28954039873845e+000,-3.99322581728155e+000

4.46317973232124e+005,-9.28955998462900e+000,-4.04803296298809e+000

4.52548339959385e+005,-9.28957606401919e+000,-4.10359592435693e+000

4.58865679365059e+005,-9.28958850270668e+000,-4.15992555774397e+000

4.65271205542494e+005,-9.28959716475811e+000,-4.21703288196524e+000

4.71766149533147e+005,-9.28960191250798e+000,-4.27492908025295e+000

4.78351759563174e+005,-9.28960260655301e+000,-4.33362550222448e+000

4.85029301283321e+005,-9.28959910574247e+000,-4.39313366586409e+000

4.91800058012158e+005,-9.28959126716344e+000,-4.45346525952389e+000

4.98665330982714e+005,-9.28957894612156e+000,-4.51463214394174e+000

5.05626439592555e+005,-9.28956199611661e+000,-4.57664635427932e+000

5.12684721657352e+005,-9.28954026881292e+000,-4.63952010218416e+000

5.19841533667984e+005,-9.28951361400435e+000,-4.70326577787501e+000

5.27098251051240e+005,-9.28948187957394e+000,-4.76789595225358e+000

5.34456268434150e+005,-9.28944491144781e+000,-4.83342337904634e+000

5.41916999912011e+005,-9.28940255354312e+000,-4.89986099697704e+000

