Freq.,VOut,OutRef

1.00000000000000e+004,-1.88826868892643e+001,-1.71184121198104e-001

1.01395947979003e+004,-1.88826885642821e+001,-1.73573518090583e-001

1.02811382665607e+004,-1.88826902863376e+001,-1.75996259351414e-001

1.04246576084112e+004,-1.88826920567499e+001,-1.78452810011875e-001

1.05701804056138e+004,-1.88826938768754e+001,-1.80943641574908e-001

1.07177346253629e+004,-1.88826957481085e+001,-1.83469232105069e-001

1.08673486252606e+004,-1.88826976718822e+001,-1.86030066323319e-001

1.10190511587661e+004,-1.88826996496697e+001,-1.88626635694059e-001

1.11728713807222e+004,-1.88827016829857e+001,-1.91259438519325e-001

1.13288388529580e+004,-1.88827037733871e+001,-1.93928980035723e-001

1.14869835499703e+004,-1.88827059224742e+001,-1.96635772508881e-001

1.16473358646846e+004,-1.88827081318922e+001,-1.99380335329285e-001

1.18099266142953e+004,-1.88827104033321e+001,-2.02163195113995e-001

1.19747870461893e+004,-1.88827127385323e+001,-2.04984885801992e-001

1.21419488439505e+004,-1.88827151392797e+001,-2.07845948760198e-001

1.23114441334492e+004,-1.88827176074112e+001,-2.10746932880038e-001

1.24833054890161e+004,-1.88827201448151e+001,-2.13688394687034e-001

1.26575659397028e+004,-1.88827227534322e+001,-2.16670898442456e-001

1.28342589756290e+004,-1.88827254352573e+001,-2.19695016253096e-001

1.30134185544193e+004,-1.88827281923416e+001,-2.22761328174609e-001

1.31950791077289e+004,-1.88827310267928e+001,-2.25870422325847e-001

1.33792755478611e+004,-1.88827339407776e+001,-2.29022894997749e-001

1.35660432744767e+004,-1.88827369365238e+001,-2.32219350763585e-001

1.37554181813974e+004,-1.88827400163201e+001,-2.35460402599146e-001

1.39474366635040e+004,-1.88827431825203e+001,-2.38746671990815e-001

1.41421356237309e+004,-1.88827464375430e+001,-2.42078789058094e-001

1.43395524801583e+004,-1.88827497838744e+001,-2.45457392670719e-001

1.45397251732031e+004,-1.88827532240701e+001,-2.48883130567729e-001

1.47426921729110e+004,-1.88827567607566e+001,-2.52356659480537e-001

1.49484924863494e+004,-1.88827603966341e+001,-2.55878645254227e-001

1.51571656651040e+004,-1.88827641344773e+001,-2.59449762976489e-001

1.53687518128801e+004,-1.88827679771388e+001,-2.63070697100682e-001

1.55832915932100e+004,-1.88827719275501e+001,-2.66742141575434e-001

1.58008262372675e+004,-1.88827759887243e+001,-2.70464799975720e-001

1.60213975517924e+004,-1.88827801637586e+001,-2.74239385633193e-001

1.62450479271247e+004,-1.88827844558362e+001,-2.78066621769253e-001

1.64718203453514e+004,-1.88827888682283e+001,-2.81947241633859e-001

1.67017583885674e+004,-1.88827934042978e+001,-2.85881988636209e-001

1.69349062472505e+004,-1.88827980675003e+001,-2.89871616491582e-001

1.71713087287550e+004,-1.88828028613878e+001,-2.93916889353311e-001

1.74110112659224e+004,-1.88828077896107e+001,-2.98018581963337e-001

1.76540599258131e+004,-1.88828128559208e+001,-3.02177479789645e-001

1.79005014185594e+004,-1.88828180641736e+001,-3.06394379178556e-001

1.81503831063432e+004,-1.88828234183320e+001,-3.10670087497629e-001

1.84037530124975e+004,-1.88828289224686e+001,-3.15005423287508e-001

1.86606598307361e+004,-1.88828345807685e+001,-3.19401216416177e-001

1.89211529345119e+004,-1.88828403975329e+001,-3.23858308229848e-001

1.91852823865052e+004,-1.88828463771823e+001,-3.28377551708100e-001

1.94530989482457e+004,-1.88828525242592e+001,-3.32959811625473e-001

1.97246540898671e+004,-1.88828588434317e+001,-3.37605964708305e-001

1.99999999999999e+004,-1.88828653394971e+001,-3.42316899796976e-001

2.02791895958005e+004,-1.88828720173852e+001,-3.47093518011213e-001

2.05622765331213e+004,-1.88828788821620e+001,-3.51936732914731e-001

2.08493152168224e+004,-1.88828859390332e+001,-3.56847470682509e-001

2.11403608112276e+004,-1.88828931933480e+001,-3.61826670274778e-001

2.14354692507258e+004,-1.88829006506035e+001,-3.66875283604119e-001

2.17346972505211e+004,-1.88829083164479e+001,-3.71994275714375e-001

2.20381023175322e+004,-1.88829161966851e+001,-3.77184624955135e-001

2.23457427614443e+004,-1.88829242972788e+001,-3.82447323160260e-001

2.26576777059159e+004,-1.88829326243566e+001,-3.87783375831163e-001

2.29739670999406e+004,-1.88829411842149e+001,-3.93193802316571e-001

2.32946717293690e+004,-1.88829499833226e+001,-3.98679636003134e-001

2.36198532285905e+004,-1.88829590283265e+001,-4.04241924497495e-001

2.39495740923785e+004,-1.88829683260558e+001,-4.09881729820034e-001

2.42838976879009e+004,-1.88829778835268e+001,-4.15600128597378e-001

2.46228882668982e+004,-1.88829877079482e+001,-4.21398212254937e-001

2.49666109780322e+004,-1.88829978067258e+001,-4.27277087216884e-001

2.53151318794055e+004,-1.88830081874686e+001,-4.33237875101463e-001

2.56685179512580e+004,-1.88830188579926e+001,-4.39281712928831e-001

2.60268371088386e+004,-1.88830298263285e+001,-4.45409753318323e-001

2.63901582154578e+004,-1.88830411007252e+001,-4.51623164701622e-001

2.67585510957221e+004,-1.88830526896569e+001,-4.57923131527723e-001

2.71320865489533e+004,-1.88830646018290e+001,-4.64310854473851e-001

2.75108363627948e+004,-1.88830768461833e+001,-4.70787550665288e-001

2.78948733270080e+004,-1.88830894319052e+001,-4.77354453883922e-001

2.82842712474618e+004,-1.88831023684296e+001,-4.84012814793132e-001

2.86791049603164e+004,-1.88831156654473e+001,-4.90763901156938e-001

2.90794503464061e+004,-1.88831293329120e+001,-4.97608998064859e-001

2.94853843458219e+004,-1.88831433810472e+001,-5.04549408156821e-001

2.98969849726987e+004,-1.88831578203527e+001,-5.11586451854323e-001

3.03143313302078e+004,-1.88831726616126e+001,-5.18721467590318e-001

3.07375036257601e+004,-1.88831879159017e+001,-5.25955812045400e-001

3.11665831864199e+004,-1.88832035945937e+001,-5.33290860382646e-001

3.16016524745350e+004,-1.88832197093685e+001,-5.40728006488324e-001

3.20427951035848e+004,-1.88832362722206e+001,-5.48268663212992e-001

3.24900958542493e+004,-1.88832532954664e+001,-5.55914262616853e-001

3.29436406907028e+004,-1.88832707917528e+001,-5.63666256217681e-001

3.34035167771346e+004,-1.88832887740659e+001,-5.71526115238345e-001

3.38698124945009e+004,-1.88833072557391e+001,-5.79495330860682e-001

3.43426174575100e+004,-1.88833262504623e+001,-5.87575414481804e-001

3.48220225318448e+004,-1.88833457722904e+001,-5.95767897969978e-001

3.53081198516260e+004,-1.88833658356531e+001,-6.04074333925408e-001

3.58010028371187e+004,-1.88833864553636e+001,-6.12496295944885e-001

3.63007662126863e+004,-1.88834076466289e+001,-6.21035378885093e-001

3.68075060249948e+004,-1.88834294250591e+001,-6.29693199132097e-001

3.73213196614721e+004,-1.88834518066775e+001,-6.38471394873700e-001

3.78423058690237e+004,-1.88834748079307e+001,-6.47371626370064e-001

3.83705647730104e+004,-1.88834984456992e+001,-6.56395576232862e-001

3.89061978964912e+004,-1.88835227373083e+001,-6.65544949701837e-001

3.94493081797342e+004,-1.88835477005378e+001,-6.74821474929019e-001

3.99999999999998e+004,-1.88835733536346e+001,-6.84226903259943e-001

4.05583791916010e+004,-1.88835997153227e+001,-6.93763009522371e-001

4.11245530662425e+004,-1.88836268048153e+001,-7.03431592315439e-001

4.16986304336447e+004,-1.88836546418265e+001,-7.13234474299623e-001

4.22807216224550e+004,-1.88836832465827e+001,-7.23173502495295e-001

4.28709385014515e+004,-1.88837126398355e+001,-7.33250548575242e-001

4.34693945010421e+004,-1.88837428428733e+001,-7.43467509167895e-001

4.40762046350642e+004,-1.88837738775345e+001,-7.53826306156779e-001

4.46914855228886e+004,-1.88838057662199e+001,-7.64328886987223e-001

4.53153554118317e+004,-1.88838385319057e+001,-7.74977224972319e-001

4.59479341998812e+004,-1.88838721981570e+001,-7.85773319602190e-001

4.65893434587380e+004,-1.88839067891410e+001,-7.96719196858592e-001

4.72397064571810e+004,-1.88839423296405e+001,-8.07816909525061e-001

4.78991481847569e+004,-1.88839788450684e+001,-8.19068537507703e-001

4.85677953758016e+004,-1.88840163614809e+001,-8.30476188152462e-001

4.92457765337964e+004,-1.88840549055923e+001,-8.42041996566476e-001

4.99332219560642e+004,-1.88840945047895e+001,-8.53768125943352e-001

5.06302637588109e+004,-1.88841351871464e+001,-8.65656767887231e-001

5.13370359025159e+004,-1.88841769814388e+001,-8.77710142742814e-001

5.20536742176771e+004,-1.88842199171596e+001,-8.89930499925302e-001

5.27803164309155e+004,-1.88842640245337e+001,-9.02320118253054e-001

5.35171021914442e+004,-1.88843093345338e+001,-9.14881306281447e-001

5.42641730979066e+004,-1.88843558788957e+001,-9.27616402641384e-001

5.50216727255895e+004,-1.88844036901337e+001,-9.40527776377458e-001

5.57897466540159e+004,-1.88844528015572e+001,-9.53617827287538e-001

5.65685424949235e+004,-1.88845032472859e+001,-9.66888986268571e-001

5.73582099206328e+004,-1.88845550622663e+001,-9.80343715658418e-001

5.81589006928121e+004,-1.88846082822878e+001,-9.93984509583858e-001

5.89707686916437e+004,-1.88846629439992e+001,-1.00781389430902e+000

5.97939699453972e+004,-1.88847190849246e+001,-1.02183442858552e+000

6.06286626604156e+004,-1.88847767434805e+001,-1.03604870400361e+000

6.14750072515201e+004,-1.88848359589917e+001,-1.05045934534773e+000

6.23331663728396e+004,-1.88848967717085e+001,-1.06506901094923e+000

6.32033049490698e+004,-1.88849592228222e+001,-1.07988039304617e+000

6.40855902071694e+004,-1.88850233544831e+001,-1.09489621813880e+000

6.49801917084985e+004,-1.88850892098158e+001,-1.11011924735167e+000

6.58872813814055e+004,-1.88851568329361e+001,-1.12555227679526e+000

6.68070335542691e+004,-1.88852262689675e+001,-1.14119813792685e+000

6.77396249890018e+004,-1.88852975640576e+001,-1.15705969791649e+000

6.86852349150199e+004,-1.88853707653937e+001,-1.17313986001345e+000

6.96440450636895e+004,-1.88854459212196e+001,-1.18944156391032e+000

7.06162397032520e+004,-1.88855230808508e+001,-1.20596778611510e+000

7.16020056742374e+004,-1.88856022946902e+001,-1.22272154031822e+000

7.26015324253724e+004,-1.88856836142439e+001,-1.23970587776513e+000

7.36150120499896e+004,-1.88857670921358e+001,-1.25692388762711e+000

7.46426393229441e+004,-1.88858527821225e+001,-1.27437869737663e+000

7.56846117380472e+004,-1.88859407391077e+001,-1.29207347316105e+000

7.67411295460207e+004,-1.88860310191558e+001,-1.31001142018007e+000

7.78123957929823e+004,-1.88861236795061e+001,-1.32819578306126e+000

7.88986163594682e+004,-1.88862187785852e+001,-1.34662984624077e+000

7.99999999999995e+004,-1.88863163760198e+001,-1.36531693434287e+000

8.11167583832018e+004,-1.88864165326482e+001,-1.38426041256247e+000

8.22491061324848e+004,-1.88865193105318e+001,-1.40346368704754e+000

8.33972608672892e+004,-1.88866247729656e+001,-1.42293020528381e+000

8.45614432449099e+004,-1.88867329844877e+001,-1.44266345648334e+000

8.57418770029029e+004,-1.88868440108886e+001,-1.46266697197037e+000

8.69387890020841e+004,-1.88869579192185e+001,-1.48294432557368e+000

8.81524092701283e+004,-1.88870747777956e+001,-1.50349913401710e+000

8.93829710457770e+004,-1.88871946562110e+001,-1.52433505731647e+000

9.06307108236633e+004,-1.88873176253341e+001,-1.54545579917518e+000

9.18958683997622e+004,-1.88874437573167e+001,-1.56686510738419e+000

9.31786869174758e+004,-1.88875731255955e+001,-1.58856677422493e+000

9.44794129143618e+004,-1.88877058048932e+001,-1.61056463687518e+000

9.57982963695136e+004,-1.88878418712189e+001,-1.63286257781685e+000

9.71355907516031e+004,-1.88879814018660e+001,-1.65546452525164e+000

9.84915530675926e+004,-1.88881244754099e+001,-1.67837445351481e+000

9.98664439121282e+004,-1.88882711717030e+001,-1.70159638349889e+000

1.01260527517622e+005,-1.88884215718684e+001,-1.72513438307853e+000

1.02674071805032e+005,-1.88885757582919e+001,-1.74899256754320e+000

1.04107348435354e+005,-1.88887338146120e+001,-1.77317510003405e+000

1.05560632861831e+005,-1.88888958257082e+001,-1.79768619198609e+000

1.07034204382888e+005,-1.88890618776871e+001,-1.82253010358128e+000

1.08528346195813e+005,-1.88892320578660e+001,-1.84771114420476e+000

1.10043345451179e+005,-1.88894064547553e+001,-1.87323367291117e+000

1.11579493308032e+005,-1.88895851580372e+001,-1.89910209890038e+000

1.13137084989847e+005,-1.88897682585437e+001,-1.92532088200043e+000

1.14716419841265e+005,-1.88899558482308e+001,-1.95189453316386e+000

1.16317801385624e+005,-1.88901480201504e+001,-1.97882761497296e+000

1.17941537383287e+005,-1.88903448684201e+001,-2.00612474215837e+000

1.19587939890794e+005,-1.88905464881902e+001,-2.03379058212946e+000

1.21257325320831e+005,-1.88907529756071e+001,-2.06182985552069e+000

1.22950014503040e+005,-1.88909644277750e+001,-2.09024733675140e+000

1.24666332745679e+005,-1.88911809427137e+001,-2.11904785460279e+000

1.26406609898139e+005,-1.88914026193139e+001,-2.14823629281248e+000

1.28171180414339e+005,-1.88916295572898e+001,-2.17781759068635e+000

1.29960383416997e+005,-1.88918618571274e+001,-2.20779674373290e+000

1.31774562762811e+005,-1.88920996200311e+001,-2.23817880431645e+000

1.33614067108538e+005,-1.88923429478658e+001,-2.26896888233519e+000

1.35479249978003e+005,-1.88925919430965e+001,-2.30017214592298e+000

1.37370469830040e+005,-1.88928467087247e+001,-2.33179382217581e+000

1.39288090127379e+005,-1.88931073482213e+001,-2.36383919790748e+000

1.41232479406504e+005,-1.88933739654556e+001,-2.39631362043442e+000

1.43204011348474e+005,-1.88936466646222e+001,-2.42922249838975e+000

1.45203064850745e+005,-1.88939255501638e+001,-2.46257130257243e+000

1.47230024099979e+005,-1.88942107266910e+001,-2.49636556682872e+000

1.49285278645888e+005,-1.88945022988990e+001,-2.53061088897246e+000

1.51369223476094e+005,-1.88948003714806e+001,-2.56531293174160e+000

1.53482259092041e+005,-1.88951050490371e+001,-2.60047742379713e+000

1.55624791585964e+005,-1.88954164359854e+001,-2.63611016076311e+000

1.57797232718936e+005,-1.88957346364626e+001,-2.67221700631144e+000

1.59999999999999e+005,-1.88960597542273e+001,-2.70880389329501e+000

1.62233516766403e+005,-1.88963918925595e+001,-2.74587682492663e+000

1.64498212264969e+005,-1.88967311541566e+001,-2.78344187601199e+000

1.66794521734578e+005,-1.88970776410279e+001,-2.82150519423286e+000

1.69122886489819e+005,-1.88974314543874e+001,-2.86007300148895e+000

1.71483754005805e+005,-1.88977926945437e+001,-2.89915159529347e+000

1.73877578004168e+005,-1.88981614607895e+001,-2.93874735023062e+000

1.76304818540256e+005,-1.88985378512884e+001,-2.97886671947498e+000

1.78765942091554e+005,-1.88989219629624e+001,-3.01951623637272e+000

1.81261421647326e+005,-1.88993138913773e+001,-3.06070251609001e+000

1.83791736799524e+005,-1.88997137306284e+001,-3.10243225732893e+000

1.86357373834951e+005,-1.89001215732258e+001,-3.14471224411360e+000

1.88958825828723e+005,-1.89005375099811e+001,-3.18754934764564e+000

1.91596592739027e+005,-1.89009616298936e+001,-3.23095052823593e+000

1.94271181503206e+005,-1.89013940200385e+001,-3.27492283730858e+000

1.96983106135185e+005,-1.89018347654572e+001,-3.31947341948309e+000

1.99732887824256e+005,-1.89022839490494e+001,-3.36460951473218e+000

2.02521055035243e+005,-1.89027416514676e+001,-3.41033846062034e+000

2.05348143610063e+005,-1.89032079510159e+001,-3.45666769462208e+000

2.08214696870707e+005,-1.89036829235517e+001,-3.50360475651976e+000

2.11121265723661e+005,-1.89041666423928e+001,-3.55115729088375e+000

2.14068408765776e+005,-1.89046591782283e+001,-3.59933304963479e+000

2.17056692391625e+005,-1.89051605990368e+001,-3.64813989468753e+000

2.20086690902357e+005,-1.89056709700089e+001,-3.69758580067830e+000

2.23158986616063e+005,-1.89061903534787e+001,-3.74767885777178e+000

2.26274169979693e+005,-1.89067188088616e+001,-3.79842727455160e+000

2.29432839682530e+005,-1.89072563926004e+001,-3.84983938099131e+000

2.32635602771247e+005,-1.89078031581209e+001,-3.90192363150388e+000

2.35883074766574e+005,-1.89083591557964e+001,-3.95468860807096e+000

2.39175879781588e+005,-1.89089244329234e+001,-4.00814302344786e+000

2.42514650641661e+005,-1.89094990337067e+001,-4.06229572444444e+000

2.45900029006080e+005,-1.89100829992581e+001,-4.11715569527729e+000

2.49332665491357e+005,-1.89106763676050e+001,-4.17273206099345e+000

2.52813219796278e+005,-1.89112791737141e+001,-4.22903409096043e+000

2.56342360828676e+005,-1.89118914495264e+001,-4.28607120242128e+000

2.59920766833993e+005,-1.89125132240083e+001,-4.34385296410900e+000

2.63549125525621e+005,-1.89131445232156e+001,-4.40238909992016e+000

2.67228134217075e+005,-1.89137853703734e+001,-4.46168949263914e+000

2.70958499956006e+005,-1.89144357859717e+001,-4.52176418771361e+000

2.74740939660078e+005,-1.89150957878771e+001,-4.58262339707127e+000

2.78576180254757e+005,-1.89157653914605e+001,-4.64427750297887e+000

2.82464958813007e+005,-1.89164446097423e+001,-4.70673706193372e+000

2.86408022696948e+005,-1.89171334535543e+001,-4.77001280858472e+000

2.90406129701488e+005,-1.89178319317195e+001,-4.83411565967758e+000

2.94460048199957e+005,-1.89185400512496e+001,-4.89905671801703e+000

2.98570557291775e+005,-1.89192578175604e+001,-4.96484727644227e+000

3.02738446952187e+005,-1.89199852347044e+001,-5.03149882180807e+000

3.06964518184081e+005,-1.89207223056229e+001,-5.09902303896703e+000

3.11249583171928e+005,-1.89214690324151e+001,-5.16743181474527e+000

3.15594465437872e+005,-1.89222254166253e+001,-5.23673724190720e+000

3.19999999999997e+005,-1.89229914595481e+001,-5.30695162310214e+000

3.24467033532806e+005,-1.89237671625512e+001,-5.37808747478803e+000

3.28996424529938e+005,-1.89245525274156e+001,-5.45015753112396e+000

3.33589043469155e+005,-1.89253475566925e+001,-5.52317474782902e+000

3.38245772979638e+005,-1.89261522540772e+001,-5.59715230599857e+000

3.42967508011610e+005,-1.89269666247985e+001,-5.67210361587535e+000

3.47755156008335e+005,-1.89277906760248e+001,-5.74804232056740e+000

3.52609637080511e+005,-1.89286244172837e+001,-5.82498229971006e+000

3.57531884183106e+005,-1.89294678608976e+001,-5.90293767306586e+000

3.62522843294651e+005,-1.89303210224319e+001,-5.98192280405892e+000

3.67583473599047e+005,-1.89311839211563e+001,-6.06195230323872e+000

3.72714747669902e+005,-1.89320565805188e+001,-6.14304103167087e+000

3.77917651657445e+005,-1.89329390286306e+001,-6.22520410424965e+000

3.83193185478053e+005,-1.89338312987612e+001,-6.30845689293268e+000

3.88542363006410e+005,-1.89347334298441e+001,-6.39281502989003e+000

3.93966212270369e+005,-1.89356454669905e+001,-6.47829441057208e+000

3.99465775648511e+005,-1.89365674620102e+001,-6.56491119669003e+000

4.05042110070485e+005,-1.89374994739408e+001,-6.65268181910908e+000

4.10696287220124e+005,-1.89384415695814e+001,-6.74162298065470e+000

4.16429393741414e+005,-1.89393938240320e+001,-6.83175165883128e+000

4.22242531447321e+005,-1.89403563212365e+001,-6.92308510845321e+000

4.28136817531551e+005,-1.89413291545292e+001,-7.01564086418952e+000

4.34113384783250e+005,-1.89423124271823e+001,-7.10943674302399e+000

4.40173381804713e+005,-1.89433062529563e+001,-7.20449084663192e+000

4.46317973232124e+005,-1.89443107566494e+001,-7.30082156367515e+000

4.52548339959385e+005,-1.89453260746472e+001,-7.39844757201990e+000

4.58865679365059e+005,-1.89463523554705e+001,-7.49738784087903e+000

4.65271205542494e+005,-1.89473897603217e+001,-7.59766163288251e+000

4.71766149533147e+005,-1.89484384636283e+001,-7.69928850607977e+000

4.78351759563174e+005,-1.89494986535832e+001,-7.80228831587877e+000

4.85029301283321e+005,-1.89505705326802e+001,-7.90668121692629e+000

4.91800058012158e+005,-1.89516543182466e+001,-8.01248766493221e+000

4.98665330982714e+005,-1.89527502429696e+001,-8.11972841844581e+000

5.05626439592555e+005,-1.89538585554180e+001,-8.22842454058686e+000

5.12684721657352e+005,-1.89549795205578e+001,-8.33859740073805e+000

5.19841533667984e+005,-1.89561134202624e+001,-8.45026867620338e+000

5.27098251051240e+005,-1.89572605538167e+001,-8.56346035383867e+000

5.34456268434150e+005,-1.89584212384142e+001,-8.67819473165955e+000

5.41916999912011e+005,-1.89595958096488e+001,-8.79449442043305e+000

