Freq.,VOut,OutRef

1.00000000000000e+004,-2.04753503315121e+001,-2.28059351330464e-001

1.01395947979003e+004,-2.04753520334101e+001,-2.31242735997440e-001

1.02811382665607e+004,-2.04753537831108e+001,-2.34470550349726e-001

1.04246576084112e+004,-2.04753555819553e+001,-2.37743414234425e-001

1.05701804056138e+004,-2.04753574313229e+001,-2.41061956133850e-001

1.07177346253629e+004,-2.04753593326311e+001,-2.44426813287631e-001

1.08673486252606e+004,-2.04753612873369e+001,-2.47838631816324e-001

1.10190511587661e+004,-2.04753632969386e+001,-2.51298066838828e-001

1.11728713807222e+004,-2.04753653629762e+001,-2.54805782603054e-001

1.13288388529580e+004,-2.04753674870327e+001,-2.58362452608873e-001

1.14869835499703e+004,-2.04753696707356e+001,-2.61968759738577e-001

1.16473358646846e+004,-2.04753719157579e+001,-2.65625396386190e-001

1.18099266142953e+004,-2.04753742238193e+001,-2.69333064588955e-001

1.19747870461893e+004,-2.04753765966877e+001,-2.73092476161764e-001

1.21419488439505e+004,-2.04753790361803e+001,-2.76904352833514e-001

1.23114441334492e+004,-2.04753815441656e+001,-2.80769426380289e-001

1.24833054890161e+004,-2.04753841225638e+001,-2.84688438771671e-001

1.26575659397028e+004,-2.04753867733488e+001,-2.88662142305442e-001

1.28342589756290e+004,-2.04753894985503e+001,-2.92691299752838e-001

1.30134185544193e+004,-2.04753923002540e+001,-2.96776684505937e-001

1.31950791077289e+004,-2.04753951806045e+001,-3.00919080720409e-001

1.33792755478611e+004,-2.04753981418057e+001,-3.05119283468490e-001

1.35660432744767e+004,-2.04754011861236e+001,-3.09378098887953e-001

1.37554181813974e+004,-2.04754043158872e+001,-3.13696344334260e-001

1.39474366635040e+004,-2.04754075334907e+001,-3.18074848538699e-001

1.41421356237309e+004,-2.04754108413951e+001,-3.22514451762088e-001

1.43395524801583e+004,-2.04754142421301e+001,-3.27016005957407e-001

1.45397251732031e+004,-2.04754177382960e+001,-3.31580374929562e-001

1.47426921729110e+004,-2.04754213325657e+001,-3.36208434499460e-001

1.49484924863494e+004,-2.04754250276866e+001,-3.40901072670088e-001

1.51571656651040e+004,-2.04754288264828e+001,-3.45659189794827e-001

1.53687518128801e+004,-2.04754327318571e+001,-3.50483698746910e-001

1.55832915932100e+004,-2.04754367467933e+001,-3.55375525094268e-001

1.58008262372675e+004,-2.04754408743583e+001,-3.60335607273504e-001

1.60213975517924e+004,-2.04754451177046e+001,-3.65364896764990e-001

1.62450479271247e+004,-2.04754494800723e+001,-3.70464358278492e-001

1.64718203453514e+004,-2.04754539647921e+001,-3.75634969928305e-001

1.67017583885674e+004,-2.04754585752871e+001,-3.80877723424696e-001

1.69349062472505e+004,-2.04754633150759e+001,-3.86193624255328e-001

1.71713087287550e+004,-2.04754681877748e+001,-3.91583691879987e-001

1.74110112659224e+004,-2.04754731971011e+001,-3.97048959918623e-001

1.76540599258131e+004,-2.04754783468753e+001,-4.02590476348279e-001

1.79005014185594e+004,-2.04754836410240e+001,-4.08209303700549e-001

1.81503831063432e+004,-2.04754890835830e+001,-4.13906519261353e-001

1.84037530124975e+004,-2.04754946787007e+001,-4.19683215271644e-001

1.86606598307361e+004,-2.04755004306399e+001,-4.25540499137705e-001

1.89211529345119e+004,-2.04755063437826e+001,-4.31479493632570e-001

1.91852823865052e+004,-2.04755124226320e+001,-4.37501337113196e-001

1.94530989482457e+004,-2.04755186718166e+001,-4.43607183728871e-001

1.97246540898671e+004,-2.04755250960927e+001,-4.49798203642885e-001

1.99999999999999e+004,-2.04755317003492e+001,-4.56075583246897e-001

2.02791895958005e+004,-2.04755384896100e+001,-4.62440525386120e-001

2.05622765331213e+004,-2.04755454690386e+001,-4.68894249583325e-001

2.08493152168224e+004,-2.04755526439414e+001,-4.75437992267043e-001

2.11403608112276e+004,-2.04755600197714e+001,-4.82073007004202e-001

2.14354692507258e+004,-2.04755676021330e+001,-4.88800564731567e-001

2.17346972505211e+004,-2.04755753967853e+001,-4.95621953993861e-001

2.20381023175322e+004,-2.04755834096468e+001,-5.02538481185247e-001

2.23457427614443e+004,-2.04755916467993e+001,-5.09551470792252e-001

2.26576777059159e+004,-2.04756001144932e+001,-5.16662265637408e-001

2.29739670999406e+004,-2.04756088191508e+001,-5.23872227134630e-001

2.32946717293690e+004,-2.04756177673720e+001,-5.31182735536054e-001

2.36198532285905e+004,-2.04756269659387e+001,-5.38595190192566e-001

2.39495740923785e+004,-2.04756364218194e+001,-5.46111009812189e-001

2.42838976879009e+004,-2.04756461421753e+001,-5.53731632720674e-001

2.46228882668982e+004,-2.04756561343641e+001,-5.61458517131922e-001

2.49666109780322e+004,-2.04756664059463e+001,-5.69293141413483e-001

2.53151318794055e+004,-2.04756769646902e+001,-5.77237004362262e-001

2.56685179512580e+004,-2.04756878185778e+001,-5.85291625479969e-001

2.60268371088386e+004,-2.04756989758101e+001,-5.93458545253780e-001

2.63901582154578e+004,-2.04757104448135e+001,-6.01739325438071e-001

2.67585510957221e+004,-2.04757222342453e+001,-6.10135549344212e-001

2.71320865489533e+004,-2.04757343530002e+001,-6.18648822129876e-001

2.75108363627948e+004,-2.04757468102165e+001,-6.27280771093367e-001

2.78948733270080e+004,-2.04757596152828e+001,-6.36033045972121e-001

2.82842712474618e+004,-2.04757727778442e+001,-6.44907319244228e-001

2.86791049603164e+004,-2.04757863078096e+001,-6.53905286434586e-001

2.90794503464061e+004,-2.04758002153585e+001,-6.63028666423292e-001

2.94853843458219e+004,-2.04758145109481e+001,-6.72279201759222e-001

2.98969849726987e+004,-2.04758292053208e+001,-6.81658658977525e-001

3.03143313302078e+004,-2.04758443095113e+001,-6.91168828919795e-001

3.07375036257601e+004,-2.04758598348549e+001,-7.00811527060320e-001

3.11665831864199e+004,-2.04758757929950e+001,-7.10588593832406e-001

3.16016524745350e+004,-2.04758921958913e+001,-7.20501894963177e-001

3.20427951035848e+004,-2.04759090558280e+001,-7.30553321809386e-001

3.24900958542493e+004,-2.04759263854222e+001,-7.40744791699856e-001

3.29436406907028e+004,-2.04759441976331e+001,-7.51078248277345e-001

3.34035167771346e+004,-2.04759625057701e+001,-7.61555661851270e-001

3.38698124945009e+004,-2.04759813235021e+001,-7.72179029748696e-001

3.43426174575100e+004,-2.04760006648676e+001,-7.82950376670767e-001

3.48220225318448e+004,-2.04760205442830e+001,-7.93871755057344e-001

3.53081198516260e+004,-2.04760409765533e+001,-8.04945245450838e-001

3.58010028371187e+004,-2.04760619768814e+001,-8.16172956866201e-001

3.63007662126863e+004,-2.04760835608789e+001,-8.27557027166067e-001

3.68075060249948e+004,-2.04761057445759e+001,-8.39099623439944e-001

3.73213196614721e+004,-2.04761285444322e+001,-8.50802942386055e-001

3.78423058690237e+004,-2.04761519773481e+001,-8.62669210698995e-001

3.83705647730104e+004,-2.04761760606749e+001,-8.74700685463702e-001

3.89061978964912e+004,-2.04762008122273e+001,-8.86899654548896e-001

3.94493081797342e+004,-2.04762262502945e+001,-8.99268437009097e-001

3.99999999999998e+004,-2.04762523936521e+001,-9.11809383490425e-001

4.05583791916010e+004,-2.04762792615741e+001,-9.24524876641045e-001

4.11245530662425e+004,-2.04763068738458e+001,-9.37417331522016e-001

4.16986304336447e+004,-2.04763352507759e+001,-9.50489196031304e-001

4.22807216224550e+004,-2.04763644132100e+001,-9.63742951322804e-001

4.28709385014515e+004,-2.04763943825432e+001,-9.77181112237389e-001

4.34693945010421e+004,-2.04764251807341e+001,-9.90806227733107e-001

4.40762046350642e+004,-2.04764568303181e+001,-1.00462088132559e+000

4.46914855228886e+004,-2.04764893544219e+001,-1.01862769152663e+000

4.53153554118317e+004,-2.04765227767774e+001,-1.03282931229379e+000

4.59479341998812e+004,-2.04765571217363e+001,-1.04722843347999e+000

4.65893434587380e+004,-2.04765924142853e+001,-1.06182778129016e+000

4.72397064571810e+004,-2.04766286800606e+001,-1.07663011874267e+000

4.78991481847569e+004,-2.04766659453640e+001,-1.09163824613294e+000

4.85677953758016e+004,-2.04767042371783e+001,-1.10685500150597e+000

4.92457765337964e+004,-2.04767435831831e+001,-1.12228326113014e+000

4.99332219560642e+004,-2.04767840117711e+001,-1.13792593997758e+000

5.06302637588109e+004,-2.04768255520652e+001,-1.15378599220808e+000

5.13370359025159e+004,-2.04768682339346e+001,-1.16986641165897e+000

5.20536742176771e+004,-2.04769120880120e+001,-1.18617023233997e+000

5.27803164309155e+004,-2.04769571457116e+001,-1.20270052893050e+000

5.35171021914442e+004,-2.04770034392460e+001,-1.21946041728491e+000

5.42641730979066e+004,-2.04770510016446e+001,-1.23645305494181e+000

5.50216727255895e+004,-2.04770998667715e+001,-1.25368164163499e+000

5.57897466540159e+004,-2.04771500693443e+001,-1.27114941981478e+000

5.65685424949235e+004,-2.04772016449525e+001,-1.28885967516889e+000

5.73582099206328e+004,-2.04772546300767e+001,-1.30681573715245e+000

5.81589006928121e+004,-2.04773090621077e+001,-1.32502097951872e+000

5.89707686916437e+004,-2.04773649793661e+001,-1.34347882085960e+000

5.97939699453972e+004,-2.04774224211219e+001,-1.36219272514548e+000

6.06286626604156e+004,-2.04774814276144e+001,-1.38116620227561e+000

6.14750072515201e+004,-2.04775420400726e+001,-1.40040280862794e+000

6.23331663728396e+004,-2.04776043007355e+001,-1.41990614761867e+000

6.32033049490698e+004,-2.04776682528724e+001,-1.43967987026322e+000

6.40855902071694e+004,-2.04777339408041e+001,-1.45972767574432e+000

6.49801917084985e+004,-2.04778014099234e+001,-1.48005331198294e+000

6.58872813814055e+004,-2.04778707067166e+001,-1.50066057621720e+000

6.68070335542691e+004,-2.04779418787845e+001,-1.52155331558314e+000

6.77396249890018e+004,-2.04780149748639e+001,-1.54273542770180e+000

6.86852349150199e+004,-2.04780900448491e+001,-1.56421086127207e+000

6.96440450636895e+004,-2.04781671398135e+001,-1.58598361666750e+000

7.06162397032520e+004,-2.04782463120312e+001,-1.60805774653894e+000

7.16020056742374e+004,-2.04783276149989e+001,-1.63043735642024e+000

7.26015324253724e+004,-2.04784111034574e+001,-1.65312660534331e+000

7.36150120499896e+004,-2.04784968334140e+001,-1.67612970645352e+000

7.46426393229441e+004,-2.04785848621634e+001,-1.69945092763404e+000

7.56846117380472e+004,-2.04786752483103e+001,-1.72309459213341e+000

7.67411295460207e+004,-2.04787680517905e+001,-1.74706507919922e+000

7.78123957929823e+004,-2.04788633338929e+001,-1.77136682471684e+000

7.88986163594682e+004,-2.04789611572806e+001,-1.79600432185493e+000

7.99999999999995e+004,-2.04790615860127e+001,-1.82098212171415e+000

8.11167583832018e+004,-2.04791646855649e+001,-1.84630483398365e+000

8.22491061324848e+004,-2.04792705228509e+001,-1.87197712760367e+000

8.33972608672892e+004,-2.04793791662427e+001,-1.89800373143071e+000

8.45614432449099e+004,-2.04794906855915e+001,-1.92438943491305e+000

8.57418770029029e+004,-2.04796051522467e+001,-1.95113908877046e+000

8.69387890020841e+004,-2.04797226390770e+001,-1.97825760567894e+000

8.81524092701283e+004,-2.04798432204883e+001,-2.00574996096476e+000

8.93829710457770e+004,-2.04799669724434e+001,-2.03362119330320e+000

9.06307108236633e+004,-2.04800939724799e+001,-2.06187640542572e+000

9.18958683997622e+004,-2.04802242997278e+001,-2.09052076483187e+000

9.31786869174758e+004,-2.04803580349271e+001,-2.11955950451211e+000

9.44794129143618e+004,-2.04804952604439e+001,-2.14899792367482e+000

9.57982963695136e+004,-2.04806360602860e+001,-2.17884138848412e+000

9.71355907516031e+004,-2.04807805201185e+001,-2.20909533280422e+000

9.84915530675926e+004,-2.04809287272776e+001,-2.23976525895242e+000

9.98664439121282e+004,-2.04810807707840e+001,-2.27085673846315e+000

1.01260527517622e+005,-2.04812367413554e+001,-2.30237541285792e+000

1.02674071805032e+005,-2.04813967314178e+001,-2.33432699442914e+000

1.04107348435354e+005,-2.04815608351165e+001,-2.36671726703041e+000

1.05560632861831e+005,-2.04817291483245e+001,-2.39955208688072e+000

1.07034204382888e+005,-2.04819017686515e+001,-2.43283738337779e+000

1.08528346195813e+005,-2.04820787954505e+001,-2.46657915992401e+000

1.10043345451179e+005,-2.04822603298238e+001,-2.50078349476532e+000

1.11579493308032e+005,-2.04824464746273e+001,-2.53545654184289e+000

1.13137084989847e+005,-2.04826373344733e+001,-2.57060453165756e+000

1.14716419841265e+005,-2.04828330157328e+001,-2.60623377215084e+000

1.16317801385624e+005,-2.04830336265351e+001,-2.64235064959865e+000

1.17941537383287e+005,-2.04832392767664e+001,-2.67896162952390e+000

1.19587939890794e+005,-2.04834500780677e+001,-2.71607325762267e+000

1.21257325320831e+005,-2.04836661438290e+001,-2.75369216071185e+000

1.22950014503040e+005,-2.04838875891841e+001,-2.79182504769215e+000

1.24666332745679e+005,-2.04841145310023e+001,-2.83047871053353e+000

1.26406609898139e+005,-2.04843470878786e+001,-2.86966002527875e+000

1.28171180414339e+005,-2.04845853801227e+001,-2.90937595307211e+000

1.29960383416997e+005,-2.04848295297452e+001,-2.94963354120774e+000

1.31774562762811e+005,-2.04850796604432e+001,-2.99043992420440e+000

1.33614067108538e+005,-2.04853358975831e+001,-3.03180232490449e+000

1.35479249978003e+005,-2.04855983681816e+001,-3.07372805560084e+000

1.37370469830040e+005,-2.04858672008859e+001,-3.11622451919060e+000

1.39288090127379e+005,-2.04861425259508e+001,-3.15929921035874e+000

1.41232479406504e+005,-2.04864244752147e+001,-3.20295971679350e+000

1.43204011348474e+005,-2.04867131820735e+001,-3.24721372043283e+000

1.45203064850745e+005,-2.04870087814533e+001,-3.29206899874481e+000

1.47230024099979e+005,-2.04873114097806e+001,-3.33753342604519e+000

1.49285278645888e+005,-2.04876212049516e+001,-3.38361497485067e+000

1.51369223476094e+005,-2.04879383062993e+001,-3.43032171727071e+000

1.53482259092041e+005,-2.04882628545598e+001,-3.47766182644152e+000

1.55624791585964e+005,-2.04885949918367e+001,-3.52564357799942e+000

1.57797232718936e+005,-2.04889348615644e+001,-3.57427535160156e+000

1.59999999999999e+005,-2.04892826084707e+001,-3.62356563248998e+000

1.62233516766403e+005,-2.04896383785373e+001,-3.67352301310351e+000

1.64498212264969e+005,-2.04900023189611e+001,-3.72415619474060e+000

1.66794521734578e+005,-2.04903745781133e+001,-3.77547398927062e+000

1.69122886489819e+005,-2.04907553054994e+001,-3.82748532090073e+000

1.71483754005805e+005,-2.04911446517180e+001,-3.88019922799658e+000

1.73877578004168e+005,-2.04915427684201e+001,-3.93362486495876e+000

1.76304818540256e+005,-2.04919498082688e+001,-3.98777150415857e+000

1.78765942091554e+005,-2.04923659248997e+001,-4.04264853793390e+000

1.81261421647326e+005,-2.04927912728811e+001,-4.09826548064642e+000

1.83791736799524e+005,-2.04932260076775e+001,-4.15463197080211e+000

1.86357373834951e+005,-2.04936702856122e+001,-4.21175777323768e+000

1.88958825828723e+005,-2.04941242638339e+001,-4.26965278137242e+000

1.91596592739027e+005,-2.04945881002845e+001,-4.32832701952888e+000

1.94271181503206e+005,-2.04950619536702e+001,-4.38779064532246e+000

1.96983106135185e+005,-2.04955459834349e+001,-4.44805395212099e+000

1.99732887824256e+005,-2.04960403497384e+001,-4.50912737157740e+000

2.02521055035243e+005,-2.04965452134379e+001,-4.57102147623378e+000

2.05348143610063e+005,-2.04970607360744e+001,-4.63374698219915e+000

2.08214696870707e+005,-2.04975870798640e+001,-4.69731475190161e+000

2.11121265723661e+005,-2.04981244076948e+001,-4.76173579691572e+000

2.14068408765776e+005,-2.04986728831304e+001,-4.82702128086344e+000

2.17056692391625e+005,-2.04992326704198e+001,-4.89318252239178e+000

2.20086690902357e+005,-2.04998039345143e+001,-4.96023099822551e+000

2.23158986616063e+005,-2.05003868410929e+001,-5.02817834629374e+000

2.26274169979693e+005,-2.05009815565959e+001,-5.09703636893160e+000

2.29432839682530e+005,-2.05015882482675e+001,-5.16681703615645e+000

2.32635602771247e+005,-2.05022070842081e+001,-5.23753248901613e+000

2.35883074766574e+005,-2.05028382334372e+001,-5.30919504300851e+000

2.39175879781588e+005,-2.05034818659670e+001,-5.38181719157240e+000

2.42514650641661e+005,-2.05041381528870e+001,-5.45541160964701e+000

2.45900029006080e+005,-2.05048072664621e+001,-5.52999115729658e+000

2.49332665491357e+005,-2.05054893802418e+001,-5.60556888340148e+000

2.52813219796278e+005,-2.05061846691838e+001,-5.68215802941013e+000

2.56342360828676e+005,-2.05068933097914e+001,-5.75977203315010e+000

2.59920766833993e+005,-2.05076154802648e+001,-5.83842453269622e+000

2.63549125525621e+005,-2.05083513606675e+001,-5.91812937029149e+000

2.67228134217075e+005,-2.05091011331088e+001,-5.99890059631709e+000

2.70958499956006e+005,-2.05098649819419e+001,-6.08075247330890e+000

2.74740939660078e+005,-2.05106430939778e+001,-6.16369948001528e+000

2.78576180254757e+005,-2.05114356587171e+001,-6.24775631549308e+000

2.82464958813007e+005,-2.05122428685988e+001,-6.33293790323613e+000

2.86408022696948e+005,-2.05130649192658e+001,-6.41925939533343e+000

2.90406129701488e+005,-2.05139020098497e+001,-6.50673617665033e+000

2.94460048199957e+005,-2.05147543432727e+001,-6.59538386902895e+000

2.98570557291775e+005,-2.05156221265685e+001,-6.68521833550275e+000

3.02738446952187e+005,-2.05165055712216e+001,-6.77625568451960e+000

3.06964518184081e+005,-2.05174048935251e+001,-6.86851227416837e+000

3.11249583171928e+005,-2.05183203149576e+001,-6.96200471640319e+000

3.15594465437872e+005,-2.05192520625792e+001,-7.05674988126125e+000

3.19999999999997e+005,-2.05202003694452e+001,-7.15276490106740e+000

3.24467033532806e+005,-2.05211654750399e+001,-7.25006717461995e+000

3.28996424529938e+005,-2.05221476257279e+001,-7.34867437135498e+000

3.33589043469155e+005,-2.05231470752243e+001,-7.44860443547996e+000

3.38245772979638e+005,-2.05241640850830e+001,-7.54987559007439e+000

3.42967508011610e+005,-2.05251989252031e+001,-7.65250634115170e+000

3.47755156008335e+005,-2.05262518743521e+001,-7.75651548167622e+000

3.52609637080511e+005,-2.05273232207071e+001,-7.86192209553332e+000

3.57531884183106e+005,-2.05284132624127e+001,-7.96874556144429e+000

3.62522843294651e+005,-2.05295223081541e+001,-8.07700555682560e+000

3.67583473599047e+005,-2.05306506777475e+001,-8.18672206158555e+000

3.72714747669902e+005,-2.05317987027447e+001,-8.29791536185608e+000

3.77917651657445e+005,-2.05329667270525e+001,-8.41060605365617e+000

3.83193185478053e+005,-2.05341551075666e+001,-8.52481504648240e+000

3.88542363006410e+005,-2.05353642148184e+001,-8.64056356682552e+000

3.93966212270369e+005,-2.05365944336346e+001,-8.75787316160951e+000

3.99465775648511e+005,-2.05378461638096e+001,-8.87676570155118e+000

4.05042110070485e+005,-2.05391198207885e+001,-8.99726338443790e+000

4.10696287220124e+005,-2.05404158363612e+001,-9.11938873832380e+000

4.16429393741414e+005,-2.05417346593669e+001,-9.24316462464090e+000

4.22242531447321e+005,-2.05430767564072e+001,-9.36861424122571e+000

4.28136817531551e+005,-2.05444426125691e+001,-9.49576112526217e+000

4.34113384783250e+005,-2.05458327321551e+001,-9.62462915613770e+000

4.40173381804713e+005,-2.05472476394214e+001,-9.75524255821496e+000

4.46317973232124e+005,-2.05486878793226e+001,-9.88762590352000e+000

4.52548339959385e+005,-2.05501540182628e+001,-1.00218041143464e+001

4.58865679365059e+005,-2.05516466448526e+001,-1.01578024657774e+001

4.65271205542494e+005,-2.05531663706713e+001,-1.02956465881267e+001

4.71766149533147e+005,-2.05547138310333e+001,-1.04353624693014e+001

4.78351759563174e+005,-2.05562896857600e+001,-1.05769764570864e+001

4.85029301283321e+005,-2.05578946199542e+001,-1.07205152613539e+001

4.91800058012158e+005,-2.05595293447792e+001,-1.08660059562003e+001

4.98665330982714e+005,-2.05611945982408e+001,-1.10134759820125e+001

5.05626439592555e+005,-2.05628911459722e+001,-1.11629531474651e+001

5.12684721657352e+005,-2.05646197820221e+001,-1.13144656314529e+001

5.19841533667984e+005,-2.05663813296453e+001,-1.14680419849595e+001

5.27098251051240e+005,-2.05681766420961e+001,-1.16237111328654e+001

5.34456268434150e+005,-2.05700066034239e+001,-1.17815023756982e+001

5.41916999912011e+005,-2.05718721292727e+001,-1.19414453913264e+001

