Freq.,VOut,OutRef

1.00000000000000e+004,-1.77478645140030e+001,-8.60095650589810e-002

1.01395947979003e+004,-1.77478667044575e+001,-8.72098502954956e-002

1.02811382665607e+004,-1.77478689564136e+001,-8.84268754662903e-002

1.04246576084112e+004,-1.77478712715961e+001,-8.96608735961019e-002

1.05701804056138e+004,-1.77478736517775e+001,-9.09120809378934e-002

1.07177346253629e+004,-1.77478760987802e+001,-9.21807370117866e-002

1.08673486252606e+004,-1.77478786144771e+001,-9.34670846543138e-002

1.10190511587661e+004,-1.77478812007943e+001,-9.47713700556455e-002

1.11728713807222e+004,-1.77478838597110e+001,-9.60938428132238e-002

1.13288388529580e+004,-1.77478865932614e+001,-9.74347559772192e-002

1.14869835499703e+004,-1.77478894035375e+001,-9.87943660887613e-002

1.16473358646846e+004,-1.77478922926893e+001,-1.00172933235856e-001

1.18099266142953e+004,-1.77478952629262e+001,-1.01570721102035e-001

1.19747870461893e+004,-1.77478983165206e+001,-1.02987997005002e-001

1.21419488439505e+004,-1.77479014558069e+001,-1.04425031958447e-001

1.23114441334492e+004,-1.77479046831860e+001,-1.05882100709496e-001

1.24833054890161e+004,-1.77479080011245e+001,-1.07359481801498e-001

1.26575659397028e+004,-1.77479114121589e+001,-1.08857457613642e-001

1.28342589756290e+004,-1.77479149188959e+001,-1.10376314419081e-001

1.30134185544193e+004,-1.77479185240151e+001,-1.11916342435767e-001

1.31950791077289e+004,-1.77479222302703e+001,-1.13477835881037e-001

1.33792755478611e+004,-1.77479260404926e+001,-1.15061093021831e-001

1.35660432744767e+004,-1.77479299575921e+001,-1.16666416227849e-001

1.37554181813974e+004,-1.77479339845593e+001,-1.18294112034554e-001

1.39474366635040e+004,-1.77479381244689e+001,-1.19944491185979e-001

1.41421356237309e+004,-1.77479423804801e+001,-1.21617868705933e-001

1.43395524801583e+004,-1.77479467558410e+001,-1.23314563941226e-001

1.45397251732031e+004,-1.77479512538898e+001,-1.25034900626302e-001

1.47426921729110e+004,-1.77479558780572e+001,-1.26779206941366e-001

1.49484924863494e+004,-1.77479606318696e+001,-1.28547815569691e-001

1.51571656651040e+004,-1.77479655189519e+001,-1.30341063754273e-001

1.53687518128801e+004,-1.77479705430289e+001,-1.32159293365571e-001

1.55832915932100e+004,-1.77479757079297e+001,-1.34002850954861e-001

1.58008262372675e+004,-1.77479810175886e+001,-1.35872087825128e-001

1.60213975517924e+004,-1.77479864760508e+001,-1.37767360078287e-001

1.62450479271247e+004,-1.77479920874723e+001,-1.39689028695902e-001

1.64718203453514e+004,-1.77479978561253e+001,-1.41637459590001e-001

1.67017583885674e+004,-1.77480037864000e+001,-1.43613023674773e-001

1.69349062472505e+004,-1.77480098828087e+001,-1.45616096928330e-001

1.71713087287550e+004,-1.77480161499884e+001,-1.47647060459260e-001

1.74110112659224e+004,-1.77480225927050e+001,-1.49706300573858e-001

1.76540599258131e+004,-1.77480292158558e+001,-1.51794208845473e-001

1.79005014185594e+004,-1.77480360244742e+001,-1.53911182177304e-001

1.81503831063432e+004,-1.77480430237326e+001,-1.56057622876830e-001

1.84037530124975e+004,-1.77480502189466e+001,-1.58233938722099e-001

1.86606598307361e+004,-1.77480576155784e+001,-1.60440543033945e-001

1.89211529345119e+004,-1.77480652192417e+001,-1.62677854745095e-001

1.91852823865052e+004,-1.77480730357044e+001,-1.64946298475206e-001

1.94530989482457e+004,-1.77480810708945e+001,-1.67246304597715e-001

1.97246540898671e+004,-1.77480893309029e+001,-1.69578309320778e-001

1.99999999999999e+004,-1.77480978219888e+001,-1.71942754752953e-001

2.02791895958005e+004,-1.77481065505838e+001,-1.74340088985218e-001

2.05622765331213e+004,-1.77481155232963e+001,-1.76770766162397e-001

2.08493152168224e+004,-1.77481247469173e+001,-1.79235246558233e-001

2.11403608112276e+004,-1.77481342284237e+001,-1.81733996658300e-001

2.14354692507258e+004,-1.77481439749852e+001,-1.84267489228330e-001

2.17346972505211e+004,-1.77481539939678e+001,-1.86836203400830e-001

2.20381023175322e+004,-1.77481642929397e+001,-1.89440624751622e-001

2.23457427614443e+004,-1.77481748796774e+001,-1.92081245375517e-001

2.26576777059159e+004,-1.77481857621699e+001,-1.94758563972519e-001

2.29739670999406e+004,-1.77481969486257e+001,-1.97473085924673e-001

2.32946717293690e+004,-1.77482084474774e+001,-2.00225323381811e-001

2.36198532285905e+004,-1.77482202673888e+001,-2.03015795338743e-001

2.39495740923785e+004,-1.77482324172606e+001,-2.05845027721635e-001

2.42838976879009e+004,-1.77482449062360e+001,-2.08713553474351e-001

2.46228882668982e+004,-1.77482577437086e+001,-2.11621912634655e-001

2.49666109780322e+004,-1.77482709393273e+001,-2.14570652428816e-001

2.53151318794055e+004,-1.77482845030046e+001,-2.17560327349549e-001

2.56685179512580e+004,-1.77482984449224e+001,-2.20591499246647e-001

2.60268371088386e+004,-1.77483127755394e+001,-2.23664737413089e-001

2.63901582154578e+004,-1.77483275055989e+001,-2.26780618669761e-001

2.67585510957221e+004,-1.77483426461357e+001,-2.29939727454665e-001

2.71320865489533e+004,-1.77483582084837e+001,-2.33142655913453e-001

2.75108363627948e+004,-1.77483742042834e+001,-2.36390003987785e-001

2.78948733270080e+004,-1.77483906454913e+001,-2.39682379499911e-001

2.82842712474618e+004,-1.77484075443860e+001,-2.43020398249997e-001

2.86791049603164e+004,-1.77484249135781e+001,-2.46404684100757e-001

2.90794503464061e+004,-1.77484427660184e+001,-2.49835869069131e-001

2.94853843458219e+004,-1.77484611150062e+001,-2.53314593420868e-001

2.98969849726987e+004,-1.77484799741989e+001,-2.56841505756468e-001

3.03143313302078e+004,-1.77484993576203e+001,-2.60417263108431e-001

3.07375036257601e+004,-1.77485192796710e+001,-2.64042531029488e-001

3.11665831864199e+004,-1.77485397551373e+001,-2.67717983686441e-001

3.16016524745350e+004,-1.77485607992008e+001,-2.71444303953892e-001

3.20427951035848e+004,-1.77485824274492e+001,-2.75222183503251e-001

3.24900958542493e+004,-1.77486046558859e+001,-2.79052322900466e-001

3.29436406907028e+004,-1.77486275009409e+001,-2.82935431694131e-001

3.34035167771346e+004,-1.77486509794803e+001,-2.86872228515124e-001

3.38698124945009e+004,-1.77486751088192e+001,-2.90863441161668e-001

3.43426174575100e+004,-1.77486999067309e+001,-2.94909806699871e-001

3.48220225318448e+004,-1.77487253914595e+001,-2.99012071551174e-001

3.53081198516260e+004,-1.77487515817308e+001,-3.03170991589481e-001

3.58010028371187e+004,-1.77487784967648e+001,-3.07387332229813e-001

3.63007662126863e+004,-1.77488061562868e+001,-3.11661868525524e-001

3.68075060249948e+004,-1.77488345805406e+001,-3.15995385257709e-001

3.73213196614721e+004,-1.77488637903010e+001,-3.20388677024868e-001

3.78423058690237e+004,-1.77488938068856e+001,-3.24842548341449e-001

3.83705647730104e+004,-1.77489246521694e+001,-3.29357813720065e-001

3.89061978964912e+004,-1.77489563485966e+001,-3.33935297769550e-001

3.94493081797342e+004,-1.77489889191951e+001,-3.38575835279657e-001

3.99999999999998e+004,-1.77490223875900e+001,-3.43280271312972e-001

4.05583791916010e+004,-1.77490567780174e+001,-3.48049461291496e-001

4.11245530662425e+004,-1.77490921153389e+001,-3.52884271087208e-001

4.16986304336447e+004,-1.77491284250560e+001,-3.57785577104392e-001

4.22807216224550e+004,-1.77491657333250e+001,-3.62754266368446e-001

4.28709385014515e+004,-1.77492040669720e+001,-3.67791236608582e-001

4.34693945010421e+004,-1.77492434535078e+001,-3.72897396341297e-001

4.40762046350642e+004,-1.77492839211436e+001,-3.78073664955429e-001

4.46914855228886e+004,-1.77493254988068e+001,-3.83320972787467e-001

4.53153554118317e+004,-1.77493682161568e+001,-3.88640261204473e-001

4.59479341998812e+004,-1.77494121036010e+001,-3.94032482679392e-001

4.65893434587380e+004,-1.77494571923116e+001,-3.99498600869081e-001

4.72397064571810e+004,-1.77495035142414e+001,-4.05039590685968e-001

4.78991481847569e+004,-1.77495511021416e+001,-4.10656438372121e-001

4.85677953758016e+004,-1.77495999895781e+001,-4.16350141565651e-001

4.92457765337964e+004,-1.77496502109486e+001,-4.22121709374214e-001

4.99332219560642e+004,-1.77497018015004e+001,-4.27972162434989e-001

5.06302637588109e+004,-1.77497547973475e+001,-4.33902532980924e-001

5.13370359025159e+004,-1.77498092354889e+001,-4.39913864898487e-001

5.20536742176771e+004,-1.77498651538254e+001,-4.46007213790458e-001

5.27803164309155e+004,-1.77499225911788e+001,-4.52183647023766e-001

5.35171021914442e+004,-1.77499815873087e+001,-4.58444243788440e-001

5.42641730979066e+004,-1.77500421829319e+001,-4.64790095141338e-001

5.50216727255895e+004,-1.77501044197397e+001,-4.71222304054180e-001

5.57897466540159e+004,-1.77501683404170e+001,-4.77741985455341e-001

5.65685424949235e+004,-1.77502339886599e+001,-4.84350266269452e-001

5.73582099206328e+004,-1.77503014091951e+001,-4.91048285448949e-001

5.81589006928121e+004,-1.77503706477973e+001,-4.97837194009584e-001

5.89707686916437e+004,-1.77504417513084e+001,-5.04718155053912e-001

5.97939699453972e+004,-1.77505147676555e+001,-5.11692343796397e-001

6.06286626604156e+004,-1.77505897458692e+001,-5.18760947579658e-001

6.14750072515201e+004,-1.77506667361017e+001,-5.25925165892224e-001

6.23331663728396e+004,-1.77507457896455e+001,-5.33186210372322e-001

6.32033049490698e+004,-1.77508269589504e+001,-5.40545304817901e-001

6.40855902071694e+004,-1.77509102976416e+001,-5.48003685183038e-001

6.49801917084985e+004,-1.77509958605371e+001,-5.55562599573050e-001

6.58872813814055e+004,-1.77510837036653e+001,-5.63223308233715e-001

6.68070335542691e+004,-1.77511738842813e+001,-5.70987083533433e-001

6.77396249890018e+004,-1.77512664608833e+001,-5.78855209944887e-001

6.86852349150199e+004,-1.77513614932292e+001,-5.86828984013874e-001

6.96440450636895e+004,-1.77514590423520e+001,-5.94909714326311e-001

7.06162397032520e+004,-1.77515591705747e+001,-6.03098721469778e-001

7.16020056742374e+004,-1.77516619415250e+001,-6.11397337986661e-001

7.26015324253724e+004,-1.77517674201493e+001,-6.19806908321832e-001

7.36150120499896e+004,-1.77518756727257e+001,-6.28328788765414e-001

7.46426393229441e+004,-1.77519867668765e+001,-6.36964347385897e-001

7.56846117380472e+004,-1.77521007715800e+001,-6.45714963959158e-001

7.67411295460207e+004,-1.77522177571809e+001,-6.54582029889674e-001

7.78123957929823e+004,-1.77523377954007e+001,-6.63566948124824e-001

7.88986163594682e+004,-1.77524609593458e+001,-6.72671133064025e-001

7.99999999999995e+004,-1.77525873235152e+001,-6.81896010457385e-001

8.11167583832018e+004,-1.77527169638075e+001,-6.91243017300433e-001

8.22491061324848e+004,-1.77528499575253e+001,-7.00713601721844e-001

8.33972608672892e+004,-1.77529863833793e+001,-7.10309222861405e-001

8.45614432449099e+004,-1.77531263214908e+001,-7.20031350742341e-001

8.57418770029029e+004,-1.77532698533916e+001,-7.29881466139984e-001

8.69387890020841e+004,-1.77534170620242e+001,-7.39861060436964e-001

8.81524092701283e+004,-1.77535680317377e+001,-7.49971635477912e-001

8.93829710457770e+004,-1.77537228482845e+001,-7.60214703412275e-001

9.06307108236633e+004,-1.77538815988126e+001,-7.70591786535020e-001

9.18958683997622e+004,-1.77540443718574e+001,-7.81104417118670e-001

9.31786869174758e+004,-1.77542112573306e+001,-7.91754137238199e-001

9.44794129143618e+004,-1.77543823465068e+001,-8.02542498591820e-001

9.57982963695136e+004,-1.77545577320078e+001,-8.13471062316029e-001

9.71355907516031e+004,-1.77547375077841e+001,-8.24541398794779e-001

9.84915530675926e+004,-1.77549217690937e+001,-8.35755087462713e-001

9.98664439121282e+004,-1.77551106124785e+001,-8.47113716606026e-001

1.01260527517622e+005,-1.77553041357363e+001,-8.58618883158607e-001

1.02674071805032e+005,-1.77555024378921e+001,-8.70272192492124e-001

1.04107348435354e+005,-1.77557056191632e+001,-8.82075258208335e-001

1.05560632861831e+005,-1.77559137809231e+001,-8.94029701923519e-001

1.07034204382888e+005,-1.77561270256613e+001,-9.06137153054215e-001

1.08528346195813e+005,-1.77563454569383e+001,-9.18399248603829e-001

1.10043345451179e+005,-1.77565691793384e+001,-9.30817632943468e-001

1.11579493308032e+005,-1.77567982984172e+001,-9.43393957599779e-001

1.13137084989847e+005,-1.77570329206459e+001,-9.56129881041593e-001

1.14716419841265e+005,-1.77572731533503e+001,-9.69027068468642e-001

1.16317801385624e+005,-1.77575191046465e+001,-9.82087191605958e-001

1.17941537383287e+005,-1.77577708833710e+001,-9.95311928503294e-001

1.19587939890794e+005,-1.77580285990068e+001,-1.00870296334026e+000

1.21257325320831e+005,-1.77582923616045e+001,-1.02226198623826e+000

1.22950014503040e+005,-1.77585622816982e+001,-1.03599069308315e+000

1.24666332745679e+005,-1.77588384702163e+001,-1.04989078535957e+000

1.26406609898139e+005,-1.77591210383874e+001,-1.06396396999456e+000

1.28171180414339e+005,-1.77594100976411e+001,-1.07821195921578e+000

1.29960383416997e+005,-1.77597057595020e+001,-1.09263647042997e+000

1.31774562762811e+005,-1.77600081354801e+001,-1.10723922611241e+000

1.33614067108538e+005,-1.77603173369543e+001,-1.12202195372039e+000

1.35479249978003e+005,-1.77606334750502e+001,-1.13698638562745e+000

1.37370469830040e+005,-1.77609566605131e+001,-1.15213425908188e+000

1.39288090127379e+005,-1.77612870035744e+001,-1.16746731618792e+000

1.41232479406504e+005,-1.77616246138120e+001,-1.18298730392279e+000

1.43204011348474e+005,-1.77619696000057e+001,-1.19869597417570e+000

1.45203064850745e+005,-1.77623220699864e+001,-1.21459508382733e+000

1.47230024099979e+005,-1.77626821304786e+001,-1.23068639486067e+000

1.49285278645888e+005,-1.77630498869386e+001,-1.24697167451471e+000

1.51369223476094e+005,-1.77634254433857e+001,-1.26345269547410e+000

1.53482259092041e+005,-1.77638089022288e+001,-1.28013123610752e+000

1.55624791585964e+005,-1.77642003640861e+001,-1.29700908075184e+000

1.57797232718936e+005,-1.77645999276010e+001,-1.31408802004359e+000

1.59999999999999e+005,-1.77650076892510e+001,-1.33136985130823e+000

1.62233516766403e+005,-1.77654237431533e+001,-1.34885637899982e+000

1.64498212264969e+005,-1.77658481808640e+001,-1.36654941520324e+000

1.66794521734578e+005,-1.77662810911734e+001,-1.38445078019626e+000

1.69122886489819e+005,-1.77667225598971e+001,-1.40256230307830e+000

1.71483754005805e+005,-1.77671726696622e+001,-1.42088582246480e+000

1.73877578004168e+005,-1.77676314996911e+001,-1.43942318725390e+000

1.76304818540256e+005,-1.77680991255803e+001,-1.45817625746687e+000

1.78765942091554e+005,-1.77685756190781e+001,-1.47714690516426e+000

1.81261421647326e+005,-1.77690610478581e+001,-1.49633701544257e+000

1.83791736799524e+005,-1.77695554752918e+001,-1.51574848751285e+000

1.86357373834951e+005,-1.77700589602195e+001,-1.53538323586306e+000

1.88958825828723e+005,-1.77705715567198e+001,-1.55524319151018e+000

1.91596592739027e+005,-1.77710933138790e+001,-1.57533030333982e+000

1.94271181503206e+005,-1.77716242755613e+001,-1.59564653953782e+000

1.96983106135185e+005,-1.77721644801788e+001,-1.61619388911800e+000

1.99732887824256e+005,-1.77727139604642e+001,-1.63697436354272e+000

2.02521055035243e+005,-1.77732727432450e+001,-1.65798999844280e+000

2.05348143610063e+005,-1.77738408492214e+001,-1.67924285543559e+000

2.08214696870707e+005,-1.77744182927478e+001,-1.70073502404191e+000

2.11121265723661e+005,-1.77750050816190e+001,-1.72246862370433e+000

2.14068408765776e+005,-1.77756012168616e+001,-1.74444580590703e+000

2.17056692391625e+005,-1.77762066925329e+001,-1.76666875639477e+000

2.20086690902357e+005,-1.77768214955255e+001,-1.78913969749465e+000

2.23158986616063e+005,-1.77774456053811e+001,-1.81186089053818e+000

2.26274169979693e+005,-1.77780789941137e+001,-1.83483463838033e+000

2.29432839682530e+005,-1.77787216260413e+001,-1.85806328802000e+000

2.32635602771247e+005,-1.77793734576305e+001,-1.88154923331451e+000

2.35883074766574e+005,-1.77800344373511e+001,-1.90529491778901e+000

2.39175879781588e+005,-1.77807045055449e+001,-1.92930283753687e+000

2.42514650641661e+005,-1.77813835943075e+001,-1.95357554420917e+000

2.45900029006080e+005,-1.77820716273848e+001,-1.97811564808790e+000

2.49332665491357e+005,-1.77827685200852e+001,-2.00292582124239e+000

2.52813219796278e+005,-1.77834741792079e+001,-2.02800880075885e+000

2.56342360828676e+005,-1.77841885029888e+001,-2.05336739204455e+000

2.59920766833993e+005,-1.77849113810636e+001,-2.07900447219712e+000

2.63549125525621e+005,-1.77856426944506e+001,-2.10492299343393e+000

2.67228134217075e+005,-1.77863823155528e+001,-2.13112598657653e+000

2.70958499956006e+005,-1.77871301081788e+001,-2.15761656458278e+000

2.74740939660078e+005,-1.77878859275865e+001,-2.18439792612007e+000

2.78576180254757e+005,-1.77886496205464e+001,-2.21147335917126e+000

2.82464958813007e+005,-1.77894210254277e+001,-2.23884624466697e+000

2.86408022696948e+005,-1.77901999723053e+001,-2.26652006013585e+000

2.90406129701488e+005,-1.77909862830907e+001,-2.29449838336381e+000

2.94460048199957e+005,-1.77917797716842e+001,-2.32278489605450e+000

2.98570557291775e+005,-1.77925802441511e+001,-2.35138338748267e+000

3.02738446952187e+005,-1.77933874989194e+001,-2.38029775813096e+000

3.06964518184081e+005,-1.77942013270018e+001,-2.40953202329852e+000

3.11249583171928e+005,-1.77950215122391e+001,-2.43909031667968e+000

3.15594465437872e+005,-1.77958478315668e+001,-2.46897689389469e+000

3.19999999999997e+005,-1.77966800553038e+001,-2.49919613597013e+000

3.24467033532806e+005,-1.77975179474621e+001,-2.52975255275546e+000

3.28996424529938e+005,-1.77983612660787e+001,-2.56065078627132e+000

3.33589043469155e+005,-1.77992097635669e+001,-2.59189561397688e+000

3.38245772979638e+005,-1.78000631870881e+001,-2.62349195194946e+000

3.42967508011610e+005,-1.78009212789428e+001,-2.65544485796837e+000

3.47755156008335e+005,-1.78017837769784e+001,-2.68775953449601e+000

3.52609637080511e+005,-1.78026504150156e+001,-2.72044133154616e+000

3.57531884183106e+005,-1.78035209232895e+001,-2.75349574943541e+000

3.62522843294651e+005,-1.78043950289062e+001,-2.78692844140973e+000

3.67583473599047e+005,-1.78052724563124e+001,-2.82074521613937e+000

3.72714747669902e+005,-1.78061529277777e+001,-2.85495204008033e+000

3.77917651657445e+005,-1.78070361638871e+001,-2.88955503969263e+000

3.83193185478053e+005,-1.78079218840437e+001,-2.92456050351493e+000

3.88542363006410e+005,-1.78088098069783e+001,-2.95997488409106e+000

3.93966212270369e+005,-1.78096996512662e+001,-2.99580479974526e+000

3.99465775648511e+005,-1.78105911358483e+001,-3.03205703620443e+000

4.05042110070485e+005,-1.78114839805557e+001,-3.06873854806649e+000

4.10696287220124e+005,-1.78123779066363e+001,-3.10585646011307e+000

4.16429393741414e+005,-1.78132726372802e+001,-3.14341806846885e+000

4.22242531447321e+005,-1.78141678981454e+001,-3.18143084160680e+000

4.28136817531551e+005,-1.78150634178787e+001,-3.21990242120072e+000

4.34113384783250e+005,-1.78159589286335e+001,-3.25884062282892e+000

4.40173381804713e+005,-1.78168541665800e+001,-3.29825343653304e+000

4.46317973232124e+005,-1.78177488724087e+001,-3.33814902723175e+000

4.52548339959385e+005,-1.78186427918249e+001,-3.37853573499846e+000

4.58865679365059e+005,-1.78195356760323e+001,-3.41942207520639e+000

4.65271205542494e+005,-1.78204272822048e+001,-3.46081673854622e+000

4.71766149533147e+005,-1.78213173739463e+001,-3.50272859092275e+000

4.78351759563174e+005,-1.78222057217348e+001,-3.54516667323942e+000

4.85029301283321e+005,-1.78230921033528e+001,-3.58814020107579e+000

4.91800058012158e+005,-1.78239763043009e+001,-3.63165856426644e+000

4.98665330982714e+005,-1.78248581181938e+001,-3.67573132639050e+000

5.05626439592555e+005,-1.78257373471392e+001,-3.72036822417970e+000

5.12684721657352e+005,-1.78266138020978e+001,-3.76557916685267e+000

5.19841533667984e+005,-1.78274873032238e+001,-3.81137423538662e+000

5.27098251051240e+005,-1.78283576801861e+001,-3.85776368173511e+000

5.34456268434150e+005,-1.78292247724688e+001,-3.90475792800023e+000

5.41916999912011e+005,-1.78300884296521e+001,-3.95236756556897e+000

