Freq.,VOut,OutRef

1.00000000000000e+004,-1.50192577585169e+001,-1.30230932818588e-001

1.01395947979003e+004,-1.50192596209245e+001,-1.32048583289715e-001

1.02811382665607e+004,-1.50192615356241e+001,-1.33891594250686e-001

1.04246576084112e+004,-1.50192635040819e+001,-1.35760319169543e-001

1.05701804056138e+004,-1.50192655278055e+001,-1.37655116426356e-001

1.07177346253629e+004,-1.50192676083439e+001,-1.39576349381698e-001

1.08673486252606e+004,-1.50192697472902e+001,-1.41524386439756e-001

1.10190511587661e+004,-1.50192719462815e+001,-1.43499601124083e-001

1.11728713807222e+004,-1.50192742070008e+001,-1.45502372143790e-001

1.13288388529580e+004,-1.50192765311783e+001,-1.47533083464889e-001

1.14869835499703e+004,-1.50192789205924e+001,-1.49592124385005e-001

1.16473358646846e+004,-1.50192813770708e+001,-1.51679889605232e-001

1.18099266142953e+004,-1.50192839024931e+001,-1.53796779301957e-001

1.19747870461893e+004,-1.50192864987908e+001,-1.55943199204936e-001

1.21419488439505e+004,-1.50192891679493e+001,-1.58119560674557e-001

1.23114441334492e+004,-1.50192919120094e+001,-1.60326280774774e-001

1.24833054890161e+004,-1.50192947330693e+001,-1.62563782353218e-001

1.26575659397028e+004,-1.50192976332850e+001,-1.64832494122095e-001

1.28342589756290e+004,-1.50193006148737e+001,-1.67132850732703e-001

1.30134185544193e+004,-1.50193036801132e+001,-1.69465292865871e-001

1.31950791077289e+004,-1.50193068313456e+001,-1.71830267306066e-001

1.33792755478611e+004,-1.50193100709783e+001,-1.74228227026585e-001

1.35660432744767e+004,-1.50193134014853e+001,-1.76659631277025e-001

1.37554181813974e+004,-1.50193168254099e+001,-1.79124945666002e-001

1.39474366635040e+004,-1.50193203453663e+001,-1.81624642248239e-001

1.41421356237309e+004,-1.50193239640411e+001,-1.84159199612908e-001

1.43395524801583e+004,-1.50193276841960e+001,-1.86729102972865e-001

1.45397251732031e+004,-1.50193315086696e+001,-1.89334844252096e-001

1.47426921729110e+004,-1.50193354403795e+001,-1.91976922179946e-001

1.49484924863494e+004,-1.50193394823241e+001,-1.94655842382932e-001

1.51571656651040e+004,-1.50193436375854e+001,-1.97372117478123e-001

1.53687518128801e+004,-1.50193479093313e+001,-2.00126267164733e-001

1.55832915932100e+004,-1.50193523008174e+001,-2.02918818324182e-001

1.58008262372675e+004,-1.50193568153897e+001,-2.05750305116907e-001

1.60213975517924e+004,-1.50193614564876e+001,-2.08621269076758e-001

1.62450479271247e+004,-1.50193662276456e+001,-2.11532259216076e-001

1.64718203453514e+004,-1.50193711324963e+001,-2.14483832121096e-001

1.67017583885674e+004,-1.50193761747730e+001,-2.17476552059439e-001

1.69349062472505e+004,-1.50193813583129e+001,-2.20510991079002e-001

1.71713087287550e+004,-1.50193866870592e+001,-2.23587729114447e-001

1.74110112659224e+004,-1.50193921650643e+001,-2.26707354094827e-001

1.76540599258131e+004,-1.50193977964934e+001,-2.29870462045543e-001

1.79005014185594e+004,-1.50194035856264e+001,-2.33077657203600e-001

1.81503831063432e+004,-1.50194095368621e+001,-2.36329552122798e-001

1.84037530124975e+004,-1.50194156547204e+001,-2.39626767787884e-001

1.86606598307361e+004,-1.50194219438469e+001,-2.42969933723931e-001

1.89211529345119e+004,-1.50194284090151e+001,-2.46359688112952e-001

1.91852823865052e+004,-1.50194350551304e+001,-2.49796677908775e-001

1.94530989482457e+004,-1.50194418872336e+001,-2.53281558953557e-001

1.97246540898671e+004,-1.50194489105050e+001,-2.56814996093330e-001

1.99999999999999e+004,-1.50194561302672e+001,-2.60397663303786e-001

2.02791895958005e+004,-1.50194635519898e+001,-2.64030243804098e-001

2.05622765331213e+004,-1.50194711812931e+001,-2.67713430182898e-001

2.08493152168224e+004,-1.50194790239522e+001,-2.71447924521124e-001

2.11403608112276e+004,-1.50194870859008e+001,-2.75234438520317e-001

2.14354692507258e+004,-1.50194953732362e+001,-2.79073693623060e-001

2.17346972505211e+004,-1.50195038922228e+001,-2.82966421146187e-001

2.20381023175322e+004,-1.50195126492975e+001,-2.86913362407886e-001

2.23457427614443e+004,-1.50195216510736e+001,-2.90915268859615e-001

2.26576777059159e+004,-1.50195309043459e+001,-2.94972902219435e-001

2.29739670999406e+004,-1.50195404160951e+001,-2.99087034604401e-001

2.32946717293690e+004,-1.50195501934938e+001,-3.03258448665244e-001

2.36198532285905e+004,-1.50195602439101e+001,-3.07487937726313e-001

2.39495740923785e+004,-1.50195705749141e+001,-3.11776305921954e-001

2.42838976879009e+004,-1.50195811942825e+001,-3.16124368336450e-001

2.46228882668982e+004,-1.50195921100048e+001,-3.20532951144900e-001

2.49666109780322e+004,-1.50196033302876e+001,-3.25002891760334e-001

2.53151318794055e+004,-1.50196148635618e+001,-3.29535038972369e-001

2.56685179512580e+004,-1.50196267184879e+001,-3.34130253095462e-001

2.60268371088386e+004,-1.50196389039618e+001,-3.38789406118317e-001

2.63901582154578e+004,-1.50196514291212e+001,-3.43513381851259e-001

2.67585510957221e+004,-1.50196643033520e+001,-3.48303076076185e-001

2.71320865489533e+004,-1.50196775362949e+001,-3.53159396698445e-001

2.75108363627948e+004,-1.50196911378515e+001,-3.58083263903514e-001

2.78948733270080e+004,-1.50197051181918e+001,-3.63075610307162e-001

2.82842712474618e+004,-1.50197194877606e+001,-3.68137381116917e-001

2.86791049603164e+004,-1.50197342572849e+001,-3.73269534286549e-001

2.90794503464061e+004,-1.50197494377812e+001,-3.78473040676956e-001

2.94853843458219e+004,-1.50197650405626e+001,-3.83748884218427e-001

2.98969849726987e+004,-1.50197810772471e+001,-3.89098062069442e-001

3.03143313302078e+004,-1.50197975597648e+001,-3.94521584785861e-001

3.07375036257601e+004,-1.50198145003659e+001,-4.00020476482716e-001

3.11665831864199e+004,-1.50198319116296e+001,-4.05595775000798e-001

3.16016524745350e+004,-1.50198498064714e+001,-4.11248532078024e-001

3.20427951035848e+004,-1.50198681981520e+001,-4.16979813518277e-001

3.24900958542493e+004,-1.50198871002868e+001,-4.22790699359202e-001

3.29436406907028e+004,-1.50199065268535e+001,-4.28682284050279e-001

3.34035167771346e+004,-1.50199264922022e+001,-4.34655676622087e-001

3.38698124945009e+004,-1.50199470110641e+001,-4.40712000864831e-001

3.43426174575100e+004,-1.50199680985614e+001,-4.46852395502557e-001

3.48220225318448e+004,-1.50199897702168e+001,-4.53078014373642e-001

3.53081198516260e+004,-1.50200120419634e+001,-4.59390026607944e-001

3.58010028371187e+004,-1.50200349301546e+001,-4.65789616808688e-001

3.63007662126863e+004,-1.50200584515749e+001,-4.72277985233267e-001

3.68075060249948e+004,-1.50200826234500e+001,-4.78856347976806e-001

3.73213196614721e+004,-1.50201074634575e+001,-4.85525937156357e-001

3.78423058690237e+004,-1.50201329897381e+001,-4.92288001096918e-001

3.83705647730104e+004,-1.50201592209067e+001,-4.99143804514812e-001

3.89061978964912e+004,-1.50201861760633e+001,-5.06094628710063e-001

3.94493081797342e+004,-1.50202138748049e+001,-5.13141771750913e-001

3.99999999999998e+004,-1.50202423372377e+001,-5.20286548664170e-001

4.05583791916010e+004,-1.50202715839880e+001,-5.27530291627924e-001

4.11245530662425e+004,-1.50203016362154e+001,-5.34874350159847e-001

4.16986304336447e+004,-1.50203325156248e+001,-5.42320091311399e-001

4.22807216224550e+004,-1.50203642444789e+001,-5.49868899860348e-001

4.28709385014515e+004,-1.50203968456111e+001,-5.57522178504538e-001

4.34693945010421e+004,-1.50204303424385e+001,-5.65281348057544e-001

4.40762046350642e+004,-1.50204647589756e+001,-5.73147847639839e-001

4.46914855228886e+004,-1.50205001198467e+001,-5.81123134881134e-001

4.53153554118317e+004,-1.50205364503005e+001,-5.89208686111420e-001

4.59479341998812e+004,-1.50205737762236e+001,-5.97405996557890e-001

4.65893434587380e+004,-1.50206121241542e+001,-6.05716580545882e-001

4.72397064571810e+004,-1.50206515212968e+001,-6.14141971692910e-001

4.78991481847569e+004,-1.50206919955361e+001,-6.22683723107661e-001

4.85677953758016e+004,-1.50207335754521e+001,-6.31343407587343e-001

4.92457765337964e+004,-1.50207762903341e+001,-6.40122617817586e-001

4.99332219560642e+004,-1.50208201701963e+001,-6.49022966567102e-001

5.06302637588109e+004,-1.50208652457924e+001,-6.58046086889001e-001

5.13370359025159e+004,-1.50209115486308e+001,-6.67193632317333e-001

5.20536742176771e+004,-1.50209591109901e+001,-6.76467277064196e-001

5.27803164309155e+004,-1.50210079659346e+001,-6.85868716217454e-001

5.35171021914442e+004,-1.50210581473290e+001,-6.95399665939633e-001

5.42641730979066e+004,-1.50211096898553e+001,-7.05061863661041e-001

5.50216727255895e+004,-1.50211626290276e+001,-7.14857068278670e-001

5.57897466540159e+004,-1.50212170012085e+001,-7.24787060348677e-001

5.65685424949235e+004,-1.50212728436241e+001,-7.34853642284306e-001

5.73582099206328e+004,-1.50213301943808e+001,-7.45058638546741e-001

5.81589006928121e+004,-1.50213890924807e+001,-7.55403895838209e-001

5.89707686916437e+004,-1.50214495778375e+001,-7.65891283294718e-001

5.97939699453972e+004,-1.50215116912923e+001,-7.76522692675999e-001

6.06286626604156e+004,-1.50215754746298e+001,-7.87300038553970e-001

6.14750072515201e+004,-1.50216409705937e+001,-7.98225258501743e-001

6.23331663728396e+004,-1.50217082229022e+001,-8.09300313278828e-001

6.32033049490698e+004,-1.50217772762640e+001,-8.20527187017308e-001

6.40855902071694e+004,-1.50218481763934e+001,-8.31907887403011e-001

6.49801917084985e+004,-1.50219209700251e+001,-8.43444445858954e-001

6.58872813814055e+004,-1.50219957049298e+001,-8.55138917724031e-001

6.68070335542691e+004,-1.50220724299287e+001,-8.66993382429501e-001

6.77396249890018e+004,-1.50221511949075e+001,-8.79009943676442e-001

6.86852349150199e+004,-1.50222320508310e+001,-8.91190729608012e-001

6.96440450636895e+004,-1.50223150497566e+001,-9.03537892979770e-001

7.06162397032520e+004,-1.50224002448474e+001,-9.16053611329891e-001

7.16020056742374e+004,-1.50224876903853e+001,-9.28740087146176e-001

7.26015324253724e+004,-1.50225774417832e+001,-9.41599548027908e-001

7.36150120499896e+004,-1.50226695555966e+001,-9.54634246848737e-001

7.46426393229441e+004,-1.50227640895352e+001,-9.67846461914913e-001

7.56846117380472e+004,-1.50228611024727e+001,-9.81238497122501e-001

7.67411295460207e+004,-1.50229606544569e+001,-9.94812682110689e-001

7.78123957929823e+004,-1.50230628067188e+001,-1.00857137241257e+000

7.88986163594682e+004,-1.50231676216805e+001,-1.02251694960215e+000

7.99999999999995e+004,-1.50232751629622e+001,-1.03665182144212e+000

8.11167583832018e+004,-1.50233854953885e+001,-1.05097842202599e+000

8.22491061324848e+004,-1.50234986849940e+001,-1.06549921191646e+000

8.33972608672892e+004,-1.50236147990263e+001,-1.08021667828575e+000

8.45614432449099e+004,-1.50237339059495e+001,-1.09513333504874e+000

8.57418770029029e+004,-1.50238560754458e+001,-1.11025172299543e+000

8.69387890020841e+004,-1.50239813784146e+001,-1.12557440992217e+000

8.81524092701283e+004,-1.50241098869724e+001,-1.14110399075734e+000

8.93829710457770e+004,-1.50242416744486e+001,-1.15684308769038e+000

9.06307108236633e+004,-1.50243768153821e+001,-1.17279435029128e+000

9.18958683997622e+004,-1.50245153855138e+001,-1.18896045563588e+000

9.31786869174758e+004,-1.50246574617795e+001,-1.20534410842421e+000

9.44794129143618e+004,-1.50248031222987e+001,-1.22194804110095e+000

9.57982963695136e+004,-1.50249524463633e+001,-1.23877501397278e+000

9.71355907516031e+004,-1.50251055144227e+001,-1.25582781532548e+000

9.84915530675926e+004,-1.50252624080675e+001,-1.27310926154150e+000

9.98664439121282e+004,-1.50254232100101e+001,-1.29062219721789e+000

1.01260527517622e+005,-1.50255880040636e+001,-1.30836949528295e+000

1.02674071805032e+005,-1.50257568751176e+001,-1.32635405711591e+000

1.04107348435354e+005,-1.50259299091113e+001,-1.34457881266647e+000

1.05560632861831e+005,-1.50261071930039e+001,-1.36304672057843e+000

1.07034204382888e+005,-1.50262888147418e+001,-1.38176076831523e+000

1.08528346195813e+005,-1.50264748632232e+001,-1.40072397228742e+000

1.10043345451179e+005,-1.50266654282589e+001,-1.41993937798739e+000

1.11579493308032e+005,-1.50268606005304e+001,-1.43941006012677e+000

1.13137084989847e+005,-1.50270604715438e+001,-1.45913912278115e+000

1.14716419841265e+005,-1.50272651335807e+001,-1.47912969954087e+000

1.16317801385624e+005,-1.50274746796454e+001,-1.49938495366986e+000

1.17941537383287e+005,-1.50276892034085e+001,-1.51990807827249e+000

1.19587939890794e+005,-1.50279087991453e+001,-1.54070229647369e+000

1.21257325320831e+005,-1.50281335616720e+001,-1.56177086160610e+000

1.22950014503040e+005,-1.50283635862766e+001,-1.58311705741154e+000

1.24666332745679e+005,-1.50285989686460e+001,-1.60474419825708e+000

1.26406609898139e+005,-1.50288398047883e+001,-1.62665562936646e+000

1.28171180414339e+005,-1.50290861909515e+001,-1.64885472706575e+000

1.29960383416997e+005,-1.50293382235368e+001,-1.67134489904992e+000

1.31774562762811e+005,-1.50295959990078e+001,-1.69412958466907e+000

1.33614067108538e+005,-1.50298596137950e+001,-1.71721225523543e+000

1.35479249978003e+005,-1.50301291641958e+001,-1.74059641435335e+000

1.37370469830040e+005,-1.50304047462686e+001,-1.76428559827829e+000

1.39288090127379e+005,-1.50306864557240e+001,-1.78828337629768e+000

1.41232479406504e+005,-1.50309743878092e+001,-1.81259335114555e+000

1.43204011348474e+005,-1.50312686371890e+001,-1.83721915944762e+000

1.45203064850745e+005,-1.50315692978209e+001,-1.86216447219837e+000

1.47230024099979e+005,-1.50318764628263e+001,-1.88743299527618e+000

1.49285278645888e+005,-1.50321902243561e+001,-1.91302846999597e+000

1.51369223476094e+005,-1.50325106734519e+001,-1.93895467370116e+000

1.53482259092041e+005,-1.50328378999025e+001,-1.96521542040143e+000

1.55624791585964e+005,-1.50331719920960e+001,-1.99181456145380e+000

1.57797232718936e+005,-1.50335130368666e+001,-2.01875598629149e+000

1.59999999999999e+005,-1.50338611193381e+001,-2.04604362320669e+000

1.62233516766403e+005,-1.50342163227627e+001,-2.07368144018074e+000

1.64498212264969e+005,-1.50345787283555e+001,-2.10167344577628e+000

1.66794521734578e+005,-1.50349484151255e+001,-2.13002369008468e+000

1.69122886489819e+005,-1.50353254597032e+001,-2.15873626573362e+000

1.71483754005805e+005,-1.50357099361646e+001,-2.18781530896063e+000

1.73877578004168e+005,-1.50361019158520e+001,-2.21726500075180e+000

1.76304818540256e+005,-1.50365014671923e+001,-2.24708956804965e+000

1.78765942091554e+005,-1.50369086555133e+001,-2.27729328503226e+000

1.81261421647326e+005,-1.50373235428571e+001,-2.30788047446547e+000

1.83791736799524e+005,-1.50377461877925e+001,-2.33885550913404e+000

1.86357373834951e+005,-1.50381766452264e+001,-2.37022281334663e+000

1.88958825828723e+005,-1.50386149662140e+001,-2.40198686452709e+000

1.91596592739027e+005,-1.50390611977688e+001,-2.43415219488410e+000

1.94271181503206e+005,-1.50395153826738e+001,-2.46672339316838e+000

1.96983106135185e+005,-1.50399775592920e+001,-2.49970510651562e+000

1.99732887824256e+005,-1.50404477613802e+001,-2.53310204237591e+000

2.02521055035243e+005,-1.50409260179035e+001,-2.56691897053678e+000

2.05348143610063e+005,-1.50414123528527e+001,-2.60116072523382e+000

2.08214696870707e+005,-1.50419067850659e+001,-2.63583220735400e+000

2.11121265723661e+005,-1.50424093280533e+001,-2.67093838673264e+000

2.14068408765776e+005,-1.50429199898270e+001,-2.70648430454246e+000

2.17056692391625e+005,-1.50434387727367e+001,-2.74247507577665e+000

2.20086690902357e+005,-1.50439656733109e+001,-2.77891589182547e+000

2.23158986616063e+005,-1.50445006821057e+001,-2.81581202314560e+000

2.26274169979693e+005,-1.50450437835616e+001,-2.85316882202154e+000

2.29432839682530e+005,-1.50455949558679e+001,-2.89099172541975e+000

2.32635602771247e+005,-1.50461541708370e+001,-2.92928625793048e+000

2.35883074766574e+005,-1.50467213937897e+001,-2.96805803480043e+000

2.39175879781588e+005,-1.50472965834495e+001,-3.00731276504926e+000

2.42514650641661e+005,-1.50478796918501e+001,-3.04705625467255e+000

2.45900029006080e+005,-1.50484706642552e+001,-3.08729440992217e+000

2.49332665491357e+005,-1.50490694390908e+001,-3.12803324066894e+000

2.52813219796278e+005,-1.50496759478921e+001,-3.16927886383385e+000

2.56342360828676e+005,-1.50502901152648e+001,-3.21103750689557e+000

2.59920766833993e+005,-1.50509118588615e+001,-3.25331551145886e+000

2.63549125525621e+005,-1.50515410893747e+001,-3.29611933688635e+000

2.67228134217075e+005,-1.50521777105459e+001,-3.33945556398714e+000

2.70958499956006e+005,-1.50528216191916e+001,-3.38333089875388e+000

2.74740939660078e+005,-1.50534727052476e+001,-3.42775217614738e+000

2.78576180254757e+005,-1.50541308518309e+001,-3.47272636391782e+000

2.82464958813007e+005,-1.50547959353204e+001,-3.51826056646038e+000

2.86408022696948e+005,-1.50554678254563e+001,-3.56436202869625e+000

2.90406129701488e+005,-1.50561463854582e+001,-3.61103813997279e+000

2.94460048199957e+005,-1.50568314721638e+001,-3.65829643797598e+000

2.98570557291775e+005,-1.50575229361854e+001,-3.70614461264831e+000

3.02738446952187e+005,-1.50582206220870e+001,-3.75459051010426e+000

3.06964518184081e+005,-1.50589243685807e+001,-3.80364213653558e+000

3.11249583171928e+005,-1.50596340087423e+001,-3.85330766209985e+000

3.15594465437872e+005,-1.50603493702459e+001,-3.90359542478474e+000

3.19999999999997e+005,-1.50610702756182e+001,-3.95451393423894e+000

3.24467033532806e+005,-1.50617965425101e+001,-4.00607187556525e+000

3.28996424529938e+005,-1.50625279839882e+001,-4.05827811306449e+000

3.33589043469155e+005,-1.50632644088419e+001,-4.11114169392845e+000

3.38245772979638e+005,-1.50640056219089e+001,-4.16467185186859e+000

3.42967508011610e+005,-1.50647514244168e+001,-4.21887801067935e+000

3.47755156008335e+005,-1.50655016143399e+001,-4.27376978772681e+000

3.52609637080511e+005,-1.50662559867709e+001,-4.32935699735659e+000

3.57531884183106e+005,-1.50670143343064e+001,-4.38564965421676e+000

3.62522843294651e+005,-1.50677764474454e+001,-4.44265797648867e+000

3.67583473599047e+005,-1.50685421149994e+001,-4.50039238902331e+000

3.72714747669902e+005,-1.50693111245131e+001,-4.55886352637488e+000

3.77917651657445e+005,-1.50700832626952e+001,-4.61808223573246e+000

3.83193185478053e+005,-1.50708583158568e+001,-4.67805957974330e+000

3.88542363006410e+005,-1.50716360703577e+001,-4.73880683922468e+000

3.93966212270369e+005,-1.50724163130576e+001,-4.80033551576559e+000

3.99465775648511e+005,-1.50731988317733e+001,-4.86265733421273e+000

4.05042110070485e+005,-1.50739834157374e+001,-4.92578424504251e+000

4.10696287220124e+005,-1.50747698560605e+001,-4.98972842661685e+000

4.16429393741414e+005,-1.50755579461930e+001,-5.05450228732620e+000

4.22242531447321e+005,-1.50763474823867e+001,-5.12011846761615e+000

4.28136817531551e+005,-1.50771382641542e+001,-5.18658984190380e+000

4.34113384783250e+005,-1.50779300947250e+001,-5.25392952038323e+000

4.40173381804713e+005,-1.50787227814972e+001,-5.32215085072393e+000

4.46317973232124e+005,-1.50795161364832e+001,-5.39126741966607e+000

4.52548339959385e+005,-1.50803099767483e+001,-5.46129305451469e+000

4.58865679365059e+005,-1.50811041248418e+001,-5.53224182454065e+000

4.65271205542494e+005,-1.50818984092182e+001,-5.60412804228923e+000

4.71766149533147e+005,-1.50826926646488e+001,-5.67696626480599e+000

4.78351759563174e+005,-1.50834867326212e+001,-5.75077129478299e+000

4.85029301283321e+005,-1.50842804617280e+001,-5.82555818163327e+000

4.91800058012158e+005,-1.50850737080415e+001,-5.90134222249968e+000

4.98665330982714e+005,-1.50858663354753e+001,-5.97813896320543e+000

5.05626439592555e+005,-1.50866582161315e+001,-6.05596419915339e+000

5.12684721657352e+005,-1.50874492306330e+001,-6.13483397618321e+000

5.19841533667984e+005,-1.50882392684404e+001,-6.21476459139176e+000

5.27098251051240e+005,-1.50890282281532e+001,-6.29577259392630e+000

5.34456268434150e+005,-1.50898160177947e+001,-6.37787478575918e+000

5.41916999912011e+005,-1.50906025550808e+001,-6.46108822245062e+000

