Freq.,VOut,OutRef

1.00000000000000e+004,-1.66934955455607e+001,-1.87259647923087e-001

1.01395947979003e+004,-1.66934972570533e+001,-1.89873439020403e-001

1.02811382665607e+004,-1.66934990166063e+001,-1.92523706413099e-001

1.04246576084112e+004,-1.66935008255676e+001,-1.95210958829571e-001

1.05701804056138e+004,-1.66935026853230e+001,-1.97935712081740e-001

1.07177346253629e+004,-1.66935045972967e+001,-2.00698489161017e-001

1.08673486252606e+004,-1.66935065629533e+001,-2.03499820337568e-001

1.10190511587661e+004,-1.66935085837975e+001,-2.06340243264426e-001

1.11728713807222e+004,-1.66935106613773e+001,-2.09220303072203e-001

1.13288388529580e+004,-1.66935127972828e+001,-2.12140552482344e-001

1.14869835499703e+004,-1.66935149931492e+001,-2.15101551903188e-001

1.16473358646846e+004,-1.66935172506573e+001,-2.18103869542360e-001

1.18099266142953e+004,-1.66935195715345e+001,-2.21148081511621e-001

1.19747870461893e+004,-1.66935219575572e+001,-2.24234771934923e-001

1.21419488439505e+004,-1.66935244105508e+001,-2.27364533063174e-001

1.23114441334492e+004,-1.66935269323919e+001,-2.30537965382762e-001

1.24833054890161e+004,-1.66935295250095e+001,-2.33755677730174e-001

1.26575659397028e+004,-1.66935321903864e+001,-2.37018287408620e-001

1.28342589756290e+004,-1.66935349305609e+001,-2.40326420302856e-001

1.30134185544193e+004,-1.66935377476280e+001,-2.43680710998506e-001

1.31950791077289e+004,-1.66935406437412e+001,-2.47081802902069e-001

1.33792755478611e+004,-1.66935436211142e+001,-2.50530348362153e-001

1.35660432744767e+004,-1.66935466820222e+001,-2.54027008792661e-001

1.37554181813974e+004,-1.66935498288042e+001,-2.57572454797279e-001

1.39474366635040e+004,-1.66935530638641e+001,-2.61167366296751e-001

1.41421356237309e+004,-1.66935563896729e+001,-2.64812432656958e-001

1.43395524801583e+004,-1.66935598087705e+001,-2.68508352817858e-001

1.45397251732031e+004,-1.66935633237676e+001,-2.72255835425262e-001

1.47426921729110e+004,-1.66935669373474e+001,-2.76055598965894e-001

1.49484924863494e+004,-1.66935706522679e+001,-2.79908371900940e-001

1.51571656651040e+004,-1.66935744713641e+001,-2.83814892802538e-001

1.53687518128801e+004,-1.66935783975496e+001,-2.87775910494227e-001

1.55832915932100e+004,-1.66935824338191e+001,-2.91792184190395e-001

1.58008262372675e+004,-1.66935865832505e+001,-2.95864483639216e-001

1.60213975517924e+004,-1.66935908490078e+001,-2.99993589265213e-001

1.62450479271247e+004,-1.66935952343423e+001,-3.04180292319221e-001

1.64718203453514e+004,-1.66935997425958e+001,-3.08425395023031e-001

1.67017583885674e+004,-1.66936043772033e+001,-3.12729710720473e-001

1.69349062472505e+004,-1.66936091416946e+001,-3.17094064030519e-001

1.71713087287550e+004,-1.66936140396981e+001,-3.21519290999522e-001

1.74110112659224e+004,-1.66936190749423e+001,-3.26006239259448e-001

1.76540599258131e+004,-1.66936242512594e+001,-3.30555768184261e-001

1.79005014185594e+004,-1.66936295725878e+001,-3.35168749050891e-001

1.81503831063432e+004,-1.66936350429752e+001,-3.39846065200222e-001

1.84037530124975e+004,-1.66936406665811e+001,-3.44588612204007e-001

1.86606598307361e+004,-1.66936464476806e+001,-3.49397298028008e-001

1.89211529345119e+004,-1.66936523906667e+001,-3.54273043203355e-001

1.91852823865052e+004,-1.66936585000544e+001,-3.59216780995287e-001

1.94530989482457e+004,-1.66936647804831e+001,-3.64229457578943e-001

1.97246540898671e+004,-1.66936712367207e+001,-3.69312032210676e-001

1.99999999999999e+004,-1.66936778736670e+001,-3.74465477407553e-001

2.02791895958005e+004,-1.66936846963568e+001,-3.79690779128630e-001

2.05622765331213e+004,-1.66936917099639e+001,-3.84988936953108e-001

2.08493152168224e+004,-1.66936989198052e+001,-3.90360964267144e-001

2.11403608112276e+004,-1.66937063313434e+001,-3.95807888452344e-001

2.14354692507258e+004,-1.66937139501928e+001,-4.01330751067960e-001

2.17346972505211e+004,-1.66937217821216e+001,-4.06930608049446e-001

2.20381023175322e+004,-1.66937298330569e+001,-4.12608529899487e-001

2.23457427614443e+004,-1.66937381090889e+001,-4.18365601882701e-001

2.26576777059159e+004,-1.66937466164752e+001,-4.24202924225935e-001

2.29739670999406e+004,-1.66937553616454e+001,-4.30121612318139e-001

2.32946717293690e+004,-1.66937643512058e+001,-4.36122796914925e-001

2.36198532285905e+004,-1.66937735919434e+001,-4.42207624344687e-001

2.39495740923785e+004,-1.66937830908319e+001,-4.48377256715903e-001

2.42838976879009e+004,-1.66937928550355e+001,-4.54632872129990e-001

2.46228882668982e+004,-1.66938028919153e+001,-4.60975664891463e-001

2.49666109780322e+004,-1.66938132090331e+001,-4.67406845729401e-001

2.53151318794055e+004,-1.66938238141577e+001,-4.73927642012981e-001

2.56685179512580e+004,-1.66938347152702e+001,-4.80539297972141e-001

2.60268371088386e+004,-1.66938459205692e+001,-4.87243074925297e-001

2.63901582154578e+004,-1.66938574384773e+001,-4.94040251501891e-001

2.67585510957221e+004,-1.66938692776462e+001,-5.00932123876613e-001

2.71320865489533e+004,-1.66938814469635e+001,-5.07920005996488e-001

2.75108363627948e+004,-1.66938939555582e+001,-5.15005229819952e-001

2.78948733270080e+004,-1.66939068128072e+001,-5.22189145553928e-001

2.82842712474618e+004,-1.66939200283425e+001,-5.29473121891504e-001

2.86791049603164e+004,-1.66939336120568e+001,-5.36858546259083e-001

2.90794503464061e+004,-1.66939475741110e+001,-5.44346825058268e-001

2.94853843458219e+004,-1.66939619249408e+001,-5.51939383920073e-001

2.98969849726987e+004,-1.66939766752642e+001,-5.59637667950638e-001

3.03143313302078e+004,-1.66939918360885e+001,-5.67443141990032e-001

3.07375036257601e+004,-1.66940074187175e+001,-5.75357290869609e-001

3.11665831864199e+004,-1.66940234347600e+001,-5.83381619668796e-001

3.16016524745350e+004,-1.66940398961370e+001,-5.91517653981158e-001

3.20427951035848e+004,-1.66940568150895e+001,-5.99766940181118e-001

3.24900958542493e+004,-1.66940742041874e+001,-6.08131045690542e-001

3.29436406907028e+004,-1.66940920763370e+001,-6.16611559252198e-001

3.34035167771346e+004,-1.66941104447903e+001,-6.25210091203715e-001

3.38698124945009e+004,-1.66941293231534e+001,-6.33928273756686e-001

3.43426174575100e+004,-1.66941487253953e+001,-6.42767761275457e-001

3.48220225318448e+004,-1.66941686658574e+001,-6.51730230562646e-001

3.53081198516260e+004,-1.66941891592623e+001,-6.60817381144648e-001

3.58010028371187e+004,-1.66942102207240e+001,-6.70030935562109e-001

3.63007662126863e+004,-1.66942318657568e+001,-6.79372639661429e-001

3.68075060249948e+004,-1.66942541102863e+001,-6.88844262890231e-001

3.73213196614721e+004,-1.66942769706582e+001,-6.98447598598768e-001

3.78423058690237e+004,-1.66943004636499e+001,-7.08184464336411e-001

3.83705647730104e+004,-1.66943246064802e+001,-7.18056702160267e-001

3.89061978964912e+004,-1.66943494168204e+001,-7.28066178940682e-001

3.94493081797342e+004,-1.66943749128055e+001,-7.38214786672330e-001

3.99999999999998e+004,-1.66944011130446e+001,-7.48504442787111e-001

4.05583791916010e+004,-1.66944280366335e+001,-7.58937090470229e-001

4.11245530662425e+004,-1.66944557031651e+001,-7.69514698979582e-001

4.16986304336447e+004,-1.66944841327420e+001,-7.80239263969880e-001

4.22807216224550e+004,-1.66945133459884e+001,-7.91112807813216e-001

4.28709385014515e+004,-1.66945433640621e+001,-8.02137379932584e-001

4.34693945010421e+004,-1.66945742086674e+001,-8.13315057127542e-001

4.40762046350642e+004,-1.66946059020675e+001,-8.24647943912469e-001

4.46914855228886e+004,-1.66946384670975e+001,-8.36138172849363e-001

4.53153554118317e+004,-1.66946719271776e+001,-8.47787904890433e-001

4.59479341998812e+004,-1.66947063063262e+001,-8.59599329719372e-001

4.65893434587380e+004,-1.66947416291738e+001,-8.71574666095198e-001

4.72397064571810e+004,-1.66947779209767e+001,-8.83716162201078e-001

4.78991481847569e+004,-1.66948152076304e+001,-8.96026095996690e-001

4.85677953758016e+004,-1.66948535156847e+001,-9.08506775568567e-001

4.92457765337964e+004,-1.66948928723572e+001,-9.21160539488260e-001

4.99332219560642e+004,-1.66949333055484e+001,-9.33989757171047e-001

5.06302637588109e+004,-1.66949748438563e+001,-9.46996829235283e-001

5.13370359025159e+004,-1.66950175165910e+001,-9.60184187870017e-001

5.20536742176771e+004,-1.66950613537904e+001,-9.73554297198024e-001

5.27803164309155e+004,-1.66951063862350e+001,-9.87109653647150e-001

5.35171021914442e+004,-1.66951526454632e+001,-1.00085278632132e+000

5.42641730979066e+004,-1.66952001637876e+001,-1.01478625737458e+000

5.50216727255895e+004,-1.66952489743096e+001,-1.02891266238804e+000

5.57897466540159e+004,-1.66952991109363e+001,-1.04323463074866e+000

5.65685424949235e+004,-1.66953506083960e+001,-1.05775482602951e+000

5.73582099206328e+004,-1.66954035022541e+001,-1.07247594637516e+000

5.81589006928121e+004,-1.66954578289293e+001,-1.08740072488711e+000

5.89707686916437e+004,-1.66955136257105e+001,-1.10253193001063e+000

5.97939699453972e+004,-1.66955709307719e+001,-1.11787236592669e+000

6.06286626604156e+004,-1.66956297831905e+001,-1.13342487294342e+000

6.14750072515201e+004,-1.66956902229616e+001,-1.14919232789146e+000

6.23331663728396e+004,-1.66957522910159e+001,-1.16517764451929e+000

6.32033049490698e+004,-1.66958160292353e+001,-1.18138377389346e+000

6.40855902071694e+004,-1.66958814804695e+001,-1.19781370479829e+000

6.49801917084985e+004,-1.66959486885523e+001,-1.21447046413844e+000

6.58872813814055e+004,-1.66960176983175e+001,-1.23135711734432e+000

6.68070335542691e+004,-1.66960885556156e+001,-1.24847676877666e+000

6.77396249890018e+004,-1.66961613073289e+001,-1.26583256213725e+000

6.86852349150199e+004,-1.66962360013881e+001,-1.28342768087656e+000

6.96440450636895e+004,-1.66963126867874e+001,-1.30126534860734e+000

7.06162397032520e+004,-1.66963914136000e+001,-1.31934882951721e+000

7.16020056742374e+004,-1.66964722329931e+001,-1.33768142878482e+000

7.26015324253724e+004,-1.66965551972428e+001,-1.35626649299680e+000

7.36150120499896e+004,-1.66966403597486e+001,-1.37510741056626e+000

7.46426393229441e+004,-1.66967277750471e+001,-1.39420761215460e+000

7.56846117380472e+004,-1.66968174988262e+001,-1.41357057109200e+000

7.67411295460207e+004,-1.66969095879377e+001,-1.43319980380467e+000

7.78123957929823e+004,-1.66970041004105e+001,-1.45309887023734e+000

7.88986163594682e+004,-1.66971010954620e+001,-1.47327137428463e+000

7.99999999999995e+004,-1.66972006335103e+001,-1.49372096421878e+000

8.11167583832018e+004,-1.66973027761843e+001,-1.51445133312223e+000

8.22491061324848e+004,-1.66974075863344e+001,-1.53546621932194e+000

8.33972608672892e+004,-1.66975151280411e+001,-1.55676940682421e+000

8.45614432449099e+004,-1.66976254666242e+001,-1.57836472575413e+000

8.57418770029029e+004,-1.66977386686495e+001,-1.60025605279658e+000

8.69387890020841e+004,-1.66978548019359e+001,-1.62244731163764e+000

8.81524092701283e+004,-1.66979739355607e+001,-1.64494247341226e+000

8.93829710457770e+004,-1.66980961398639e+001,-1.66774555715246e+000

9.06307108236633e+004,-1.66982214864515e+001,-1.69086063023871e+000

9.18958683997622e+004,-1.66983500481974e+001,-1.71429180885535e+000

9.31786869174758e+004,-1.66984818992439e+001,-1.73804325844944e+000

9.44794129143618e+004,-1.66986171150009e+001,-1.76211919419255e+000

9.57982963695136e+004,-1.66987557721438e+001,-1.78652388144770e+000

9.71355907516031e+004,-1.66988979486092e+001,-1.81126163624088e+000

9.84915530675926e+004,-1.66990437235894e+001,-1.83633682573539e+000

9.98664439121282e+004,-1.66991931775254e+001,-1.86175386871465e+000

1.01260527517622e+005,-1.66993463920973e+001,-1.88751723606822e+000

1.02674071805032e+005,-1.66995034502136e+001,-1.91363145128343e+000

1.04107348435354e+005,-1.66996644359973e+001,-1.94010109094799e+000

1.05560632861831e+005,-1.66998294347718e+001,-1.96693078525313e+000

1.07034204382888e+005,-1.66999985330425e+001,-1.99412521851089e+000

1.08528346195813e+005,-1.67001718184774e+001,-2.02168912967610e+000

1.10043345451179e+005,-1.67003493798850e+001,-2.04962731287854e+000

1.11579493308032e+005,-1.67005313071897e+001,-2.07794461796523e+000

1.13137084989847e+005,-1.67007176914041e+001,-2.10664595105390e+000

1.14716419841265e+005,-1.67009086246001e+001,-2.13573627509566e+000

1.16317801385624e+005,-1.67011041998750e+001,-2.16522061045398e+000

1.17941537383287e+005,-1.67013045113173e+001,-2.19510403549327e+000

1.19587939890794e+005,-1.67015096539671e+001,-2.22539168718423e+000

1.21257325320831e+005,-1.67017197237756e+001,-2.25608876172386e+000

1.22950014503040e+005,-1.67019348175599e+001,-2.28720051517215e+000

1.24666332745679e+005,-1.67021550329557e+001,-2.31873226410717e+000

1.26406609898139e+005,-1.67023804683659e+001,-2.35068938629770e+000

1.28171180414339e+005,-1.67026112229067e+001,-2.38307732139852e+000

1.29960383416997e+005,-1.67028473963498e+001,-2.41590157166551e+000

1.31774562762811e+005,-1.67030890890610e+001,-2.44916770269585e+000

1.33614067108538e+005,-1.67033364019361e+001,-2.48288134419060e+000

1.35479249978003e+005,-1.67035894363325e+001,-2.51704819074609e+000

1.37370469830040e+005,-1.67038482939973e+001,-2.55167400267227e+000

1.39288090127379e+005,-1.67041130769925e+001,-2.58676460684042e+000

1.41232479406504e+005,-1.67043838876159e+001,-2.62232589756271e+000

1.43204011348474e+005,-1.67046608283186e+001,-2.65836383750657e+000

1.45203064850745e+005,-1.67049440016194e+001,-2.69488445864083e+000

1.47230024099979e+005,-1.67052335100147e+001,-2.73189386322375e+000

1.49285278645888e+005,-1.67055294558856e+001,-2.76939822482537e+000

1.51369223476094e+005,-1.67058319414018e+001,-2.80740378939601e+000

1.53482259092041e+005,-1.67061410684211e+001,-2.84591687637391e+000

1.55624791585964e+005,-1.67064569383866e+001,-2.88494387984127e+000

1.57797232718936e+005,-1.67067796522202e+001,-2.92449126972698e+000

1.59999999999999e+005,-1.67071093102131e+001,-2.96456559305968e+000

1.62233516766403e+005,-1.67074460119136e+001,-3.00517347527294e+000

1.64498212264969e+005,-1.67077898560117e+001,-3.04632162156492e+000

1.66794521734578e+005,-1.67081409402218e+001,-3.08801681831409e+000

1.69122886489819e+005,-1.67084993611624e+001,-3.13026593455647e+000

1.71483754005805e+005,-1.67088652142341e+001,-3.17307592352083e+000

1.73877578004168e+005,-1.67092385934955e+001,-3.21645382423061e+000

1.76304818540256e+005,-1.67096195915377e+001,-3.26040676316934e+000

1.78765942091554e+005,-1.67100082993574e+001,-3.30494195601646e+000

1.81261421647326e+005,-1.67104048062292e+001,-3.35006670945061e+000

1.83791736799524e+005,-1.67108091995770e+001,-3.39578842302745e+000

1.86357373834951e+005,-1.67112215648457e+001,-3.44211459113136e+000

1.88958825828723e+005,-1.67116419853727e+001,-3.48905280500214e+000

1.91596592739027e+005,-1.67120705422602e+001,-3.53661075484197e+000

1.94271181503206e+005,-1.67125073142484e+001,-3.58479623200052e+000

1.96983106135185e+005,-1.67129523775912e+001,-3.63361713124112e+000

1.99732887824256e+005,-1.67134058059321e+001,-3.68308145309264e+000

2.02521055035243e+005,-1.67138676701853e+001,-3.73319730628126e+000

2.05348143610063e+005,-1.67143380384175e+001,-3.78397291025222e+000

2.08214696870707e+005,-1.67148169757353e+001,-3.83541659777357e+000

2.11121265723661e+005,-1.67153045441762e+001,-3.88753681762953e+000

2.14068408765776e+005,-1.67158008026042e+001,-3.94034213740089e+000

2.17056692391625e+005,-1.67163058066125e+001,-3.99384124633257e+000

2.20086690902357e+005,-1.67168196084305e+001,-4.04804295828905e+000

2.23158986616063e+005,-1.67173422568396e+001,-4.10295621479835e+000

2.26274169979693e+005,-1.67178737970951e+001,-4.15859008818223e+000

2.29432839682530e+005,-1.67184142708579e+001,-4.21495378477277e+000

2.32635602771247e+005,-1.67189637161336e+001,-4.27205664821523e+000

2.35883074766574e+005,-1.67195221672229e+001,-4.32990816285385e+000

2.39175879781588e+005,-1.67200896546810e+001,-4.38851795720060e+000

2.42514650641661e+005,-1.67206662052887e+001,-4.44789580748418e+000

2.45900029006080e+005,-1.67212518420355e+001,-4.50805164127692e+000

2.49332665491357e+005,-1.67218465841148e+001,-4.56899554119761e+000

2.52813219796278e+005,-1.67224504469316e+001,-4.63073774868662e+000

2.56342360828676e+005,-1.67230634421251e+001,-4.69328866785040e+000

2.59920766833993e+005,-1.67236855776042e+001,-4.75665886937198e+000

2.63549125525621e+005,-1.67243168575994e+001,-4.82085909448338e+000

2.67228134217075e+005,-1.67249572827284e+001,-4.88590025899482e+000

2.70958499956006e+005,-1.67256068500793e+001,-4.95179345737990e+000

2.74740939660078e+005,-1.67262655533086e+001,-5.01854996690597e+000

2.78576180254757e+005,-1.67269333827576e+001,-5.08618125181073e+000

2.82464958813007e+005,-1.67276103255846e+001,-5.15469896751640e+000

2.86408022696948e+005,-1.67282963659155e+001,-5.22411496487606e+000

2.90406129701488e+005,-1.67289914850121e+001,-5.29444129444909e+000

2.94460048199957e+005,-1.67296956614579e+001,-5.36569021079647e+000

2.98570557291775e+005,-1.67304088713628e+001,-5.43787417679145e+000

3.02738446952187e+005,-1.67311310885859e+001,-5.51100586794158e+000

3.06964518184081e+005,-1.67318622849760e+001,-5.58509817671173e+000

3.11249583171928e+005,-1.67326024306315e+001,-5.66016421684530e+000

3.15594465437872e+005,-1.67333514941773e+001,-5.73621732767593e+000

3.19999999999997e+005,-1.67341094430610e+001,-5.81327107842320e+000

3.24467033532806e+005,-1.67348762438657e+001,-5.89133927246707e+000

3.28996424529938e+005,-1.67356518626410e+001,-5.97043595159425e+000

3.33589043469155e+005,-1.67364362652510e+001,-6.05057540021054e+000

3.38245772979638e+005,-1.67372294177388e+001,-6.13177214951405e+000

3.42967508011610e+005,-1.67380312867075e+001,-6.21404098162131e+000

3.47755156008335e+005,-1.67388418397161e+001,-6.29739693364546e+000

3.52609637080511e+005,-1.67396610456915e+001,-6.38185530171527e+000

3.57531884183106e+005,-1.67404888753535e+001,-6.46743164493599e+000

3.62522843294651e+005,-1.67413253016545e+001,-6.55414178928274e+000

3.67583473599047e+005,-1.67421703002311e+001,-6.64200183142636e+000

3.72714747669902e+005,-1.67430238498677e+001,-6.73102814248474e+000

3.77917651657445e+005,-1.67438859329719e+001,-6.82123737169737e+000

3.83193185478053e+005,-1.67447565360586e+001,-6.91264645002193e+000

3.88542363006410e+005,-1.67456356502446e+001,-7.00527259364718e+000

3.93966212270369e+005,-1.67465232717504e+001,-7.09913330742299e+000

3.99465775648511e+005,-1.67474194024097e+001,-7.19424638820488e+000

4.05042110070485e+005,-1.67483240501847e+001,-7.29062992811186e+000

4.10696287220124e+005,-1.67492372296868e+001,-7.38830231769795e+000

4.16429393741414e+005,-1.67501589627009e+001,-7.48728224903688e+000

4.22242531447321e+005,-1.67510892787134e+001,-7.58758871872031e+000

4.28136817531551e+005,-1.67520282154421e+001,-7.68924103077165e+000

4.34113384783250e+005,-1.67529758193665e+001,-7.79225879947583e+000

4.40173381804713e+005,-1.67539321462594e+001,-7.89666195212788e+000

4.46317973232124e+005,-1.67548972617165e+001,-8.00247073170274e+000

4.52548339959385e+005,-1.67558712416853e+001,-8.10970569944914e+000

4.58865679365059e+005,-1.67568541729907e+001,-8.21838773741164e+000

4.65271205542494e+005,-1.67578461538573e+001,-8.32853805088264e+000

4.71766149533147e+005,-1.67588472944281e+001,-8.44017817079211e+000

4.78351759563174e+005,-1.67598577172777e+001,-8.55332995603570e+000

4.85029301283321e+005,-1.67608775579205e+001,-8.66801559574913e+000

4.91800058012158e+005,-1.67619069653122e+001,-8.78425761153309e+000

4.98665330982714e+005,-1.67629461023456e+001,-8.90207885963284e+000

5.05626439592555e+005,-1.67639951463382e+001,-9.02150253308020e+000

5.12684721657352e+005,-1.67650542895137e+001,-9.14255216380277e+000

5.19841533667984e+005,-1.67661237394746e+001,-9.26525162470562e+000

5.27098251051240e+005,-1.67672037196672e+001,-9.38962513173354e+000

5.34456268434150e+005,-1.67682944698392e+001,-9.51569724591726e+000

5.41916999912011e+005,-1.67693962464877e+001,-9.64349287541295e+000

