Freq.,VOut,OutRef

1.00000000000000e+004,-1.64896052162445e+001,-2.29663908909961e-001

1.01395947979003e+004,-1.64896067988956e+001,-2.32869679166662e-001

1.02811382665607e+004,-1.64896084259936e+001,-2.36120191039445e-001

1.04246576084112e+004,-1.64896100987850e+001,-2.39416068706381e-001

1.05701804056138e+004,-1.64896118185518e+001,-2.42757945040616e-001

1.07177346253629e+004,-1.64896135866116e+001,-2.46146461732162e-001

1.08673486252606e+004,-1.64896154043187e+001,-2.49582269411404e-001

1.10190511587661e+004,-1.64896172730657e+001,-2.53066027771948e-001

1.11728713807222e+004,-1.64896191942840e+001,-2.56598405696016e-001

1.13288388529580e+004,-1.64896211694448e+001,-2.60180081384478e-001

1.14869835499703e+004,-1.64896232000607e+001,-2.63811742482951e-001

1.16473358646846e+004,-1.64896252876865e+001,-2.67494086213375e-001

1.18099266142953e+004,-1.64896274339205e+001,-2.71227819509164e-001

1.19747870461893e+004,-1.64896296404058e+001,-2.75013659146219e-001

1.21419488439505e+004,-1.64896319088311e+001,-2.78852331881940e-001

1.23114441334492e+004,-1.64896342409327e+001,-2.82744574592184e-001

1.24833054890161e+004,-1.64896366384951e+001,-2.86691134412701e-001

1.26575659397028e+004,-1.64896391033527e+001,-2.90692768879993e-001

1.28342589756290e+004,-1.64896416373913e+001,-2.94750246075013e-001

1.30134185544193e+004,-1.64896442425493e+001,-2.98864344770268e-001

1.31950791077289e+004,-1.64896469208191e+001,-3.03035854577802e-001

1.33792755478611e+004,-1.64896496742488e+001,-3.07265576097041e-001

1.35660432744767e+004,-1.64896525049438e+001,-3.11554321069742e-001

1.37554181813974e+004,-1.64896554150679e+001,-3.15902912532464e-001

1.39474366635040e+004,-1.64896584068455e+001,-3.20312184973028e-001

1.41421356237309e+004,-1.64896614825632e+001,-3.24782984486890e-001

1.43395524801583e+004,-1.64896646445711e+001,-3.29316168940764e-001

1.45397251732031e+004,-1.64896678952848e+001,-3.33912608134476e-001

1.47426921729110e+004,-1.64896712371874e+001,-3.38573183962573e-001

1.49484924863494e+004,-1.64896746728313e+001,-3.43298790585136e-001

1.51571656651040e+004,-1.64896782048396e+001,-3.48090334595181e-001

1.53687518128801e+004,-1.64896818359087e+001,-3.52948735190788e-001

1.55832915932100e+004,-1.64896855688103e+001,-3.57874924347597e-001

1.58008262372675e+004,-1.64896894063928e+001,-3.62869846996933e-001

1.60213975517924e+004,-1.64896933515842e+001,-3.67934461203387e-001

1.62450479271247e+004,-1.64896974073938e+001,-3.73069738344595e-001

1.64718203453514e+004,-1.64897015769148e+001,-3.78276663296672e-001

1.67017583885674e+004,-1.64897058633261e+001,-3.83556234619377e-001

1.69349062472505e+004,-1.64897102698951e+001,-3.88909464743332e-001

1.71713087287550e+004,-1.64897147999801e+001,-3.94337380161136e-001

1.74110112659224e+004,-1.64897194570326e+001,-3.99841021622107e-001

1.76540599258131e+004,-1.64897242445999e+001,-4.05421444325950e-001

1.79005014185594e+004,-1.64897291663279e+001,-4.11079718123967e-001

1.81503831063432e+004,-1.64897342259634e+001,-4.16816927717186e-001

1.84037530124975e+004,-1.64897394273575e+001,-4.22634172863279e-001

1.86606598307361e+004,-1.64897447744678e+001,-4.28532568580006e-001

1.89211529345119e+004,-1.64897502713616e+001,-4.34513245357347e-001

1.91852823865052e+004,-1.64897559222191e+001,-4.40577349367085e-001

1.94530989482457e+004,-1.64897617313361e+001,-4.46726042679990e-001

1.97246540898671e+004,-1.64897677031273e+001,-4.52960503480726e-001

1.99999999999999e+004,-1.64897738421296e+001,-4.59281926290816e-001

2.02791895958005e+004,-1.64897801530054e+001,-4.65691522190822e-001

2.05622765331213e+004,-1.64897866405461e+001,-4.72190519046604e-001

2.08493152168224e+004,-1.64897933096753e+001,-4.78780161739441e-001

2.11403608112276e+004,-1.64898001654526e+001,-4.85461712397300e-001

2.14354692507258e+004,-1.64898072130775e+001,-4.92236450630016e-001

2.17346972505211e+004,-1.64898144578925e+001,-4.99105673770553e-001

2.20381023175322e+004,-1.64898219053880e+001,-5.06070697111360e-001

2.23457427614443e+004,-1.64898295612053e+001,-5.13132854153125e-001

2.26576777059159e+004,-1.64898374311412e+001,-5.20293496851218e-001

2.29739670999406e+004,-1.64898455211521e+001,-5.27553995865891e-001

2.32946717293690e+004,-1.64898538373582e+001,-5.34915740817921e-001

2.36198532285905e+004,-1.64898623860481e+001,-5.42380140544905e-001

2.39495740923785e+004,-1.64898711736833e+001,-5.49948623361577e-001

2.42838976879009e+004,-1.64898802069023e+001,-5.57622637325737e-001

2.46228882668982e+004,-1.64898894925263e+001,-5.65403650503746e-001

2.49666109780322e+004,-1.64898990375631e+001,-5.73293151242582e-001

2.53151318794055e+004,-1.64899088492130e+001,-5.81292648443249e-001

2.56685179512580e+004,-1.64899189348730e+001,-5.89403671839455e-001

2.60268371088386e+004,-1.64899293021427e+001,-5.97627772278460e-001

2.63901582154578e+004,-1.64899399588297e+001,-6.05966522004240e-001

2.67585510957221e+004,-1.64899509129547e+001,-6.14421514948604e-001

2.71320865489533e+004,-1.64899621727573e+001,-6.22994367021403e-001

2.75108363627948e+004,-1.64899737467018e+001,-6.31686716407353e-001

2.78948733270080e+004,-1.64899856434836e+001,-6.40500223862245e-001

2.82842712474618e+004,-1.64899978720341e+001,-6.49436573020955e-001

2.86791049603164e+004,-1.64900104415286e+001,-6.58497470698230e-001

2.90794503464061e+004,-1.64900233613909e+001,-6.67684647204965e-001

2.94853843458219e+004,-1.64900366413012e+001,-6.76999856657840e-001

2.98969849726987e+004,-1.64900502912020e+001,-6.86444877300303e-001

3.03143313302078e+004,-1.64900643213053e+001,-6.96021511823311e-001

3.07375036257601e+004,-1.64900787420994e+001,-7.05731587691840e-001

3.11665831864199e+004,-1.64900935643565e+001,-7.15576957473008e-001

3.16016524745350e+004,-1.64901087991395e+001,-7.25559499172381e-001

3.20427951035848e+004,-1.64901244578096e+001,-7.35681116570548e-001

3.24900958542493e+004,-1.64901405520344e+001,-7.45943739564940e-001

3.29436406907028e+004,-1.64901570937953e+001,-7.56349324514808e-001

3.34035167771346e+004,-1.64901740953961e+001,-7.66899854593196e-001

3.38698124945009e+004,-1.64901915694704e+001,-7.77597340139378e-001

3.43426174575100e+004,-1.64902095289908e+001,-7.88443819017480e-001

3.48220225318448e+004,-1.64902279872771e+001,-7.99441356979897e-001

3.53081198516260e+004,-1.64902469580051e+001,-8.10592048032347e-001

3.58010028371187e+004,-1.64902664552160e+001,-8.21898014804924e-001

3.63007662126863e+004,-1.64902864933249e+001,-8.33361408928658e-001

3.68075060249948e+004,-1.64903070871309e+001,-8.44984411413483e-001

3.73213196614721e+004,-1.64903282518260e+001,-8.56769233032474e-001

3.78423058690237e+004,-1.64903500030055e+001,-8.68718114709386e-001

3.83705647730104e+004,-1.64903723566776e+001,-8.80833327911946e-001

3.89061978964912e+004,-1.64903953292739e+001,-8.93117175047837e-001

3.94493081797342e+004,-1.64904189376595e+001,-9.05571989865947e-001

3.99999999999998e+004,-1.64904431991440e+001,-9.18200137862069e-001

4.05583791916010e+004,-1.64904681314919e+001,-9.31004016689734e-001

4.11245530662425e+004,-1.64904937529341e+001,-9.43986056573578e-001

4.16986304336447e+004,-1.64905200821789e+001,-9.57148720727946e-001

4.22807216224550e+004,-1.64905471384238e+001,-9.70494505782350e-001

4.28709385014515e+004,-1.64905749413667e+001,-9.84025942207661e-001

4.34693945010421e+004,-1.64906035112183e+001,-9.97745594749933e-001

4.40762046350642e+004,-1.64906328687142e+001,-1.01165606286610e+000

4.46914855228886e+004,-1.64906630351271e+001,-1.02575998116705e+000

4.53153554118317e+004,-1.64906940322793e+001,-1.04006001986357e+000

4.59479341998812e+004,-1.64907258825561e+001,-1.05455888521671e+000

4.65893434587380e+004,-1.64907586089182e+001,-1.06925931999260e+000

4.72397064571810e+004,-1.64907922349153e+001,-1.08416410392498e+000

4.78991481847569e+004,-1.64908267846995e+001,-1.09927605417739e+000

4.85677953758016e+004,-1.64908622830390e+001,-1.11459802581359e+000

4.92457765337964e+004,-1.64908987553320e+001,-1.13013291227164e+000

4.99332219560642e+004,-1.64909362276209e+001,-1.14588364584298e+000

5.06302637588109e+004,-1.64909747266065e+001,-1.16185319815335e+000

5.13370359025159e+004,-1.64910142796627e+001,-1.17804458065422e+000

5.20536742176771e+004,-1.64910549148509e+001,-1.19446084511371e+000

5.27803164309155e+004,-1.64910966609356e+001,-1.21110508411255e+000

5.35171021914442e+004,-1.64911395473986e+001,-1.22798043154856e+000

5.42641730979066e+004,-1.64911836044553e+001,-1.24509006314207e+000

5.50216727255895e+004,-1.64912288630693e+001,-1.26243719694711e+000

5.57897466540159e+004,-1.64912753549688e+001,-1.28002509386794e+000

5.65685424949235e+004,-1.64913231126618e+001,-1.29785705817983e+000

5.73582099206328e+004,-1.64913721694525e+001,-1.31593643805326e+000

5.81589006928121e+004,-1.64914225594572e+001,-1.33426662608662e+000

5.89707686916437e+004,-1.64914743176208e+001,-1.35285105983805e+000

5.97939699453972e+004,-1.64915274797328e+001,-1.37169322236648e+000

6.06286626604156e+004,-1.64915820824442e+001,-1.39079664277616e+000

6.14750072515201e+004,-1.64916381632839e+001,-1.41016489676424e+000

6.23331663728396e+004,-1.64916957606752e+001,-1.42980160717613e+000

6.32033049490698e+004,-1.64917549139528e+001,-1.44971044456177e+000

6.40855902071694e+004,-1.64918156633796e+001,-1.46989512774076e+000

6.49801917084985e+004,-1.64918780501633e+001,-1.49035942436814e+000

6.58872813814055e+004,-1.64919421164734e+001,-1.51110715150908e+000

6.68070335542691e+004,-1.64920079054581e+001,-1.53214217621363e+000

6.77396249890018e+004,-1.64920754612609e+001,-1.55346841610091e+000

6.86852349150199e+004,-1.64921448290377e+001,-1.57508983994528e+000

6.96440450636895e+004,-1.64922160549730e+001,-1.59701046826707e+000

7.06162397032520e+004,-1.64922891862970e+001,-1.61923437393079e+000

7.16020056742374e+004,-1.64923642713016e+001,-1.64176568274502e+000

7.26015324253724e+004,-1.64924413593574e+001,-1.66460857406892e+000

7.36150120499896e+004,-1.64925205009288e+001,-1.68776728142476e+000

7.46426393229441e+004,-1.64926017475910e+001,-1.71124609311280e+000

7.56846117380472e+004,-1.64926851520449e+001,-1.73504935283285e+000

7.67411295460207e+004,-1.64927707681328e+001,-1.75918146031119e+000

7.78123957929823e+004,-1.64928586508535e+001,-1.78364687193200e+000

7.88986163594682e+004,-1.64929488563768e+001,-1.80845010137384e+000

7.99999999999995e+004,-1.64930414420580e+001,-1.83359572025328e+000

8.11167583832018e+004,-1.64931364664516e+001,-1.85908835877056e+000

8.22491061324848e+004,-1.64932339893249e+001,-1.88493270636526e+000

8.33972608672892e+004,-1.64933340716705e+001,-1.91113351237378e+000

8.45614432449099e+004,-1.64934367757189e+001,-1.93769558669499e+000

8.57418770029029e+004,-1.64935421649500e+001,-1.96462380046093e+000

8.69387890020841e+004,-1.64936503041039e+001,-1.99192308671400e+000

8.81524092701283e+004,-1.64937612591915e+001,-2.01959844109064e+000

8.93829710457770e+004,-1.64938750975036e+001,-2.04765492251139e+000

9.06307108236633e+004,-1.64939918876195e+001,-2.07609765387747e+000

9.18958683997622e+004,-1.64941116994148e+001,-2.10493182277531e+000

9.31786869174758e+004,-1.64942346040681e+001,-2.13416268218728e+000

9.44794129143618e+004,-1.64943606740668e+001,-2.16379555121033e+000

9.57982963695136e+004,-1.64944899832113e+001,-2.19383581578409e+000

9.71355907516031e+004,-1.64946226066189e+001,-2.22428892942366e+000

9.84915530675926e+004,-1.64947586207256e+001,-2.25516041396592e+000

9.98664439121282e+004,-1.64948981032874e+001,-2.28645586032037e+000

1.01260527517622e+005,-1.64950411333795e+001,-2.31818092923190e+000

1.02674071805032e+005,-1.64951877913947e+001,-2.35034135205274e+000

1.04107348435354e+005,-1.64953381590400e+001,-2.38294293152540e+000

1.05560632861831e+005,-1.64954923193312e+001,-2.41599154257588e+000

1.07034204382888e+005,-1.64956503565871e+001,-2.44949313311841e+000

1.08528346195813e+005,-1.64958123564204e+001,-2.48345372487299e+000

1.10043345451179e+005,-1.64959784057279e+001,-2.51787941419503e+000

1.11579493308032e+005,-1.64961485926788e+001,-2.55277637291898e+000

1.13137084989847e+005,-1.64963230067000e+001,-2.58815084921547e+000

1.14716419841265e+005,-1.64965017384612e+001,-2.62400916846442e+000

1.16317801385624e+005,-1.64966848798557e+001,-2.66035773414341e+000

1.17941537383287e+005,-1.64968725239815e+001,-2.69720302873170e+000

1.19587939890794e+005,-1.64970647651179e+001,-2.73455161463454e+000

1.21257325320831e+005,-1.64972616987011e+001,-2.77241013512296e+000

1.22950014503040e+005,-1.64974634212978e+001,-2.81078531529585e+000

1.24666332745679e+005,-1.64976700305749e+001,-2.84968396306061e+000

1.26406609898139e+005,-1.64978816252683e+001,-2.88911297013715e+000

1.28171180414339e+005,-1.64980983051483e+001,-2.92907931308370e+000

1.29960383416997e+005,-1.64983201709829e+001,-2.96959005434858e+000

1.31774562762811e+005,-1.64985473244982e+001,-3.01065234334503e+000

1.33614067108538e+005,-1.64987798683361e+001,-3.05227341755600e+000

1.35479249978003e+005,-1.64990179060100e+001,-3.09446060366469e+000

1.37370469830040e+005,-1.64992615418574e+001,-3.13722131871590e+000

1.39288090127379e+005,-1.64995108809897e+001,-3.18056307130875e+000

1.41232479406504e+005,-1.64997660292394e+001,-3.22449346282333e+000

1.43204011348474e+005,-1.65000270931049e+001,-3.26902018867912e+000

1.45203064850745e+005,-1.65002941796928e+001,-3.31415103963298e+000

1.47230024099979e+005,-1.65005673966568e+001,-3.35989390311242e+000

1.49285278645888e+005,-1.65008468521351e+001,-3.40625676459027e+000

1.51369223476094e+005,-1.65011326546842e+001,-3.45324770899992e+000

1.53482259092041e+005,-1.65014249132115e+001,-3.50087492219460e+000

1.55624791585964e+005,-1.65017237369044e+001,-3.54914669245217e+000

1.57797232718936e+005,-1.65020292351580e+001,-3.59807141202548e+000

1.59999999999999e+005,-1.65023415175002e+001,-3.64765757874492e+000

1.62233516766403e+005,-1.65026606935151e+001,-3.69791379766917e+000

1.64498212264969e+005,-1.65029868727646e+001,-3.74884878279028e+000

1.66794521734578e+005,-1.65033201647076e+001,-3.80047135879539e+000

1.69122886489819e+005,-1.65036606786192e+001,-3.85279046288313e+000

1.71483754005805e+005,-1.65040085235074e+001,-3.90581514664057e+000

1.73877578004168e+005,-1.65043638080291e+001,-3.95955457798127e+000

1.76304818540256e+005,-1.65047266404056e+001,-4.01401804314684e+000

1.78765942091554e+005,-1.65050971283373e+001,-4.06921494877260e+000

1.81261421647326e+005,-1.65054753789187e+001,-4.12515482402102e+000

1.83791736799524e+005,-1.65058614985527e+001,-4.18184732278332e+000

1.86357373834951e+005,-1.65062555928665e+001,-4.23930222595301e+000

1.88958825828723e+005,-1.65066577666269e+001,-4.29752944376979e+000

1.91596592739027e+005,-1.65070681236585e+001,-4.35653901823934e+000

1.94271181503206e+005,-1.65074867667620e+001,-4.41634112562725e+000

1.96983106135185e+005,-1.65079137976354e+001,-4.47694607903093e+000

1.99732887824256e+005,-1.65083493167980e+001,-4.53836433102779e+000

2.02521055035243e+005,-1.65087934235163e+001,-4.60060647640553e+000

2.05348143610063e+005,-1.65092462157342e+001,-4.66368325497088e+000

2.08214696870707e+005,-1.65097077900074e+001,-4.72760555443967e+000

2.11121265723661e+005,-1.65101782414416e+001,-4.79238441341015e+000

2.14068408765776e+005,-1.65106576636361e+001,-4.85803102441685e+000

2.17056692391625e+005,-1.65111461486331e+001,-4.92455673706918e+000

2.20086690902357e+005,-1.65116437868734e+001,-4.99197306127106e+000

2.23158986616063e+005,-1.65121506671584e+001,-5.06029167052459e+000

2.26274169979693e+005,-1.65126668766197e+001,-5.12952440531528e+000

2.29432839682530e+005,-1.65131925006972e+001,-5.19968327657990e+000

2.32635602771247e+005,-1.65137276231248e+001,-5.27078046925387e+000

2.35883074766574e+005,-1.65142723259260e+001,-5.34282834590104e+000

2.39175879781588e+005,-1.65148266894195e+001,-5.41583945041827e+000

2.42514650641661e+005,-1.65153907922347e+001,-5.48982651182062e+000

2.45900029006080e+005,-1.65159647113384e+001,-5.56480244809929e+000

2.49332665491357e+005,-1.65165485220735e+001,-5.64078037015292e+000

2.52813219796278e+005,-1.65171422982091e+001,-5.71777358579005e+000

2.56342360828676e+005,-1.65177461120041e+001,-5.79579560379769e+000

2.59920766833993e+005,-1.65183600342841e+001,-5.87486013807650e+000

2.63549125525621e+005,-1.65189841345316e+001,-5.95498111183562e+000

2.67228134217075e+005,-1.65196184809909e+001,-6.03617266184689e+000

2.70958499956006e+005,-1.65202631407877e+001,-6.11844914275271e+000

2.74740939660078e+005,-1.65209181800640e+001,-6.20182513142359e+000

2.78576180254757e+005,-1.65215836641286e+001,-6.28631543136271e+000

2.82464958813007e+005,-1.65222596576234e+001,-6.37193507715140e+000

2.86408022696948e+005,-1.65229462247063e+001,-6.45869933893171e+000

2.90406129701488e+005,-1.65236434292507e+001,-6.54662372692070e+000

2.94460048199957e+005,-1.65243513350611e+001,-6.63572399595278e+000

2.98570557291775e+005,-1.65250700061068e+001,-6.72601615004355e+000

3.02738446952187e+005,-1.65257995067717e+001,-6.81751644697021e+000

3.06964518184081e+005,-1.65265399021216e+001,-6.91024140286450e+000

3.11249583171928e+005,-1.65272912581893e+001,-7.00420779681063e+000

3.15594465437872e+005,-1.65280536422755e+001,-7.09943267544559e+000

3.19999999999997e+005,-1.65288271232681e+001,-7.19593335755344e+000

3.24467033532806e+005,-1.65296117719773e+001,-7.29372743865111e+000

3.28996424529938e+005,-1.65304076614884e+001,-7.39283279555829e+000

3.33589043469155e+005,-1.65312148675299e+001,-7.49326759094729e+000

3.38245772979638e+005,-1.65320334688585e+001,-7.59505027786748e+000

3.42967508011610e+005,-1.65328635476592e+001,-7.69819960424008e+000

3.47755156008335e+005,-1.65337051899613e+001,-7.80273461731713e+000

3.52609637080511e+005,-1.65345584860682e+001,-7.90867466810190e+000

3.57531884183106e+005,-1.65354235310026e+001,-8.01603941572479e+000

3.62522843294651e+005,-1.65363004249640e+001,-8.12484883177221e+000

3.67583473599047e+005,-1.65371892738006e+001,-8.23512320456422e+000

3.72714747669902e+005,-1.65380901894919e+001,-8.34688314337661e+000

3.77917651657445e+005,-1.65390032906449e+001,-8.46014958260623e+000

3.83193185478053e+005,-1.65399287029993e+001,-8.57494378587541e+000

3.88542363006410e+005,-1.65408665599439e+001,-8.69128735007335e+000

3.93966212270369e+005,-1.65418170030423e+001,-8.80920220933417e+000

3.99465775648511e+005,-1.65427801825670e+001,-8.92871063894731e+000

4.05042110070485e+005,-1.65437562580409e+001,-9.04983525920203e+000

4.10696287220124e+005,-1.65447453987863e+001,-9.17259903916313e+000

4.16429393741414e+005,-1.65457477844800e+001,-9.29702530037995e+000

4.22242531447321e+005,-1.65467636057133e+001,-9.42313772052531e+000

4.28136817531551e+005,-1.65477930645564e+001,-9.55096033696968e+000

4.34113384783250e+005,-1.65488363751276e+001,-9.68051755028712e+000

4.40173381804713e+005,-1.65498937641641e+001,-9.81183412769703e+000

4.46317973232124e+005,-1.65509654715960e+001,-9.94493520644293e+000

4.52548339959385e+005,-1.65520517511212e+001,-1.00798462971098e+001

4.58865679365059e+005,-1.65531528707815e+001,-1.02165932868828e+001

4.65271205542494e+005,-1.65542691135390e+001,-1.03552024427505e+001

4.71766149533147e+005,-1.65554007778515e+001,-1.04957004146560e+001

4.78351759563174e+005,-1.65565481782477e+001,-1.06381142385973e+001

4.85029301283321e+005,-1.65577116459007e+001,-1.07824713396834e+001

4.91800058012158e+005,-1.65588915291993e+001,-1.09287995351476e+001

4.98665330982714e+005,-1.65600881943174e+001,-1.10771270373247e+001

5.05626439592555e+005,-1.65613020257809e+001,-1.12274824565917e+001

5.12684721657352e+005,-1.65625334270315e+001,-1.13798948042817e+001

5.19841533667984e+005,-1.65637828209873e+001,-1.15343934955724e+001

5.27098251051240e+005,-1.65650506506006e+001,-1.16910083523531e+001

5.34456268434150e+005,-1.65663373794117e+001,-1.18497696060765e+001

5.41916999912011e+005,-1.65676434921005e+001,-1.20107079005986e+001

