Freq.,VOut,OutRef

1.00000000000000e+004,-8.09257379246604e+000,-4.22884340603489e-002

1.01395947979003e+004,-8.09257676594997e+000,-4.28782559325020e-002

1.02811382665607e+004,-8.09257982291873e+000,-4.34762900836586e-002

1.04246576084112e+004,-8.09258296571280e+000,-4.40826502508593e-002

1.05701804056138e+004,-8.09258619673909e+000,-4.46974517129262e-002

1.07177346253629e+004,-8.09258951847035e+000,-4.53208113286117e-002

1.08673486252606e+004,-8.09259293344935e+000,-4.59528475397337e-002

1.10190511587661e+004,-8.09259644428961e+000,-4.65936804004500e-002

1.11728713807222e+004,-8.09260005367828e+000,-4.72434315913894e-002

1.13288388529580e+004,-8.09260376437646e+000,-4.79022244524075e-002

1.14869835499703e+004,-8.09260757922350e+000,-4.85701839882243e-002

1.16473358646846e+004,-8.09261150113734e+000,-4.92474369022604e-002

1.18099266142953e+004,-8.09261553311795e+000,-4.99341116093673e-002

1.19747870461893e+004,-8.09261967824805e+000,-5.06303382684411e-002

1.21419488439505e+004,-8.09262393969783e+000,-5.13362487875544e-002

1.23114441334492e+004,-8.09262832072459e+000,-5.20519768646424e-002

1.24833054890161e+004,-8.09263282467764e+000,-5.27776579942651e-002

1.26575659397028e+004,-8.09263745499862e+000,-5.35134295028532e-002

1.28342589756290e+004,-8.09264221522550e+000,-5.42594305641848e-002

1.30134185544193e+004,-8.09264710899595e+000,-5.50158022160643e-002

1.31950791077289e+004,-8.09265214004737e+000,-5.57826874019441e-002

1.33792755478611e+004,-8.09265731222224e+000,-5.65602309772978e-002

1.35660432744767e+004,-8.09266262947026e+000,-5.73485797377907e-002

1.37554181813974e+004,-8.09266809585084e+000,-5.81478824461437e-002

1.39474366635040e+004,-8.09267371553597e+000,-5.89582898573437e-002

1.41421356237309e+004,-8.09267949281472e+000,-5.97799547332580e-002

1.43395524801583e+004,-8.09268543209471e+000,-6.06130318786648e-002

1.45397251732031e+004,-8.09269153790667e+000,-6.14576781565191e-002

1.47426921729110e+004,-8.09269781490716e+000,-6.23140525180213e-002

1.49484924863494e+004,-8.09270426788221e+000,-6.31823160251473e-002

1.51571656651040e+004,-8.09271090175074e+000,-6.40626318773721e-002

1.53687518128801e+004,-8.09271772156907e+000,-6.49551654305252e-002

1.55832915932100e+004,-8.09272473253297e+000,-6.58600842331130e-002

1.58008262372675e+004,-8.09273193998296e+000,-6.67775580435677e-002

1.60213975517924e+004,-8.09273934940809e+000,-6.77077588549886e-002

1.62450479271247e+004,-8.09274696644930e+000,-6.86508609265933e-002

1.64718203453514e+004,-8.09275479690450e+000,-6.96070408031882e-002

1.67017583885674e+004,-8.09276284673106e+000,-7.05764773532840e-002

1.69349062472505e+004,-8.09277112205383e+000,-7.15593517704642e-002

1.71713087287550e+004,-8.09277962916489e+000,-7.25558476317422e-002

1.74110112659224e+004,-8.09278837453211e+000,-7.35661508968682e-002

1.76540599258131e+004,-8.09279736480206e+000,-7.45904499477965e-002

1.79005014185594e+004,-8.09280660680450e+000,-7.56289356169417e-002

1.81503831063432e+004,-8.09281610755989e+000,-7.66818011972347e-002

1.84037530124975e+004,-8.09282587428048e+000,-7.77492424953490e-002

1.86606598307361e+004,-8.09283591437966e+000,-7.88314578311797e-002

1.89211529345119e+004,-8.09284623547462e+000,-7.99286480829328e-002

1.91852823865052e+004,-8.09285684539297e+000,-8.10410167056527e-002

1.94530989482457e+004,-8.09286775217856e+000,-8.21687697579754e-002

1.97246540898671e+004,-8.09287896409721e+000,-8.33121159290841e-002

1.99999999999999e+004,-8.09289048964162e+000,-8.44712665718116e-002

2.02791895958005e+004,-8.09290233753933e+000,-8.56464357175429e-002

2.05622765331213e+004,-8.09291451675771e+000,-8.68378401113205e-002

2.08493152168224e+004,-8.09292703651149e+000,-8.80456992308165e-002

2.11403608112276e+004,-8.09293990626784e+000,-8.92702353228918e-002

2.14354692507258e+004,-8.09295313575428e+000,-9.05116734221438e-002

2.17346972505211e+004,-8.09296673496663e+000,-9.17702413707274e-002

2.20381023175322e+004,-8.09298071417324e+000,-9.30461698631338e-002

2.23457427614443e+004,-8.09299508392489e+000,-9.43396924537750e-002

2.26576777059159e+004,-8.09300985506241e+000,-9.56510455839507e-002

2.29739670999406e+004,-8.09302503872143e+000,-9.69804686231295e-002

2.32946717293690e+004,-8.09304064634390e+000,-9.83282038730699e-002

2.36198532285905e+004,-8.09305668968442e+000,-9.96944966016379e-002

2.39495740923785e+004,-8.09307318081828e+000,-1.01079595069030e-001

2.42838976879009e+004,-8.09309013215047e+000,-1.02483750549079e-001

2.46228882668982e+004,-8.09310755642487e+000,-1.03907217347983e-001

2.49666109780322e+004,-8.09312546673143e+000,-1.05350252840097e-001

2.53151318794055e+004,-8.09314387651807e+000,-1.06813117471054e-001

2.56685179512580e+004,-8.09316279959726e+000,-1.08296074798660e-001

2.60268371088386e+004,-8.09318225015761e+000,-1.09799391500797e-001

2.63901582154578e+004,-8.09320224277239e+000,-1.11323337404549e-001

2.67585510957221e+004,-8.09322279241060e+000,-1.12868185500164e-001

2.71320865489533e+004,-8.09324391444667e+000,-1.14434211963844e-001

2.75108363627948e+004,-8.09326562467043e+000,-1.16021696180546e-001

2.78948733270080e+004,-8.09328793930013e+000,-1.17630920747379e-001

2.82842712474618e+004,-8.09331087499057e+000,-1.19262171508944e-001

2.86791049603164e+004,-8.09333444884684e+000,-1.20915737558764e-001

2.90794503464061e+004,-8.09335867843351e+000,-1.22591911269082e-001

2.94853843458219e+004,-8.09338358178956e+000,-1.24290988285186e-001

2.98969849726987e+004,-8.09340917743751e+000,-1.26013267558157e-001

3.03143313302078e+004,-8.09343548439689e+000,-1.27759051349294e-001

3.07375036257601e+004,-8.09346252219817e+000,-1.29528645233171e-001

3.11665831864199e+004,-8.09349031089370e+000,-1.31322358119897e-001

3.16016524745350e+004,-8.09351887107135e+000,-1.33140502260976e-001

3.20427951035848e+004,-8.09354822387019e+000,-1.34983393241675e-001

3.24900958542493e+004,-8.09357839099080e+000,-1.36851350009473e-001

3.29436406907028e+004,-8.09360939471182e+000,-1.38744694861828e-001

3.34035167771346e+004,-8.09364125790382e+000,-1.40663753451965e-001

3.38698124945009e+004,-8.09367400404390e+000,-1.42608854790231e-001

3.43426174575100e+004,-8.09370765723063e+000,-1.44580331243041e-001

3.48220225318448e+004,-8.09374224219937e+000,-1.46578518529235e-001

3.53081198516260e+004,-8.09377778433809e+000,-1.48603755714887e-001

3.58010028371187e+004,-8.09381430970323e+000,-1.50656385205269e-001

3.63007662126863e+004,-8.09385184503645e+000,-1.52736752733201e-001

3.68075060249948e+004,-8.09389041778016e+000,-1.54845207353562e-001

3.73213196614721e+004,-8.09393005609514e+000,-1.56982101424188e-001

3.78423058690237e+004,-8.09397078887831e+000,-1.59147790586820e-001

3.83705647730104e+004,-8.09401264577923e+000,-1.61342633752899e-001

3.89061978964912e+004,-8.09405565721861e+000,-1.63566993078635e-001

3.94493081797342e+004,-8.09409985440658e+000,-1.65821233938252e-001

3.99999999999998e+004,-8.09414526936103e+000,-1.68105724898610e-001

4.05583791916010e+004,-8.09419193492657e+000,-1.70420837685462e-001

4.11245530662425e+004,-8.09423988479335e+000,-1.72766947152629e-001

4.16986304336447e+004,-8.09428915351771e+000,-1.75144431235344e-001

4.22807216224550e+004,-8.09433977654057e+000,-1.77553670918267e-001

4.28709385014515e+004,-8.09439179020847e+000,-1.79995050184658e-001

4.34693945010421e+004,-8.09444523179396e+000,-1.82468955965927e-001

4.40762046350642e+004,-8.09450013951600e+000,-1.84975778092048e-001

4.46914855228886e+004,-8.09455655256192e+000,-1.87515909226873e-001

4.53153554118317e+004,-8.09461451110716e+000,-1.90089744817033e-001

4.59479341998812e+004,-8.09467405633922e+000,-1.92697683009865e-001

4.65893434587380e+004,-8.09473523047700e+000,-1.95340124598662e-001

4.72397064571810e+004,-8.09479807679557e+000,-1.98017472929981e-001

4.78991481847569e+004,-8.09486263964657e+000,-2.00730133834285e-001

4.85677953758016e+004,-8.09492896448254e+000,-2.03478515529810e-001

4.92457765337964e+004,-8.09499709787865e+000,-2.06263028536945e-001

4.99332219560642e+004,-8.09506708755673e+000,-2.09084085574031e-001

5.06302637588109e+004,-8.09513898240859e+000,-2.11942101454983e-001

5.13370359025159e+004,-8.09521283251922e+000,-2.14837492979141e-001

5.20536742176771e+004,-8.09528868919069e+000,-2.17770678815354e-001

5.27803164309155e+004,-8.09536660496684e+000,-2.20742079372467e-001

5.35171021914442e+004,-8.09544663365640e+000,-2.23752116675111e-001

5.42641730979066e+004,-8.09552883035785e+000,-2.26801214221103e-001

5.50216727255895e+004,-8.09561325148327e+000,-2.29889796840892e-001

5.57897466540159e+004,-8.09569995478301e+000,-2.33018290540533e-001

5.65685424949235e+004,-8.09578899937056e+000,-2.36187122340081e-001

5.73582099206328e+004,-8.09588044574588e+000,-2.39396720110936e-001

5.81589006928121e+004,-8.09597435582070e+000,-2.42647512393024e-001

5.89707686916437e+004,-8.09607079294256e+000,-2.45939928211627e-001

5.97939699453972e+004,-8.09616982191909e+000,-2.49274396881612e-001

6.06286626604156e+004,-8.09627150904250e+000,-2.52651347802529e-001

6.14750072515201e+004,-8.09637592211279e+000,-2.56071210248861e-001

6.23331663728396e+004,-8.09648313046203e+000,-2.59534413145085e-001

6.32033049490698e+004,-8.09659320497813e+000,-2.63041384830176e-001

6.40855902071694e+004,-8.09670621812679e+000,-2.66592552822452e-001

6.49801917084985e+004,-8.09682224397624e+000,-2.70188343553727e-001

6.58872813814055e+004,-8.09694135821734e+000,-2.73829182119690e-001

6.68070335542691e+004,-8.09706363818757e+000,-2.77515491991143e-001

6.77396249890018e+004,-8.09718916289082e+000,-2.81247694738097e-001

6.86852349150199e+004,-8.09731801301906e+000,-2.85026209724490e-001

6.96440450636895e+004,-8.09745027097168e+000,-2.88851453804310e-001

7.06162397032520e+004,-8.09758602087571e+000,-2.92723840993844e-001

7.16020056742374e+004,-8.09772534860337e+000,-2.96643782142377e-001

7.26015324253724e+004,-8.09786834178995e+000,-3.00611684585275e-001

7.36150120499896e+004,-8.09801508985052e+000,-3.04627951782612e-001

7.46426393229441e+004,-8.09816568399540e+000,-3.08692982947681e-001

7.56846117380472e+004,-8.09832021724411e+000,-3.12807172663911e-001

7.67411295460207e+004,-8.09847878443843e+000,-3.16970910486193e-001

7.78123957929823e+004,-8.09864148225440e+000,-3.21184580526208e-001

7.88986163594682e+004,-8.09880840921183e+000,-3.25448561031151e-001

7.99999999999995e+004,-8.09897966568333e+000,-3.29763223941566e-001

8.11167583832018e+004,-8.09915535390105e+000,-3.34128934438235e-001

8.22491061324848e+004,-8.09933557796105e+000,-3.38546050479638e-001

8.33972608672892e+004,-8.09952044382682e+000,-3.43014922316817e-001

8.45614432449099e+004,-8.09971005933053e+000,-3.47535891997321e-001

8.57418770029029e+004,-8.09990453417065e+000,-3.52109292861884e-001

8.69387890020841e+004,-8.10010397990873e+000,-3.56735449018787e-001

8.81524092701283e+004,-8.10030850996353e+000,-3.61414674804981e-001

8.93829710457770e+004,-8.10051823960142e+000,-3.66147274238686e-001

9.06307108236633e+004,-8.10073328592473e+000,-3.70933540455716e-001

9.18958683997622e+004,-8.10095376785785e+000,-3.75773755125473e-001

9.31786869174758e+004,-8.10117980612784e+000,-3.80668187869934e-001

9.44794129143618e+004,-8.10141152324459e+000,-3.85617095650495e-001

9.57982963695136e+004,-8.10164904347526e+000,-3.90620722156393e-001

9.71355907516031e+004,-8.10189249281631e+000,-3.95679297174070e-001

9.84915530675926e+004,-8.10214199896052e+000,-4.00793035950118e-001

9.98664439121282e+004,-8.10239769126205e+000,-4.05962138531189e-001

1.01260527517622e+005,-8.10265970069450e+000,-4.11186789109866e-001

1.02674071805032e+005,-8.10292815980638e+000,-4.16467155349827e-001

1.04107348435354e+005,-8.10320320267236e+000,-4.21803387697738e-001

1.05560632861831e+005,-8.10348496483738e+000,-4.27195618702937e-001

1.07034204382888e+005,-8.10377358325875e+000,-4.32643962309086e-001

1.08528346195813e+005,-8.10406919624026e+000,-4.38148513157772e-001

1.10043345451179e+005,-8.10437194336254e+000,-4.43709345874931e-001

1.11579493308032e+005,-8.10468196540817e+000,-4.49326514352024e-001

1.13137084989847e+005,-8.10499940427884e+000,-4.55000051035148e-001

1.14716419841265e+005,-8.10532440290896e+000,-4.60729966199126e-001

1.16317801385624e+005,-8.10565710517104e+000,-4.66516247233066e-001

1.17941537383287e+005,-8.10599765577624e+000,-4.72358857915229e-001

1.19587939890794e+005,-8.10634620016719e+000,-4.78257737702046e-001

1.21257325320831e+005,-8.10670288440477e+000,-4.84212801012501e-001

1.22950014503040e+005,-8.10706785504705e+000,-4.90223936527834e-001

1.24666332745679e+005,-8.10744125902226e+000,-4.96291006490217e-001

1.26406609898139e+005,-8.10782324349354e+000,-5.02413846020145e-001

1.28171180414339e+005,-8.10821395571615e+000,-5.08592262444778e-001

1.29960383416997e+005,-8.10861354288822e+000,-5.14826034636686e-001

1.31774562762811e+005,-8.10902215199182e+000,-5.21114912381078e-001

1.33614067108538e+005,-8.10943992962884e+000,-5.27458615747028e-001

1.35479249978003e+005,-8.10986702184558e+000,-5.33856834504511e-001

1.37370469830040e+005,-8.11030357395271e+000,-5.40309227543166e-001

1.39288090127379e+005,-8.11074973033423e+000,-5.46815422341230e-001

1.41232479406504e+005,-8.11120563425023e+000,-5.53375014452334e-001

1.43204011348474e+005,-8.11167142763068e+000,-5.59987567034323e-001

1.45203064850745e+005,-8.11214725086045e+000,-5.66652610418237e-001

1.47230024099979e+005,-8.11263324255767e+000,-5.73369641713751e-001

1.49285278645888e+005,-8.11312953934212e+000,-5.80138124468073e-001

1.51369223476094e+005,-8.11363627559759e+000,-5.86957488364483e-001

1.53482259092041e+005,-8.11415358322407e+000,-5.93827128987568e-001

1.55624791585964e+005,-8.11468159138408e+000,-6.00746407632729e-001

1.57797232718936e+005,-8.11522042624016e+000,-6.07714651185074e-001

1.59999999999999e+005,-8.11577021068619e+000,-6.14731152055329e-001

1.62233516766403e+005,-8.11633106406934e+000,-6.21795168199096e-001

1.64498212264969e+005,-8.11690310190804e+000,-6.28905923189753e-001

1.66794521734578e+005,-8.11748643560087e+000,-6.36062606385519e-001

1.69122886489819e+005,-8.11808117213109e+000,-6.43264373166481e-001

1.71483754005805e+005,-8.11868741376420e+000,-6.50510345263276e-001

1.73877578004168e+005,-8.11930525774131e+000,-6.57799611169216e-001

1.76304818540256e+005,-8.11993479596667e+000,-6.65131226651304e-001

1.78765942091554e+005,-8.12057611469207e+000,-6.72504215352558e-001

1.81261421647326e+005,-8.12122929419649e+000,-6.79917569500915e-001

1.83791736799524e+005,-8.12189440846418e+000,-6.87370250714204e-001

1.86357373834951e+005,-8.12257152485956e+000,-6.94861190919942e-001

1.88958825828723e+005,-8.12326070380046e+000,-7.02389293385166e-001

1.91596592739027e+005,-8.12396199843195e+000,-7.09953433854556e-001

1.94271181503206e+005,-8.12467545429905e+000,-7.17552461812296e-001

1.96983106135185e+005,-8.12540110902149e+000,-7.25185201857581e-001

1.99732887824256e+005,-8.12613899196945e+000,-7.32850455209658e-001

2.02521055035243e+005,-8.12688912394394e+000,-7.40547001325451e-001

2.05348143610063e+005,-8.12765151685966e+000,-7.48273599653054e-001

2.08214696870707e+005,-8.12842617343386e+000,-7.56028991506345e-001

2.11121265723661e+005,-8.12921308688169e+000,-7.63811902067062e-001

2.14068408765776e+005,-8.13001224061801e+000,-7.71621042518527e-001

2.17056692391625e+005,-8.13082360796889e+000,-7.79455112302809e-001

2.20086690902357e+005,-8.13164715189216e+000,-7.87312801508598e-001

2.23158986616063e+005,-8.13248282470943e+000,-7.95192793383980e-001

2.26274169979693e+005,-8.13333056785045e+000,-8.03093766972703e-001

2.29432839682530e+005,-8.13419031161007e+000,-8.11014399880363e-001

2.32635602771247e+005,-8.13506197492178e+000,-8.18953371148056e-001

2.35883074766574e+005,-8.13594546514528e+000,-8.26909364257790e-001

2.39175879781588e+005,-8.13684067787362e+000,-8.34881070235622e-001

2.42514650641661e+005,-8.13774749675627e+000,-8.42867190880430e-001

2.45900029006080e+005,-8.13866579334477e+000,-8.50866442077955e-001

2.49332665491357e+005,-8.13959542695741e+000,-8.58877557228465e-001

2.52813219796278e+005,-8.14053624456700e+000,-8.66899290754837e-001

2.56342360828676e+005,-8.14148808071157e+000,-8.74930421702677e-001

2.59920766833993e+005,-8.14245075742957e+000,-8.82969757413057e-001

2.63549125525621e+005,-8.14342408422107e+000,-8.91016137263000e-001

2.67228134217075e+005,-8.14440785803395e+000,-8.99068436472020e-001

2.70958499956006e+005,-8.14540186327873e+000,-9.07125569952872e-001

2.74740939660078e+005,-8.14640587187047e+000,-9.15186496207688e-001

2.78576180254757e+005,-8.14741964329999e+000,-9.23250221251678e-001

2.82464958813007e+005,-8.14844292473417e+000,-9.31315802558235e-001

2.86408022696948e+005,-8.14947545114606e+000,-9.39382353012169e-001

2.90406129701488e+005,-8.15051694547517e+000,-9.47449044861327e-001

2.94460048199957e+005,-8.15156711881890e+000,-9.55515113649641e-001

2.98570557291775e+005,-8.15262567065399e+000,-9.63579862125440e-001

3.02738446952187e+005,-8.15369228908889e+000,-9.71642664111268e-001

3.06964518184081e+005,-8.15476665114673e+000,-9.79702968319775e-001

3.11249583171928e+005,-8.15584842307924e+000,-9.87760302103422e-001

3.15594465437872e+005,-8.15693726071008e+000,-9.95814275128301e-001

3.19999999999997e+005,-8.15803280980797e+000,-1.00386458295870e+000

3.24467033532806e+005,-8.15913470648892e+000,-1.01191101053620e+000

3.28996424529938e+005,-8.16024257764620e+000,-1.01995343554639e+000

3.33589043469155e+005,-8.16135604140826e+000,-1.02799183165431e+000

3.38245772979638e+005,-8.16247470762192e+000,-1.03602627160682e+000

3.42967508011610e+005,-8.16359817836151e+000,-1.04405693017815e+000

3.47755156008335e+005,-8.16472604846104e+000,-1.05208408695946e+000

3.52609637080511e+005,-8.16585790606932e+000,-1.06010812897160e+000

3.57531884183106e+005,-8.16699333322468e+000,-1.06812955310478e+000

3.62522843294651e+005,-8.16813190645045e+000,-1.07614896835646e+000

3.67583473599047e+005,-8.16927319736624e+000,-1.08416709788154e+000

3.72714747669902e+005,-8.17041677331550e+000,-1.09218478082989e+000

3.77917651657445e+005,-8.17156219800640e+000,-1.10020297397417e+000

3.83193185478053e+005,-8.17270903216426e+000,-1.10822275311726e+000

3.88542363006410e+005,-8.17385683419355e+000,-1.11624531427734e+000

3.93966212270369e+005,-8.17500516084689e+000,-1.12427197464628e+000

3.99465775648511e+005,-8.17615356789978e+000,-1.13230417331627e+000

4.05042110070485e+005,-8.17730161082754e+000,-1.14034347177728e+000

4.10696287220124e+005,-8.17844884548349e+000,-1.14839155418004e+000

4.16429393741414e+005,-8.17959482877582e+000,-1.15645022736465e+000

4.22242531447321e+005,-8.18073911934007e+000,-1.16452142066339e+000

4.28136817531551e+005,-8.18188127820646e+000,-1.17260718546810e+000

4.34113384783250e+005,-8.18302086945869e+000,-1.18070969457779e+000

4.40173381804713e+005,-8.18415746088301e+000,-1.18883124131878e+000

4.46317973232124e+005,-8.18529062460442e+000,-1.19697423845501e+000

4.52548339959385e+005,-8.18641993770966e+000,-1.20514121688183e+000

4.58865679365059e+005,-8.18754498285299e+000,-1.21333482412232e+000

4.65271205542494e+005,-8.18866534884475e+000,-1.22155782262478e+000

4.71766149533147e+005,-8.18978063122011e+000,-1.22981308787470e+000

4.78351759563174e+005,-8.19089043278633e+000,-1.23810360632863e+000

4.85029301283321e+005,-8.19199436414736e+000,-1.24643247318327e+000

4.91800058012158e+005,-8.19309204420429e+000,-1.25480288998401e+000

4.98665330982714e+005,-8.19418310063013e+000,-1.26321816209162e+000

5.05626439592555e+005,-8.19526717031777e+000,-1.27168169601428e+000

5.12684721657352e+005,-8.19634389980139e+000,-1.28019699661266e+000

5.19841533667984e+005,-8.19741294564780e+000,-1.28876766420452e+000

5.27098251051240e+005,-8.19847397481987e+000,-1.29739739156303e+000

5.34456268434150e+005,-8.19952666500910e+000,-1.30608996083829e+000

5.41916999912011e+005,-8.20057070493883e+000,-1.31484924040057e+000

