Freq.,VOut,OutRef

1.00000000000000e+004,-1.67826599926806e+001,-1.67955975212460e-001

1.01395947979003e+004,-1.67826618975412e+001,-1.70300257478808e-001

1.02811382665607e+004,-1.67826638558897e+001,-1.72677252156845e-001

1.04246576084112e+004,-1.67826658692259e+001,-1.75087415363485e-001

1.05701804056138e+004,-1.67826679390920e+001,-1.77531209558417e-001

1.07177346253629e+004,-1.67826700670731e+001,-1.80009103635155e-001

1.08673486252606e+004,-1.67826722547988e+001,-1.82521573006684e-001

1.10190511587661e+004,-1.67826745039439e+001,-1.85069099699115e-001

1.11728713807222e+004,-1.67826768162302e+001,-1.87652172440452e-001

1.13288388529580e+004,-1.67826791934281e+001,-1.90271286749315e-001

1.14869835499703e+004,-1.67826816373565e+001,-1.92926945039656e-001

1.16473358646846e+004,-1.67826841498860e+001,-1.95619656703047e-001

1.18099266142953e+004,-1.67826867329392e+001,-1.98349938211791e-001

1.19747870461893e+004,-1.67826893884921e+001,-2.01118313217560e-001

1.21419488439505e+004,-1.67826921185763e+001,-2.03925312644432e-001

1.23114441334492e+004,-1.67826949252799e+001,-2.06771474795195e-001

1.24833054890161e+004,-1.67826978107493e+001,-2.09657345448262e-001

1.26575659397028e+004,-1.67827007771910e+001,-2.12583477962860e-001

1.28342589756290e+004,-1.67827038268727e+001,-2.15550433383130e-001

1.30134185544193e+004,-1.67827069621259e+001,-2.18558780542049e-001

1.31950791077289e+004,-1.67827101853467e+001,-2.21609096169510e-001

1.33792755478611e+004,-1.67827134989981e+001,-2.24701965002540e-001

1.35660432744767e+004,-1.67827169056121e+001,-2.27837979890178e-001

1.37554181813974e+004,-1.67827204077907e+001,-2.31017741911897e-001

1.39474366635040e+004,-1.67827240082088e+001,-2.34241860483111e-001

1.41421356237309e+004,-1.67827277096160e+001,-2.37510953473895e-001

1.43395524801583e+004,-1.67827315148379e+001,-2.40825647323976e-001

1.45397251732031e+004,-1.67827354267795e+001,-2.44186577157170e-001

1.47426921729110e+004,-1.67827394484260e+001,-2.47594386906181e-001

1.49484924863494e+004,-1.67827435828463e+001,-2.51049729425704e-001

1.51571656651040e+004,-1.67827478331942e+001,-2.54553266620671e-001

1.53687518128801e+004,-1.67827522027114e+001,-2.58105669565854e-001

1.55832915932100e+004,-1.67827566947297e+001,-2.61707618632572e-001

1.58008262372675e+004,-1.67827613126739e+001,-2.65359803613727e-001

1.60213975517924e+004,-1.67827660600634e+001,-2.69062923854884e-001

1.62450479271247e+004,-1.67827709405157e+001,-2.72817688382467e-001

1.64718203453514e+004,-1.67827759577488e+001,-2.76624816037085e-001

1.67017583885674e+004,-1.67827811155835e+001,-2.80485035604856e-001

1.69349062472505e+004,-1.67827864179473e+001,-2.84399085953465e-001

1.71713087287550e+004,-1.67827918688762e+001,-2.88367716168745e-001

1.74110112659224e+004,-1.67827974725181e+001,-2.92391685695586e-001

1.76540599258131e+004,-1.67828032331363e+001,-2.96471764473643e-001

1.79005014185594e+004,-1.67828091551117e+001,-3.00608733085654e-001

1.81503831063432e+004,-1.67828152429470e+001,-3.04803382895836e-001

1.84037530124975e+004,-1.67828215012693e+001,-3.09056516197739e-001

1.86606598307361e+004,-1.67828279348338e+001,-3.13368946363886e-001

1.89211529345119e+004,-1.67828345485273e+001,-3.17741497992291e-001

1.91852823865052e+004,-1.67828413473718e+001,-3.22175007059103e-001

1.94530989482457e+004,-1.67828483365277e+001,-3.26670321072748e-001

1.97246540898671e+004,-1.67828555212985e+001,-3.31228299227232e-001

1.99999999999999e+004,-1.67828629071338e+001,-3.35849812560044e-001

2.02791895958005e+004,-1.67828704996335e+001,-3.40535744112582e-001

2.05622765331213e+004,-1.67828783045523e+001,-3.45286989088406e-001

2.08493152168224e+004,-1.67828863278031e+001,-3.50104455019415e-001

2.11403608112276e+004,-1.67828945754621e+001,-3.54989061928358e-001

2.14354692507258e+004,-1.67829030537727e+001,-3.59941742494919e-001

2.17346972505211e+004,-1.67829117691499e+001,-3.64963442230581e-001

2.20381023175322e+004,-1.67829207281852e+001,-3.70055119642078e-001

2.23457427614443e+004,-1.67829299376515e+001,-3.75217746408908e-001

2.26576777059159e+004,-1.67829394045076e+001,-3.80452307557326e-001

2.29739670999406e+004,-1.67829491359030e+001,-3.85759801640129e-001

2.32946717293690e+004,-1.67829591391839e+001,-3.91141240910116e-001

2.36198532285905e+004,-1.67829694218973e+001,-3.96597651508699e-001

2.39495740923785e+004,-1.67829799917972e+001,-4.02130073644162e-001

2.42838976879009e+004,-1.67829908568498e+001,-4.07739561779963e-001

2.46228882668982e+004,-1.67830020252392e+001,-4.13427184821787e-001

2.49666109780322e+004,-1.67830135053731e+001,-4.19194026308951e-001

2.53151318794055e+004,-1.67830253058887e+001,-4.25041184604792e-001

2.56685179512580e+004,-1.67830374356590e+001,-4.30969773093076e-001

2.60268371088386e+004,-1.67830499037987e+001,-4.36980920372755e-001

2.63901582154578e+004,-1.67830627196710e+001,-4.43075770458157e-001

2.67585510957221e+004,-1.67830758928935e+001,-4.49255482981015e-001

2.71320865489533e+004,-1.67830894333457e+001,-4.55521233390227e-001

2.75108363627948e+004,-1.67831033511750e+001,-4.61874213162805e-001

2.78948733270080e+004,-1.67831176568045e+001,-4.68315630007236e-001

2.82842712474618e+004,-1.67831323609394e+001,-4.74846708076033e-001

2.86791049603164e+004,-1.67831474745751e+001,-4.81468688177041e-001

2.90794503464061e+004,-1.67831630090043e+001,-4.88182827988824e-001

2.94853843458219e+004,-1.67831789758247e+001,-4.94990402277763e-001

2.98969849726987e+004,-1.67831953869470e+001,-5.01892703116315e-001

3.03143313302078e+004,-1.67832122546029e+001,-5.08891040106159e-001

3.07375036257601e+004,-1.67832295913536e+001,-5.15986740600756e-001

3.11665831864199e+004,-1.67832474100978e+001,-5.23181149931246e-001

3.16016524745350e+004,-1.67832657240806e+001,-5.30475631637782e-001

3.20427951035848e+004,-1.67832845469025e+001,-5.37871567694717e-001

3.24900958542493e+004,-1.67833038925278e+001,-5.45370358750742e-001

3.29436406907028e+004,-1.67833237752949e+001,-5.52973424356951e-001

3.34035167771346e+004,-1.67833442099243e+001,-5.60682203211020e-001

3.38698124945009e+004,-1.67833652115299e+001,-5.68498153392057e-001

3.43426174575100e+004,-1.67833867956272e+001,-5.76422752606240e-001

3.48220225318448e+004,-1.67834089781445e+001,-5.84457498428588e-001

3.53081198516260e+004,-1.67834317754329e+001,-5.92603908551013e-001

3.58010028371187e+004,-1.67834552042765e+001,-6.00863521032237e-001

3.63007662126863e+004,-1.67834792819033e+001,-6.09237894546865e-001

3.68075060249948e+004,-1.67835040259964e+001,-6.17728608640412e-001

3.73213196614721e+004,-1.67835294547045e+001,-6.26337263983359e-001

3.78423058690237e+004,-1.67835555866540e+001,-6.35065482631036e-001

3.83705647730104e+004,-1.67835824409603e+001,-6.43914908280777e-001

3.89061978964912e+004,-1.67836100372392e+001,-6.52887206537848e-001

3.94493081797342e+004,-1.67836383956198e+001,-6.61984065174979e-001

3.99999999999998e+004,-1.67836675367560e+001,-6.71207194403880e-001

4.05583791916010e+004,-1.67836974818399e+001,-6.80558327137979e-001

4.11245530662425e+004,-1.67837282526133e+001,-6.90039219268227e-001

4.16986304336447e+004,-1.67837598713820e+001,-6.99651649932386e-001

4.22807216224550e+004,-1.67837923610281e+001,-7.09397421790517e-001

4.28709385014515e+004,-1.67838257450239e+001,-7.19278361300283e-001

4.34693945010421e+004,-1.67838600474453e+001,-7.29296318997605e-001

4.40762046350642e+004,-1.67838952929860e+001,-7.39453169774251e-001

4.46914855228886e+004,-1.67839315069712e+001,-7.49750813161896e-001

4.53153554118317e+004,-1.67839687153724e+001,-7.60191173616027e-001

4.59479341998812e+004,-1.67840069448217e+001,-7.70776200798540e-001

4.65893434587380e+004,-1.67840462226264e+001,-7.81507869869654e-001

4.72397064571810e+004,-1.67840865767849e+001,-7.92388181773262e-001

4.78991481847569e+004,-1.67841280360005e+001,-8.03419163529033e-001

4.85677953758016e+004,-1.67841706296980e+001,-8.14602868525377e-001

4.92457765337964e+004,-1.67842143880388e+001,-8.25941376811090e-001

4.99332219560642e+004,-1.67842593419369e+001,-8.37436795392368e-001

5.06302637588109e+004,-1.67843055230747e+001,-8.49091258527921e-001

5.13370359025159e+004,-1.67843529639192e+001,-8.60906928028160e-001

5.20536742176771e+004,-1.67844016977387e+001,-8.72885993553577e-001

5.27803164309155e+004,-1.67844517586187e+001,-8.85030672915026e-001

5.35171021914442e+004,-1.67845031814792e+001,-8.97343212375252e-001

5.42641730979066e+004,-1.67845560020912e+001,-9.09825886951782e-001

5.50216727255895e+004,-1.67846102570934e+001,-9.22481000720863e-001

5.57897466540159e+004,-1.67846659840097e+001,-9.35310887121111e-001

5.65685424949235e+004,-1.67847232212661e+001,-9.48317909258348e-001

5.73582099206328e+004,-1.67847820082079e+001,-9.61504460214234e-001

5.81589006928121e+004,-1.67848423851171e+001,-9.74872963350133e-001

5.89707686916437e+004,-1.67849043932299e+001,-9.88425872617555e-001

5.97939699453972e+004,-1.67849680747537e+001,-1.00216567286337e+000

6.06286626604156e+004,-1.67850334728848e+001,-1.01609488014122e+000

6.14750072515201e+004,-1.67851006318258e+001,-1.03021604201812e+000

6.23331663728396e+004,-1.67851695968027e+001,-1.04453173788571e+000

6.32033049490698e+004,-1.67852404140826e+001,-1.05904457926902e+000

6.40855902071694e+004,-1.67853131309903e+001,-1.07375721013610e+000

6.49801917084985e+004,-1.67853877959263e+001,-1.08867230720841e+000

6.58872813814055e+004,-1.67854644583827e+001,-1.10379258027167e+000

6.68070335542691e+004,-1.67855431689610e+001,-1.11912077248394e+000

6.77396249890018e+004,-1.67856239793877e+001,-1.13465966068737e+000

6.86852349150199e+004,-1.67857069425316e+001,-1.15041205571741e+000

6.96440450636895e+004,-1.67857921124189e+001,-1.16638080271268e+000

7.06162397032520e+004,-1.67858795442498e+001,-1.18256878142349e+000

7.16020056742374e+004,-1.67859692944131e+001,-1.19897890652271e+000

7.26015324253724e+004,-1.67860614205016e+001,-1.21561412791257e+000

7.36150120499896e+004,-1.67861559813263e+001,-1.23247743103526e+000

7.46426393229441e+004,-1.67862530369309e+001,-1.24957183717873e+000

7.56846117380472e+004,-1.67863526486045e+001,-1.26690040378663e+000

7.67411295460207e+004,-1.67864548788949e+001,-1.28446622476332e+000

7.78123957929823e+004,-1.67865597916207e+001,-1.30227243078242e+000

7.88986163594682e+004,-1.67866674518827e+001,-1.32032218959249e+000

7.99999999999995e+004,-1.67867779260742e+001,-1.33861870632317e+000

8.11167583832018e+004,-1.67868912818914e+001,-1.35716522379093e+000

8.22491061324848e+004,-1.67870075883417e+001,-1.37596502280485e+000

8.33972608672892e+004,-1.67871269157520e+001,-1.39502142247044e+000

8.45614432449099e+004,-1.67872493357752e+001,-1.41433778049641e+000

8.57418770029029e+004,-1.67873749213958e+001,-1.43391749349954e+000

8.69387890020841e+004,-1.67875037469350e+001,-1.45376399730843e+000

8.81524092701283e+004,-1.67876358880531e+001,-1.47388076727008e+000

8.93829710457770e+004,-1.67877714217517e+001,-1.49427131855546e+000

9.06307108236633e+004,-1.67879104263740e+001,-1.51493920646597e+000

9.18958683997622e+004,-1.67880529816033e+001,-1.53588802674059e+000

9.31786869174758e+004,-1.67881991684606e+001,-1.55712141586417e+000

9.44794129143618e+004,-1.67883490692995e+001,-1.57864305137781e+000

9.57982963695136e+004,-1.67885027677999e+001,-1.60045665218949e+000

9.71355907516031e+004,-1.67886603489599e+001,-1.62256597888771e+000

9.84915530675926e+004,-1.67888218990850e+001,-1.64497483405790e+000

9.98664439121282e+004,-1.67889875057757e+001,-1.66768706260098e+000

1.01260527517622e+005,-1.67891572579126e+001,-1.69070655205447e+000

1.02674071805032e+005,-1.67893312456392e+001,-1.71403723292109e+000

1.04107348435354e+005,-1.67895095603428e+001,-1.73768307899521e+000

1.05560632861831e+005,-1.67896922946314e+001,-1.76164810770136e+000

1.07034204382888e+005,-1.67898795423097e+001,-1.78593638043411e+000

1.08528346195813e+005,-1.67900713983508e+001,-1.81055200290482e+000

1.10043345451179e+005,-1.67902679588661e+001,-1.83549912549642e+000

1.11579493308032e+005,-1.67904693210714e+001,-1.86078194362639e+000

1.13137084989847e+005,-1.67906755832507e+001,-1.88640469811632e+000

1.14716419841265e+005,-1.67908868447153e+001,-1.91237167557472e+000

1.16317801385624e+005,-1.67911032057616e+001,-1.93868720878704e+000

1.17941537383287e+005,-1.67913247676238e+001,-1.96535567711920e+000

1.19587939890794e+005,-1.67915516324239e+001,-1.99238150693426e+000

1.21257325320831e+005,-1.67917839031173e+001,-2.01976917202291e+000

1.22950014503040e+005,-1.67920216834358e+001,-2.04752319404889e+000

1.24666332745679e+005,-1.67922650778253e+001,-2.07564814301114e+000

1.26406609898139e+005,-1.67925141913813e+001,-2.10414863772492e+000

1.28171180414339e+005,-1.67927691297784e+001,-2.13302934632201e+000

1.29960383416997e+005,-1.67930299991974e+001,-2.16229498677153e+000

1.31774562762811e+005,-1.67932969062474e+001,-2.19195032742454e+000

1.33614067108538e+005,-1.67935699578835e+001,-2.22200018758285e+000

1.35479249978003e+005,-1.67938492613214e+001,-2.25244943809332e+000

1.37370469830040e+005,-1.67941349239460e+001,-2.28330300197170e+000

1.39288090127379e+005,-1.67944270532168e+001,-2.31456585505566e+000

1.41232479406504e+005,-1.67947257565686e+001,-2.34624302669036e+000

1.43204011348474e+005,-1.67950311413084e+001,-2.37833960044687e+000

1.45203064850745e+005,-1.67953433145063e+001,-2.41086071487992e+000

1.47230024099979e+005,-1.67956623828843e+001,-2.44381156432031e+000

1.49285278645888e+005,-1.67959884526990e+001,-2.47719739971176e+000

1.51369223476094e+005,-1.67963216296208e+001,-2.51102352948848e+000

1.53482259092041e+005,-1.67966620186093e+001,-2.54529532049908e+000

1.55624791585964e+005,-1.67970097237836e+001,-2.58001819897809e+000

1.57797232718936e+005,-1.67973648482897e+001,-2.61519765156941e+000

1.59999999999999e+005,-1.67977274941633e+001,-2.65083922640090e+000

1.62233516766403e+005,-1.67980977621897e+001,-2.68694853421437e+000

1.64498212264969e+005,-1.67984757517593e+001,-2.72353124955688e+000

1.66794521734578e+005,-1.67988615607209e+001,-2.76059311202736e+000

1.69122886489819e+005,-1.67992552852312e+001,-2.79813992759157e+000

1.71483754005805e+005,-1.67996570196013e+001,-2.83617756996010e+000

1.73877578004168e+005,-1.68000668561422e+001,-2.87471198203494e+000

1.76304818540256e+005,-1.68004848850064e+001,-2.91374917742825e+000

1.78765942091554e+005,-1.68009111940286e+001,-2.95329524205304e+000

1.81261421647326e+005,-1.68013458685651e+001,-2.99335633579031e+000

1.83791736799524e+005,-1.68017889913313e+001,-3.03393869423539e+000

1.86357373834951e+005,-1.68022406422401e+001,-3.07504863052186e+000

1.88958825828723e+005,-1.68027008982383e+001,-3.11669253723183e+000

1.91596592739027e+005,-1.68031698331451e+001,-3.15887688838792e+000

1.94271181503206e+005,-1.68036475174903e+001,-3.20160824153370e+000

1.96983106135185e+005,-1.68041340183545e+001,-3.24489323990101e+000

1.99732887824256e+005,-1.68046293992112e+001,-3.28873861466867e+000

2.02521055035243e+005,-1.68051337197716e+001,-3.33315118731199e+000

2.05348143610063e+005,-1.68056470358324e+001,-3.37813787204508e+000

2.08214696870707e+005,-1.68061693991279e+001,-3.42370567835644e+000

2.11121265723661e+005,-1.68067008571864e+001,-3.46986171364018e+000

2.14068408765776e+005,-1.68072414531921e+001,-3.51661318592036e+000

2.17056692391625e+005,-1.68077912258530e+001,-3.56396740667347e+000

2.20086690902357e+005,-1.68083502092752e+001,-3.61193179374272e+000

2.23158986616063e+005,-1.68089184328456e+001,-3.66051387435017e+000

2.26274169979693e+005,-1.68094959211220e+001,-3.70972128820224e+000

2.29432839682530e+005,-1.68100826937325e+001,-3.75956179068796e+000

2.32635602771247e+005,-1.68106787652852e+001,-3.81004325617057e+000

2.35883074766574e+005,-1.68112841452881e+001,-3.86117368136869e+000

2.39175879781588e+005,-1.68118988380803e+001,-3.91296118882690e+000

2.42514650641661e+005,-1.68125228427758e+001,-3.96541403047163e+000

2.45900029006080e+005,-1.68131561532201e+001,-4.01854059125130e+000

2.49332665491357e+005,-1.68137987579599e+001,-4.07234939285701e+000

2.52813219796278e+005,-1.68144506402288e+001,-4.12684909751972e+000

2.56342360828676e+005,-1.68151117779462e+001,-4.18204851188023e+000

2.59920766833993e+005,-1.68157821437331e+001,-4.23795659093079e+000

2.63549125525621e+005,-1.68164617049446e+001,-4.29458244201727e+000

2.67228134217075e+005,-1.68171504237188e+001,-4.35193532890509e+000

2.70958499956006e+005,-1.68178482570436e+001,-4.41002467589626e+000

2.74740939660078e+005,-1.68185551568420e+001,-4.46886007199792e+000

2.78576180254757e+005,-1.68192710700755e+001,-4.52845127513314e+000

2.82464958813007e+005,-1.68199959388668e+001,-4.58880821638798e+000

2.86408022696948e+005,-1.68207297006423e+001,-4.64994100429066e+000

2.90406129701488e+005,-1.68214722882939e+001,-4.71185992911467e+000

2.94460048199957e+005,-1.68222236303603e+001,-4.77457546719800e+000

2.98570557291775e+005,-1.68229836512302e+001,-4.83809828527463e+000

3.02738446952187e+005,-1.68237522713631e+001,-4.90243924480798e+000

3.06964518184081e+005,-1.68245294075328e+001,-4.96760940632208e+000

3.11249583171928e+005,-1.68253149730892e+001,-5.03362003371871e+000

3.15594465437872e+005,-1.68261088782416e+001,-5.10048259858076e+000

3.19999999999997e+005,-1.68269110303606e+001,-5.16820878444538e+000

3.24467033532806e+005,-1.68277213343001e+001,-5.23681049104749e+000

3.28996424529938e+005,-1.68285396927385e+001,-5.30629983852213e+000

3.33589043469155e+005,-1.68293660065383e+001,-5.37668917156067e+000

3.38245772979638e+005,-1.68302001751237e+001,-5.44799106351219e+000

3.42967508011610e+005,-1.68310420968763e+001,-5.52021832042657e+000

3.47755156008335e+005,-1.68318916695467e+001,-5.59338398503027e+000

3.52609637080511e+005,-1.68327487906832e+001,-5.66750134062910e+000

3.57531884183106e+005,-1.68336133580749e+001,-5.74258391493493e+000

3.62522843294651e+005,-1.68344852702092e+001,-5.81864548380802e+000

3.67583473599047e+005,-1.68353644267435e+001,-5.89570007491178e+000

3.72714747669902e+005,-1.68362507289881e+001,-5.97376197127570e+000

3.77917651657445e+005,-1.68371440804012e+001,-6.05284571476200e+000

3.83193185478053e+005,-1.68380443870937e+001,-6.13296610943320e+000

3.88542363006410e+005,-1.68389515583436e+001,-6.21413822481784e+000

3.93966212270369e+005,-1.68398655071176e+001,-6.29637739907133e+000

3.99465775648511e+005,-1.68407861505997e+001,-6.37969924203203e+000

4.05042110070485e+005,-1.68417134107256e+001,-6.46411963816946e+000

4.10696287220124e+005,-1.68426472147211e+001,-6.54965474942576e+000

4.16429393741414e+005,-1.68435874956433e+001,-6.63632101794960e+000

4.22242531447321e+005,-1.68445341929244e+001,-6.72413516872426e+000

4.28136817531551e+005,-1.68454872529153e+001,-6.81311421209033e+000

4.34113384783250e+005,-1.68464466294292e+001,-6.90327544616524e+000

4.40173381804713e+005,-1.68474122842835e+001,-6.99463645916284e+000

4.46317973232124e+005,-1.68483841878386e+001,-7.08721513161432e+000

4.52548339959385e+005,-1.68493623195331e+001,-7.18102963849716e+000

4.58865679365059e+005,-1.68503466684140e+001,-7.27609845127254e+000

4.65271205542494e+005,-1.68513372336610e+001,-7.37244033983833e+000

4.71766149533147e+005,-1.68523340251040e+001,-7.47007437440277e+000

4.78351759563174e+005,-1.68533370637327e+001,-7.56901992728306e+000

4.85029301283321e+005,-1.68543463821982e+001,-7.66929667463399e+000

4.91800058012158e+005,-1.68553620253054e+001,-7.77092459811674e+000

4.98665330982714e+005,-1.68563840504948e+001,-7.87392398650950e+000

5.05626439592555e+005,-1.68574125283150e+001,-7.97831543727037e+000

5.12684721657352e+005,-1.68584475428836e+001,-8.08411985805663e+000

5.19841533667984e+005,-1.68594891923374e+001,-8.19135846821037e+000

5.27098251051240e+005,-1.68605375892703e+001,-8.30005280021547e+000

5.34456268434150e+005,-1.68615928611601e+001,-8.41022470113488e+000

5.41916999912011e+005,-1.68626551507829e+001,-8.52189633403441e+000

