Freq.,VOut,OutRef

1.00000000000000e+004,-1.92861842085162e+001,-2.15787266290860e-001

1.01395947979003e+004,-1.92861856009286e+001,-2.18799376782400e-001

1.02811382665607e+004,-1.92861870324508e+001,-2.21853527662787e-001

1.04246576084112e+004,-1.92861885041804e+001,-2.24950305492848e-001

1.05701804056138e+004,-1.92861900172454e+001,-2.28090305009229e-001

1.07177346253629e+004,-1.92861915728059e+001,-2.31274129235381e-001

1.08673486252606e+004,-1.92861931720539e+001,-2.34502389601516e-001

1.10190511587661e+004,-1.92861948162153e+001,-2.37775706055848e-001

1.11728713807222e+004,-1.92861965065498e+001,-2.41094707188498e-001

1.13288388529580e+004,-1.92861982443529e+001,-2.44460030346418e-001

1.14869835499703e+004,-1.92862000309559e+001,-2.47872321758855e-001

1.16473358646846e+004,-1.92862018677275e+001,-2.51332236657985e-001

1.18099266142953e+004,-1.92862037560750e+001,-2.54840439404624e-001

1.19747870461893e+004,-1.92862056974445e+001,-2.58397603617074e-001

1.21419488439505e+004,-1.92862076933232e+001,-2.62004412294649e-001

1.23114441334492e+004,-1.92862097452393e+001,-2.65661557954354e-001

1.24833054890161e+004,-1.92862118547641e+001,-2.69369742756481e-001

1.26575659397028e+004,-1.92862140235127e+001,-2.73129678642387e-001

1.28342589756290e+004,-1.92862162531453e+001,-2.76942087470333e-001

1.30134185544193e+004,-1.92862185453688e+001,-2.80807701148048e-001

1.31950791077289e+004,-1.92862209019374e+001,-2.84727261779846e-001

1.33792755478611e+004,-1.92862233246546e+001,-2.88701521800730e-001

1.35660432744767e+004,-1.92862258153742e+001,-2.92731244123267e-001

1.37554181813974e+004,-1.92862283760016e+001,-2.96817202282433e-001

1.39474366635040e+004,-1.92862310084958e+001,-3.00960180580420e-001

1.41421356237309e+004,-1.92862337148703e+001,-3.05160974239521e-001

1.43395524801583e+004,-1.92862364971947e+001,-3.09420389550249e-001

1.45397251732031e+004,-1.92862393575964e+001,-3.13739244025461e-001

1.47426921729110e+004,-1.92862422982624e+001,-3.18118366555538e-001

1.49484924863494e+004,-1.92862453214405e+001,-3.22558597565721e-001

1.51571656651040e+004,-1.92862484294412e+001,-3.27060789177188e-001

1.53687518128801e+004,-1.92862516246396e+001,-3.31625805365008e-001

1.55832915932100e+004,-1.92862549094767e+001,-3.36254522126352e-001

1.58008262372675e+004,-1.92862582864620e+001,-3.40947827643064e-001

1.60213975517924e+004,-1.92862617581746e+001,-3.45706622451554e-001

1.62450479271247e+004,-1.92862653272654e+001,-3.50531819615350e-001

1.64718203453514e+004,-1.92862689964596e+001,-3.55424344892707e-001

1.67017583885674e+004,-1.92862727685577e+001,-3.60385136917472e-001

1.69349062472505e+004,-1.92862766464385e+001,-3.65415147374016e-001

1.71713087287550e+004,-1.92862806330611e+001,-3.70515341176394e-001

1.74110112659224e+004,-1.92862847314663e+001,-3.75686696653300e-001

1.76540599258131e+004,-1.92862889447802e+001,-3.80930205730443e-001

1.79005014185594e+004,-1.92862932762154e+001,-3.86246874120110e-001

1.81503831063432e+004,-1.92862977290739e+001,-3.91637721508757e-001

1.84037530124975e+004,-1.92863023067496e+001,-3.97103781751439e-001

1.86606598307361e+004,-1.92863070127306e+001,-4.02646103064898e-001

1.89211529345119e+004,-1.92863118506015e+001,-4.08265748228453e-001

1.91852823865052e+004,-1.92863168240472e+001,-4.13963794779316e-001

1.94530989482457e+004,-1.92863219368541e+001,-4.19741335219589e-001

1.97246540898671e+004,-1.92863271929142e+001,-4.25599477220288e-001

1.99999999999999e+004,-1.92863325962271e+001,-4.31539343829749e-001

2.02791895958005e+004,-1.92863381509034e+001,-4.37562073684690e-001

2.05622765331213e+004,-1.92863438611676e+001,-4.43668821224057e-001

2.08493152168224e+004,-1.92863497313612e+001,-4.49860756906084e-001

2.11403608112276e+004,-1.92863557659458e+001,-4.56139067428218e-001

2.14354692507258e+004,-1.92863619695068e+001,-4.62504955948540e-001

2.17346972505211e+004,-1.92863683467560e+001,-4.68959642311038e-001

2.20381023175322e+004,-1.92863749025359e+001,-4.75504363276549e-001

2.23457427614443e+004,-1.92863816418225e+001,-4.82140372751329e-001

2.26576777059159e+004,-1.92863885697294e+001,-4.88868942022534e-001

2.29739670999406e+004,-1.92863956915116e+001,-4.95691359994840e-001

2.32946717293690e+004,-1.92864030125687e+001,-5.02608933433661e-001

2.36198532285905e+004,-1.92864105384495e+001,-5.09622987206346e-001

2.39495740923785e+004,-1.92864182748558e+001,-5.16734864529421e-001

2.42838976879009e+004,-1.92864262276463e+001,-5.23945927219723e-001

2.46228882668982e+004,-1.92864344028412e+001,-5.31257555947755e-001

2.49666109780322e+004,-1.92864428066263e+001,-5.38671150492275e-001

2.53151318794055e+004,-1.92864514453574e+001,-5.46188130003626e-001

2.56685179512580e+004,-1.92864603255653e+001,-5.53809933264780e-001

2.60268371088386e+004,-1.92864694539600e+001,-5.61538018957225e-001

2.63901582154578e+004,-1.92864788374356e+001,-5.69373865934834e-001

2.67585510957221e+004,-1.92864884830755e+001,-5.77318973493711e-001

2.71320865489533e+004,-1.92864983981573e+001,-5.85374861650059e-001

2.75108363627948e+004,-1.92865085901577e+001,-5.93543071423106e-001

2.78948733270080e+004,-1.92865190667584e+001,-6.01825165116283e-001

2.82842712474618e+004,-1.92865298358509e+001,-6.10222726607219e-001

2.86791049603164e+004,-1.92865409055427e+001,-6.18737361637561e-001

2.90794503464061e+004,-1.92865522841624e+001,-6.27370698109855e-001

2.94853843458219e+004,-1.92865639802660e+001,-6.36124386385005e-001

2.98969849726987e+004,-1.92865760026428e+001,-6.45000099584777e-001

3.03143313302078e+004,-1.92865883603215e+001,-6.53999533899845e-001

3.07375036257601e+004,-1.92866010625765e+001,-6.63124408898003e-001

3.11665831864199e+004,-1.92866141189344e+001,-6.72376467838991e-001

3.16016524745350e+004,-1.92866275391805e+001,-6.81757477993283e-001

3.20427951035848e+004,-1.92866413333659e+001,-6.91269230961833e-001

3.24900958542493e+004,-1.92866555118139e+001,-7.00913543005221e-001

3.29436406907028e+004,-1.92866700851276e+001,-7.10692255370457e-001

3.34035167771346e+004,-1.92866850641968e+001,-7.20607234625445e-001

3.38698124945009e+004,-1.92867004602058e+001,-7.30660372998460e-001

3.43426174575100e+004,-1.92867162846405e+001,-7.40853588719282e-001

3.48220225318448e+004,-1.92867325492968e+001,-7.51188826364905e-001

3.53081198516260e+004,-1.92867492662882e+001,-7.61668057210248e-001

3.58010028371187e+004,-1.92867664480540e+001,-7.72293279583465e-001

3.63007662126863e+004,-1.92867841073676e+001,-7.83066519223663e-001

3.68075060249948e+004,-1.92868022573454e+001,-7.93989829644499e-001

3.73213196614721e+004,-1.92868209114547e+001,-8.05065292502872e-001

3.78423058690237e+004,-1.92868400835238e+001,-8.16295017967495e-001

3.83705647730104e+004,-1.92868597877500e+001,-8.27681145098607e-001

3.89061978964912e+004,-1.92868800387095e+001,-8.39225842226433e-001

3.94493081797342e+004,-1.92869008513671e+001,-8.50931307336067e-001

3.99999999999998e+004,-1.92869222410854e+001,-8.62799768458672e-001

4.05583791916010e+004,-1.92869442236350e+001,-8.74833484063048e-001

4.11245530662425e+004,-1.92869668152048e+001,-8.87034743456350e-001

4.16986304336447e+004,-1.92869900324120e+001,-8.99405867186327e-001

4.22807216224550e+004,-1.92870138923132e+001,-9.11949207448088e-001

4.28709385014515e+004,-1.92870384124148e+001,-9.24667148496815e-001

4.34693945010421e+004,-1.92870636106841e+001,-9.37562107066420e-001

4.40762046350642e+004,-1.92870895055606e+001,-9.50636532788190e-001

4.46914855228886e+004,-1.92871161159676e+001,-9.63892908619889e-001

4.53153554118317e+004,-1.92871434613236e+001,-9.77333751274316e-001

4.59479341998812e+004,-1.92871715615543e+001,-9.90961611657598e-001

4.65893434587380e+004,-1.92872004371054e+001,-1.00477907530677e+000

4.72397064571810e+004,-1.92872301089538e+001,-1.01878876283858e+000

4.78991481847569e+004,-1.92872605986212e+001,-1.03299333039649e+000

4.85677953758016e+004,-1.92872919281865e+001,-1.04739547010844e+000

4.92457765337964e+004,-1.92873241202990e+001,-1.06199791054512e+000

4.99332219560642e+004,-1.92873571981918e+001,-1.07680341718476e+000

5.06302637588109e+004,-1.92873911856951e+001,-1.09181479288464e+000

5.13370359025159e+004,-1.92874261072501e+001,-1.10703487835369e+000

5.20536742176771e+004,-1.92874619879232e+001,-1.12246655263398e+000

5.27803164309155e+004,-1.92874988534198e+001,-1.13811273358386e+000

5.35171021914442e+004,-1.92875367300993e+001,-1.15397637836891e+000

5.42641730979066e+004,-1.92875756449891e+001,-1.17006048395709e+000

5.50216727255895e+004,-1.92876156258003e+001,-1.18636808761595e+000

5.57897466540159e+004,-1.92876567009421e+001,-1.20290226742136e+000

5.65685424949235e+004,-1.92876988995375e+001,-1.21966614276459e+000

5.73582099206328e+004,-1.92877422514389e+001,-1.23666287486835e+000

5.81589006928121e+004,-1.92877867872436e+001,-1.25389566730760e+000

5.89707686916437e+004,-1.92878325383100e+001,-1.27136776653461e+000

5.97939699453972e+004,-1.92878795367737e+001,-1.28908246240917e+000

6.06286626604156e+004,-1.92879278155634e+001,-1.30704308873563e+000

6.14750072515201e+004,-1.92879774084183e+001,-1.32525302380275e+000

6.23331663728396e+004,-1.92880283499039e+001,-1.34371569093084e+000

6.32033049490698e+004,-1.92880806754295e+001,-1.36243455902326e+000

6.40855902071694e+004,-1.92881344212648e+001,-1.38141314312317e+000

6.49801917084985e+004,-1.92881896245571e+001,-1.40065500497703e+000

6.58872813814055e+004,-1.92882463233491e+001,-1.42016375359981e+000

6.68070335542691e+004,-1.92883045565955e+001,-1.43994304585095e+000

6.77396249890018e+004,-1.92883643641812e+001,-1.45999658701122e+000

6.86852349150199e+004,-1.92884257869386e+001,-1.48032813136747e+000

6.96440450636895e+004,-1.92884888666652e+001,-1.50094148280181e+000

7.06162397032520e+004,-1.92885536461420e+001,-1.52184049538723e+000

7.16020056742374e+004,-1.92886201691503e+001,-1.54302907398789e+000

7.26015324253724e+004,-1.92886884804907e+001,-1.56451117486555e+000

7.36150120499896e+004,-1.92887586259999e+001,-1.58629080629292e+000

7.46426393229441e+004,-1.92888306525694e+001,-1.60837202916995e+000

7.56846117380472e+004,-1.92889046081628e+001,-1.63075895764848e+000

7.67411295460207e+004,-1.92889805418340e+001,-1.65345575976216e+000

7.78123957929823e+004,-1.92890585037444e+001,-1.67646665806247e+000

7.88986163594682e+004,-1.92891385451811e+001,-1.69979593025926e+000

7.99999999999995e+004,-1.92892207185741e+001,-1.72344790986983e+000

8.11167583832018e+004,-1.92893050775134e+001,-1.74742698687412e+000

8.22491061324848e+004,-1.92893916767667e+001,-1.77173760837321e+000

8.33972608672892e+004,-1.92894805722961e+001,-1.79638427925844e+000

8.45614432449099e+004,-1.92895718212746e+001,-1.82137156288484e+000

8.57418770029029e+004,-1.92896654821031e+001,-1.84670408175188e+000

8.69387890020841e+004,-1.92897616144260e+001,-1.87238651819112e+000

8.81524092701283e+004,-1.92898602791473e+001,-1.89842361506044e+000

8.93829710457770e+004,-1.92899615384460e+001,-1.92482017644771e+000

9.06307108236633e+004,-1.92900654557912e+001,-1.95158106837886e+000

9.18958683997622e+004,-1.92901720959564e+001,-1.97871121953618e+000

9.31786869174758e+004,-1.92902815250340e+001,-2.00621562198348e+000

9.44794129143618e+004,-1.92903938104485e+001,-2.03409933189964e+000

9.57982963695136e+004,-1.92905090209697e+001,-2.06236747031951e+000

9.71355907516031e+004,-1.92906272267250e+001,-2.09102522388714e+000

9.84915530675926e+004,-1.92907484992112e+001,-2.12007784561249e+000

9.98664439121282e+004,-1.92908729113053e+001,-2.14953065564364e+000

1.01260527517622e+005,-1.92910005372751e+001,-2.17938904204266e+000

1.02674071805032e+005,-1.92911314527884e+001,-2.20965846157797e+000

1.04107348435354e+005,-1.92912657349218e+001,-2.24034444052069e+000

1.05560632861831e+005,-1.92914034621685e+001,-2.27145257545733e+000

1.07034204382888e+005,-1.92915447144448e+001,-2.30298853411126e+000

1.08528346195813e+005,-1.92916895730966e+001,-2.33495805617588e+000

1.10043345451179e+005,-1.92918381209033e+001,-2.36736695416157e+000

1.11579493308032e+005,-1.92919904420826e+001,-2.40022111425430e+000

1.13137084989847e+005,-1.92921466222923e+001,-2.43352649718966e+000

1.14716419841265e+005,-1.92923067486323e+001,-2.46728913913855e+000

1.16317801385624e+005,-1.92924709096447e+001,-2.50151515260898e+000

1.17941537383287e+005,-1.92926391953128e+001,-2.53621072736450e+000

1.19587939890794e+005,-1.92928116970590e+001,-2.57138213135689e+000

1.21257325320831e+005,-1.92929885077411e+001,-2.60703571167703e+000

1.22950014503040e+005,-1.92931697216476e+001,-2.64317789552321e+000

1.24666332745679e+005,-1.92933554344910e+001,-2.67981519118866e+000

1.26406609898139e+005,-1.92935457434006e+001,-2.71695418906747e+000

1.28171180414339e+005,-1.92937407469130e+001,-2.75460156268271e+000

1.29960383416997e+005,-1.92939405449617e+001,-2.79276406973354e+000

1.31774562762811e+005,-1.92941452388647e+001,-2.83144855316802e+000

1.33614067108538e+005,-1.92943549313112e+001,-2.87066194227712e+000

1.35479249978003e+005,-1.92945697263465e+001,-2.91041125381320e+000

1.37370469830040e+005,-1.92947897293552e+001,-2.95070359313602e+000

1.39288090127379e+005,-1.92950150470435e+001,-2.99154615538436e+000

1.41232479406504e+005,-1.92952457874195e+001,-3.03294622667565e+000

1.43204011348474e+005,-1.92954820597717e+001,-3.07491118533685e+000

1.45203064850745e+005,-1.92957239746479e+001,-3.11744850316319e+000

1.47230024099979e+005,-1.92959716438300e+001,-3.16056574671153e+000

1.49285278645888e+005,-1.92962251803098e+001,-3.20427057862574e+000

1.51369223476094e+005,-1.92964846982624e+001,-3.24857075899787e+000

1.53482259092041e+005,-1.92967503130185e+001,-3.29347414676419e+000

1.55624791585964e+005,-1.92970221410359e+001,-3.33898870114064e+000

1.57797232718936e+005,-1.92973002998697e+001,-3.38512248309633e+000

1.59999999999999e+005,-1.92975849081418e+001,-3.43188365686815e+000

1.62233516766403e+005,-1.92978760855096e+001,-3.47928049151726e+000

1.64498212264969e+005,-1.92981739526337e+001,-3.52732136253064e+000

1.66794521734578e+005,-1.92984786311455e+001,-3.57601475346570e+000

1.69122886489819e+005,-1.92987902436144e+001,-3.62536925764454e+000

1.71483754005805e+005,-1.92991089135150e+001,-3.67539357989326e+000

1.73877578004168e+005,-1.92994347651936e+001,-3.72609653833458e+000

1.76304818540256e+005,-1.92997679238359e+001,-3.77748706622947e+000

1.78765942091554e+005,-1.93001085154346e+001,-3.82957421387251e+000

1.81261421647326e+005,-1.93004566667585e+001,-3.88236715054150e+000

1.83791736799524e+005,-1.93008125053209e+001,-3.93587516650358e+000

1.86357373834951e+005,-1.93011761593517e+001,-3.99010767507652e+000

1.88958825828723e+005,-1.93015477577690e+001,-4.04507421475042e+000

1.91596592739027e+005,-1.93019274301538e+001,-4.10078445136775e+000

1.94271181503206e+005,-1.93023153067265e+001,-4.15724818036523e+000

1.96983106135185e+005,-1.93027115183262e+001,-4.21447532907622e+000

1.99732887824256e+005,-1.93031161963929e+001,-4.27247595909735e+000

2.02521055035243e+005,-1.93035294729527e+001,-4.33126026871801e+000

2.05348143610063e+005,-1.93039514806076e+001,-4.39083859541470e+000

2.08214696870707e+005,-1.93043823525289e+001,-4.45122141840994e+000

2.11121265723661e+005,-1.93048222224551e+001,-4.51241936129788e+000

2.14068408765776e+005,-1.93052712246951e+001,-4.57444319473497e+000

2.17056692391625e+005,-1.93057294941374e+001,-4.63730383919664e+000

2.20086690902357e+005,-1.93061971662641e+001,-4.70101236780233e+000

2.23158986616063e+005,-1.93066743771726e+001,-4.76558000920300e+000

2.26274169979693e+005,-1.93071612636037e+001,-4.83101815053795e+000

2.29432839682530e+005,-1.93076579629768e+001,-4.89733834045569e+000

2.32635602771247e+005,-1.93081646134340e+001,-4.96455229219857e+000

2.35883074766574e+005,-1.93086813538920e+001,-5.03267188675266e+000

2.39175879781588e+005,-1.93092083241026e+001,-5.10170917605996e+000

2.42514650641661e+005,-1.93097456647237e+001,-5.17167638629160e+000

2.45900029006080e+005,-1.93102935173996e+001,-5.24258592118137e+000

2.49332665491357e+005,-1.93108520248516e+001,-5.31445036541805e+000

2.52813219796278e+005,-1.93114213309799e+001,-5.38728248809248e+000

2.56342360828676e+005,-1.93120015809768e+001,-5.46109524620093e+000

2.59920766833993e+005,-1.93125929214518e+001,-5.53590178819866e+000

2.63549125525621e+005,-1.93131955005686e+001,-5.61171545760372e+000

2.67228134217075e+005,-1.93138094681957e+001,-5.68854979664667e+000

2.70958499956006e+005,-1.93144349760690e+001,-5.76641854996479e+000

2.74740939660078e+005,-1.93150721779691e+001,-5.84533566833567e+000

2.78576180254757e+005,-1.93157212299111e+001,-5.92531531244864e+000

2.82464958813007e+005,-1.93163822903500e+001,-6.00637185670976e+000

2.86408022696948e+005,-1.93170555203996e+001,-6.08851989307694e+000

2.90406129701488e+005,-1.93177410840664e+001,-6.17177423492019e+000

2.94460048199957e+005,-1.93184391484985e+001,-6.25614992090613e+000

2.98570557291775e+005,-1.93191498842498e+001,-6.34166221889840e+000

3.02738446952187e+005,-1.93198734655591e+001,-6.42832662987489e+000

3.06964518184081e+005,-1.93206100706450e+001,-6.51615889185195e+000

3.11249583171928e+005,-1.93213598820160e+001,-6.60517498381685e+000

3.15594465437872e+005,-1.93221230867965e+001,-6.69539112966016e+000

3.19999999999997e+005,-1.93228998770676e+001,-6.78682380210554e+000

3.24467033532806e+005,-1.93236904502241e+001,-6.87948972663255e+000

3.28996424529938e+005,-1.93244950093462e+001,-6.97340588538855e+000

3.33589043469155e+005,-1.93253137635871e+001,-7.06858952108303e+000

3.38245772979638e+005,-1.93261469285746e+001,-7.16505814086501e+000

3.42967508011610e+005,-1.93269947268286e+001,-7.26282952017438e+000

3.47755156008335e+005,-1.93278573881925e+001,-7.36192170656700e+000

3.52609637080511e+005,-1.93287351502786e+001,-7.46235302350762e+000

3.57531884183106e+005,-1.93296282589280e+001,-7.56414207412838e+000

3.62522843294651e+005,-1.93305369686836e+001,-7.66730774494926e+000

3.67583473599047e+005,-1.93314615432763e+001,-7.77186920955626e+000

3.72714747669902e+005,-1.93324022561240e+001,-7.87784593223580e+000

3.77917651657445e+005,-1.93333593908425e+001,-7.98525767156195e+000

3.83193185478053e+005,-1.93343332417684e+001,-8.09412448393391e+000

3.88542363006410e+005,-1.93353241144930e+001,-8.20446672706222e+000

3.93966212270369e+005,-1.93363323264076e+001,-8.31630506340047e+000

3.99465775648511e+005,-1.93373582072578e+001,-8.42966046352251e+000

4.05042110070485e+005,-1.93384020997085e+001,-8.54455420944335e+000

4.10696287220124e+005,-1.93394643599173e+001,-8.66100789788137e+000

4.16429393741414e+005,-1.93405453581173e+001,-8.77904344346312e+000

4.22242531447321e+005,-1.93416454792072e+001,-8.89868308186860e+000

4.28136817531551e+005,-1.93427651233487e+001,-9.01994937291858e+000

4.34113384783250e+005,-1.93439047065723e+001,-9.14286520360194e+000

4.40173381804713e+005,-1.93450646613879e+001,-9.26745379104545e+000

4.46317973232124e+005,-1.93462454374025e+001,-9.39373868542488e+000

4.52548339959385e+005,-1.93474475019431e+001,-9.52174377282069e+000

4.58865679365059e+005,-1.93486713406849e+001,-9.65149327801625e+000

4.65271205542494e+005,-1.93499174582840e+001,-9.78301176724256e+000

4.71766149533147e+005,-1.93511863790149e+001,-9.91632415087083e+000

4.78351759563174e+005,-1.93524786474116e+001,-1.00514556860525e+001

4.85029301283321e+005,-1.93537948289125e+001,-1.01884319793110e+001

4.91800058012158e+005,-1.93551355105093e+001,-1.03272789890864e+001

4.98665330982714e+005,-1.93565013013986e+001,-1.04680230282341e+001

5.05626439592555e+005,-1.93578928336371e+001,-1.06106907664820e+001

5.12684721657352e+005,-1.93593107627994e+001,-1.07553092328457e+001

5.19841533667984e+005,-1.93607557686388e+001,-1.09019058180060e+001

5.27098251051240e+005,-1.93622285557515e+001,-1.10505082766507e+001

5.34456268434150e+005,-1.93637298542430e+001,-1.12011447297817e+001

5.41916999912011e+005,-1.93652604203978e+001,-1.13538436669911e+001

