Freq.,VOut,OutRef

1.00000000000000e+004,-1.20241196929809e+001,-8.83939000606485e-002

1.01395947979003e+004,-1.20241202623317e+001,-8.96277350204433e-002

1.02811382665607e+004,-1.20241208476675e+001,-9.08787895211313e-002

1.04246576084112e+004,-1.20241214494365e+001,-9.21473037619783e-002

1.05701804056138e+004,-1.20241220680993e+001,-9.34335212888419e-002

1.07177346253629e+004,-1.20241227041297e+001,-9.47376890380996e-002

1.08673486252606e+004,-1.20241233580146e+001,-9.60600573852333e-002

1.10190511587661e+004,-1.20241240302540e+001,-9.74008801953495e-002

1.11728713807222e+004,-1.20241247213624e+001,-9.87604148658118e-002

1.13288388529580e+004,-1.20241254318690e+001,-1.00138922377199e-001

1.14869835499703e+004,-1.20241261623168e+001,-1.01536667346802e-001

1.16473358646846e+004,-1.20241269132649e+001,-1.02953918072596e-001

1.18099266142953e+004,-1.20241276852873e+001,-1.04390946590003e-001

1.19747870461893e+004,-1.20241284789746e+001,-1.05848028720161e-001

1.21419488439505e+004,-1.20241292949335e+001,-1.07325444122496e-001

1.23114441334492e+004,-1.20241301337877e+001,-1.08823476349551e-001

1.24833054890161e+004,-1.20241309961785e+001,-1.10342412898980e-001

1.26575659397028e+004,-1.20241318827649e+001,-1.11882545269980e-001

1.28342589756290e+004,-1.20241327942242e+001,-1.13444169017138e-001

1.30134185544193e+004,-1.20241337312527e+001,-1.15027583807589e-001

1.31950791077289e+004,-1.20241346945663e+001,-1.16633093474996e-001

1.33792755478611e+004,-1.20241356849003e+001,-1.18261006082676e-001

1.35660432744767e+004,-1.20241367030112e+001,-1.19911633975386e-001

1.37554181813974e+004,-1.20241377496761e+001,-1.21585293843008e-001

1.39474366635040e+004,-1.20241388256935e+001,-1.23282306781592e-001

1.41421356237309e+004,-1.20241399318847e+001,-1.25002998347782e-001

1.43395524801583e+004,-1.20241410690939e+001,-1.26747698625069e-001

1.45397251732031e+004,-1.20241422381879e+001,-1.28516742288753e-001

1.47426921729110e+004,-1.20241434400588e+001,-1.30310468660819e-001

1.49484924863494e+004,-1.20241446756224e+001,-1.32129221784653e-001

1.51571656651040e+004,-1.20241459458208e+001,-1.33973350478414e-001

1.53687518128801e+004,-1.20241472516217e+001,-1.35843208413001e-001

1.55832915932100e+004,-1.20241485940201e+001,-1.37739154166732e-001

1.58008262372675e+004,-1.20241499740382e+001,-1.39661551303926e-001

1.60213975517924e+004,-1.20241513927269e+001,-1.41610768434650e-001

1.62450479271247e+004,-1.20241528511663e+001,-1.43587179288912e-001

1.64718203453514e+004,-1.20241543504663e+001,-1.45591162786173e-001

1.67017583885674e+004,-1.20241558917673e+001,-1.47623103106910e-001

1.69349062472505e+004,-1.20241574762419e+001,-1.49683389761861e-001

1.71713087287550e+004,-1.20241591050946e+001,-1.51772417670164e-001

1.74110112659224e+004,-1.20241607795638e+001,-1.53890587228232e-001

1.76540599258131e+004,-1.20241625009216e+001,-1.56038304390307e-001

1.79005014185594e+004,-1.20241642704758e+001,-1.58215980738983e-001

1.81503831063432e+004,-1.20241660895700e+001,-1.60424033567326e-001

1.84037530124975e+004,-1.20241679595853e+001,-1.62662885952289e-001

1.86606598307361e+004,-1.20241698819407e+001,-1.64932966837452e-001

1.89211529345119e+004,-1.20241718580942e+001,-1.67234711113926e-001

1.91852823865052e+004,-1.20241738895446e+001,-1.69568559695687e-001

1.94530989482457e+004,-1.20241759778313e+001,-1.71934959609729e-001

1.97246540898671e+004,-1.20241781245369e+001,-1.74334364072994e-001

1.99999999999999e+004,-1.20241803312870e+001,-1.76767232581057e-001

2.02791895958005e+004,-1.20241825997525e+001,-1.79234030989849e-001

2.05622765331213e+004,-1.20241849316496e+001,-1.81735231607298e-001

2.08493152168224e+004,-1.20241873287425e+001,-1.84271313275098e-001

2.11403608112276e+004,-1.20241897928433e+001,-1.86842761463317e-001

2.14354692507258e+004,-1.20241923258141e+001,-1.89450068357062e-001

2.17346972505211e+004,-1.20241949295681e+001,-1.92093732948031e-001

2.20381023175322e+004,-1.20241976060708e+001,-1.94774261128973e-001

2.23457427614443e+004,-1.20242003573422e+001,-1.97492165781851e-001

2.26576777059159e+004,-1.20242031854568e+001,-2.00247966881036e-001

2.29739670999406e+004,-1.20242060925464e+001,-2.03042191581862e-001

2.32946717293690e+004,-1.20242090808009e+001,-2.05875374321622e-001

2.36198532285905e+004,-1.20242121524703e+001,-2.08748056915722e-001

2.39495740923785e+004,-1.20242153098659e+001,-2.11660788659386e-001

2.42838976879009e+004,-1.20242185553620e+001,-2.14614126426772e-001

2.46228882668982e+004,-1.20242218913974e+001,-2.17608634776387e-001

2.49666109780322e+004,-1.20242253204780e+001,-2.20644886048223e-001

2.53151318794055e+004,-1.20242288451774e+001,-2.23723460475887e-001

2.56685179512580e+004,-1.20242324681392e+001,-2.26844946286400e-001

2.60268371088386e+004,-1.20242361920790e+001,-2.30009939812143e-001

2.63901582154578e+004,-1.20242400197860e+001,-2.33219045596600e-001

2.67585510957221e+004,-1.20242439541246e+001,-2.36472876507135e-001

2.71320865489533e+004,-1.20242479980377e+001,-2.39772053840676e-001

2.75108363627948e+004,-1.20242521545470e+001,-2.43117207443765e-001

2.78948733270080e+004,-1.20242564267561e+001,-2.46508975822034e-001

2.82842712474618e+004,-1.20242608178522e+001,-2.49948006257624e-001

2.86791049603164e+004,-1.20242653311090e+001,-2.53434954922024e-001

2.90794503464061e+004,-1.20242699698876e+001,-2.56970487001591e-001

2.94853843458219e+004,-1.20242747376398e+001,-2.60555276810642e-001

2.98969849726987e+004,-1.20242796379103e+001,-2.64190007915484e-001

3.03143313302078e+004,-1.20242846743387e+001,-2.67875373255272e-001

3.07375036257601e+004,-1.20242898506618e+001,-2.71612075270475e-001

3.11665831864199e+004,-1.20242951707168e+001,-2.75400826021175e-001

3.16016524745350e+004,-1.20243006384433e+001,-2.79242347318990e-001

3.20427951035848e+004,-1.20243062578856e+001,-2.83137370854937e-001

3.24900958542493e+004,-1.20243120331961e+001,-2.87086638328359e-001

3.29436406907028e+004,-1.20243179686373e+001,-2.91090901577511e-001

3.34035167771346e+004,-1.20243240685852e+001,-2.95150922713581e-001

3.38698124945009e+004,-1.20243303375312e+001,-2.99267474255290e-001

3.43426174575100e+004,-1.20243367800861e+001,-3.03441339263556e-001

3.48220225318448e+004,-1.20243434009818e+001,-3.07673311480635e-001

3.53081198516260e+004,-1.20243502050754e+001,-3.11964195466752e-001

3.58010028371187e+004,-1.20243571973519e+001,-3.16314806741009e-001

3.63007662126863e+004,-1.20243643829265e+001,-3.20725971927727e-001

3.68075060249948e+004,-1.20243717670490e+001,-3.25198528892695e-001

3.73213196614721e+004,-1.20243793551061e+001,-3.29733326894720e-001

3.78423058690237e+004,-1.20243871526254e+001,-3.34331226728450e-001

3.83705647730104e+004,-1.20243951652780e+001,-3.38993100874010e-001

3.89061978964912e+004,-1.20244033988826e+001,-3.43719833647890e-001

3.94493081797342e+004,-1.20244118594087e+001,-3.48512321351992e-001

3.99999999999998e+004,-1.20244205529795e+001,-3.53371472429919e-001

4.05583791916010e+004,-1.20244294858771e+001,-3.58298207617274e-001

4.11245530662425e+004,-1.20244386645443e+001,-3.63293460102275e-001

4.16986304336447e+004,-1.20244480955896e+001,-3.68358175681580e-001

4.22807216224550e+004,-1.20244577857902e+001,-3.73493312919330e-001

4.28709385014515e+004,-1.20244677420967e+001,-3.78699843307846e-001

4.34693945010421e+004,-1.20244779716358e+001,-3.83978751433599e-001

4.40762046350642e+004,-1.20244884817154e+001,-3.89331035137031e-001

4.46914855228886e+004,-1.20244992798279e+001,-3.94757705681293e-001

4.53153554118317e+004,-1.20245103736547e+001,-4.00259787917590e-001

4.59479341998812e+004,-1.20245217710697e+001,-4.05838320458091e-001

4.65893434587380e+004,-1.20245334801442e+001,-4.11494355841668e-001

4.72397064571810e+004,-1.20245455091506e+001,-4.17228960709775e-001

4.78991481847569e+004,-1.20245578665668e+001,-4.23043215979463e-001

4.85677953758016e+004,-1.20245705610809e+001,-4.28938217016306e-001

4.92457765337964e+004,-1.20245836015947e+001,-4.34915073817563e-001

4.99332219560642e+004,-1.20245969972289e+001,-4.40974911184106e-001

5.06302637588109e+004,-1.20246107573270e+001,-4.47118868905696e-001

5.13370359025159e+004,-1.20246248914605e+001,-4.53348101938917e-001

5.20536742176771e+004,-1.20246394094324e+001,-4.59663780594424e-001

5.27803164309155e+004,-1.20246543212823e+001,-4.66067090720104e-001

5.35171021914442e+004,-1.20246696372912e+001,-4.72559233886326e-001

5.42641730979066e+004,-1.20246853679853e+001,-4.79141427577160e-001

5.50216727255895e+004,-1.20247015241414e+001,-4.85814905378493e-001

5.57897466540159e+004,-1.20247181167910e+001,-4.92580917168309e-001

5.65685424949235e+004,-1.20247351572249e+001,-4.99440729312091e-001

5.73582099206328e+004,-1.20247526569982e+001,-5.06395624854601e-001

5.81589006928121e+004,-1.20247706279344e+001,-5.13446903718528e-001

5.89707686916437e+004,-1.20247890821304e+001,-5.20595882898727e-001

5.97939699453972e+004,-1.20248080319604e+001,-5.27843896664825e-001

6.06286626604156e+004,-1.20248274900814e+001,-5.35192296758742e-001

6.14750072515201e+004,-1.20248474694367e+001,-5.42642452597977e-001

6.23331663728396e+004,-1.20248679832610e+001,-5.50195751480194e-001

6.32033049490698e+004,-1.20248890450844e+001,-5.57853598785886e-001

6.40855902071694e+004,-1.20249106687370e+001,-5.65617418187063e-001

6.49801917084985e+004,-1.20249328683528e+001,-5.73488651854201e-001

6.58872813814055e+004,-1.20249556583741e+001,-5.81468760666309e-001

6.68070335542691e+004,-1.20249790535556e+001,-5.89559224421766e-001

6.77396249890018e+004,-1.20250030689679e+001,-5.97761542050312e-001

6.86852349150199e+004,-1.20250277200018e+001,-6.06077231828375e-001

6.96440450636895e+004,-1.20250530223716e+001,-6.14507831593485e-001

7.06162397032520e+004,-1.20250789921192e+001,-6.23054898961047e-001

7.16020056742374e+004,-1.20251056456163e+001,-6.31720011545359e-001

7.26015324253724e+004,-1.20251329995690e+001,-6.40504767175418e-001

7.36150120499896e+004,-1.20251610710193e+001,-6.49410784121146e-001

7.46426393229441e+004,-1.20251898773491e+001,-6.58439701312510e-001

7.56846117380472e+004,-1.20252194362820e+001,-6.67593178566657e-001

7.67411295460207e+004,-1.20252497658856e+001,-6.76872896813947e-001

7.78123957929823e+004,-1.20252808845734e+001,-6.86280558324792e-001

7.88986163594682e+004,-1.20253128111071e+001,-6.95817886939924e-001

7.99999999999995e+004,-1.20253455645966e+001,-7.05486628302066e-001

8.11167583832018e+004,-1.20253791645028e+001,-7.15288550086380e-001

8.22491061324848e+004,-1.20254136306364e+001,-7.25225442239196e-001

8.33972608672892e+004,-1.20254489831594e+001,-7.35299117210815e-001

8.45614432449099e+004,-1.20254852425843e+001,-7.45511410195498e-001

8.57418770029029e+004,-1.20255224297737e+001,-7.55864179371889e-001

8.69387890020841e+004,-1.20255605659391e+001,-7.66359306143469e-001

8.81524092701283e+004,-1.20255996726393e+001,-7.76998695384886e-001

8.93829710457770e+004,-1.20256397717781e+001,-7.87784275688352e-001

9.06307108236633e+004,-1.20256808856021e+001,-7.98717999609426e-001

9.18958683997622e+004,-1.20257230366965e+001,-8.09801843921756e-001

9.31786869174758e+004,-1.20257662479819e+001,-8.21037809868842e-001

9.44794129143618e+004,-1.20258105427095e+001,-8.32427923419571e-001

9.57982963695136e+004,-1.20258559444556e+001,-8.43974235527449e-001

9.71355907516031e+004,-1.20259024771161e+001,-8.55678822392448e-001

9.84915530675926e+004,-1.20259501648986e+001,-8.67543785726243e-001

9.98664439121282e+004,-1.20259990323162e+001,-8.79571253018713e-001

1.01260527517622e+005,-1.20260491041778e+001,-8.91763377810630e-001

1.02674071805032e+005,-1.20261004055798e+001,-9.04122339966780e-001

1.04107348435354e+005,-1.20261529618949e+001,-9.16650345956183e-001

1.05560632861831e+005,-1.20262067987614e+001,-9.29349629135299e-001

1.07034204382888e+005,-1.20262619420712e+001,-9.42222450032028e-001

1.08528346195813e+005,-1.20263184179559e+001,-9.55271096640240e-001

1.10043345451179e+005,-1.20263762527732e+001,-9.68497884715524e-001

1.11579493308032e+005,-1.20264354730905e+001,-9.81905158076119e-001

1.13137084989847e+005,-1.20264961056693e+001,-9.95495288909866e-001

1.14716419841265e+005,-1.20265581774466e+001,-1.00927067808816e+000

1.16317801385624e+005,-1.20266217155165e+001,-1.02323375548404e+000

1.17941537383287e+005,-1.20266867471090e+001,-1.03738698029878e+000

1.19587939890794e+005,-1.20267532995693e+001,-1.05173284139291e+000

1.21257325320831e+005,-1.20268214003339e+001,-1.06627385762934e+000

1.22950014503040e+005,-1.20268910769070e+001,-1.08101257821776e+000

1.24666332745679e+005,-1.20269623568338e+001,-1.09595158307391e+000

1.26406609898139e+005,-1.20270352676740e+001,-1.11109348318473e+000

1.28171180414339e+005,-1.20271098369726e+001,-1.12644092098104e+000

1.29960383416997e+005,-1.20271860922294e+001,-1.14199657072474e+000

1.31774562762811e+005,-1.20272640608674e+001,-1.15776313890276e+000

1.33614067108538e+005,-1.20273437701993e+001,-1.17374336463572e+000

1.35479249978003e+005,-1.20274252473924e+001,-1.18994002009347e+000

1.37370469830040e+005,-1.20275085194320e+001,-1.20635591092788e+000

1.39288090127379e+005,-1.20275936130828e+001,-1.22299387671814e+000

1.41232479406504e+005,-1.20276805548492e+001,-1.23985679142577e+000

1.43204011348474e+005,-1.20277693709338e+001,-1.25694756387127e+000

1.45203064850745e+005,-1.20278600871935e+001,-1.27426913821983e+000

1.47230024099979e+005,-1.20279527290954e+001,-1.29182449448569e+000

1.49285278645888e+005,-1.20280473216698e+001,-1.30961664905611e+000

1.51369223476094e+005,-1.20281438894616e+001,-1.32764865522819e+000

1.53482259092041e+005,-1.20282424564813e+001,-1.34592360376859e+000

1.55624791585964e+005,-1.20283430461529e+001,-1.36444462349069e+000

1.57797232718936e+005,-1.20284456812610e+001,-1.38321488185362e+000

1.59999999999999e+005,-1.20285503838967e+001,-1.40223758557958e+000

1.62233516766403e+005,-1.20286571754009e+001,-1.42151598129962e+000

1.64498212264969e+005,-1.20287660763078e+001,-1.44105335621441e+000

1.66794521734578e+005,-1.20288771062851e+001,-1.46085303878724e+000

1.69122886489819e+005,-1.20289902840748e+001,-1.48091839945512e+000

1.71483754005805e+005,-1.20291056274313e+001,-1.50125285137155e+000

1.73877578004168e+005,-1.20292231530595e+001,-1.52185985117277e+000

1.76304818540256e+005,-1.20293428765509e+001,-1.54274289977181e+000

1.78765942091554e+005,-1.20294648123196e+001,-1.56390554318339e+000

1.81261421647326e+005,-1.20295889735370e+001,-1.58535137337724e+000

1.83791736799524e+005,-1.20297153720658e+001,-1.60708402916085e+000

1.86357373834951e+005,-1.20298440183940e+001,-1.62910719709512e+000

1.88958825828723e+005,-1.20299749215678e+001,-1.65142461244209e+000

1.91596592739027e+005,-1.20301080891247e+001,-1.67404006014329e+000

1.94271181503206e+005,-1.20302435270265e+001,-1.69695737583531e+000

1.96983106135185e+005,-1.20303812395918e+001,-1.72018044689649e+000

1.99732887824256e+005,-1.20305212294299e+001,-1.74371321352978e+000

2.02521055035243e+005,-1.20306634973743e+001,-1.76755966988113e+000

2.05348143610063e+005,-1.20308080424169e+001,-1.79172386519460e+000

2.08214696870707e+005,-1.20309548616432e+001,-1.81620990500117e+000

2.11121265723661e+005,-1.20311039501693e+001,-1.84102195234784e+000

2.14068408765776e+005,-1.20312553010788e+001,-1.86616422906126e+000

2.17056692391625e+005,-1.20314089053624e+001,-1.89164101705017e+000

2.20086690902357e+005,-1.20315647518590e+001,-1.91745665964322e+000

2.23158986616063e+005,-1.20317228271982e+001,-1.94361556296719e+000

2.26274169979693e+005,-1.20318831157462e+001,-1.97012219735919e+000

2.29432839682530e+005,-1.20320455995531e+001,-1.99698109881764e+000

2.32635602771247e+005,-1.20322102583035e+001,-2.02419687049073e+000

2.35883074766574e+005,-1.20323770692703e+001,-2.05177418419924e+000

2.39175879781588e+005,-1.20325460072710e+001,-2.07971778199646e+000

2.42514650641661e+005,-1.20327170446283e+001,-2.10803247776357e+000

2.45900029006080e+005,-1.20328901511339e+001,-2.13672315883733e+000

2.49332665491357e+005,-1.20330652940164e+001,-2.16579478767451e+000

2.52813219796278e+005,-1.20332424379137e+001,-2.19525240354546e+000

2.56342360828676e+005,-1.20334215448492e+001,-2.22510112426080e+000

2.59920766833993e+005,-1.20336025742132e+001,-2.25534614792913e+000

2.63549125525621e+005,-1.20337854827486e+001,-2.28599275474013e+000

2.67228134217075e+005,-1.20339702245426e+001,-2.31704630877810e+000

2.70958499956006e+005,-1.20341567510220e+001,-2.34851225986016e+000

2.74740939660078e+005,-1.20343450109555e+001,-2.38039614539728e+000

2.78576180254757e+005,-1.20345349504603e+001,-2.41270359227919e+000

2.82464958813007e+005,-1.20347265130151e+001,-2.44544031877828e+000

2.86408022696948e+005,-1.20349196394780e+001,-2.47861213647208e+000

2.90406129701488e+005,-1.20351142681114e+001,-2.51222495218293e+000

2.94460048199957e+005,-1.20353103346111e+001,-2.54628476992976e+000

2.98570557291775e+005,-1.20355077721432e+001,-2.58079769289472e+000

3.02738446952187e+005,-1.20357065113851e+001,-2.61576992539669e+000

3.06964518184081e+005,-1.20359064805739e+001,-2.65120777487411e+000

3.11249583171928e+005,-1.20361076055593e+001,-2.68711765387346e+000

3.15594465437872e+005,-1.20363098098634e+001,-2.72350608203831e+000

3.19999999999997e+005,-1.20365130147457e+001,-2.76037968810373e+000

3.24467033532806e+005,-1.20367171392734e+001,-2.79774521188344e+000

3.28996424529938e+005,-1.20369221003975e+001,-2.83560950625879e+000

3.33589043469155e+005,-1.20371278130343e+001,-2.87397953915904e+000

3.38245772979638e+005,-1.20373341901513e+001,-2.91286239553409e+000

3.42967508011610e+005,-1.20375411428584e+001,-2.95226527931829e+000

3.47755156008335e+005,-1.20377485805034e+001,-2.99219551538291e+000

3.52609637080511e+005,-1.20379564107721e+001,-3.03266055147291e+000

3.57531884183106e+005,-1.20381645397919e+001,-3.07366796013186e+000

3.62522843294651e+005,-1.20383728722391e+001,-3.11522544060773e+000

3.67583473599047e+005,-1.20385813114502e+001,-3.15734082074143e+000

3.72714747669902e+005,-1.20387897595350e+001,-3.20002205883686e+000

3.77917651657445e+005,-1.20389981174929e+001,-3.24327724551015e+000

3.83193185478053e+005,-1.20392062853314e+001,-3.28711460551664e+000

3.88542363006410e+005,-1.20394141621860e+001,-3.33154249955899e+000

3.93966212270369e+005,-1.20396216464415e+001,-3.37656942606942e+000

3.99465775648511e+005,-1.20398286358543e+001,-3.42220402297221e+000

4.05042110070485e+005,-1.20400350276750e+001,-3.46845506942241e+000

4.10696287220124e+005,-1.20402407187707e+001,-3.51533148752112e+000

4.16429393741414e+005,-1.20404456057477e+001,-3.56284234401144e+000

4.22242531447321e+005,-1.20406495850722e+001,-3.61099685194827e+000

4.28136817531551e+005,-1.20408525531903e+001,-3.65980437235243e+000

4.34113384783250e+005,-1.20410544066463e+001,-3.70927441583984e+000

4.40173381804713e+005,-1.20412550421981e+001,-3.75941664423643e+000

4.46317973232124e+005,-1.20414543569309e+001,-3.81024087217154e+000

4.52548339959385e+005,-1.20416522483669e+001,-3.86175706865892e+000

4.58865679365059e+005,-1.20418486145724e+001,-3.91397535866102e+000

4.65271205542494e+005,-1.20420433542605e+001,-3.96690602464309e+000

4.71766149533147e+005,-1.20422363668899e+001,-4.02055950811446e+000

4.78351759563174e+005,-1.20424275527590e+001,-4.07494641116618e+000

4.85029301283321e+005,-1.20426168130957e+001,-4.13007749799774e+000

4.91800058012158e+005,-1.20428040501413e+001,-4.18596369644562e+000

4.98665330982714e+005,-1.20429891672296e+001,-4.24261609950759e+000

5.05626439592555e+005,-1.20431720688602e+001,-4.30004596687214e+000

5.12684721657352e+005,-1.20433526607659e+001,-4.35826472645136e+000

5.19841533667984e+005,-1.20435308499743e+001,-4.41728397592209e+000

5.27098251051240e+005,-1.20437065448626e+001,-4.47711548427820e+000

5.34456268434150e+005,-1.20438796552071e+001,-4.53777119339631e+000

5.41916999912011e+005,-1.20440500922250e+001,-4.59926321961913e+000

