Freq.,VOut,OutRef

1.00000000000000e+004,-1.97278097817484e+001,-5.39780366016583e-002

1.01395947979003e+004,-1.97278111780328e+001,-5.47313096246796e-002

1.02811382665607e+004,-1.97278126135210e+001,-5.54950880905118e-002

1.04246576084112e+004,-1.97278140893120e+001,-5.62695182340163e-002

1.05701804056138e+004,-1.97278156065357e+001,-5.70547483121663e-002

1.07177346253629e+004,-1.97278171663540e+001,-5.78509286298636e-002

1.08673486252606e+004,-1.97278187699610e+001,-5.86582115729951e-002

1.10190511587661e+004,-1.97278204185839e+001,-5.94767516363857e-002

1.11728713807222e+004,-1.97278221134844e+001,-6.03067054501945e-002

1.13288388529580e+004,-1.97278238559596e+001,-6.11482318068649e-002

1.14869835499703e+004,-1.97278256473428e+001,-6.20014916951331e-002

1.16473358646846e+004,-1.97278274890039e+001,-6.28666483284311e-002

1.18099266142953e+004,-1.97278293823525e+001,-6.37438671682650e-002

1.19747870461893e+004,-1.97278313288359e+001,-6.46333159672689e-002

1.21419488439505e+004,-1.97278333299428e+001,-6.55351647891345e-002

1.23114441334492e+004,-1.97278353872032e+001,-6.64495860440522e-002

1.24833054890161e+004,-1.97278375021900e+001,-6.73767545198047e-002

1.26575659397028e+004,-1.97278396765196e+001,-6.83168474146973e-002

1.28342589756290e+004,-1.97278419118534e+001,-6.92700443694370e-002

1.30134185544193e+004,-1.97278442098998e+001,-7.02365274975324e-002

1.31950791077289e+004,-1.97278465724145e+001,-7.12164814197432e-002

1.33792755478611e+004,-1.97278490012016e+001,-7.22100933039148e-002

1.35660432744767e+004,-1.97278514981161e+001,-7.32175528867708e-002

1.37554181813974e+004,-1.97278540650648e+001,-7.42390525170780e-002

1.39474366635040e+004,-1.97278567040068e+001,-7.52747871909723e-002

1.41421356237309e+004,-1.97278594169566e+001,-7.63249545807788e-002

1.43395524801583e+004,-1.97278622059841e+001,-7.73897550765204e-002

1.45397251732031e+004,-1.97278650732177e+001,-7.84693918162153e-002

1.47426921729110e+004,-1.97278680208438e+001,-7.95640707317306e-002

1.49484924863494e+004,-1.97278710511104e+001,-8.06740005757234e-002

1.51571656651040e+004,-1.97278741663283e+001,-8.17993929621106e-002

1.53687518128801e+004,-1.97278773688717e+001,-8.29404624073845e-002

1.55832915932100e+004,-1.97278806611809e+001,-8.40974263682724e-002

1.58008262372675e+004,-1.97278840457646e+001,-8.52705052719333e-002

1.60213975517924e+004,-1.97278875252009e+001,-8.64599225661584e-002

1.62450479271247e+004,-1.97278911021390e+001,-8.76659047543781e-002

1.64718203453514e+004,-1.97278947793018e+001,-8.88886814348213e-002

1.67017583885674e+004,-1.97278985594883e+001,-9.01284853389982e-002

1.69349062472505e+004,-1.97279024455744e+001,-9.13855523792810e-002

1.71713087287550e+004,-1.97279064405161e+001,-9.26601216826573e-002

1.74110112659224e+004,-1.97279105473513e+001,-9.39524356366841e-002

1.76540599258131e+004,-1.97279147692014e+001,-9.52627399348161e-002

1.79005014185594e+004,-1.97279191092751e+001,-9.65912836103967e-002

1.81503831063432e+004,-1.97279235708693e+001,-9.79383190858902e-002

1.84037530124975e+004,-1.97279281573725e+001,-9.93041022158730e-002

1.86606598307361e+004,-1.97279328722663e+001,-1.00688892330708e-001

1.89211529345119e+004,-1.97279377191288e+001,-1.02092952280007e-001

1.91852823865052e+004,-1.97279427016372e+001,-1.03516548478330e-001

1.94530989482457e+004,-1.97279478235696e+001,-1.04959950950726e-001

1.97246540898671e+004,-1.97279530888088e+001,-1.06423433378549e-001

1.99999999999999e+004,-1.97279585013446e+001,-1.07907273144766e-001

2.02791895958005e+004,-1.97279640652764e+001,-1.09411751382701e-001

2.05622765331213e+004,-1.97279697848167e+001,-1.10937153022224e-001

2.08493152168224e+004,-1.97279756642942e+001,-1.12483766835578e-001

2.11403608112276e+004,-1.97279817081562e+001,-1.14051885489224e-001

2.14354692507258e+004,-1.97279879209729e+001,-1.15641805587276e-001

2.17346972505211e+004,-1.97279943074392e+001,-1.17253827727621e-001

2.20381023175322e+004,-1.97280008723798e+001,-1.18888256542967e-001

2.23457427614443e+004,-1.97280076207510e+001,-1.20545400758872e-001

2.26576777059159e+004,-1.97280145576458e+001,-1.22225573235437e-001

2.29739670999406e+004,-1.97280216882956e+001,-1.23929091028838e-001

2.32946717293690e+004,-1.97280290180763e+001,-1.25656275429064e-001

2.36198532285905e+004,-1.97280365525101e+001,-1.27407452023804e-001

2.39495740923785e+004,-1.97280442972700e+001,-1.29182950743708e-001

2.42838976879009e+004,-1.97280522581848e+001,-1.30983105914197e-001

2.46228882668982e+004,-1.97280604412417e+001,-1.32808256311202e-001

2.49666109780322e+004,-1.97280688525912e+001,-1.34658745214567e-001

2.53151318794055e+004,-1.97280774985513e+001,-1.36534920459808e-001

2.56685179512580e+004,-1.97280863856125e+001,-1.38437134489305e-001

2.60268371088386e+004,-1.97280955204414e+001,-1.40365744410929e-001

2.63901582154578e+004,-1.97281049098858e+001,-1.42321112051676e-001

2.67585510957221e+004,-1.97281145609789e+001,-1.44303604013033e-001

2.71320865489533e+004,-1.97281244809455e+001,-1.46313591721738e-001

2.75108363627948e+004,-1.97281346772056e+001,-1.48351451488800e-001

2.78948733270080e+004,-1.97281451573798e+001,-1.50417564567754e-001

2.82842712474618e+004,-1.97281559292950e+001,-1.52512317205106e-001

2.86791049603164e+004,-1.97281670009891e+001,-1.54636100700403e-001

2.90794503464061e+004,-1.97281783807170e+001,-1.56789311461745e-001

2.94853843458219e+004,-1.97281900769560e+001,-1.58972351061199e-001

2.98969849726987e+004,-1.97282020984107e+001,-1.61185626296802e-001

3.03143313302078e+004,-1.97282144540207e+001,-1.63429549240702e-001

3.07375036257601e+004,-1.97282271529644e+001,-1.65704537306735e-001

3.11665831864199e+004,-1.97282402046668e+001,-1.68011013299807e-001

3.16016524745350e+004,-1.97282536188047e+001,-1.70349405478767e-001

3.20427951035848e+004,-1.97282674053135e+001,-1.72720147612027e-001

3.24900958542493e+004,-1.97282815743937e+001,-1.75123679033603e-001

3.29436406907028e+004,-1.97282961365177e+001,-1.77560444704706e-001

3.34035167771346e+004,-1.97283111024360e+001,-1.80030895269128e-001

3.38698124945009e+004,-1.97283264831850e+001,-1.82535487111171e-001

3.43426174575100e+004,-1.97283422900931e+001,-1.85074682415747e-001

3.48220225318448e+004,-1.97283585347891e+001,-1.87648949222149e-001

3.53081198516260e+004,-1.97283752292084e+001,-1.90258761485711e-001

3.58010028371187e+004,-1.97283923856015e+001,-1.92904599133618e-001

3.63007662126863e+004,-1.97284100165412e+001,-1.95586948120595e-001

3.68075060249948e+004,-1.97284281349305e+001,-1.98306300489843e-001

3.73213196614721e+004,-1.97284467540106e+001,-2.01063154426310e-001

3.78423058690237e+004,-1.97284658873690e+001,-2.03858014317143e-001

3.83705647730104e+004,-1.97284855489484e+001,-2.06691390800884e-001

3.89061978964912e+004,-1.97285057530539e+001,-2.09563800834222e-001

3.94493081797342e+004,-1.97285265143631e+001,-2.12475767735999e-001

3.99999999999998e+004,-1.97285478479339e+001,-2.15427821250688e-001

4.05583791916010e+004,-1.97285697692134e+001,-2.18420497599992e-001

4.11245530662425e+004,-1.97285922940477e+001,-2.21454339534923e-001

4.16986304336447e+004,-1.97286154386905e+001,-2.24529896392156e-001

4.22807216224550e+004,-1.97286392198126e+001,-2.27647724144489e-001

4.28709385014515e+004,-1.97286636545120e+001,-2.30808385453455e-001

4.34693945010421e+004,-1.97286887603229e+001,-2.34012449720328e-001

4.40762046350642e+004,-1.97287145552256e+001,-2.37260493136821e-001

4.46914855228886e+004,-1.97287410576572e+001,-2.40553098733970e-001

4.53153554118317e+004,-1.97287682865208e+001,-2.43890856430743e-001

4.59479341998812e+004,-1.97287962611965e+001,-2.47274363080635e-001

4.65893434587380e+004,-1.97288250015514e+001,-2.50704222517968e-001

4.72397064571810e+004,-1.97288545279506e+001,-2.54181045603268e-001

4.78991481847569e+004,-1.97288848612673e+001,-2.57705450266926e-001

4.85677953758016e+004,-1.97289160228941e+001,-2.61278061550160e-001

4.92457765337964e+004,-1.97289480347535e+001,-2.64899511649425e-001

4.99332219560642e+004,-1.97289809193096e+001,-2.68570439951181e-001

5.06302637588109e+004,-1.97290146995785e+001,-2.72291493072313e-001

5.13370359025159e+004,-1.97290493991402e+001,-2.76063324895720e-001

5.20536742176771e+004,-1.97290850421494e+001,-2.79886596605632e-001

5.27803164309155e+004,-1.97291216533474e+001,-2.83761976717405e-001

5.35171021914442e+004,-1.97291592580731e+001,-2.87690141113198e-001

5.42641730979066e+004,-1.97291978822754e+001,-2.91671773062969e-001

5.50216727255895e+004,-1.97292375525237e+001,-2.95707563259141e-001

5.57897466540159e+004,-1.97292782960206e+001,-2.99798209833615e-001

5.65685424949235e+004,-1.97293201406131e+001,-3.03944418384166e-001

5.73582099206328e+004,-1.97293631148043e+001,-3.08146901993249e-001

5.81589006928121e+004,-1.97294072477652e+001,-3.12406381242719e-001

5.89707686916437e+004,-1.97294525693468e+001,-3.16723584230683e-001

5.97939699453972e+004,-1.97294991100909e+001,-3.21099246581492e-001

6.06286626604156e+004,-1.97295469012426e+001,-3.25534111455594e-001

6.14750072515201e+004,-1.97295959747612e+001,-3.30028929556155e-001

6.23331663728396e+004,-1.97296463633325e+001,-3.34584459127384e-001

6.32033049490698e+004,-1.97296981003792e+001,-3.39201465960043e-001

6.40855902071694e+004,-1.97297512200728e+001,-3.43880723385826e-001

6.49801917084985e+004,-1.97298057573445e+001,-3.48623012267730e-001

6.58872813814055e+004,-1.97298617478961e+001,-3.53429120994780e-001

6.68070335542691e+004,-1.97299192282109e+001,-3.58299845462784e-001

6.77396249890018e+004,-1.97299782355635e+001,-3.63235989062643e-001

6.86852349150199e+004,-1.97300388080310e+001,-3.68238362653741e-001

6.96440450636895e+004,-1.97301009845020e+001,-3.73307784542281e-001

7.06162397032520e+004,-1.97301648046868e+001,-3.78445080450844e-001

7.16020056742374e+004,-1.97302303091264e+001,-3.83651083485831e-001

7.26015324253724e+004,-1.97302975392011e+001,-3.88926634101127e-001

7.36150120499896e+004,-1.97303665371389e+001,-3.94272580055961e-001

7.46426393229441e+004,-1.97304373460239e+001,-3.99689776368179e-001

7.56846117380472e+004,-1.97305100098028e+001,-4.05179085268872e-001

7.67411295460207e+004,-1.97305845732925e+001,-4.10741376141984e-001

7.78123957929823e+004,-1.97306610821857e+001,-4.16377525470354e-001

7.88986163594682e+004,-1.97307395830565e+001,-4.22088416771483e-001

7.99999999999995e+004,-1.97308201233654e+001,-4.27874940529480e-001

8.11167583832018e+004,-1.97309027514631e+001,-4.33737994122043e-001

8.22491061324848e+004,-1.97309875165937e+001,-4.39678481745185e-001

8.33972608672892e+004,-1.97310744688969e+001,-4.45697314331803e-001

8.45614432449099e+004,-1.97311636594095e+001,-4.51795409465700e-001

8.57418770029029e+004,-1.97312551400658e+001,-4.57973691289474e-001

8.69387890020841e+004,-1.97313489636966e+001,-4.64233090412112e-001

8.81524092701283e+004,-1.97314451840273e+001,-4.70574543809133e-001

8.93829710457770e+004,-1.97315438556752e+001,-4.76998994716885e-001

9.06307108236633e+004,-1.97316450341448e+001,-4.83507392526664e-001

9.18958683997622e+004,-1.97317487758219e+001,-4.90100692672506e-001

9.31786869174758e+004,-1.97318551379670e+001,-4.96779856513787e-001

9.44794129143618e+004,-1.97319641787062e+001,-5.03545851215702e-001

9.57982963695136e+004,-1.97320759570210e+001,-5.10399649625328e-001

9.71355907516031e+004,-1.97321905327366e+001,-5.17342230144587e-001

9.84915530675926e+004,-1.97323079665076e+001,-5.24374576600558e-001

9.98664439121282e+004,-1.97324283198035e+001,-5.31497678109864e-001

1.01260527517622e+005,-1.97325516548904e+001,-5.38712528944195e-001

1.02674071805032e+005,-1.97326780348118e+001,-5.46020128390088e-001

1.04107348435354e+005,-1.97328075233669e+001,-5.53421480611562e-001

1.05560632861831e+005,-1.97329401850876e+001,-5.60917594503400e-001

1.07034204382888e+005,-1.97330760852110e+001,-5.68509483552513e-001

1.08528346195813e+005,-1.97332152896525e+001,-5.76198165689283e-001

1.10043345451179e+005,-1.97333578649738e+001,-5.83984663146986e-001

1.11579493308032e+005,-1.97335038783499e+001,-5.91870002317078e-001

1.13137084989847e+005,-1.97336533975329e+001,-5.99855213605590e-001

1.14716419841265e+005,-1.97338064908133e+001,-6.07941331291794e-001

1.16317801385624e+005,-1.97339632269778e+001,-6.16129393392018e-001

1.17941537383287e+005,-1.97341236752648e+001,-6.24420441521359e-001

1.19587939890794e+005,-1.97342879053175e+001,-6.32815520761790e-001

1.21257325320831e+005,-1.97344559871315e+001,-6.41315679540015e-001

1.22950014503040e+005,-1.97346279910025e+001,-6.49921969499651e-001

1.24666332745679e+005,-1.97348039874679e+001,-6.58635445391860e-001

1.26406609898139e+005,-1.97349840472467e+001,-6.67457164966367e-001

1.28171180414339e+005,-1.97351682411752e+001,-6.76388188875440e-001

1.29960383416997e+005,-1.97353566401399e+001,-6.85429580582996e-001

1.31774562762811e+005,-1.97355493150058e+001,-6.94582406290843e-001

1.33614067108538e+005,-1.97357463365424e+001,-7.03847734873022e-001

1.35479249978003e+005,-1.97359477753448e+001,-7.13226637823819e-001

1.37370469830040e+005,-1.97361537017520e+001,-7.22720189225581e-001

1.39288090127379e+005,-1.97363641857610e+001,-7.32329465725901e-001

1.41232479406504e+005,-1.97365792969374e+001,-7.42055546539008e-001

1.43204011348474e+005,-1.97367991043219e+001,-7.51899513464249e-001

1.45203064850745e+005,-1.97370236763335e+001,-7.61862450924980e-001

1.47230024099979e+005,-1.97372530806686e+001,-7.71945446030315e-001

1.49285278645888e+005,-1.97374873841963e+001,-7.82149588665384e-001

1.51369223476094e+005,-1.97377266528507e+001,-7.92475971600106e-001

1.53482259092041e+005,-1.97379709515179e+001,-8.02925690635702e-001

1.55624791585964e+005,-1.97382203439217e+001,-8.13499844771081e-001

1.57797232718936e+005,-1.97384748925039e+001,-8.24199536409048e-001

1.59999999999999e+005,-1.97387346583023e+001,-8.35025871591047e-001

1.62233516766403e+005,-1.97389997008248e+001,-8.45979960269925e-001

1.64498212264969e+005,-1.97392700779201e+001,-8.57062916620885e-001

1.66794521734578e+005,-1.97395458456468e+001,-8.68275859387802e-001

1.69122886489819e+005,-1.97398270581379e+001,-8.79619912274175e-001

1.71483754005805e+005,-1.97401137674637e+001,-8.91096204378309e-001

1.73877578004168e+005,-1.97404060234923e+001,-9.02705870670158e-001

1.76304818540256e+005,-1.97407038737473e+001,-9.14450052516719e-001

1.78765942091554e+005,-1.97410073632638e+001,-9.26329898259489e-001

1.81261421647326e+005,-1.97413165344435e+001,-9.38346563834771e-001

1.83791736799524e+005,-1.97416314269070e+001,-9.50501213456672e-001

1.86357373834951e+005,-1.97419520773468e+001,-9.62795020345463e-001

1.88958825828723e+005,-1.97422785193778e+001,-9.75229167516002e-001

1.91596592739027e+005,-1.97426107833891e+001,-9.87804848625136e-001

1.94271181503206e+005,-1.97429488963952e+001,-1.00052326887135e+000

1.96983106135185e+005,-1.97432928818875e+001,-1.01338564596141e+000

1.99732887824256e+005,-1.97436427596873e+001,-1.02639321113433e+000

2.02521055035243e+005,-1.97439985457998e+001,-1.03954721024825e+000

2.05348143610063e+005,-1.97443602522702e+001,-1.05284890493111e+000

2.08214696870707e+005,-1.97447278870423e+001,-1.06629957379435e+000

2.11121265723661e+005,-1.97451014538199e+001,-1.07990051371073e+000

2.14068408765776e+005,-1.97454809519315e+001,-1.09365304115801e+000

2.17056692391625e+005,-1.97458663761995e+001,-1.10755849362622e+000

2.20086690902357e+005,-1.97462577168133e+001,-1.12161823108929e+000

2.23158986616063e+005,-1.97466549592085e+001,-1.13583363754187e+000

2.26274169979693e+005,-1.97470580839503e+001,-1.15020612260054e+000

2.29432839682530e+005,-1.97474670666254e+001,-1.16473712316400e+000

2.32635602771247e+005,-1.97478818777389e+001,-1.17942810514098e+000

2.35883074766574e+005,-1.97483024826193e+001,-1.19428056523366e+000

2.39175879781588e+005,-1.97487288413323e+001,-1.20929603278070e+000

2.42514650641661e+005,-1.97491609086024e+001,-1.22447607165913e+000

2.45900029006080e+005,-1.97495986337441e+001,-1.23982228223868e+000

2.49332665491357e+005,-1.97500419606032e+001,-1.25533630338831e+000

2.52813219796278e+005,-1.97504908275081e+001,-1.27101981453347e+000

2.56342360828676e+005,-1.97509451672323e+001,-1.28687453775705e+000

2.59920766833993e+005,-1.97514049069679e+001,-1.30290223994554e+000

2.63549125525621e+005,-1.97518699683123e+001,-1.31910473497113e+000

2.67228134217075e+005,-1.97523402672652e+001,-1.33548388591374e+000

2.70958499956006e+005,-1.97528157142403e+001,-1.35204160730773e+000

2.74740939660078e+005,-1.97532962140893e+001,-1.36877986742086e+000

2.78576180254757e+005,-1.97537816661398e+001,-1.38570069055115e+000

2.82464958813007e+005,-1.97542719642465e+001,-1.40280615934110e+000

2.86408022696948e+005,-1.97547669968571e+001,-1.42009841710721e+000

2.90406129701488e+005,-1.97552666470923e+001,-1.43757967017037e+000

2.94460048199957e+005,-1.97557707928399e+001,-1.45525219019157e+000

2.98570557291775e+005,-1.97562793068641e+001,-1.47311831650130e+000

3.02738446952187e+005,-1.97567920569290e+001,-1.49118045841933e+000

3.06964518184081e+005,-1.97573089059366e+001,-1.50944109755610e+000

3.11249583171928e+005,-1.97578297120794e+001,-1.52790279009776e+000

3.15594465437872e+005,-1.97583543290074e+001,-1.54656816905688e+000

3.19999999999997e+005,-1.97588826060092e+001,-1.56543994649420e+000

3.24467033532806e+005,-1.97594143882066e+001,-1.58452091570037e+000

3.28996424529938e+005,-1.97599495167634e+001,-1.60381395333107e+000

3.33589043469155e+005,-1.97604878291068e+001,-1.62332202149289e+000

3.38245772979638e+005,-1.97610291591614e+001,-1.64304816977321e+000

3.42967508011610e+005,-1.97615733375956e+001,-1.66299553720993e+000

3.47755156008335e+005,-1.97621201920796e+001,-1.68316735419200e+000

3.52609637080511e+005,-1.97626695475536e+001,-1.70356694429205e+000

3.57531884183106e+005,-1.97632212265073e+001,-1.72419772602259e+000

3.62522843294651e+005,-1.97637750492677e+001,-1.74506321451140e+000

3.67583473599047e+005,-1.97643308342963e+001,-1.76616702309600e+000

3.72714747669902e+005,-1.97648883984937e+001,-1.78751286482766e+000

3.77917651657445e+005,-1.97654475575113e+001,-1.80910455388958e+000

3.83193185478053e+005,-1.97660081260689e+001,-1.83094600691893e+000

3.88542363006410e+005,-1.97665699182774e+001,-1.85304124423592e+000

3.93966212270369e+005,-1.97671327479654e+001,-1.87539439097425e+000

3.99465775648511e+005,-1.97676964290089e+001,-1.89800967811723e+000

4.05042110070485e+005,-1.97682607756633e+001,-1.92089144343036e+000

4.10696287220124e+005,-1.97688256028961e+001,-1.94404413229837e+000

4.16429393741414e+005,-1.97693907267195e+001,-1.96747229846082e+000

4.22242531447321e+005,-1.97699559645229e+001,-1.99118060465067e+000

4.28136817531551e+005,-1.97705211354018e+001,-2.01517382313516e+000

4.34113384783250e+005,-1.97710860604853e+001,-2.03945683615887e+000

4.40173381804713e+005,-1.97716505632584e+001,-2.06403463629573e+000

4.46317973232124e+005,-1.97722144698801e+001,-2.08891232670801e+000

4.52548339959385e+005,-1.97727776094950e+001,-2.11409512131628e+000

4.58865679365059e+005,-1.97733398145389e+001,-2.13958834488586e+000

4.65271205542494e+005,-1.97739009210361e+001,-2.16539743302954e+000

4.71766149533147e+005,-1.97744607688882e+001,-2.19152793213515e+000

4.78351759563174e+005,-1.97750192021552e+001,-2.21798549921717e+000

4.85029301283321e+005,-1.97755760693241e+001,-2.24477590170426e+000

4.91800058012158e+005,-1.97761312235700e+001,-2.27190501715845e+000

4.98665330982714e+005,-1.97766845230034e+001,-2.29937883294063e+000

5.05626439592555e+005,-1.97772358309079e+001,-2.32720344582081e+000

5.12684721657352e+005,-1.97777850159649e+001,-2.35538506154276e+000

5.19841533667984e+005,-1.97783319524656e+001,-2.38392999434806e+000

5.27098251051240e+005,-1.97788765205105e+001,-2.41284466646334e+000

5.34456268434150e+005,-1.97794186061963e+001,-2.44213560756053e+000

5.41916999912011e+005,-1.97799581017884e+001,-2.47180945419367e+000

