Freq.,VOut,OutRef

1.00000000000000e+004,-2.03765021603237e+001,-2.08566778407105e-001

1.01395947979003e+004,-2.03765035444367e+001,-2.11478097889895e-001

1.02811382665607e+004,-2.03765049674270e+001,-2.14430050909312e-001

1.04246576084112e+004,-2.03765064303856e+001,-2.17423204392121e-001

1.05701804056138e+004,-2.03765079344339e+001,-2.20458133169146e-001

1.07177346253629e+004,-2.03765094807248e+001,-2.23535420079838e-001

1.08673486252606e+004,-2.03765110704438e+001,-2.26655656086203e-001

1.10190511587661e+004,-2.03765127048091e+001,-2.29819440387274e-001

1.11728713807222e+004,-2.03765143850731e+001,-2.33027380531428e-001

1.13288388529580e+004,-2.03765161125237e+001,-2.36280092531470e-001

1.14869835499703e+004,-2.03765178884842e+001,-2.39578200984305e-001

1.16473358646846e+004,-2.03765197143155e+001,-2.42922339189079e-001

1.18099266142953e+004,-2.03765215914162e+001,-2.46313149267846e-001

1.19747870461893e+004,-2.03765235212242e+001,-2.49751282288764e-001

1.21419488439505e+004,-2.03765255052175e+001,-2.53237398388774e-001

1.23114441334492e+004,-2.03765275449156e+001,-2.56772166901444e-001

1.24833054890161e+004,-2.03765296418806e+001,-2.60356266480944e-001

1.26575659397028e+004,-2.03765317977178e+001,-2.63990385236564e-001

1.28342589756290e+004,-2.03765340140780e+001,-2.67675220858817e-001

1.30134185544193e+004,-2.03765362926576e+001,-2.71411480755871e-001

1.31950791077289e+004,-2.03765386352007e+001,-2.75199882185207e-001

1.33792755478611e+004,-2.03765410435002e+001,-2.79041152392294e-001

1.35660432744767e+004,-2.03765435193990e+001,-2.82936028748184e-001

1.37554181813974e+004,-2.03765460647914e+001,-2.86885258889669e-001

1.39474366635040e+004,-2.03765486816245e+001,-2.90889600862472e-001

1.41421356237309e+004,-2.03765513719002e+001,-2.94949823262434e-001

1.43395524801583e+004,-2.03765541376759e+001,-2.99066705385621e-001

1.45397251732031e+004,-2.03765569810667e+001,-3.03241037372291e-001

1.47426921729110e+004,-2.03765599042464e+001,-3.07473620360852e-001

1.49484924863494e+004,-2.03765629094500e+001,-3.11765266635901e-001

1.51571656651040e+004,-2.03765659989742e+001,-3.16116799785803e-001

1.53687518128801e+004,-2.03765691751801e+001,-3.20529054858121e-001

1.55832915932100e+004,-2.03765724404949e+001,-3.25002878515364e-001

1.58008262372675e+004,-2.03765757974127e+001,-3.29539129200144e-001

1.60213975517924e+004,-2.03765792484982e+001,-3.34138677291725e-001

1.62450479271247e+004,-2.03765827963863e+001,-3.38802405278946e-001

1.64718203453514e+004,-2.03765864437864e+001,-3.43531207918501e-001

1.67017583885674e+004,-2.03765901934828e+001,-3.48325992411089e-001

1.69349062472505e+004,-2.03765940483375e+001,-3.53187678569150e-001

1.71713087287550e+004,-2.03765980112920e+001,-3.58117198993129e-001

1.74110112659224e+004,-2.03766020853699e+001,-3.63115499245245e-001

1.76540599258131e+004,-2.03766062736787e+001,-3.68183538031784e-001

1.79005014185594e+004,-2.03766105794124e+001,-3.73322287379348e-001

1.81503831063432e+004,-2.03766150058539e+001,-3.78532732823281e-001

1.84037530124975e+004,-2.03766195563772e+001,-3.83815873590527e-001

1.86606598307361e+004,-2.03766242344502e+001,-3.89172722787058e-001

1.89211529345119e+004,-2.03766290436370e+001,-3.94604307592412e-001

1.91852823865052e+004,-2.03766339876006e+001,-4.00111669450929e-001

1.94530989482457e+004,-2.03766390701060e+001,-4.05695864267278e-001

1.97246540898671e+004,-2.03766442950224e+001,-4.11357962605614e-001

1.99999999999999e+004,-2.03766496663262e+001,-4.17099049893364e-001

2.02791895958005e+004,-2.03766551881045e+001,-4.22920226620287e-001

2.05622765331213e+004,-2.03766608645572e+001,-4.28822608549866e-001

2.08493152168224e+004,-2.03766667000010e+001,-4.34807326924847e-001

2.11403608112276e+004,-2.03766726988717e+001,-4.40875528682504e-001

2.14354692507258e+004,-2.03766788657281e+001,-4.47028376668101e-001

2.17346972505211e+004,-2.03766852052553e+001,-4.53267049852897e-001

2.20381023175322e+004,-2.03766917222678e+001,-4.59592743554205e-001

2.23457427614443e+004,-2.03766984217131e+001,-4.66006669659758e-001

2.26576777059159e+004,-2.03767053086756e+001,-4.72510056855564e-001

2.29739670999406e+004,-2.03767123883801e+001,-4.79104150850754e-001

2.32946717293690e+004,-2.03767196661954e+001,-4.85790214616158e-001

2.36198532285905e+004,-2.03767271476388e+001,-4.92569528614346e-001

2.39495740923785e+004,-2.03767348383793e+001,-4.99443391042001e-001

2.42838976879009e+004,-2.03767427442426e+001,-5.06413118069242e-001

2.46228882668982e+004,-2.03767508712145e+001,-5.13480044085347e-001

2.49666109780322e+004,-2.03767592254457e+001,-5.20645521947084e-001

2.53151318794055e+004,-2.03767678132562e+001,-5.27910923228507e-001

2.56685179512580e+004,-2.03767766411395e+001,-5.35277638476981e-001

2.60268371088386e+004,-2.03767857157681e+001,-5.42747077468757e-001

2.63901582154578e+004,-2.03767950439971e+001,-5.50320669472131e-001

2.67585510957221e+004,-2.03768046328699e+001,-5.57999863511277e-001

2.71320865489533e+004,-2.03768144896233e+001,-5.65786128631372e-001

2.75108363627948e+004,-2.03768246216921e+001,-5.73680954174057e-001

2.78948733270080e+004,-2.03768350367149e+001,-5.81685850047444e-001

2.82842712474618e+004,-2.03768457425392e+001,-5.89802347007119e-001

2.86791049603164e+004,-2.03768567472272e+001,-5.98031996936783e-001

2.90794503464061e+004,-2.03768680590613e+001,-6.06376373132812e-001

2.94853843458219e+004,-2.03768796865499e+001,-6.14837070593605e-001

2.98969849726987e+004,-2.03768916384336e+001,-6.23415706310901e-001

3.03143313302078e+004,-2.03769039236911e+001,-6.32113919567391e-001

3.07375036257601e+004,-2.03769165515458e+001,-6.40933372233468e-001

3.11665831864199e+004,-2.03769295314717e+001,-6.49875749074120e-001

3.16016524745350e+004,-2.03769428732006e+001,-6.58942758051868e-001

3.20427951035848e+004,-2.03769565867283e+001,-6.68136130641411e-001

3.24900958542493e+004,-2.03769706823219e+001,-6.77457622141672e-001

3.29436406907028e+004,-2.03769851705265e+001,-6.86909011996425e-001

3.34035167771346e+004,-2.03770000621729e+001,-6.96492104114589e-001

3.38698124945009e+004,-2.03770153683849e+001,-7.06208727196499e-001

3.43426174575100e+004,-2.03770311005863e+001,-7.16060735067373e-001

3.48220225318448e+004,-2.03770472705094e+001,-7.26050007007866e-001

3.53081198516260e+004,-2.03770638902027e+001,-7.36178448093978e-001

3.58010028371187e+004,-2.03770809720389e+001,-7.46447989539693e-001

3.63007662126863e+004,-2.03770985287234e+001,-7.56860589042744e-001

3.68075060249948e+004,-2.03771165733027e+001,-7.67418231135476e-001

3.73213196614721e+004,-2.03771351191730e+001,-7.78122927539281e-001

3.78423058690237e+004,-2.03771541800893e+001,-7.88976717523703e-001

3.83705647730104e+004,-2.03771737701746e+001,-7.99981668269214e-001

3.89061978964912e+004,-2.03771939039288e+001,-8.11139875234780e-001

3.94493081797342e+004,-2.03772145962383e+001,-8.22453462530054e-001

3.99999999999998e+004,-2.03772358623862e+001,-8.33924583290472e-001

4.05583791916010e+004,-2.03772577180614e+001,-8.45555420056886e-001

4.11245530662425e+004,-2.03772801793695e+001,-8.57348185161571e-001

4.16986304336447e+004,-2.03773032628428e+001,-8.69305121116565e-001

4.22807216224550e+004,-2.03773269854505e+001,-8.81428501007552e-001

4.28709385014515e+004,-2.03773513646105e+001,-8.93720628889608e-001

4.34693945010421e+004,-2.03773764181991e+001,-9.06183840193499e-001

4.40762046350642e+004,-2.03774021645634e+001,-9.18820502127905e-001

4.46914855228886e+004,-2.03774286225322e+001,-9.31633014093448e-001

4.53153554118317e+004,-2.03774558114273e+001,-9.44623808099715e-001

4.59479341998812e+004,-2.03774837510765e+001,-9.57795349181523e-001

4.65893434587380e+004,-2.03775124618246e+001,-9.71150135827992e-001

4.72397064571810e+004,-2.03775419645466e+001,-9.84690700410246e-001

4.78991481847569e+004,-2.03775722806597e+001,-9.98419609615926e-001

4.85677953758016e+004,-2.03776034321367e+001,-1.01233946488881e+000

4.92457765337964e+004,-2.03776354415187e+001,-1.02645290287123e+000

4.99332219560642e+004,-2.03776683319285e+001,-1.04076259585329e+000

5.06302637588109e+004,-2.03777021270840e+001,-1.05527125222652e+000

5.13370359025159e+004,-2.03777368513125e+001,-1.06998161694018e+000

5.20536742176771e+004,-2.03777725295641e+001,-1.08489647196477e+000

5.27803164309155e+004,-2.03778091874262e+001,-1.10001863675944e+000

5.35171021914442e+004,-2.03778468511379e+001,-1.11535096874412e+000

5.42641730979066e+004,-2.03778855476050e+001,-1.13089636377616e+000

5.50216727255895e+004,-2.03779253044144e+001,-1.14665775663242e+000

5.57897466540159e+004,-2.03779661498498e+001,-1.16263812149652e+000

5.65685424949235e+004,-2.03780081129066e+001,-1.17884047244921e+000

5.73582099206328e+004,-2.03780512233077e+001,-1.19526786396683e+000

5.81589006928121e+004,-2.03780955115195e+001,-1.21192339142036e+000

5.89707686916437e+004,-2.03781410087672e+001,-1.22881019158459e+000

5.97939699453972e+004,-2.03781877470522e+001,-1.24593144314596e+000

6.06286626604156e+004,-2.03782357591672e+001,-1.26329036722276e+000

6.14750072515201e+004,-2.03782850787135e+001,-1.28089022788418e+000

6.23331663728396e+004,-2.03783357401178e+001,-1.29873433267660e+000

6.32033049490698e+004,-2.03783877786490e+001,-1.31682603315637e+000

6.40855902071694e+004,-2.03784412304352e+001,-1.33516872542540e+000

6.49801917084985e+004,-2.03784961324809e+001,-1.35376585067343e+000

6.58872813814055e+004,-2.03785525226849e+001,-1.37262089572335e+000

6.68070335542691e+004,-2.03786104398573e+001,-1.39173739358539e+000

6.77396249890018e+004,-2.03786699237375e+001,-1.41111892401284e+000

6.86852349150199e+004,-2.03787310150117e+001,-1.43076911406397e+000

6.96440450636895e+004,-2.03787937553311e+001,-1.45069163867132e+000

7.06162397032520e+004,-2.03788581873296e+001,-1.47089022121294e+000

7.16020056742374e+004,-2.03789243546418e+001,-1.49136863409237e+000

7.26015324253724e+004,-2.03789923019211e+001,-1.51213069932127e+000

7.36150120499896e+004,-2.03790620748579e+001,-1.53318028910847e+000

7.46426393229441e+004,-2.03791337201976e+001,-1.55452132645552e+000

7.56846117380472e+004,-2.03792072857588e+001,-1.57615778575650e+000

7.67411295460207e+004,-2.03792828204511e+001,-1.59809369340416e+000

7.78123957929823e+004,-2.03793603742934e+001,-1.62033312840098e+000

7.88986163594682e+004,-2.03794399984315e+001,-1.64288022297760e+000

7.99999999999995e+004,-2.03795217451564e+001,-1.66573916321599e+000

8.11167583832018e+004,-2.03796056679214e+001,-1.68891418967791e+000

8.22491061324848e+004,-2.03796918213603e+001,-1.71240959804178e+000

8.33972608672892e+004,-2.03797802613041e+001,-1.73622973974322e+000

8.45614432449099e+004,-2.03798710447988e+001,-1.76037902262379e+000

8.57418770029029e+004,-2.03799642301215e+001,-1.78486191158596e+000

8.69387890020841e+004,-2.03800598767982e+001,-1.80968292925249e+000

8.81524092701283e+004,-2.03801580456188e+001,-1.83484665663668e+000

8.93829710457770e+004,-2.03802587986540e+001,-1.86035773381573e+000

9.06307108236633e+004,-2.03803621992704e+001,-1.88622086061401e+000

9.18958683997622e+004,-2.03804683121462e+001,-1.91244079729108e+000

9.31786869174758e+004,-2.03805772032854e+001,-1.93902236524071e+000

9.44794129143618e+004,-2.03806889400324e+001,-1.96597044769351e+000

9.57982963695136e+004,-2.03808035910854e+001,-1.99328999043247e+000

9.71355907516031e+004,-2.03809212265096e+001,-2.02098600251246e+000

9.84915530675926e+004,-2.03810419177500e+001,-2.04906355699082e+000

9.98664439121282e+004,-2.03811657376431e+001,-2.07752779166684e+000

1.01260527517622e+005,-2.03812927604278e+001,-2.10638390982911e+000

1.02674071805032e+005,-2.03814230617562e+001,-2.13563718101487e+000

1.04107348435354e+005,-2.03815567187027e+001,-2.16529294177770e+000

1.05560632861831e+005,-2.03816938097736e+001,-2.19535659646491e+000

1.07034204382888e+005,-2.03818344149142e+001,-2.22583361800955e+000

1.08528346195813e+005,-2.03819786155161e+001,-2.25672954872909e+000

1.10043345451179e+005,-2.03821264944235e+001,-2.28805000113986e+000

1.11579493308032e+005,-2.03822781359374e+001,-2.31980065878230e+000

1.13137084989847e+005,-2.03824336258206e+001,-2.35198727705861e+000

1.14716419841265e+005,-2.03825930512997e+001,-2.38461568408640e+000

1.16317801385624e+005,-2.03827565010674e+001,-2.41769178156274e+000

1.17941537383287e+005,-2.03829240652823e+001,-2.45122154564860e+000

1.19587939890794e+005,-2.03830958355692e+001,-2.48521102786299e+000

1.21257325320831e+005,-2.03832719050164e+001,-2.51966635599794e+000

1.22950014503040e+005,-2.03834523681726e+001,-2.55459373504909e+000

1.24666332745679e+005,-2.03836373210428e+001,-2.58999944816342e+000

1.26406609898139e+005,-2.03838268610820e+001,-2.62588985760825e+000

1.28171180414339e+005,-2.03840210871879e+001,-2.66227140575697e+000

1.29960383416997e+005,-2.03842200996929e+001,-2.69915061609784e+000

1.31774562762811e+005,-2.03844240003532e+001,-2.73653409426442e+000

1.33614067108538e+005,-2.03846328923382e+001,-2.77442852908683e+000

1.35479249978003e+005,-2.03848468802170e+001,-2.81284069366914e+000

1.37370469830040e+005,-2.03850660699444e+001,-2.85177744649030e+000

1.39288090127379e+005,-2.03852905688456e+001,-2.89124573253111e+000

1.41232479406504e+005,-2.03855204855986e+001,-2.93125258442988e+000

1.43204011348474e+005,-2.03857559302161e+001,-2.97180512366483e+000

1.45203064850745e+005,-2.03859970140256e+001,-3.01291056176722e+000

1.47230024099979e+005,-2.03862438496485e+001,-3.05457620156593e+000

1.49285278645888e+005,-2.03864965509781e+001,-3.09680943846322e+000

1.51369223476094e+005,-2.03867552331556e+001,-3.13961776174513e+000

1.53482259092041e+005,-2.03870200125461e+001,-3.18300875592712e+000

1.55624791585964e+005,-2.03872910067126e+001,-3.22699010213648e+000

1.57797232718936e+005,-2.03875683343899e+001,-3.27156957953164e+000

1.59999999999999e+005,-2.03878521154571e+001,-3.31675506676233e+000

1.62233516766403e+005,-2.03881424709097e+001,-3.36255454347013e+000

1.64498212264969e+005,-2.03884395228309e+001,-3.40897609183141e+000

1.66794521734578e+005,-2.03887433943629e+001,-3.45602789814496e+000

1.69122886489819e+005,-2.03890542096774e+001,-3.50371825446418e+000

1.71483754005805e+005,-2.03893720939466e+001,-3.55205556027668e+000

1.73877578004168e+005,-2.03896971733139e+001,-3.60104832423297e+000

1.76304818540256e+005,-2.03900295748650e+001,-3.65070516592348e+000

1.78765942091554e+005,-2.03903694266001e+001,-3.70103481770907e+000

1.81261421647326e+005,-2.03907168574061e+001,-3.75204612660283e+000

1.83791736799524e+005,-2.03910719970304e+001,-3.80374805620617e+000

1.86357373834951e+005,-2.03914349760562e+001,-3.85614968870111e+000

1.88958825828723e+005,-2.03918059258787e+001,-3.90926022689886e+000

1.91596592739027e+005,-2.03921849786844e+001,-3.96308899634621e+000

1.94271181503206e+005,-2.03925722674316e+001,-4.01764544749146e+000

1.96983106135185e+005,-2.03929679258344e+001,-4.07293915790941e+000

1.99732887824256e+005,-2.03933720883494e+001,-4.12897983458994e+000

2.02521055035243e+005,-2.03937848901656e+001,-4.18577731628496e+000

2.05348143610063e+005,-2.03942064671985e+001,-4.24334157592048e+000

2.08214696870707e+005,-2.03946369560881e+001,-4.30168272307215e+000

2.11121265723661e+005,-2.03950764942020e+001,-4.36081100650241e+000

2.14068408765776e+005,-2.03955252196430e+001,-4.42073681676428e+000

2.17056692391625e+005,-2.03959832712628e+001,-4.48147068886692e+000

2.20086690902357e+005,-2.03964507886810e+001,-4.54302330500871e+000

2.23158986616063e+005,-2.03969279123117e+001,-4.60540549737087e+000

2.26274169979693e+005,-2.03974147833960e+001,-4.66862825097780e+000

2.29432839682530e+005,-2.03979115440422e+001,-4.73270270661986e+000

2.32635602771247e+005,-2.03984183372748e+001,-4.79764016383859e+000

2.35883074766574e+005,-2.03989353070905e+001,-4.86345208397461e+000

2.39175879781588e+005,-2.03994625985242e+001,-4.93015009327499e+000

2.42514650641661e+005,-2.04000003577245e+001,-4.99774598606199e+000

2.45900029006080e+005,-2.04005487320378e+001,-5.06625172795862e+000

2.49332665491357e+005,-2.04011078701051e+001,-5.13567945917043e+000

2.52813219796278e+005,-2.04016779219672e+001,-5.20604149782269e+000

2.56342360828676e+005,-2.04022590391828e+001,-5.27735034334943e+000

2.59920766833993e+005,-2.04028513749585e+001,-5.34961867993240e+000

2.63549125525621e+005,-2.04034550842899e+001,-5.42285937998776e+000

2.67228134217075e+005,-2.04040703241164e+001,-5.49708550769768e+000

2.70958499956006e+005,-2.04046972534885e+001,-5.57231032258346e+000

2.74740939660078e+005,-2.04053360337492e+001,-5.64854728311779e+000

2.78576180254757e+005,-2.04059868287282e+001,-5.72581005037287e+000

2.82464958813007e+005,-2.04066498049514e+001,-5.80411249169914e+000

2.86408022696948e+005,-2.04073251318633e+001,-5.88346868443500e+000

2.90406129701488e+005,-2.04080129820659e+001,-5.96389291963826e+000

2.94460048199957e+005,-2.04087135315711e+001,-6.04539970584104e+000

2.98570557291775e+005,-2.04094269600687e+001,-6.12800377282025e+000

3.02738446952187e+005,-2.04101534512095e+001,-6.21172007538069e+000

3.06964518184081e+005,-2.04108931929042e+001,-6.29656379714820e+000

3.11249583171928e+005,-2.04116463776371e+001,-6.38255035436596e+000

3.15594465437872e+005,-2.04124132027956e+001,-6.46969539969120e+000

3.19999999999997e+005,-2.04131938710152e+001,-6.55801482598923e+000

3.24467033532806e+005,-2.04139885905400e+001,-6.64752477011728e+000

3.28996424529938e+005,-2.04147975755980e+001,-6.73824161669804e+000

3.33589043469155e+005,-2.04156210467925e+001,-6.83018200187510e+000

3.38245772979638e+005,-2.04164592315075e+001,-6.92336281704813e+000

3.42967508011610e+005,-2.04173123643287e+001,-7.01780121258469e+000

3.47755156008335e+005,-2.04181806874787e+001,-7.11351460150149e+000

3.52609637080511e+005,-2.04190644512666e+001,-7.21052066311590e+000

3.57531884183106e+005,-2.04199639145512e+001,-7.30883734666044e+000

3.62522843294651e+005,-2.04208793452188e+001,-7.40848287485814e+000

3.67583473599047e+005,-2.04218110206726e+001,-7.50947574745716e+000

3.72714747669902e+005,-2.04227592283365e+001,-7.61183474471845e+000

3.77917651657445e+005,-2.04237242661702e+001,-7.71557893085784e+000

3.83193185478053e+005,-2.04247064431966e+001,-7.82072765743625e+000

3.88542363006410e+005,-2.04257060800407e+001,-7.92730056669802e+000

3.93966212270369e+005,-2.04267235094791e+001,-8.03531759485587e+000

3.99465775648511e+005,-2.04277590770002e+001,-8.14479897531836e+000

4.05042110070485e+005,-2.04288131413741e+001,-8.25576524186159e+000

4.10696287220124e+005,-2.04298860752320e+001,-8.36823723174134e+000

4.16429393741414e+005,-2.04309782656544e+001,-8.48223608874793e+000

4.22242531447321e+005,-2.04320901147678e+001,-8.59778326619846e+000

4.28136817531551e+005,-2.04332220403490e+001,-8.71490052987274e+000

4.34113384783250e+005,-2.04343744764372e+001,-8.83360996088648e+000

4.40173381804713e+005,-2.04355478739521e+001,-8.95393395850764e+000

4.46317973232124e+005,-2.04367427013195e+001,-9.07589524291137e+000

4.52548339959385e+005,-2.04379594451022e+001,-9.19951685787906e+000

4.58865679365059e+005,-2.04391986106369e+001,-9.32482217343954e+000

4.65271205542494e+005,-2.04404607226756e+001,-9.45183488845410e+000

4.71766149533147e+005,-2.04417463260331e+001,-9.58057903314826e+000

4.78351759563174e+005,-2.04430559862375e+001,-9.71107897159046e+000

4.85029301283321e+005,-2.04443902901866e+001,-9.84335940411921e+000

4.91800058012158e+005,-2.04457498468068e+001,-9.97744536972268e+000

4.98665330982714e+005,-2.04471352877173e+001,-1.01133622483701e+001

5.05626439592555e+005,-2.04485472678970e+001,-1.02511357632983e+001

5.12684721657352e+005,-2.04499864663551e+001,-1.03907919832571e+001

5.19841533667984e+005,-2.04514535868061e+001,-1.05323573247109e+001

5.27098251051240e+005,-2.04529493583472e+001,-1.06758585540052e+001

5.34456268434150e+005,-2.04544745361399e+001,-1.08213227894943e+001

5.41916999912011e+005,-2.04560299020954e+001,-1.09687775036357e+001

