Freq.,VOut,OutRef

1.00000000000000e+004,-8.38667093484996e-001,-1.12043587908375e-001

1.01395947979003e+004,-8.38667077219200e-001,-1.13607656486937e-001

1.02811382665607e+004,-8.38667060495733e-001,-1.15193558580290e-001

1.04246576084112e+004,-8.38667043301684e-001,-1.16801598970065e-001

1.05701804056138e+004,-8.38667025623844e-001,-1.18432086692196e-001

1.07177346253629e+004,-8.38667007448545e-001,-1.20085335096587e-001

1.08673486252606e+004,-8.38666988761773e-001,-1.21761661907685e-001

1.10190511587661e+004,-8.38666969549039e-001,-1.23461389284572e-001

1.11728713807222e+004,-8.38666949795728e-001,-1.25184843882647e-001

1.13288388529580e+004,-8.38666929486391e-001,-1.26932356918672e-001

1.14869835499703e+004,-8.38666908605585e-001,-1.28704264231119e-001

1.16473358646846e+004,-8.38666887137127e-001,-1.30500906347618e-001

1.18099266142953e+004,-8.38666865064284e-001,-1.32322628549940e-001

1.19747870461893e+004,-8.38666842370130e-001,-1.34169780938065e-001

1.21419488439505e+004,-8.38666819037298e-001,-1.36042718498766e-001

1.23114441334492e+004,-8.38666795047660e-001,-1.37941801175371e-001

1.24833054890161e+004,-8.38666770382735e-001,-1.39867393935304e-001

1.26575659397028e+004,-8.38666745023399e-001,-1.41819866840440e-001

1.28342589756290e+004,-8.38666718950260e-001,-1.43799595117315e-001

1.30134185544193e+004,-8.38666692143064e-001,-1.45806959231989e-001

1.31950791077289e+004,-8.38666664581071e-001,-1.47842344960439e-001

1.33792755478611e+004,-8.38666636243178e-001,-1.49906143462731e-001

1.35660432744767e+004,-8.38666607107395e-001,-1.51998751360867e-001

1.37554181813974e+004,-8.38666577151099e-001,-1.54120570812674e-001

1.39474366635040e+004,-8.38666546351519e-001,-1.56272009587566e-001

1.41421356237309e+004,-8.38666514684440e-001,-1.58453481150774e-001

1.43395524801583e+004,-8.38666482125624e-001,-1.60665404735632e-001

1.45397251732031e+004,-8.38666448649946e-001,-1.62908205428422e-001

1.47426921729110e+004,-8.38666414231426e-001,-1.65182314250004e-001

1.49484924863494e+004,-8.38666378843470e-001,-1.67488168237021e-001

1.51571656651040e+004,-8.38666342458815e-001,-1.69826210525755e-001

1.53687518128801e+004,-8.38666305049356e-001,-1.72196890438966e-001

1.55832915932100e+004,-8.38666266585973e-001,-1.74600663572229e-001

1.58008262372675e+004,-8.38666227039103e-001,-1.77037991878444e-001

1.60213975517924e+004,-8.38666186378034e-001,-1.79509343760777e-001

1.62450479271247e+004,-8.38666144571492e-001,-1.82015194158562e-001

1.64718203453514e+004,-8.38666101586934e-001,-1.84556024642728e-001

1.67017583885674e+004,-8.38666057391211e-001,-1.87132323504472e-001

1.69349062472505e+004,-8.38666011950050e-001,-1.89744585851985e-001

1.71713087287550e+004,-8.38665965228367e-001,-1.92393313703040e-001

1.74110112659224e+004,-8.38665917189864e-001,-1.95079016084705e-001

1.76540599258131e+004,-8.38665867797475e-001,-1.97802209127147e-001

1.79005014185594e+004,-8.38665817012777e-001,-2.00563416166683e-001

1.81503831063432e+004,-8.38665764796587e-001,-2.03363167842890e-001

1.84037530124975e+004,-8.38665711108240e-001,-2.06202002203993e-001

1.86606598307361e+004,-8.38665655906367e-001,-2.09080464805800e-001

1.89211529345119e+004,-8.38665599148008e-001,-2.11999108821861e-001

1.91852823865052e+004,-8.38665540789262e-001,-2.14958495144968e-001

1.94530989482457e+004,-8.38665480784752e-001,-2.17959192498466e-001

1.97246540898671e+004,-8.38665419087970e-001,-2.21001777543214e-001

1.99999999999999e+004,-8.38665355651012e-001,-2.24086834988925e-001

2.02791895958005e+004,-8.38665290424724e-001,-2.27214957706636e-001

2.05622765331213e+004,-8.38665223358398e-001,-2.30386746843725e-001

2.08493152168224e+004,-8.38665154399892e-001,-2.33602811937533e-001

2.11403608112276e+004,-8.38665083495686e-001,-2.36863771032955e-001

2.14354692507258e+004,-8.38665010590794e-001,-2.40170250801767e-001

2.17346972505211e+004,-8.38664935628357e-001,-2.43522886663453e-001

2.20381023175322e+004,-8.38664858550178e-001,-2.46922322905636e-001

2.23457427614443e+004,-8.38664779296307e-001,-2.50369212808524e-001

2.26576777059159e+004,-8.38664697805065e-001,-2.53864218771347e-001

2.29739670999406e+004,-8.38664614013007e-001,-2.57408012438629e-001

2.32946717293690e+004,-8.38664527854952e-001,-2.61001274829163e-001

2.36198532285905e+004,-8.38664439263797e-001,-2.64644696466809e-001

2.39495740923785e+004,-8.38664348170427e-001,-2.68338977514573e-001

2.42838976879009e+004,-8.38664254503999e-001,-2.72084827906401e-001

2.46228882668982e+004,-8.38664158191364e-001,-2.75882967486096e-001

2.49666109780322e+004,-8.38664059157376e-001,-2.79734126144451e-001

2.53151318794055e+004,-8.38663957324834e-001,-2.83639043958875e-001

2.56685179512580e+004,-8.38663852614223e-001,-2.87598471336559e-001

2.60268371088386e+004,-8.38663744943814e-001,-2.91613169158196e-001

2.63901582154578e+004,-8.38663634229444e-001,-2.95683908923990e-001

2.67585510957221e+004,-8.38663520384474e-001,-2.99811472902745e-001

2.71320865489533e+004,-8.38663403320079e-001,-3.03996654279752e-001

2.75108363627948e+004,-8.38663282944548e-001,-3.08240257312079e-001

2.78948733270080e+004,-8.38663159163621e-001,-3.12543097481402e-001

2.82842712474618e+004,-8.38663031880489e-001,-3.16906001649693e-001

2.86791049603164e+004,-8.38662900995441e-001,-3.21329808220077e-001

2.90794503464061e+004,-8.38662766405729e-001,-3.25815367297731e-001

2.94853843458219e+004,-8.38662628005864e-001,-3.30363540850649e-001

2.98969849726987e+004,-8.38662485687313e-001,-3.34975202877225e-001

3.03143313302078e+004,-8.38662339338288e-001,-3.39651239574247e-001

3.07375036257601e+004,-8.38662188843789e-001,-3.44392549506010e-001

3.11665831864199e+004,-8.38662034085497e-001,-3.49200043777597e-001

3.16016524745350e+004,-8.38661874941784e-001,-3.54074646209126e-001

3.20427951035848e+004,-8.38661711287291e-001,-3.59017293513767e-001

3.24900958542493e+004,-8.38661542993220e-001,-3.64028935477325e-001

3.29436406907028e+004,-8.38661369926964e-001,-3.69110535140012e-001

3.34035167771346e+004,-8.38661191951947e-001,-3.74263068983362e-001

3.38698124945009e+004,-8.38661008927817e-001,-3.79487527114841e-001

3.43426174575100e+004,-8.38660820710104e-001,-3.84784913459307e-001

3.48220225318448e+004,-8.38660627149939e-001,-3.90156245953448e-001

3.53081198516260e+004,-8.38660428094380e-001,-3.95602556737441e-001

3.58010028371187e+004,-8.38660223385863e-001,-4.01124892356519e-001

3.63007662126863e+004,-8.38660012862251e-001,-4.06724313959894e-001

3.68075060249948e+004,-8.38659796356684e-001,-4.12401897505013e-001

3.73213196614721e+004,-8.38659573697445e-001,-4.18158733964623e-001

3.78423058690237e+004,-8.38659344707772e-001,-4.23995929535128e-001

3.83705647730104e+004,-8.38659109205737e-001,-4.29914605849360e-001

3.89061978964912e+004,-8.38658867003947e-001,-4.35915900192646e-001

3.94493081797342e+004,-8.38658617909816e-001,-4.42000965719188e-001

3.99999999999998e+004,-8.38658361724715e-001,-4.48170971675915e-001

4.05583791916010e+004,-8.38658098244423e-001,-4.54427103624347e-001

4.11245530662425e+004,-8.38657827258615e-001,-4.60770563669654e-001

4.16986304336447e+004,-8.38657548550834e-001,-4.67202570691015e-001

4.22807216224550e+004,-8.38657261898056e-001,-4.73724360575372e-001

4.28709385014515e+004,-8.38656967070949e-001,-4.80337186453954e-001

4.34693945010421e+004,-8.38656663833151e-001,-4.87042318944336e-001

4.40762046350642e+004,-8.38656351941361e-001,-4.93841046392812e-001

4.46914855228886e+004,-8.38656031145114e-001,-5.00734675121865e-001

4.53153554118317e+004,-8.38655701186418e-001,-5.07724529681212e-001

4.59479341998812e+004,-8.38655361799669e-001,-5.14811953101557e-001

4.65893434587380e+004,-8.38655012711360e-001,-5.21998307151896e-001

4.72397064571810e+004,-8.38654653639794e-001,-5.29284972601624e-001

4.78991481847569e+004,-8.38654284294805e-001,-5.36673349485287e-001

4.85677953758016e+004,-8.38653904377709e-001,-5.44164857369501e-001

4.92457765337964e+004,-8.38653513580774e-001,-5.51760935627494e-001

4.99332219560642e+004,-8.38653111586939e-001,-5.59463043714123e-001

5.06302637588109e+004,-8.38652698069864e-001,-5.67272661445172e-001

5.13370359025159e+004,-8.38652272693150e-001,-5.75191289282509e-001

5.20536742176771e+004,-8.38651835110349e-001,-5.83220448621105e-001

5.27803164309155e+004,-8.38651384964689e-001,-5.91361682079767e-001

5.35171021914442e+004,-8.38650921888380e-001,-5.99616553799378e-001

5.42641730979066e+004,-8.38650445502663e-001,-6.07986649740342e-001

5.50216727255895e+004,-8.38649955417338e-001,-6.16473577987904e-001

5.57897466540159e+004,-8.38649451230175e-001,-6.25078969061014e-001

5.65685424949235e+004,-8.38648932526764e-001,-6.33804476223500e-001

5.73582099206328e+004,-8.38648398880194e-001,-6.42651775801792e-001

5.81589006928121e+004,-8.38647849850487e-001,-6.51622567506006e-001

5.89707686916437e+004,-8.38647284984067e-001,-6.60718574756798e-001

5.97939699453972e+004,-8.38646703813606e-001,-6.69941545013883e-001

6.06286626604156e+004,-8.38646105857429e-001,-6.79293250112396e-001

6.14750072515201e+004,-8.38645490619009e-001,-6.88775486602093e-001

6.23331663728396e+004,-8.38644857586578e-001,-6.98390076091660e-001

6.32033049490698e+004,-8.38644206232480e-001,-7.08138865597952e-001

6.40855902071694e+004,-8.38643536012903e-001,-7.18023727899341e-001

6.49801917084985e+004,-8.38642846367128e-001,-7.28046561895283e-001

6.58872813814055e+004,-8.38642136716978e-001,-7.38209292970394e-001

6.68070335542691e+004,-8.38641406466420e-001,-7.48513873362066e-001

6.77396249890018e+004,-8.38640655000836e-001,-7.58962282536247e-001

6.86852349150199e+004,-8.38639881686368e-001,-7.69556527565141e-001

6.96440450636895e+004,-8.38639085869444e-001,-7.80298643513273e-001

7.06162397032520e+004,-8.38638266875992e-001,-7.91190693825625e-001

7.16020056742374e+004,-8.38637424010671e-001,-8.02234770724931e-001

7.26015324253724e+004,-8.38636556556439e-001,-8.13432995610622e-001

7.36150120499896e+004,-8.38635663773605e-001,-8.24787519466305e-001

7.46426393229441e+004,-8.38634744899130e-001,-8.36300523271105e-001

7.56846117380472e+004,-8.38633799145846e-001,-8.47974218418275e-001

7.67411295460207e+004,-8.38632825701649e-001,-8.59810847137807e-001

7.78123957929823e+004,-8.38631823728605e-001,-8.71812682926913e-001

7.88986163594682e+004,-8.38630792362128e-001,-8.83982030984572e-001

7.99999999999995e+004,-8.38629730710131e-001,-8.96321228653392e-001

8.11167583832018e+004,-8.38628637851972e-001,-9.08832645866739e-001

8.22491061324848e+004,-8.38627512837512e-001,-9.21518685604020e-001

8.33972608672892e+004,-8.38626354686295e-001,-9.34381784348988e-001

8.45614432449099e+004,-8.38625162386051e-001,-9.47424412558285e-001

8.57418770029029e+004,-8.38623934892166e-001,-9.60649075132788e-001

8.69387890020841e+004,-8.38622671126346e-001,-9.74058311897795e-001

8.81524092701283e+004,-8.38621369975207e-001,-9.87654698090723e-001

8.93829710457770e+004,-8.38620030289485e-001,-1.00144084485215e+000

9.06307108236633e+004,-8.38618650882556e-001,-1.01541939972727e+000

9.18958683997622e+004,-8.38617230529192e-001,-1.02959304717311e+000

9.31786869174758e+004,-8.38615767964259e-001,-1.04396450907090e+000

9.44794129143618e+004,-8.38614261881337e-001,-1.05853654524911e+000

9.57982963695136e+004,-8.38612710931298e-001,-1.07331195401107e+000

9.71355907516031e+004,-8.38611113720741e-001,-1.08829357267150e+000

9.84915530675926e+004,-8.38609468810598e-001,-1.10348427809901e+000

9.98664439121282e+004,-8.38607774714461e-001,-1.11888698726774e+000

1.01260527517622e+005,-8.38606029896973e-001,-1.13450465781602e+000

1.02674071805032e+005,-8.38604232772167e-001,-1.15034028861254e+000

1.04107348435354e+005,-8.38602381701454e-001,-1.16639692033156e+000

1.05560632861831e+005,-8.38600474992278e-001,-1.18267763603403e+000

1.07034204382888e+005,-8.38598510895767e-001,-1.19918556175993e+000

1.08528346195813e+005,-8.38596487605126e-001,-1.21592386712544e+000

1.10043345451179e+005,-8.38594403253398e-001,-1.23289576593154e+000

1.11579493308032e+005,-8.38592255911391e-001,-1.25010451677984e+000

1.13137084989847e+005,-8.38590043585708e-001,-1.26755342369595e+000

1.14716419841265e+005,-8.38587764216308e-001,-1.28524583676372e+000

1.16317801385624e+005,-8.38585415674267e-001,-1.30318515276734e+000

1.17941537383287e+005,-8.38582995759418e-001,-1.32137481584232e+000

1.19587939890794e+005,-8.38580502197908e-001,-1.33981831813554e+000

1.21257325320831e+005,-8.38577932639542e-001,-1.35851920047572e+000

1.22950014503040e+005,-8.38575284655281e-001,-1.37748105305138e+000

1.24666332745679e+005,-8.38572555734329e-001,-1.39670751610094e+000

1.26406609898139e+005,-8.38569743281518e-001,-1.41620228061020e+000

1.28171180414339e+005,-8.38566844614341e-001,-1.43596908902054e+000

1.29960383416997e+005,-8.38563856959817e-001,-1.45601173594784e+000

1.31774562762811e+005,-8.38560777451673e-001,-1.47633406891023e+000

1.33614067108538e+005,-8.38557603126789e-001,-1.49693998906770e+000

1.35479249978003e+005,-8.38554330922321e-001,-1.51783345197037e+000

1.37370469830040e+005,-8.38550957671806e-001,-1.53901846831954e+000

1.39288090127379e+005,-8.38547480102038e-001,-1.56049910473707e+000

1.41232479406504e+005,-8.38543894829433e-001,-1.58227948454786e+000

1.43204011348474e+005,-8.38540198355994e-001,-1.60436378857239e+000

1.45203064850745e+005,-8.38536387065776e-001,-1.62675625593083e+000

1.47230024099979e+005,-8.38532457220816e-001,-1.64946118485807e+000

1.49285278645888e+005,-8.38528404957007e-001,-1.67248293353155e+000

1.51369223476094e+005,-8.38524226280017e-001,-1.69582592090932e+000

1.53482259092041e+005,-8.38519917060790e-001,-1.71949462758189e+000

1.55624791585964e+005,-8.38515473031376e-001,-1.74349359663434e+000

1.57797232718936e+005,-8.38510889780044e-001,-1.76782743452239e+000

1.59999999999999e+005,-8.38506162746863e-001,-1.79250081195993e+000

1.62233516766403e+005,-8.38501287218641e-001,-1.81751846482006e+000

1.64498212264969e+005,-8.38496258324087e-001,-1.84288519504853e+000

1.66794521734578e+005,-8.38491071028820e-001,-1.86860587158990e+000

1.69122886489819e+005,-8.38485720129805e-001,-1.89468543132879e+000

1.71483754005805e+005,-8.38480200250354e-001,-1.92112888004161e+000

1.73877578004168e+005,-8.38474505834363e-001,-1.94794129336586e+000

1.76304818540256e+005,-8.38468631140800e-001,-1.97512781777924e+000

1.78765942091554e+005,-8.38462570237801e-001,-2.00269367159653e+000

1.81261421647326e+005,-8.38456316996832e-001,-2.03064414597809e+000

1.83791736799524e+005,-8.38449865086610e-001,-2.05898460595449e+000

1.86357373834951e+005,-8.38443207966684e-001,-2.08772049146567e+000

1.88958825828723e+005,-8.38436338881446e-001,-2.11685731841405e+000

1.91596592739027e+005,-8.38429250853083e-001,-2.14640067973448e+000

1.94271181503206e+005,-8.38421936675395e-001,-2.17635624647829e+000

1.96983106135185e+005,-8.38414388906734e-001,-2.20672976891326e+000

1.99732887824256e+005,-8.38406599863016e-001,-2.23752707764019e+000

2.02521055035243e+005,-8.38398561610676e-001,-2.26875408472491e+000

2.05348143610063e+005,-8.38390265959313e-001,-2.30041678484662e+000

2.08214696870707e+005,-8.38381704454375e-001,-2.33252125646277e+000

2.11121265723661e+005,-8.38372868369462e-001,-2.36507366299151e+000

2.14068408765776e+005,-8.38363748698624e-001,-2.39808025401002e+000

2.17056692391625e+005,-8.38354336148433e-001,-2.43154736647139e+000

2.20086690902357e+005,-8.38344621130062e-001,-2.46548142593726e+000

2.23158986616063e+005,-8.38334593750919e-001,-2.49988894783071e+000

2.26274169979693e+005,-8.38324243806254e-001,-2.53477653870483e+000

2.29432839682530e+005,-8.38313560770868e-001,-2.57015089753071e+000

2.32635602771247e+005,-8.38302533790276e-001,-2.60601881700354e+000

2.35883074766574e+005,-8.38291151671770e-001,-2.64238718486851e+000

2.39175879781588e+005,-8.38279402875487e-001,-2.67926298526411e+000

2.42514650641661e+005,-8.38267275505438e-001,-2.71665330008520e+000

2.45900029006080e+005,-8.38254757299806e-001,-2.75456531036703e+000

2.49332665491357e+005,-8.38241835621696e-001,-2.79300629768689e+000

2.52813219796278e+005,-8.38228497449395e-001,-2.83198364558739e+000

2.56342360828676e+005,-8.38214729366518e-001,-2.87150484101919e+000

2.59920766833993e+005,-8.38200517551915e-001,-2.91157747580483e+000

2.63549125525621e+005,-8.38185847769584e-001,-2.95220924812320e+000

2.67228134217075e+005,-8.38170705358277e-001,-2.99340796401475e+000

2.70958499956006e+005,-8.38155075220729e-001,-3.03518153890913e+000

2.74740939660078e+005,-8.38138941813172e-001,-3.07753799917323e+000

2.78576180254757e+005,-8.38122289134199e-001,-3.12048548368200e+000

2.82464958813007e+005,-8.38105100713637e-001,-3.16403224541136e+000

2.86408022696948e+005,-8.38087359601196e-001,-3.20818665305331e+000

2.90406129701488e+005,-8.38069048354688e-001,-3.25295719265452e+000

2.94460048199957e+005,-8.38050149028612e-001,-3.29835246927698e+000

2.98570557291775e+005,-8.38030643161651e-001,-3.34438120868329e+000

3.02738446952187e+005,-8.38010511764734e-001,-3.39105225904426e+000

3.06964518184081e+005,-8.37989735308267e-001,-3.43837459267200e+000

3.11249583171928e+005,-8.37968293709358e-001,-3.48635730777653e+000

3.15594465437872e+005,-8.37946166318914e-001,-3.53500963024644e+000

3.19999999999997e+005,-8.37923331908043e-001,-3.58434091545632e+000

3.24467033532806e+005,-8.37899768654544e-001,-3.63436065009721e+000

3.28996424529938e+005,-8.37875454128883e-001,-3.68507845403491e+000

3.33589043469155e+005,-8.37850365279914e-001,-3.73650408219262e+000

3.38245772979638e+005,-8.37824478420242e-001,-3.78864742646085e+000

3.42967508011610e+005,-8.37797769211210e-001,-3.84151851763357e+000

3.47755156008335e+005,-8.37770212647540e-001,-3.89512752737208e+000

3.52609637080511e+005,-8.37741783041637e-001,-3.94948477019516e+000

3.57531884183106e+005,-8.37712454007322e-001,-4.00460070549851e+000

3.62522843294651e+005,-8.37682198443341e-001,-4.06048593960157e+000

3.67583473599047e+005,-8.37650988516344e-001,-4.11715122782280e+000

3.72714747669902e+005,-8.37618795643255e-001,-4.17460747658500e+000

3.77917651657445e+005,-8.37585590473450e-001,-4.23286574554913e+000

3.83193185478053e+005,-8.37551342870145e-001,-4.29193724977898e+000

3.88542363006410e+005,-8.37516021891396e-001,-4.35183336193560e+000

3.93966212270369e+005,-8.37479595770666e-001,-4.41256561450263e+000

3.99465775648511e+005,-8.37442031896438e-001,-4.47414570204333e+000

4.05042110070485e+005,-8.37403296791682e-001,-4.53658548348955e+000

4.10696287220124e+005,-8.37363356092353e-001,-4.59989698446243e+000

4.16429393741414e+005,-8.37322174525401e-001,-4.66409239962689e+000

4.22242531447321e+005,-8.37279715886151e-001,-4.72918409507832e+000

4.28136817531551e+005,-8.37235943014879e-001,-4.79518461076421e+000

4.34113384783250e+005,-8.37190817772678e-001,-4.86210666293990e+000

4.40173381804713e+005,-8.37144301016571e-001,-4.92996314665984e+000

4.46317973232124e+005,-8.37096352574043e-001,-4.99876713830320e+000

4.52548339959385e+005,-8.37046931216419e-001,-5.06853189813754e+000

4.58865679365059e+005,-8.36995994631831e-001,-5.13927087291778e+000

4.65271205542494e+005,-8.36943499396843e-001,-5.21099769852376e+000

4.71766149533147e+005,-8.36889400947797e-001,-5.28372620263517e+000

4.78351759563174e+005,-8.36833653550540e-001,-5.35747040744577e+000

4.85029301283321e+005,-8.36776210270078e-001,-5.43224453241666e+000

4.91800058012158e+005,-8.36717022938306e-001,-5.50806299707045e+000

4.98665330982714e+005,-8.36656042121642e-001,-5.58494042382485e+000

5.05626439592555e+005,-8.36593217087134e-001,-5.66289164086915e+000

5.12684721657352e+005,-8.36528495767556e-001,-5.74193168508286e+000

5.19841533667984e+005,-8.36461824725732e-001,-5.82207580499611e+000

5.27098251051240e+005,-8.36393149117393e-001,-5.90333946379590e+000

5.34456268434150e+005,-8.36322412653313e-001,-5.98573834237454e+000

5.41916999912011e+005,-8.36249557559906e-001,-6.06928834242565e+000

