Freq.,VOut,OutRef

1.00000000000000e+004,-1.56776097735420e+001,-1.00249242010618e-001

1.01395947979003e+004,-1.56776105913915e+001,-1.01648538899250e-001

1.02811382665607e+004,-1.56776114322053e+001,-1.03067363711527e-001

1.04246576084112e+004,-1.56776122966272e+001,-1.04505988814874e-001

1.05701804056138e+004,-1.56776131853193e+001,-1.05964690364549e-001

1.07177346253629e+004,-1.56776140989619e+001,-1.07443748364522e-001

1.08673486252606e+004,-1.56776150382547e+001,-1.08943446713235e-001

1.10190511587661e+004,-1.56776160039168e+001,-1.10464073262270e-001

1.11728713807222e+004,-1.56776169966873e+001,-1.12005919870136e-001

1.13288388529580e+004,-1.56776180173263e+001,-1.13569282455473e-001

1.14869835499703e+004,-1.56776190666144e+001,-1.15154461059870e-001

1.16473358646846e+004,-1.56776201453549e+001,-1.16761759893771e-001

1.18099266142953e+004,-1.56776212543729e+001,-1.18391487404794e-001

1.19747870461893e+004,-1.56776223945168e+001,-1.20043956330502e-001

1.21419488439505e+004,-1.56776235666589e+001,-1.21719483757949e-001

1.23114441334492e+004,-1.56776247716954e+001,-1.23418391187182e-001

1.24833054890161e+004,-1.56776260105476e+001,-1.25141004589101e-001

1.26575659397028e+004,-1.56776272841629e+001,-1.26887654466259e-001

1.28342589756290e+004,-1.56776285935149e+001,-1.28658675918171e-001

1.30134185544193e+004,-1.56776299396039e+001,-1.30454408706588e-001

1.31950791077289e+004,-1.56776313234591e+001,-1.32275197311476e-001

1.33792755478611e+004,-1.56776327461375e+001,-1.34121391005592e-001

1.35660432744767e+004,-1.56776342087260e+001,-1.35993343914848e-001

1.37554181813974e+004,-1.56776357123415e+001,-1.37891415087510e-001

1.39474366635040e+004,-1.56776372581324e+001,-1.39815968560654e-001

1.41421356237309e+004,-1.56776388472789e+001,-1.41767373428438e-001

1.43395524801583e+004,-1.56776404809939e+001,-1.43746003915722e-001

1.45397251732031e+004,-1.56776421605242e+001,-1.45752239443475e-001

1.47426921729110e+004,-1.56776438871517e+001,-1.47786464700953e-001

1.49484924863494e+004,-1.56776456621931e+001,-1.49849069723074e-001

1.51571656651040e+004,-1.56776474870025e+001,-1.51940449958182e-001

1.53687518128801e+004,-1.56776493629712e+001,-1.54061006344598e-001

1.55832915932100e+004,-1.56776512915295e+001,-1.56211145386163e-001

1.58008262372675e+004,-1.56776532741473e+001,-1.58391279228940e-001

1.60213975517924e+004,-1.56776553123353e+001,-1.60601825736460e-001

1.62450479271247e+004,-1.56776574076461e+001,-1.62843208571970e-001

1.64718203453514e+004,-1.56776595616757e+001,-1.65115857273488e-001

1.67017583885674e+004,-1.56776617760640e+001,-1.67420207337411e-001

1.69349062472505e+004,-1.56776640524966e+001,-1.69756700299447e-001

1.71713087287550e+004,-1.56776663927059e+001,-1.72125783814698e-001

1.74110112659224e+004,-1.56776687984723e+001,-1.74527911744999e-001

1.76540599258131e+004,-1.56776712716254e+001,-1.76963544242119e-001

1.79005014185594e+004,-1.56776738140455e+001,-1.79433147833699e-001

1.81503831063432e+004,-1.56776764276652e+001,-1.81937195508809e-001

1.84037530124975e+004,-1.56776791144703e+001,-1.84476166808329e-001

1.86606598307361e+004,-1.56776818765016e+001,-1.87050547914246e-001

1.89211529345119e+004,-1.56776847158566e+001,-1.89660831736776e-001

1.91852823865052e+004,-1.56776876346902e+001,-1.92307518011250e-001

1.94530989482457e+004,-1.56776906352176e+001,-1.94991113385431e-001

1.97246540898671e+004,-1.56776937197143e+001,-1.97712131518360e-001

1.99999999999999e+004,-1.56776968905192e+001,-2.00471093171644e-001

2.02791895958005e+004,-1.56777001500356e+001,-2.03268526307193e-001

2.05622765331213e+004,-1.56777035007329e+001,-2.06104966187123e-001

2.08493152168224e+004,-1.56777069451488e+001,-2.08980955467168e-001

2.11403608112276e+004,-1.56777104858904e+001,-2.11897044305151e-001

2.14354692507258e+004,-1.56777141256371e+001,-2.14853790452225e-001

2.17346972505211e+004,-1.56777178671415e+001,-2.17851759365335e-001

2.20381023175322e+004,-1.56777217132323e+001,-2.20891524302931e-001

2.23457427614443e+004,-1.56777256668153e+001,-2.23973666438023e-001

2.26576777059159e+004,-1.56777297308769e+001,-2.27098774956357e-001

2.29739670999406e+004,-1.56777339084848e+001,-2.30267447171333e-001

2.32946717293690e+004,-1.56777382027908e+001,-2.33480288631902e-001

2.36198532285905e+004,-1.56777426170334e+001,-2.36737913227948e-001

2.39495740923785e+004,-1.56777471545392e+001,-2.40040943310254e-001

2.42838976879009e+004,-1.56777518187263e+001,-2.43390009798431e-001

2.46228882668982e+004,-1.56777566131059e+001,-2.46785752297682e-001

2.49666109780322e+004,-1.56777615412853e+001,-2.50228819212630e-001

2.53151318794055e+004,-1.56777666069701e+001,-2.53719867868596e-001

2.56685179512580e+004,-1.56777718139667e+001,-2.57259564629188e-001

2.60268371088386e+004,-1.56777771661856e+001,-2.60848585014987e-001

2.63901582154578e+004,-1.56777826676434e+001,-2.64487613827528e-001

2.67585510957221e+004,-1.56777883224658e+001,-2.68177345272311e-001

2.71320865489533e+004,-1.56777941348909e+001,-2.71918483081788e-001

2.75108363627948e+004,-1.56778001092716e+001,-2.75711740645534e-001

2.78948733270080e+004,-1.56778062500788e+001,-2.79557841132576e-001

2.82842712474618e+004,-1.56778125619044e+001,-2.83457517627241e-001

2.86791049603164e+004,-1.56778190494646e+001,-2.87411513253243e-001

2.90794503464061e+004,-1.56778257176029e+001,-2.91420581312383e-001

2.94853843458219e+004,-1.56778325712935e+001,-2.95485485413648e-001

2.98969849726987e+004,-1.56778396156450e+001,-2.99606999609525e-001

3.03143313302078e+004,-1.56778468559029e+001,-3.03785908536351e-001

3.07375036257601e+004,-1.56778542974543e+001,-3.08023007548262e-001

3.11665831864199e+004,-1.56778619458308e+001,-3.12319102859921e-001

3.16016524745350e+004,-1.56778698067122e+001,-3.16675011687737e-001

3.20427951035848e+004,-1.56778778859305e+001,-3.21091562393260e-001

3.24900958542493e+004,-1.56778861894738e+001,-3.25569594626306e-001

3.29436406907028e+004,-1.56778947234896e+001,-3.30109959475719e-001

3.34035167771346e+004,-1.56779034942901e+001,-3.34713519611245e-001

3.38698124945009e+004,-1.56779125083549e+001,-3.39381149438731e-001

3.43426174575100e+004,-1.56779217723363e+001,-3.44113735247504e-001

3.48220225318448e+004,-1.56779312930627e+001,-3.48912175367266e-001

3.53081198516260e+004,-1.56779410775435e+001,-3.53777380318380e-001

3.58010028371187e+004,-1.56779511329740e+001,-3.58710272969549e-001

3.63007662126863e+004,-1.56779614667386e+001,-3.63711788697826e-001

3.68075060249948e+004,-1.56779720864171e+001,-3.68782875544677e-001

3.73213196614721e+004,-1.56779829997880e+001,-3.73924494379161e-001

3.78423058690237e+004,-1.56779942148345e+001,-3.79137619059496e-001

3.83705647730104e+004,-1.56780057397486e+001,-3.84423236598621e-001

3.89061978964912e+004,-1.56780175829365e+001,-3.89782347329323e-001

3.94493081797342e+004,-1.56780297530241e+001,-3.95215965070204e-001

3.99999999999998e+004,-1.56780422588614e+001,-4.00725117298727e-001

4.05583791916010e+004,-1.56780551095281e+001,-4.06310845320632e-001

4.11245530662425e+004,-1.56780683143397e+001,-4.11974204439290e-001

4.16986304336447e+004,-1.56780818828522e+001,-4.17716264133621e-001

4.22807216224550e+004,-1.56780958248679e+001,-4.23538108234852e-001

4.28709385014515e+004,-1.56781101504413e+001,-4.29440835098251e-001

4.34693945010421e+004,-1.56781248698848e+001,-4.35425557789219e-001

4.40762046350642e+004,-1.56781399937746e+001,-4.41493404258014e-001

4.46914855228886e+004,-1.56781555329567e+001,-4.47645517525370e-001

4.53153554118317e+004,-1.56781714985527e+001,-4.53883055866079e-001

4.59479341998812e+004,-1.56781879019665e+001,-4.60207192993109e-001

4.65893434587380e+004,-1.56782047548903e+001,-4.66619118245937e-001

4.72397064571810e+004,-1.56782220693108e+001,-4.73120036778482e-001

4.78991481847569e+004,-1.56782398575155e+001,-4.79711169750512e-001

4.85677953758016e+004,-1.56782581321001e+001,-4.86393754516502e-001

4.92457765337964e+004,-1.56782769059739e+001,-4.93169044822978e-001

4.99332219560642e+004,-1.56782961923674e+001,-5.00038310998695e-001

5.06302637588109e+004,-1.56783160048383e+001,-5.07002840156547e-001

5.13370359025159e+004,-1.56783363572790e+001,-5.14063936386935e-001

5.20536742176771e+004,-1.56783572639231e+001,-5.21222920957276e-001

5.27803164309155e+004,-1.56783787393524e+001,-5.28481132516485e-001

5.35171021914442e+004,-1.56784007985038e+001,-5.35839927293134e-001

5.42641730979066e+004,-1.56784234566767e+001,-5.43300679302063e-001

5.50216727255895e+004,-1.56784467295398e+001,-5.50864780546856e-001

5.57897466540159e+004,-1.56784706331380e+001,-5.58533641230236e-001

5.65685424949235e+004,-1.56784951839004e+001,-5.66308689957101e-001

5.73582099206328e+004,-1.56785203986466e+001,-5.74191373948188e-001

5.81589006928121e+004,-1.56785462945944e+001,-5.82183159248817e-001

5.89707686916437e+004,-1.56785728893670e+001,-5.90285530939787e-001

5.97939699453972e+004,-1.56786002010001e+001,-5.98499993353776e-001

6.06286626604156e+004,-1.56786282479492e+001,-6.06828070285960e-001

6.14750072515201e+004,-1.56786570490968e+001,-6.15271305214460e-001

6.23331663728396e+004,-1.56786866237597e+001,-6.23831261513289e-001

6.32033049490698e+004,-1.56787169916957e+001,-6.32509522673928e-001

6.40855902071694e+004,-1.56787481731114e+001,-6.41307692522588e-001

6.49801917084985e+004,-1.56787801886685e+001,-6.50227395443751e-001

6.58872813814055e+004,-1.56788130594913e+001,-6.59270276598543e-001

6.68070335542691e+004,-1.56788468071733e+001,-6.68438002152259e-001

6.77396249890018e+004,-1.56788814537839e+001,-6.77732259495379e-001

6.86852349150199e+004,-1.56789170218753e+001,-6.87154757470539e-001

6.96440450636895e+004,-1.56789535344884e+001,-6.96707226600005e-001

7.06162397032520e+004,-1.56789910151598e+001,-7.06391419312851e-001

7.16020056742374e+004,-1.56790294879278e+001,-7.16209110172411e-001

7.26015324253724e+004,-1.56790689773377e+001,-7.26162096110304e-001

7.36150120499896e+004,-1.56791095084484e+001,-7.36252196654226e-001

7.46426393229441e+004,-1.56791511068373e+001,-7.46481254162579e-001

7.56846117380472e+004,-1.56791937986060e+001,-7.56851134056177e-001

7.67411295460207e+004,-1.56792376103845e+001,-7.67363725056605e-001

7.78123957929823e+004,-1.56792825693364e+001,-7.78020939418626e-001

7.88986163594682e+004,-1.56793287031633e+001,-7.88824713169235e-001

7.99999999999995e+004,-1.56793760401082e+001,-7.99777006345663e-001

8.11167583832018e+004,-1.56794246089589e+001,-8.10879803237525e-001

8.22491061324848e+004,-1.56794744390518e+001,-8.22135112623886e-001

8.33972608672892e+004,-1.56795255602741e+001,-8.33544968019232e-001

8.45614432449099e+004,-1.56795780030655e+001,-8.45111427916698e-001

8.57418770029029e+004,-1.56796317984207e+001,-8.56836576032918e-001

8.69387890020841e+004,-1.56796869778896e+001,-8.68722521555702e-001

8.81524092701283e+004,-1.56797435735780e+001,-8.80771399393965e-001

8.93829710457770e+004,-1.56798016181476e+001,-8.92985370425687e-001

9.06307108236633e+004,-1.56798611448149e+001,-9.05366621753226e-001

9.18958683997622e+004,-1.56799221873497e+001,-9.17917366956714e-001

9.31786869174758e+004,-1.56799847800725e+001,-9.30639846350144e-001

9.44794129143618e+004,-1.56800489578517e+001,-9.43536327242005e-001

9.57982963695136e+004,-1.56801147560994e+001,-9.56609104195323e-001

9.71355907516031e+004,-1.56801822107665e+001,-9.69860499291174e-001

9.84915530675926e+004,-1.56802513583369e+001,-9.83292862398545e-001

9.98664439121282e+004,-1.56803222358207e+001,-9.96908571440547e-001

1.01260527517622e+005,-1.56803948807464e+001,-1.01071003267076e+000

1.02674071805032e+005,-1.56804693311519e+001,-1.02469968094842e+000

1.04107348435354e+005,-1.56805456255747e+001,-1.03887998001831e+000

1.05560632861831e+005,-1.56806238030402e+001,-1.05325342279823e+000

1.07034204382888e+005,-1.56807039030499e+001,-1.06782253166464e+000

1.08528346195813e+005,-1.56807859655672e+001,-1.08258985874889e+000

1.10043345451179e+005,-1.56808700310025e+001,-1.09755798623549e+000

1.11579493308032e+005,-1.56809561401970e+001,-1.11272952666550e+000

1.13137084989847e+005,-1.56810443344045e+001,-1.12810712324849e+000

1.14716419841265e+005,-1.56811346552724e+001,-1.14369345017862e+000

1.16317801385624e+005,-1.56812271448208e+001,-1.15949121295693e+000

1.17941537383287e+005,-1.56813218454197e+001,-1.17550314872407e+000

1.19587939890794e+005,-1.56814187997657e+001,-1.19173202659820e+000

1.21257325320831e+005,-1.56815180508554e+001,-1.20818064802128e+000

1.22950014503040e+005,-1.56816196419588e+001,-1.22485184711660e+000

1.24666332745679e+005,-1.56817236165895e+001,-1.24174849105324e+000

1.26406609898139e+005,-1.56818300184743e+001,-1.25887348042295e+000

1.28171180414339e+005,-1.56819388915197e+001,-1.27622974962588e+000

1.29960383416997e+005,-1.56820502797776e+001,-1.29382026727158e+000

1.31774562762811e+005,-1.56821642274089e+001,-1.31164803658758e+000

1.33614067108538e+005,-1.56822807786444e+001,-1.32971609584512e+000

1.35479249978003e+005,-1.56823999777450e+001,-1.34802751879667e+000

1.37370469830040e+005,-1.56825218689586e+001,-1.36658541513108e+000

1.39288090127379e+005,-1.56826464964758e+001,-1.38539293094086e+000

1.41232479406504e+005,-1.56827739043838e+001,-1.40445324920844e+000

1.43204011348474e+005,-1.56829041366173e+001,-1.42376959031116e+000

1.45203064850745e+005,-1.56830372369085e+001,-1.44334521254221e+000

1.47230024099979e+005,-1.56831732487344e+001,-1.46318341265279e+000

1.49285278645888e+005,-1.56833122152622e+001,-1.48328752641593e+000

1.51369223476094e+005,-1.56834541792931e+001,-1.50366092920986e+000

1.53482259092041e+005,-1.56835991832035e+001,-1.52430703662716e+000

1.55624791585964e+005,-1.56837472688854e+001,-1.54522930510452e+000

1.57797232718936e+005,-1.56838984776833e+001,-1.56643123258119e+000

1.59999999999999e+005,-1.56840528503312e+001,-1.58791635918150e+000

1.62233516766403e+005,-1.56842104268863e+001,-1.60968826792600e+000

1.64498212264969e+005,-1.56843712466622e+001,-1.63175058546976e+000

1.66794521734578e+005,-1.56845353481597e+001,-1.65410698287388e+000

1.69122886489819e+005,-1.56847027689965e+001,-1.67676117640466e+000

1.71483754005805e+005,-1.56848735458358e+001,-1.69971692836638e+000

1.73877578004168e+005,-1.56850477143133e+001,-1.72297804796776e+000

1.76304818540256e+005,-1.56852253089633e+001,-1.74654839222362e+000

1.78765942091554e+005,-1.56854063631438e+001,-1.77043186689106e+000

1.81261421647326e+005,-1.56855909089606e+001,-1.79463242744333e+000

1.83791736799524e+005,-1.56857789771919e+001,-1.81915408008142e+000

1.86357373834951e+005,-1.56859705972107e+001,-1.84400088278584e+000

1.88958825828723e+005,-1.56861657969083e+001,-1.86917694640710e+000

1.91596592739027e+005,-1.56863646026178e+001,-1.89468643579786e+000

1.94271181503206e+005,-1.56865670390371e+001,-1.92053357098772e+000

1.96983106135185e+005,-1.56867731291528e+001,-1.94672262840040e+000

1.99732887824256e+005,-1.56869828941653e+001,-1.97325794211425e+000

2.02521055035243e+005,-1.56871963534136e+001,-2.00014390516778e+000

2.05348143610063e+005,-1.56874135243029e+001,-2.02738497091069e+000

2.08214696870707e+005,-1.56876344222326e+001,-2.05498565439854e+000

2.11121265723661e+005,-1.56878590605269e+001,-2.08295053383550e+000

2.14068408765776e+005,-1.56880874503670e+001,-2.11128425206298e+000

2.17056692391625e+005,-1.56883196007261e+001,-2.13999151809308e+000

2.20086690902357e+005,-1.56885555183071e+001,-2.16907710869104e+000

2.23158986616063e+005,-1.56887952074838e+001,-2.19854587000253e+000

2.26274169979693e+005,-1.56890386702447e+001,-2.22840271922734e+000

2.29432839682530e+005,-1.56892859061416e+001,-2.25865264634103e+000

2.32635602771247e+005,-1.56895369122414e+001,-2.28930071585933e+000

2.35883074766574e+005,-1.56897916830833e+001,-2.32035206864954e+000

2.39175879781588e+005,-1.56900502106402e+001,-2.35181192378536e+000

2.42514650641661e+005,-1.56903124842856e+001,-2.38368558044404e+000

2.45900029006080e+005,-1.56905784907657e+001,-2.41597841984773e+000

2.49332665491357e+005,-1.56908482141773e+001,-2.44869590724412e+000

2.52813219796278e+005,-1.56911216359527e+001,-2.48184359392633e+000

2.56342360828676e+005,-1.56913987348498e+001,-2.51542711929261e+000

2.59920766833993e+005,-1.56916794869498e+001,-2.54945221293886e+000

2.63549125525621e+005,-1.56919638656616e+001,-2.58392469678910e+000

2.67228134217075e+005,-1.56922518417339e+001,-2.61885048725542e+000

2.70958499956006e+005,-1.56925433832741e+001,-2.65423559742952e+000

2.74740939660078e+005,-1.56928384557759e+001,-2.69008613930023e+000

2.78576180254757e+005,-1.56931370221542e+001,-2.72640832599829e+000

2.82464958813007e+005,-1.56934390427884e+001,-2.76320847406249e+000

2.86408022696948e+005,-1.56937444755743e+001,-2.80049300572544e+000

2.90406129701488e+005,-1.56940532759839e+001,-2.83826845121764e+000

2.94460048199957e+005,-1.56943653971342e+001,-2.87654145108514e+000

2.98570557291775e+005,-1.56946807898645e+001,-2.91531875851815e+000

3.02738446952187e+005,-1.56949994028223e+001,-2.95460724168786e+000

3.06964518184081e+005,-1.56953211825580e+001,-2.99441388609032e+000

3.11249583171928e+005,-1.56956460736279e+001,-3.03474579688941e+000

3.15594465437872e+005,-1.56959740187062e+001,-3.07561020126131e+000

3.19999999999997e+005,-1.56963049587053e+001,-3.11701445073349e+000

3.24467033532806e+005,-1.56966388329041e+001,-3.15896602351788e+000

3.28996424529938e+005,-1.56969755790850e+001,-3.20147252683202e+000

3.33589043469155e+005,-1.56973151336782e+001,-3.24454169920924e+000

3.38245772979638e+005,-1.56976574319147e+001,-3.28818141279064e+000

3.42967508011610e+005,-1.56980024079853e+001,-3.33239967560081e+000

3.47755156008335e+005,-1.56983499952079e+001,-3.37720463380058e+000

3.52609637080511e+005,-1.56987001262012e+001,-3.42260457391581e+000

3.57531884183106e+005,-1.56990527330644e+001,-3.46860792504094e+000

3.62522843294651e+005,-1.56994077475633e+001,-3.51522326101415e+000

3.67583473599047e+005,-1.56997651013221e+001,-3.56245930256102e+000

3.72714747669902e+005,-1.57001247260198e+001,-3.61032491940758e+000

3.77917651657445e+005,-1.57004865535912e+001,-3.65882913235957e+000

3.83193185478053e+005,-1.57008505164329e+001,-3.70798111534465e+000

3.88542363006410e+005,-1.57012165476119e+001,-3.75779019742240e+000

3.93966212270369e+005,-1.57015845810775e+001,-3.80826586475445e+000

3.99465775648511e+005,-1.57019545518764e+001,-3.85941776253835e+000

4.05042110070485e+005,-1.57023263963688e+001,-3.91125569690415e+000

4.10696287220124e+005,-1.57027000524467e+001,-3.96378963677262e+000

4.16429393741414e+005,-1.57030754597531e+001,-4.01702971567665e+000

4.22242531447321e+005,-1.57034525599005e+001,-4.07098623354640e+000

4.28136817531551e+005,-1.57038312966909e+001,-4.12566965845589e+000

4.34113384783250e+005,-1.57042116163335e+001,-4.18109062833842e+000

4.40173381804713e+005,-1.57045934676620e+001,-4.23725995266507e+000

4.46317973232124e+005,-1.57049768023501e+001,-4.29418861409311e+000

4.52548339959385e+005,-1.57053615751239e+001,-4.35188777008308e+000

4.58865679365059e+005,-1.57057477439732e+001,-4.41036875448858e+000

4.65271205542494e+005,-1.57061352703575e+001,-4.46964307911962e+000

4.71766149533147e+005,-1.57065241194104e+001,-4.52972243528336e+000

4.78351759563174e+005,-1.57069142601386e+001,-4.59061869530285e+000

4.85029301283321e+005,-1.57073056656171e+001,-4.65234391401956e+000

4.91800058012158e+005,-1.57076983131800e+001,-4.71491033028072e+000

4.98665330982714e+005,-1.57080921846051e+001,-4.77833036841375e+000

5.05626439592555e+005,-1.57084872662951e+001,-4.84261663969482e+000

5.12684721657352e+005,-1.57088835494513e+001,-4.90778194381100e+000

5.19841533667984e+005,-1.57092810302433e+001,-4.97383927032118e+000

5.27098251051240e+005,-1.57096797099713e+001,-5.04080180012016e+000

5.34456268434150e+005,-1.57100795952242e+001,-5.10868290690749e+000

5.41916999912011e+005,-1.57104806980298e+001,-5.17749615866708e+000

