Freq.,VOut,OutRef

1.00000000000000e+004,-1.83465887220601e+001,-1.42367003721443e-002

1.01395947979003e+004,-1.83465898964553e+001,-1.44352395748211e-002

1.02811382665607e+004,-1.83465911038223e+001,-1.46365419009219e-002

1.04246576084112e+004,-1.83465923450875e+001,-1.48406455545549e-002

1.05701804056138e+004,-1.83465936212010e+001,-1.50475892709126e-002

1.07177346253629e+004,-1.83465949331395e+001,-1.52574123124721e-002

1.08673486252606e+004,-1.83465962819068e+001,-1.54701544718201e-002

1.10190511587661e+004,-1.83465976685350e+001,-1.56858560804489e-002

1.11728713807222e+004,-1.83465990940863e+001,-1.59045580061493e-002

1.13288388529580e+004,-1.83466005596516e+001,-1.61263016740026e-002

1.14869835499703e+004,-1.83466020663516e+001,-1.63511290742927e-002

1.16473358646846e+004,-1.83466036153384e+001,-1.65790827619633e-002

1.18099266142953e+004,-1.83466052077980e+001,-1.68102058532187e-002

1.19747870461893e+004,-1.83466068449464e+001,-1.70445420649911e-002

1.21419488439505e+004,-1.83466085280381e+001,-1.72821356722209e-002

1.23114441334492e+004,-1.83466102583572e+001,-1.75230315783901e-002

1.24833054890161e+004,-1.83466120372273e+001,-1.77672752661308e-002

1.26575659397028e+004,-1.83466138660090e+001,-1.80149128268052e-002

1.28342589756290e+004,-1.83466157460985e+001,-1.82659909823230e-002

1.30134185544193e+004,-1.83466176789337e+001,-1.85205570623764e-002

1.31950791077289e+004,-1.83466196659892e+001,-1.87786590489896e-002

1.33792755478611e+004,-1.83466217087835e+001,-1.90403455451938e-002

1.35660432744767e+004,-1.83466238088768e+001,-1.93056658055528e-002

1.37554181813974e+004,-1.83466259678730e+001,-1.95746697369666e-002

1.39474366635040e+004,-1.83466281874185e+001,-1.98474079230247e-002

1.41421356237309e+004,-1.83466304692086e+001,-2.01239315978596e-002

1.43395524801583e+004,-1.83466328149837e+001,-2.04042926851315e-002

1.45397251732031e+004,-1.83466352265333e+001,-2.06885437927246e-002

1.47426921729110e+004,-1.83466377056972e+001,-2.09767382167825e-002

1.49484924863494e+004,-1.83466402543652e+001,-2.12689299626907e-002

1.51571656651040e+004,-1.83466428744808e+001,-2.15651737397442e-002

1.53687518128801e+004,-1.83466455680402e+001,-2.18655249815011e-002

1.55832915932100e+004,-1.83466483370969e+001,-2.21700398369130e-002

1.58008262372675e+004,-1.83466511837594e+001,-2.24787752008486e-002

1.60213975517924e+004,-1.83466541101967e+001,-2.27917886983547e-002

1.62450479271247e+004,-1.83466571186362e+001,-2.31091387151598e-002

1.64718203453514e+004,-1.83466602113674e+001,-2.34308843958471e-002

1.67017583885674e+004,-1.83466633907455e+001,-2.37570856349364e-002

1.69349062472505e+004,-1.83466666591872e+001,-2.40878031276591e-002

1.71713087287550e+004,-1.83466700191796e+001,-2.44230983300816e-002

1.74110112659224e+004,-1.83466734732778e+001,-2.47630334948754e-002

1.76540599258131e+004,-1.83466770241052e+001,-2.51076716897578e-002

1.79005014185594e+004,-1.83466806743618e+001,-2.54570767665908e-002

1.81503831063432e+004,-1.83466844268189e+001,-2.58113134124789e-002

1.84037530124975e+004,-1.83466882843260e+001,-2.61704471314866e-002

1.86606598307361e+004,-1.83466922498113e+001,-2.65345442577606e-002

1.89211529345119e+004,-1.83466963262843e+001,-2.69036719661375e-002

1.91852823865052e+004,-1.83467005168362e+001,-2.72778982881530e-002

1.94530989482457e+004,-1.83467048246447e+001,-2.76572921036249e-002

1.97246540898671e+004,-1.83467092529749e+001,-2.80419231612563e-002

1.99999999999999e+004,-1.83467138051807e+001,-2.84318620897452e-002

2.02791895958005e+004,-1.83467184847109e+001,-2.88271803824090e-002

2.05622765331213e+004,-1.83467232951073e+001,-2.92279504343923e-002

2.08493152168224e+004,-1.83467282400091e+001,-2.96342455392120e-002

2.11403608112276e+004,-1.83467333231563e+001,-3.00461398894033e-002

2.14354692507258e+004,-1.83467385483921e+001,-3.04637085884518e-002

2.17346972505211e+004,-1.83467439196649e+001,-3.08870276613989e-002

2.20381023175322e+004,-1.83467494410298e+001,-3.13161740707640e-002

2.23457427614443e+004,-1.83467551166566e+001,-3.17512256934968e-002

2.26576777059159e+004,-1.83467609508257e+001,-3.21922613717115e-002

2.29739670999406e+004,-1.83467669479368e+001,-3.26393608823202e-002

2.32946717293690e+004,-1.83467731125104e+001,-3.30926049580151e-002

2.36198532285905e+004,-1.83467794491893e+001,-3.35520753017405e-002

2.39495740923785e+004,-1.83467859627442e+001,-3.40178545801973e-002

2.42838976879009e+004,-1.83467926580744e+001,-3.44900264454535e-002

2.46228882668982e+004,-1.83467995402159e+001,-3.49686755151575e-002

2.49666109780322e+004,-1.83468066143383e+001,-3.54538874161217e-002

2.53151318794055e+004,-1.83468138857549e+001,-3.59457487517848e-002

2.56685179512580e+004,-1.83468213599221e+001,-3.64443471346779e-002

2.60268371088386e+004,-1.83468290424447e+001,-3.69497711823233e-002

2.63901582154578e+004,-1.83468369390808e+001,-3.74621105148396e-002

2.67585510957221e+004,-1.83468450557429e+001,-3.79814557780885e-002

2.71320865489533e+004,-1.83468533985059e+001,-3.85078986242547e-002

2.75108363627948e+004,-1.83468619736074e+001,-3.90415317407253e-002

2.78948733270080e+004,-1.83468707874547e+001,-3.95824488331526e-002

2.82842712474618e+004,-1.83468798466274e+001,-4.01307446439474e-002

2.86791049603164e+004,-1.83468891578830e+001,-4.06865149468633e-002

2.90794503464061e+004,-1.83468987281609e+001,-4.12498565520165e-002

2.94853843458219e+004,-1.83469085645886e+001,-4.18208672988497e-002

2.98969849726987e+004,-1.83469186744836e+001,-4.23996460781845e-002

3.03143313302078e+004,-1.83469290653601e+001,-4.29862928169865e-002

3.07375036257601e+004,-1.83469397449343e+001,-4.35809084835509e-002

3.11665831864199e+004,-1.83469507211289e+001,-4.41835950853601e-002

3.16016524745350e+004,-1.83469620020780e+001,-4.47944556757393e-002

3.20427951035848e+004,-1.83469735961341e+001,-4.54135943386931e-002

3.24900958542493e+004,-1.83469855118715e+001,-4.60411162014434e-002

3.29436406907028e+004,-1.83469977580914e+001,-4.66771274348864e-002

3.34035167771346e+004,-1.83470103438315e+001,-4.73217352274407e-002

3.38698124945009e+004,-1.83470232783674e+001,-4.79750478070210e-002

3.43426174575100e+004,-1.83470365712212e+001,-4.86371744190818e-002

3.48220225318448e+004,-1.83470502321674e+001,-4.93082253258290e-002

3.53081198516260e+004,-1.83470642712362e+001,-4.99883118142024e-002

3.58010028371187e+004,-1.83470786987242e+001,-5.06775461629900e-002

3.63007662126863e+004,-1.83470935251989e+001,-5.13760416481992e-002

3.68075060249948e+004,-1.83471087615029e+001,-5.20839125447280e-002

3.73213196614721e+004,-1.83471244187651e+001,-5.28012740935575e-002

3.78423058690237e+004,-1.83471405084038e+001,-5.35282425089709e-002

3.83705647730104e+004,-1.83471570421361e+001,-5.42649349543672e-002

3.89061978964912e+004,-1.83471740319830e+001,-5.50114695397205e-002

3.94493081797342e+004,-1.83471914902785e+001,-5.57679652958023e-002

3.99999999999998e+004,-1.83472094296754e+001,-5.65345421670896e-002

4.05583791916010e+004,-1.83472278631535e+001,-5.73113209911462e-002

4.11245530662425e+004,-1.83472468040283e+001,-5.80984234720580e-002

4.16986304336447e+004,-1.83472662659547e+001,-5.88959721864944e-002

4.22807216224550e+004,-1.83472862629417e+001,-5.97040905187619e-002

4.28709385014515e+004,-1.83473068093524e+001,-6.05229026889736e-002

4.34693945010421e+004,-1.83473279199191e+001,-6.13525336832374e-002

4.40762046350642e+004,-1.83473496097472e+001,-6.21931092537845e-002

4.46914855228886e+004,-1.83473718943254e+001,-6.30447558808014e-002

4.53153554118317e+004,-1.83473947895333e+001,-6.39076007496658e-002

4.59479341998812e+004,-1.83474183116502e+001,-6.47817717125456e-002

4.65893434587380e+004,-1.83474424773646e+001,-6.56673972536109e-002

4.72397064571810e+004,-1.83474673037827e+001,-6.65646064562851e-002

4.78991481847569e+004,-1.83474928084355e+001,-6.74735289718673e-002

4.85677953758016e+004,-1.83475190092908e+001,-6.83942949648724e-002

4.92457765337964e+004,-1.83475459247601e+001,-6.93270350830249e-002

4.99332219560642e+004,-1.83475735737091e+001,-7.02718804048639e-002

5.06302637588109e+004,-1.83476019754664e+001,-7.12289623949720e-002

5.13370359025159e+004,-1.83476311498326e+001,-7.21984128573449e-002

5.20536742176771e+004,-1.83476611170902e+001,-7.31803638803185e-002

5.27803164309155e+004,-1.83476918980136e+001,-7.41749477774270e-002

5.35171021914442e+004,-1.83477235138771e+001,-7.51822970388055e-002

5.42641730979066e+004,-1.83477559864657e+001,-7.62025442649628e-002

5.50216727255895e+004,-1.83477893380860e+001,-7.72358220945275e-002

5.57897466540159e+004,-1.83478235915731e+001,-7.82822631540321e-002

5.65685424949235e+004,-1.83478587703022e+001,-7.93419999760301e-002

5.73582099206328e+004,-1.83478948981970e+001,-8.04151649364938e-002

5.81589006928121e+004,-1.83479319997416e+001,-8.15018901597653e-002

5.89707686916437e+004,-1.83479700999881e+001,-8.26023074557363e-002

5.97939699453972e+004,-1.83480092245674e+001,-8.37165482271715e-002

6.06286626604156e+004,-1.83480493996983e+001,-8.48447433847944e-002

6.14750072515201e+004,-1.83480906521971e+001,-8.59870232552089e-002

6.23331663728396e+004,-1.83481330094866e+001,-8.71435174913880e-002

6.32033049490698e+004,-1.83481764996074e+001,-8.83143549572832e-002

6.40855902071694e+004,-1.83482211512247e+001,-8.94996636439005e-002

6.49801917084985e+004,-1.83482669936392e+001,-9.06995705456911e-002

6.58872813814055e+004,-1.83483140567952e+001,-9.19142015576449e-002

6.68070335542691e+004,-1.83483623712890e+001,-9.31436813589064e-002

6.77396249890018e+004,-1.83484119683785e+001,-9.43881332870113e-002

6.86852349150199e+004,-1.83484628799916e+001,-9.56476792081113e-002

6.96440450636895e+004,-1.83485151387326e+001,-9.69224394005784e-002

7.06162397032520e+004,-1.83485687778912e+001,-9.82125324101775e-002

7.16020056742374e+004,-1.83486238314511e+001,-9.95180749023346e-002

7.26015324253724e+004,-1.83486803340937e+001,-1.00839181537799e-001

7.36150120499896e+004,-1.83487383212088e+001,-1.02175964797519e-001

7.46426393229441e+004,-1.83487978288977e+001,-1.03528534846809e-001

7.56846117380472e+004,-1.83488588939810e+001,-1.04896999360660e-001

7.67411295460207e+004,-1.83489215540028e+001,-1.06281463365703e-001

7.78123957929823e+004,-1.83489858472357e+001,-1.07682029065418e-001

7.88986163594682e+004,-1.83490518126857e+001,-1.09098795659625e-001

7.99999999999995e+004,-1.83491194900953e+001,-1.10531859163555e-001

8.11167583832018e+004,-1.83491889199451e+001,-1.11981312227196e-001

8.22491061324848e+004,-1.83492601434585e+001,-1.13447243924739e-001

8.33972608672892e+004,-1.83493332026019e+001,-1.14929739563532e-001

8.45614432449099e+004,-1.83494081400837e+001,-1.16428880487262e-001

8.57418770029029e+004,-1.83494849993576e+001,-1.17944743842532e-001

8.69387890020841e+004,-1.83495638246176e+001,-1.19477402382850e-001

8.81524092701283e+004,-1.83496446607981e+001,-1.21026924236877e-001

8.93829710457770e+004,-1.83497275535703e+001,-1.22593372675442e-001

9.06307108236633e+004,-1.83498125493374e+001,-1.24176805885932e-001

9.18958683997622e+004,-1.83498996952293e+001,-1.25777276726938e-001

9.31786869174758e+004,-1.83499890390958e+001,-1.27394832486316e-001

9.44794129143618e+004,-1.83500806294982e+001,-1.29029514630128e-001

9.57982963695136e+004,-1.83501745157005e+001,-1.30681358545670e-001

9.71355907516031e+004,-1.83502707476587e+001,-1.32350393277727e-001

9.84915530675926e+004,-1.83503693760066e+001,-1.34036641273916e-001

9.98664439121282e+004,-1.83504704520448e+001,-1.35740118098217e-001

1.01260527517622e+005,-1.83505740277216e+001,-1.37460832172618e-001

1.02674071805032e+005,-1.83506801556197e+001,-1.39198784479923e-001

1.04107348435354e+005,-1.83507888889319e+001,-1.40953968304186e-001

1.05560632861831e+005,-1.83509002814452e+001,-1.42726368919167e-001

1.07034204382888e+005,-1.83510143875142e+001,-1.44515963314385e-001

1.08528346195813e+005,-1.83511312620373e+001,-1.46322719897594e-001

1.10043345451179e+005,-1.83512509604290e+001,-1.48146598201204e-001

1.11579493308032e+005,-1.83513735385911e+001,-1.49987548579208e-001

1.13137084989847e+005,-1.83514990528808e+001,-1.51845511911535e-001

1.14716419841265e+005,-1.83516275600758e+001,-1.53720419306500e-001

1.16317801385624e+005,-1.83517591173385e+001,-1.55612191795812e-001

1.17941537383287e+005,-1.83518937821763e+001,-1.57520740039082e-001

1.19587939890794e+005,-1.83520316124006e+001,-1.59445964017253e-001

1.21257325320831e+005,-1.83521726660819e+001,-1.61387752739130e-001

1.22950014503040e+005,-1.83523170015032e+001,-1.63345983942400e-001

1.24666332745679e+005,-1.83524646771086e+001,-1.65320523807681e-001

1.26406609898139e+005,-1.83526157514526e+001,-1.67311226656410e-001

1.28171180414339e+005,-1.83527702831423e+001,-1.69317934679424e-001

1.29960383416997e+005,-1.83529283307801e+001,-1.71340477649192e-001

1.31774562762811e+005,-1.83530899529005e+001,-1.73378672652736e-001

1.33614067108538e+005,-1.83532552079066e+001,-1.75432323822883e-001

1.35479249978003e+005,-1.83534241540008e+001,-1.77501222083728e-001

1.37370469830040e+005,-1.83535968491137e+001,-1.79585144909033e-001

1.39288090127379e+005,-1.83537733508298e+001,-1.81683856081886e-001

1.41232479406504e+005,-1.83539537163095e+001,-1.83797105473234e-001

1.43204011348474e+005,-1.83541380022085e+001,-1.85924628833199e-001

1.45203064850745e+005,-1.83543262645927e+001,-1.88066147600365e-001

1.47230024099979e+005,-1.83545185588516e+001,-1.90221368716701e-001

1.49285278645888e+005,-1.83547149396065e+001,-1.92389984474354e-001

1.51369223476094e+005,-1.83549154606174e+001,-1.94571672370269e-001

1.53482259092041e+005,-1.83551201746855e+001,-1.96766094987237e-001

1.55624791585964e+005,-1.83553291335526e+001,-1.98972899894399e-001

1.57797232718936e+005,-1.83555423877989e+001,-2.01191719570585e-001

1.59999999999999e+005,-1.83557599867347e+001,-2.03422171363200e-001

1.62233516766403e+005,-1.83559819782939e+001,-2.05663857450748e-001

1.64498212264969e+005,-1.83562084089198e+001,-2.07916364860574e-001

1.66794521734578e+005,-1.83564393234517e+001,-2.10179265499832e-001

1.69122886489819e+005,-1.83566747650084e+001,-2.12452116217930e-001

1.71483754005805e+005,-1.83569147748674e+001,-2.14734458914037e-001

1.73877578004168e+005,-1.83571593923445e+001,-2.17025820668167e-001

1.76304818540256e+005,-1.83574086546706e+001,-2.19325713908758e-001

1.78765942091554e+005,-1.83576625968658e+001,-2.21633636626140e-001

1.81261421647326e+005,-1.83579212516133e+001,-2.23949072619847e-001

1.83791736799524e+005,-1.83581846491318e+001,-2.26271491783377e-001

1.86357373834951e+005,-1.83584528170462e+001,-2.28600350439077e-001

1.88958825828723e+005,-1.83587257802583e+001,-2.30935091712553e-001

1.91596592739027e+005,-1.83590035608178e+001,-2.33275145946727e-001

1.94271181503206e+005,-1.83592861777919e+001,-2.35619931170814e-001

1.96983106135185e+005,-1.83595736471354e+001,-2.37968853612612e-001

1.99732887824256e+005,-1.83598659815636e+001,-2.40321308253681e-001

2.02521055035243e+005,-1.83601631904228e+001,-2.42676679442772e-001

2.05348143610063e+005,-1.83604652795668e+001,-2.45034341544905e-001

2.08214696870707e+005,-1.83607722512300e+001,-2.47393659660573e-001

2.11121265723661e+005,-1.83610841039077e+001,-2.49753990372138e-001

2.14068408765776e+005,-1.83614008322369e+001,-2.52114682557829e-001

2.17056692391625e+005,-1.83617224268801e+001,-2.54475078249639e-001

2.20086690902357e+005,-1.83620488744146e+001,-2.56834513538506e-001

2.23158986616063e+005,-1.83623801572239e+001,-2.59192319540211e-001

2.26274169979693e+005,-1.83627162533962e+001,-2.61547823393961e-001

2.29432839682530e+005,-1.83630571366261e+001,-2.63900349327853e-001

2.32635602771247e+005,-1.83634027761235e+001,-2.66249219758520e-001

2.35883074766574e+005,-1.83637531365277e+001,-2.68593756444168e-001

2.39175879781588e+005,-1.83641081778292e+001,-2.70933281679904e-001

2.42514650641661e+005,-1.83644678552986e+001,-2.73267119534189e-001

2.45900029006080e+005,-1.83648321194225e+001,-2.75594597132919e-001

2.49332665491357e+005,-1.83652009158481e+001,-2.77915045978598e-001

2.52813219796278e+005,-1.83655741853375e+001,-2.80227803302150e-001

2.56342360828676e+005,-1.83659518637297e+001,-2.82532213454008e-001

2.59920766833993e+005,-1.83663338819122e+001,-2.84827629328906e-001

2.63549125525621e+005,-1.83667201658042e+001,-2.87113413809467e-001

2.67228134217075e+005,-1.83671106363485e+001,-2.89388941239590e-001

2.70958499956006e+005,-1.83675052095151e+001,-2.91653598918879e-001

2.74740939660078e+005,-1.83679037963155e+001,-2.93906788610519e-001

2.78576180254757e+005,-1.83683063028285e+001,-2.96147928066664e-001

2.82464958813007e+005,-1.83687126302373e+001,-2.98376452557196e-001

2.86408022696948e+005,-1.83691226748794e+001,-3.00591816404161e-001

2.90406129701488e+005,-1.83695363283068e+001,-3.02793494519384e-001

2.94460048199957e+005,-1.83699534773601e+001,-3.04980983930213e-001

2.98570557291775e+005,-1.83703740042536e+001,-3.07153805303191e-001

3.02738446952187e+005,-1.83707977866734e+001,-3.09311504439659e-001

3.06964518184081e+005,-1.83712246978871e+001,-3.11453653769333e-001

3.11249583171928e+005,-1.83716546068659e+001,-3.13579853802104e-001

3.15594465437872e+005,-1.83720873784190e+001,-3.15689734558935e-001

3.19999999999997e+005,-1.83725228733390e+001,-3.17782956965010e-001

3.24467033532806e+005,-1.83729609485596e+001,-3.19859214206104e-001

3.28996424529938e+005,-1.83734014573250e+001,-3.21918233028188e-001

3.33589043469155e+005,-1.83738442493682e+001,-3.23959775006281e-001

3.38245772979638e+005,-1.83742891711028e+001,-3.25983637737556e-001

3.42967508011610e+005,-1.83747360658223e+001,-3.27989655992476e-001

3.47755156008335e+005,-1.83751847739101e+001,-3.29977702792991e-001

3.52609637080511e+005,-1.83756351330588e+001,-3.31947690424418e-001

3.57531884183106e+005,-1.83760869784973e+001,-3.33899571374694e-001

3.62522843294651e+005,-1.83765401432260e+001,-3.35833339203486e-001

3.67583473599047e+005,-1.83769944582585e+001,-3.37749029326017e-001

3.72714747669902e+005,-1.83774497528707e+001,-3.39646719719305e-001

3.77917651657445e+005,-1.83779058548548e+001,-3.41526531540000e-001

3.83193185478053e+005,-1.83783625907775e+001,-3.43388629662114e-001

3.88542363006410e+005,-1.83788197862441e+001,-3.45233223115027e-001

3.93966212270369e+005,-1.83792772661634e+001,-3.47060565441373e-001

3.99465775648511e+005,-1.83797348550164e+001,-3.48870954959024e-001

4.05042110070485e+005,-1.83801923771262e+001,-3.50664734926521e-001

4.10696287220124e+005,-1.83806496569281e+001,-3.52442293621294e-001

4.16429393741414e+005,-1.83811065192386e+001,-3.54204064325086e-001

4.22242531447321e+005,-1.83815627895261e+001,-3.55950525205586e-001

4.28136817531551e+005,-1.83820182941747e+001,-3.57682199125118e-001

4.34113384783250e+005,-1.83824728607507e+001,-3.59399653336079e-001

4.40173381804713e+005,-1.83829263182594e+001,-3.61103499110173e-001

4.46317973232124e+005,-1.83833784974028e+001,-3.62794391260375e-001

4.52548339959385e+005,-1.83838292308275e+001,-3.64473027590324e-001

4.58865679365059e+005,-1.83842783533690e+001,-3.66140148258282e-001

4.65271205542494e+005,-1.83847257022882e+001,-3.67796535059381e-001

4.71766149533147e+005,-1.83851711175001e+001,-3.69443010633898e-001

4.78351759563174e+005,-1.83856144417946e+001,-3.71080437606995e-001

4.85029301283321e+005,-1.83860555210481e+001,-3.72709717652120e-001

4.91800058012158e+005,-1.83864942044260e+001,-3.74331790497930e-001

4.98665330982714e+005,-1.83869303445747e+001,-3.75947632870650e-001

5.05626439592555e+005,-1.83873637978036e+001,-3.77558257383620e-001

5.12684721657352e+005,-1.83877944242563e+001,-3.79164711373612e-001

5.19841533667984e+005,-1.83882220880700e+001,-3.80768075697418e-001

5.27098251051240e+005,-1.83886466575240e+001,-3.82369463478345e-001

5.34456268434150e+005,-1.83890680051762e+001,-3.83970018825775e-001

5.41916999912011e+005,-1.83894860079873e+001,-3.85570915521611e-001

