Freq.,VOut,OutRef

1.00000000000000e+004,-1.93534332736278e+001,-2.84465755466793e-001

1.01395947979003e+004,-1.93534356962233e+001,-2.88436452749716e-001

1.02811382665607e+004,-1.93534381868633e+001,-2.92462566313997e-001

1.04246576084112e+004,-1.93534407474572e+001,-2.96544869207340e-001

1.05701804056138e+004,-1.93534433799679e+001,-3.00684145247274e-001

1.07177346253629e+004,-1.93534460864132e+001,-3.04881189169587e-001

1.08673486252606e+004,-1.93534488688673e+001,-3.09136806779002e-001

1.10190511587661e+004,-1.93534517294626e+001,-3.13451815104252e-001

1.11728713807222e+004,-1.93534546703912e+001,-3.17827042550945e-001

1.13288388529580e+004,-1.93534576939065e+001,-3.22263329063014e-001

1.14869835499703e+004,-1.93534608023249e+001,-3.26761526279298e-001

1.16473358646846e+004,-1.93534639980278e+001,-3.31322497697142e-001

1.18099266142953e+004,-1.93534672834630e+001,-3.35947118836933e-001

1.19747870461893e+004,-1.93534706611469e+001,-3.40636277406734e-001

1.21419488439505e+004,-1.93534741336664e+001,-3.45390873473688e-001

1.23114441334492e+004,-1.93534777036805e+001,-3.50211819633033e-001

1.24833054890161e+004,-1.93534813739227e+001,-3.55100041182907e-001

1.26575659397028e+004,-1.93534851472029e+001,-3.60056476298173e-001

1.28342589756290e+004,-1.93534890264096e+001,-3.65082076210917e-001

1.30134185544193e+004,-1.93534930145120e+001,-3.70177805389467e-001

1.31950791077289e+004,-1.93534971145622e+001,-3.75344641721616e-001

1.33792755478611e+004,-1.93535013296977e+001,-3.80583576700219e-001

1.35660432744767e+004,-1.93535056631434e+001,-3.85895615612461e-001

1.37554181813974e+004,-1.93535101182147e+001,-3.91281777726644e-001

1.39474366635040e+004,-1.93535146983191e+001,-3.96743096490617e-001

1.41421356237309e+004,-1.93535194069597e+001,-4.02280619722332e-001

1.43395524801583e+004,-1.93535242477371e+001,-4.07895409812777e-001

1.45397251732031e+004,-1.93535292243523e+001,-4.13588543923464e-001

1.47426921729110e+004,-1.93535343406098e+001,-4.19361114191792e-001

1.49484924863494e+004,-1.93535396004201e+001,-4.25214227937296e-001

1.51571656651040e+004,-1.93535450078030e+001,-4.31149007870310e-001

1.53687518128801e+004,-1.93535505668901e+001,-4.37166592305512e-001

1.55832915932100e+004,-1.93535562819283e+001,-4.43268135375875e-001

1.58008262372675e+004,-1.93535621572828e+001,-4.49454807249804e-001

1.60213975517924e+004,-1.93535681974406e+001,-4.55727794353355e-001

1.62450479271247e+004,-1.93535744070135e+001,-4.62088299591946e-001

1.64718203453514e+004,-1.93535807907419e+001,-4.68537542578923e-001

1.67017583885674e+004,-1.93535873534981e+001,-4.75076759864493e-001

1.69349062472505e+004,-1.93535941002901e+001,-4.81707205168302e-001

1.71713087287550e+004,-1.93536010362652e+001,-4.88430149614340e-001

1.74110112659224e+004,-1.93536081667140e+001,-4.95246881971970e-001

1.76540599258131e+004,-1.93536154970739e+001,-5.02158708896529e-001

1.79005014185594e+004,-1.93536230329340e+001,-5.09166955175101e-001

1.81503831063432e+004,-1.93536307800383e+001,-5.16272963974630e-001

1.84037530124975e+004,-1.93536387442906e+001,-5.23478097094922e-001

1.86606598307361e+004,-1.93536469317588e+001,-5.30783735221067e-001

1.89211529345119e+004,-1.93536553486790e+001,-5.38191278186185e-001

1.91852823865052e+004,-1.93536640014606e+001,-5.45702145230037e-001

1.94530989482457e+004,-1.93536728966909e+001,-5.53317775263798e-001

1.97246540898671e+004,-1.93536820411396e+001,-5.61039627143554e-001

1.99999999999999e+004,-1.93536914417646e+001,-5.68869179936004e-001

2.02791895958005e+004,-1.93537011057161e+001,-5.76807933200966e-001

2.05622765331213e+004,-1.93537110403427e+001,-5.84857407265327e-001

2.08493152168224e+004,-1.93537212531964e+001,-5.93019143509523e-001

2.11403608112276e+004,-1.93537317520384e+001,-6.01294704652493e-001

2.14354692507258e+004,-1.93537425448445e+001,-6.09685675043655e-001

2.17346972505211e+004,-1.93537536398111e+001,-6.18193660955886e-001

2.20381023175322e+004,-1.93537650453612e+001,-6.26820290884216e-001

2.23457427614443e+004,-1.93537767701505e+001,-6.35567215847645e-001

2.26576777059159e+004,-1.93537888230739e+001,-6.44436109693857e-001

2.29739670999406e+004,-1.93538012132716e+001,-6.53428669410025e-001

2.32946717293690e+004,-1.93538139501359e+001,-6.62546615436801e-001

2.36198532285905e+004,-1.93538270433186e+001,-6.71791691983068e-001

2.39495740923785e+004,-1.93538405027369e+001,-6.81165667351165e-001

2.42838976879009e+004,-1.93538543385814e+001,-6.90670334260896e-001

2.46228882668982e+004,-1.93538685613235e+001,-7.00307510177540e-001

2.49666109780322e+004,-1.93538831817220e+001,-7.10079037649780e-001

2.53151318794055e+004,-1.93538982108322e+001,-7.19986784643271e-001

2.56685179512580e+004,-1.93539136600128e+001,-7.30032644886434e-001

2.60268371088386e+004,-1.93539295409343e+001,-7.40218538216031e-001

2.63901582154578e+004,-1.93539458655878e+001,-7.50546410926961e-001

2.67585510957221e+004,-1.93539626462931e+001,-7.61018236128730e-001

2.71320865489533e+004,-1.93539798957073e+001,-7.71636014105181e-001

2.75108363627948e+004,-1.93539976268344e+001,-7.82401772677569e-001

2.78948733270080e+004,-1.93540158530342e+001,-7.93317567573696e-001

2.82842712474618e+004,-1.93540345880317e+001,-8.04385482801257e-001

2.86791049603164e+004,-1.93540538459267e+001,-8.15607631025920e-001

2.90794503464061e+004,-1.93540736412042e+001,-8.26986153950350e-001

2.94853843458219e+004,-1.93540939887441e+001,-8.38523222704820e-001

2.98969849726987e+004,-1.93541149038318e+001,-8.50221038237240e-001

3.03143313302078e+004,-1.93541364021689e+001,-8.62081831708920e-001

3.07375036257601e+004,-1.93541584998840e+001,-8.74107864895211e-001

3.11665831864199e+004,-1.93541812135443e+001,-8.86301430591189e-001

3.16016524745350e+004,-1.93542045601665e+001,-8.98664853023576e-001

3.20427951035848e+004,-1.93542285572291e+001,-9.11200488263387e-001

3.24900958542493e+004,-1.93542532226841e+001,-9.23910724648272e-001

3.29436406907028e+004,-1.93542785749693e+001,-9.36797983206366e-001

3.34035167771346e+004,-1.93543046330212e+001,-9.49864718085960e-001

3.38698124945009e+004,-1.93543314162878e+001,-9.63113416990869e-001

3.43426174575100e+004,-1.93543589447416e+001,-9.76546601620769e-001

3.48220225318448e+004,-1.93543872388932e+001,-9.90166828115124e-001

3.53081198516260e+004,-1.93544163198055e+001,-1.00397668750290e+000

3.58010028371187e+004,-1.93544462091074e+001,-1.01797880615852e+000

3.63007662126863e+004,-1.93544769290085e+001,-1.03217584626166e+000

3.68075060249948e+004,-1.93545085023137e+001,-1.04657050626259e+000

3.73213196614721e+004,-1.93545409524386e+001,-1.06116552135064e+000

3.78423058690237e+004,-1.93545743034251e+001,-1.07596366393251e+000

3.83705647730104e+004,-1.93546085799564e+001,-1.09096774411233e+000

3.89061978964912e+004,-1.93546438073742e+001,-1.10618061017599e+000

3.94493081797342e+004,-1.93546800116947e+001,-1.12160514908310e+000

3.99999999999998e+004,-1.93547172196254e+001,-1.13724428696474e+000

4.05583791916010e+004,-1.93547554585826e+001,-1.15310098962329e+000

4.11245530662425e+004,-1.93547947567087e+001,-1.16917826304038e+000

4.16986304336447e+004,-1.93548351428906e+001,-1.18547915388915e+000

4.22807216224550e+004,-1.93548766467776e+001,-1.20200675005171e+000

4.28709385014515e+004,-1.93549192988002e+001,-1.21876418114187e+000

4.34693945010421e+004,-1.93549631301897e+001,-1.23575461903398e+000

4.40762046350642e+004,-1.93550081729968e+001,-1.25298127839571e+000

4.46914855228886e+004,-1.93550544601125e+001,-1.27044741722802e+000

4.53153554118317e+004,-1.93551020252873e+001,-1.28815633740844e+000

4.59479341998812e+004,-1.93551509031527e+001,-1.30611138524217e+000

4.65893434587380e+004,-1.93552011292419e+001,-1.32431595201549e+000

4.72397064571810e+004,-1.93552527400113e+001,-1.34277347455679e+000

4.78991481847569e+004,-1.93553057728619e+001,-1.36148743580419e+000

4.85677953758016e+004,-1.93553602661624e+001,-1.38046136537345e+000

4.92457765337964e+004,-1.93554162592712e+001,-1.39969884013719e+000

4.99332219560642e+004,-1.93554737925594e+001,-1.41920348480524e+000

5.06302637588109e+004,-1.93555329074345e+001,-1.43897897251349e+000

5.13370359025159e+004,-1.93555936463642e+001,-1.45902902541406e+000

5.20536742176771e+004,-1.93556560529003e+001,-1.47935741527613e+000

5.27803164309155e+004,-1.93557201717035e+001,-1.49996796408727e+000

5.35171021914442e+004,-1.93557860485684e+001,-1.52086454466191e+000

5.42641730979066e+004,-1.93558537304489e+001,-1.54205108125692e+000

5.50216727255895e+004,-1.93559232654835e+001,-1.56353155018984e+000

5.57897466540159e+004,-1.93559947030221e+001,-1.58530998046211e+000

5.65685424949235e+004,-1.93560680936518e+001,-1.60739045439145e+000

5.73582099206328e+004,-1.93561434892241e+001,-1.62977710824488e+000

5.81589006928121e+004,-1.93562209428820e+001,-1.65247413287956e+000

5.89707686916437e+004,-1.93563005090872e+001,-1.67548577438822e+000

5.97939699453972e+004,-1.93563822436485e+001,-1.69881633474984e+000

6.06286626604156e+004,-1.93564662037494e+001,-1.72247017248548e+000

6.14750072515201e+004,-1.93565524479769e+001,-1.74645170331926e+000

6.23331663728396e+004,-1.93566410363498e+001,-1.77076540084495e+000

6.32033049490698e+004,-1.93567320303481e+001,-1.79541579719704e+000

6.40855902071694e+004,-1.93568254929423e+001,-1.82040748372604e+000

6.49801917084985e+004,-1.93569214886223e+001,-1.84574511168262e+000

6.58872813814055e+004,-1.93570200834279e+001,-1.87143339290204e+000

6.68070335542691e+004,-1.93571213449779e+001,-1.89747710049713e+000

6.77396249890018e+004,-1.93572253425009e+001,-1.92388106955482e+000

6.86852349150199e+004,-1.93573321468649e+001,-1.95065019783837e+000

6.96440450636895e+004,-1.93574418306080e+001,-1.97778944649491e+000

7.06162397032520e+004,-1.93575544679689e+001,-2.00530384076687e+000

7.16020056742374e+004,-1.93576701349168e+001,-2.03319847071064e+000

7.26015324253724e+004,-1.93577889091826e+001,-2.06147849191823e+000

7.36150120499896e+004,-1.93579108702893e+001,-2.09014912624553e+000

7.46426393229441e+004,-1.93580360995821e+001,-2.11921566254596e+000

7.56846117380472e+004,-1.93581646802589e+001,-2.14868345740793e+000

7.67411295460207e+004,-1.93582966974011e+001,-2.17855793589973e+000

7.78123957929823e+004,-1.93584322380030e+001,-2.20884459231736e+000

7.88986163594682e+004,-1.93585713910023e+001,-2.23954899094076e+000

7.99999999999995e+004,-1.93587142473094e+001,-2.27067676679284e+000

8.11167583832018e+004,-1.93588608998370e+001,-2.30223362640665e+000

8.22491061324848e+004,-1.93590114435291e+001,-2.33422534859544e+000

8.33972608672892e+004,-1.93591659753894e+001,-2.36665778523283e+000

8.45614432449099e+004,-1.93593245945100e+001,-2.39953686203431e+000

8.57418770029029e+004,-1.93594874020984e+001,-2.43286857934863e+000

8.69387890020841e+004,-1.93596545015053e+001,-2.46665901295413e+000

8.81524092701283e+004,-1.93598259982502e+001,-2.50091431486228e+000

8.93829710457770e+004,-1.93600020000482e+001,-2.53564071412699e+000

9.06307108236633e+004,-1.93601826168339e+001,-2.57084451766298e+000

9.18958683997622e+004,-1.93603679607865e+001,-2.60653211106958e+000

9.31786869174758e+004,-1.93605581463525e+001,-2.64270995946440e+000

9.44794129143618e+004,-1.93607532902680e+001,-2.67938460832306e+000

9.57982963695136e+004,-1.93609535115802e+001,-2.71656268432856e+000

9.71355907516031e+004,-1.93611589316671e+001,-2.75425089622986e+000

9.84915530675926e+004,-1.93613696742569e+001,-2.79245603570900e+000

9.98664439121282e+004,-1.93615858654451e+001,-2.83118497825792e+000

1.01260527517622e+005,-1.93618076337110e+001,-2.87044468406651e+000

1.02674071805032e+005,-1.93620351099324e+001,-2.91024219892164e+000

1.04107348435354e+005,-1.93622684273989e+001,-2.95058465511664e+000

1.05560632861831e+005,-1.93625077218234e+001,-2.99147927237310e+000

1.07034204382888e+005,-1.93627531313524e+001,-3.03293335877719e+000

1.08528346195813e+005,-1.93630047965736e+001,-3.07495431172751e+000

1.10043345451179e+005,-1.93632628605226e+001,-3.11754961889907e+000

1.11579493308032e+005,-1.93635274686874e+001,-3.16072685922100e+000

1.13137084989847e+005,-1.93637987690101e+001,-3.20449370387195e+000

1.14716419841265e+005,-1.93640769118877e+001,-3.24885791729227e+000

1.16317801385624e+005,-1.93643620501700e+001,-3.29382735821328e+000

1.17941537383287e+005,-1.93646543391549e+001,-3.33940998070802e+000

1.19587939890794e+005,-1.93649539365828e+001,-3.38561383526043e+000

1.21257325320831e+005,-1.93652610026266e+001,-3.43244706985711e+000

1.22950014503040e+005,-1.93655756998809e+001,-3.47991793110293e+000

1.24666332745679e+005,-1.93658981933481e+001,-3.52803476535953e+000

1.26406609898139e+005,-1.93662286504213e+001,-3.57680601991012e+000

1.28171180414339e+005,-1.93665672408659e+001,-3.62624024415269e+000

1.29960383416997e+005,-1.93669141367972e+001,-3.67634609082009e+000

1.31774562762811e+005,-1.93672695126563e+001,-3.72713231723263e+000

1.33614067108538e+005,-1.93676335451826e+001,-3.77860778658184e+000

1.35479249978003e+005,-1.93680064133842e+001,-3.83078146924787e+000

1.37370469830040e+005,-1.93683882985049e+001,-3.88366244415453e+000

1.39288090127379e+005,-1.93687793839890e+001,-3.93725990016043e+000

1.41232479406504e+005,-1.93691798554433e+001,-3.99158313749007e+000

1.43204011348474e+005,-1.93695899005962e+001,-4.04664156920882e+000

1.45203064850745e+005,-1.93700097092545e+001,-4.10244472273831e+000

1.47230024099979e+005,-1.93704394732574e+001,-4.15900224142250e+000

1.49285278645888e+005,-1.93708793864285e+001,-4.21632388613773e+000

1.51369223476094e+005,-1.93713296445248e+001,-4.27441953695698e+000

1.53482259092041e+005,-1.93717904451837e+001,-4.33329919486563e+000

1.55624791585964e+005,-1.93722619878687e+001,-4.39297298353253e+000

1.57797232718936e+005,-1.93727444738116e+001,-4.45345115113986e+000

1.59999999999999e+005,-1.93732381059548e+001,-4.51474407227288e+000

1.62233516766403e+005,-1.93737430888903e+001,-4.57686224987295e+000

1.64498212264969e+005,-1.93742596287990e+001,-4.63981631725494e+000

1.66794521734578e+005,-1.93747879333877e+001,-4.70361704019388e+000

1.69122886489819e+005,-1.93753282118262e+001,-4.76827531908096e+000

1.71483754005805e+005,-1.93758806746839e+001,-4.83380219115275e+000

1.73877578004168e+005,-1.93764455338655e+001,-4.90020883279615e+000

1.76304818540256e+005,-1.93770230025481e+001,-4.96750656193058e+000

1.78765942091554e+005,-1.93776132951184e+001,-5.03570684047013e+000

1.81261421647326e+005,-1.93782166271110e+001,-5.10482127686917e+000

1.83791736799524e+005,-1.93788332151486e+001,-5.17486162875203e+000

1.86357373834951e+005,-1.93794632768840e+001,-5.24583980562886e+000

1.88958825828723e+005,-1.93801070309447e+001,-5.31776787170211e+000

1.91596592739027e+005,-1.93807646968810e+001,-5.39065804876229e+000

1.94271181503206e+005,-1.93814364951174e+001,-5.46452271917730e+000

1.96983106135185e+005,-1.93821226469085e+001,-5.53937442897513e+000

1.99732887824256e+005,-1.93828233743005e+001,-5.61522589102355e+000

2.02521055035243e+005,-1.93835389000970e+001,-5.69208998830549e+000

2.05348143610063e+005,-1.93842694478326e+001,-5.76997977729312e+000

2.08214696870707e+005,-1.93850152417529e+001,-5.84890849142153e+000

2.11121265723661e+005,-1.93857765068022e+001,-5.92888954465925e+000

2.14068408765776e+005,-1.93865534686202e+001,-6.00993653518298e+000

2.17056692391625e+005,-1.93873463535485e+001,-6.09206324914713e+000

2.20086690902357e+005,-1.93881553886456e+001,-6.17528366455752e+000

2.23158986616063e+005,-1.93889808017155e+001,-6.25961195524136e+000

2.26274169979693e+005,-1.93898228213458e+001,-6.34506249491637e+000

2.29432839682530e+005,-1.93906816769604e+001,-6.43164986135773e+000

2.32635602771247e+005,-1.93915575988843e+001,-6.51938884065961e+000

2.35883074766574e+005,-1.93924508184241e+001,-6.60829443159084e+000

2.39175879781588e+005,-1.93933615679631e+001,-6.69838185004210e+000

2.42514650641661e+005,-1.93942900810728e+001,-6.78966653356140e+000

2.45900029006080e+005,-1.93952365926415e+001,-6.88216414597683e+000

2.49332665491357e+005,-1.93962013390205e+001,-6.97589058209963e+000

2.52813219796278e+005,-1.93971845581897e+001,-7.07086197250845e+000

2.56342360828676e+005,-1.93981864899417e+001,-7.16709468840547e+000

2.59920766833993e+005,-1.93992073760871e+001,-7.26460534654525e+000

2.63549125525621e+005,-1.94002474606802e+001,-7.36341081422664e+000

2.67228134217075e+005,-1.94013069902669e+001,-7.46352821434570e+000

2.70958499956006e+005,-1.94023862141546e+001,-7.56497493050256e+000

2.74740939660078e+005,-1.94034853847057e+001,-7.66776861215654e+000

2.78576180254757e+005,-1.94046047576538e+001,-7.77192717982345e+000

2.82464958813007e+005,-1.94057445924456e+001,-7.87746883030803e+000

2.86408022696948e+005,-1.94069051526056e+001,-7.98441204196585e+000

2.90406129701488e+005,-1.94080867061272e+001,-8.09277557998506e+000

2.94460048199957e+005,-1.94092895258888e+001,-8.20257850168438e+000

2.98570557291775e+005,-1.94105138900955e+001,-8.31384016181529e+000

3.02738446952187e+005,-1.94117600827470e+001,-8.42658021786518e+000

3.06964518184081e+005,-1.94130283941309e+001,-8.54081863535006e+000

3.11249583171928e+005,-1.94143191213431e+001,-8.65657569309074e+000

3.15594465437872e+005,-1.94156325688337e+001,-8.77387198846376e+000

3.19999999999997e+005,-1.94169690489790e+001,-8.89272844261983e+000

3.24467033532806e+005,-1.94183288826794e+001,-9.01316630566019e+000

3.28996424529938e+005,-1.94197123999832e+001,-9.13520716176449e+000

3.33589043469155e+005,-1.94211199407359e+001,-9.25887293426108e+000

3.38245772979638e+005,-1.94225518552534e+001,-9.38418589063304e+000

3.42967508011610e+005,-1.94240085050211e+001,-9.51116864745150e+000

3.47755156008335e+005,-1.94254902634161e+001,-9.63984417522904e+000

3.52609637080511e+005,-1.94269975164528e+001,-9.77023580318603e+000

3.57531884183106e+005,-1.94285306635519e+001,-9.90236722392394e+000

3.62522843294651e+005,-1.94300901183302e+001,-1.00362624979970e+001

3.67583473599047e+005,-1.94316763094125e+001,-1.01719460583785e+001

3.72714747669902e+005,-1.94332896812635e+001,-1.03094427148147e+001

3.77917651657445e+005,-1.94349306950391e+001,-1.04487776580598e+001

3.83193185478053e+005,-1.94365998294561e+001,-1.05899764639906e+001

3.88542363006410e+005,-1.94382975816799e+001,-1.07330650975912e+001

3.93966212270369e+005,-1.94400244682277e+001,-1.08780699168095e+001

3.99465775648511e+005,-1.94417810258885e+001,-1.10250176762766e+001

4.05042110070485e+005,-1.94435678126564e+001,-1.11739355308906e+001

4.10696287220124e+005,-1.94453854086776e+001,-1.13248510392586e+001

4.16429393741414e+005,-1.94472344172103e+001,-1.14777921669976e+001

4.22242531447321e+005,-1.94491154655948e+001,-1.16327872898911e+001

4.28136817531551e+005,-1.94510292062345e+001,-1.17898651969019e+001

4.34113384783250e+005,-1.94529763175862e+001,-1.19490550930382e+001

4.40173381804713e+005,-1.94549575051577e+001,-1.21103866020759e+001

4.46317973232124e+005,-1.94569735025130e+001,-1.22738897691354e+001

4.52548339959385e+005,-1.94590250722845e+001,-1.24395950631138e+001

4.58865679365059e+005,-1.94611130071887e+001,-1.26075333789753e+001

4.65271205542494e+005,-1.94632381310481e+001,-1.27777360398993e+001

4.71766149533147e+005,-1.94654012998154e+001,-1.29502347992900e+001

4.78351759563174e+005,-1.94676034026014e+001,-1.31250618426478e+001

4.85029301283321e+005,-1.94698453627045e+001,-1.33022497893071e+001

4.91800058012158e+005,-1.94721281386417e+001,-1.34818316940417e+001

4.98665330982714e+005,-1.94744527251810e+001,-1.36638410485400e+001

5.05626439592555e+005,-1.94768201543736e+001,-1.38483117827563e+001

5.12684721657352e+005,-1.94792314965863e+001,-1.40352782661369e+001

5.19841533667984e+005,-1.94816878615333e+001,-1.42247753087273e+001

5.27098251051240e+005,-1.94841903993076e+001,-1.44168381621630e+001

5.34456268434150e+005,-1.94867403014111e+001,-1.46115025205455e+001

5.41916999912011e+005,-1.94893388017832e+001,-1.48088045212085e+001

