Freq.,VOut,OutRef

1.00000000000000e+004,-1.51564465790064e+001,-8.57047290292295e-002

1.01395947979003e+004,-1.51564468857744e+001,-8.69010756924953e-002

1.02811382665607e+004,-1.51564472011565e+001,-8.81141207488315e-002

1.04246576084112e+004,-1.51564475253945e+001,-8.93440972139817e-002

1.05701804056138e+004,-1.51564478587366e+001,-9.05912413537397e-002

1.07177346253629e+004,-1.51564482014380e+001,-9.18557927302278e-002

1.08673486252606e+004,-1.51564485537614e+001,-9.31379942423775e-002

1.10190511587661e+004,-1.51564489159762e+001,-9.44380921791320e-002

1.11728713807222e+004,-1.51564492883600e+001,-9.57563362605104e-002

1.13288388529580e+004,-1.51564496711975e+001,-9.70929796912108e-002

1.14869835499703e+004,-1.51564500647823e+001,-9.84482792012149e-002

1.16473358646846e+004,-1.51564504694154e+001,-9.98224951033288e-002

1.18099266142953e+004,-1.51564508854062e+001,-1.01215891340542e-001

1.19747870461893e+004,-1.51564513130734e+001,-1.02628735529751e-001

1.21419488439505e+004,-1.51564517527437e+001,-1.04061299024438e-001

1.23114441334492e+004,-1.51564522047539e+001,-1.05513856955549e-001

1.24833054890161e+004,-1.51564526694494e+001,-1.06986688290993e-001

1.26575659397028e+004,-1.51564531471858e+001,-1.08480075886700e-001

1.28342589756290e+004,-1.51564536383280e+001,-1.09994306541938e-001

1.30134185544193e+004,-1.51564541432519e+001,-1.11529671050026e-001

1.31950791077289e+004,-1.51564546623434e+001,-1.13086464257812e-001

1.33792755478611e+004,-1.51564551959988e+001,-1.14664985123556e-001

1.35660432744767e+004,-1.51564557446264e+001,-1.16265536767151e-001

1.37554181813974e+004,-1.51564563086452e+001,-1.17888426534293e-001

1.39474366635040e+004,-1.51564568884857e+001,-1.19533966054305e-001

1.41421356237309e+004,-1.51564574845911e+001,-1.21202471294330e-001

1.43395524801583e+004,-1.51564580974164e+001,-1.22894262626946e-001

1.45397251732031e+004,-1.51564587274296e+001,-1.24609664885705e-001

1.47426921729110e+004,-1.51564593751117e+001,-1.26349007429167e-001

1.49484924863494e+004,-1.51564600409564e+001,-1.28112624206544e-001

1.51571656651040e+004,-1.51564607254723e+001,-1.29900853813158e-001

1.53687518128801e+004,-1.51564614291812e+001,-1.31714039564872e-001

1.55832915932100e+004,-1.51564621526201e+001,-1.33552529555157e-001

1.58008262372675e+004,-1.51564628963402e+001,-1.35416676727750e-001

1.60213975517924e+004,-1.51564636609089e+001,-1.37306838937754e-001

1.62450479271247e+004,-1.51564644469085e+001,-1.39223379027208e-001

1.64718203453514e+004,-1.51564652549380e+001,-1.41166664885386e-001

1.67017583885674e+004,-1.51564660856129e+001,-1.43137069527223e-001

1.69349062472505e+004,-1.51564669395659e+001,-1.45134971156441e-001

1.71713087287550e+004,-1.51564678174469e+001,-1.47160753244709e-001

1.74110112659224e+004,-1.51564687199244e+001,-1.49214804596825e-001

1.76540599258131e+004,-1.51564696476848e+001,-1.51297519433711e-001

1.79005014185594e+004,-1.51564706014341e+001,-1.53409297458340e-001

1.81503831063432e+004,-1.51564715818974e+001,-1.55550543937019e-001

1.84037530124975e+004,-1.51564725898201e+001,-1.57721669774929e-001

1.86606598307361e+004,-1.51564736259685e+001,-1.59923091592787e-001

1.89211529345119e+004,-1.51564746911294e+001,-1.62155231809172e-001

1.91852823865052e+004,-1.51564757861119e+001,-1.64418518716611e-001

1.94530989482457e+004,-1.51564769117476e+001,-1.66713386563744e-001

1.97246540898671e+004,-1.51564780688906e+001,-1.69040275640604e-001

1.99999999999999e+004,-1.51564792584188e+001,-1.71399632358443e-001

2.02791895958005e+004,-1.51564804812345e+001,-1.73791909334564e-001

2.05622765331213e+004,-1.51564817382646e+001,-1.76217565481319e-001

2.08493152168224e+004,-1.51564830304618e+001,-1.78677066087459e-001

2.11403608112276e+004,-1.51564843588050e+001,-1.81170882910489e-001

2.14354692507258e+004,-1.51564857242998e+001,-1.83699494265127e-001

2.17346972505211e+004,-1.51564871279801e+001,-1.86263385109447e-001

2.20381023175322e+004,-1.51564885709075e+001,-1.88863047143620e-001

2.23457427614443e+004,-1.51564900541733e+001,-1.91498978896691e-001

2.26576777059159e+004,-1.51564915788988e+001,-1.94171685822082e-001

2.29739670999406e+004,-1.51564931462357e+001,-1.96881680394279e-001

2.32946717293690e+004,-1.51564947573677e+001,-1.99629482204150e-001

2.36198532285905e+004,-1.51564964135106e+001,-2.02415618057837e-001

2.39495740923785e+004,-1.51564981159139e+001,-2.05240622072794e-001

2.42838976879009e+004,-1.51564998658610e+001,-2.08105035784122e-001

2.46228882668982e+004,-1.51565016646707e+001,-2.11009408237540e-001

2.49666109780322e+004,-1.51565035136976e+001,-2.13954296102107e-001

2.53151318794055e+004,-1.51565054143334e+001,-2.16940263767288e-001

2.56685179512580e+004,-1.51565073680081e+001,-2.19967883452488e-001

2.60268371088386e+004,-1.51565093761900e+001,-2.23037735315409e-001

2.63901582154578e+004,-1.51565114403880e+001,-2.26150407555389e-001

2.67585510957221e+004,-1.51565135621521e+001,-2.29306496527905e-001

2.71320865489533e+004,-1.51565157430741e+001,-2.32506606856502e-001

2.75108363627948e+004,-1.51565179847892e+001,-2.35751351543436e-001

2.78948733270080e+004,-1.51565202889772e+001,-2.39041352083682e-001

2.82842712474618e+004,-1.51565226573632e+001,-2.42377238584691e-001

2.86791049603164e+004,-1.51565250917192e+001,-2.45759649879052e-001

2.90794503464061e+004,-1.51565275938651e+001,-2.49189233647821e-001

2.94853843458219e+004,-1.51565301656699e+001,-2.52666646538271e-001

2.98969849726987e+004,-1.51565328090534e+001,-2.56192554286919e-001

3.03143313302078e+004,-1.51565355259868e+001,-2.59767631842822e-001

3.07375036257601e+004,-1.51565383184947e+001,-2.63392563494973e-001

3.11665831864199e+004,-1.51565411886561e+001,-2.67068042995060e-001

3.16016524745350e+004,-1.51565441386058e+001,-2.70794773690199e-001

3.20427951035848e+004,-1.51565471705360e+001,-2.74573468651537e-001

3.24900958542493e+004,-1.51565502866977e+001,-2.78404850804553e-001

3.29436406907028e+004,-1.51565534894019e+001,-2.82289653067477e-001

3.34035167771346e+004,-1.51565567810217e+001,-2.86228618478831e-001

3.38698124945009e+004,-1.51565601639934e+001,-2.90222500342618e-001

3.43426174575100e+004,-1.51565636408182e+001,-2.94272062361520e-001

3.48220225318448e+004,-1.51565672140640e+001,-2.98378078779038e-001

3.53081198516260e+004,-1.51565708863667e+001,-3.02541334523664e-001

3.58010028371187e+004,-1.51565746604324e+001,-3.06762625349553e-001

3.63007662126863e+004,-1.51565785390386e+001,-3.11042757985077e-001

3.68075060249948e+004,-1.51565825250366e+001,-3.15382550278685e-001

3.73213196614721e+004,-1.51565866213523e+001,-3.19782831351429e-001

3.78423058690237e+004,-1.51565908309892e+001,-3.24244441744887e-001

3.83705647730104e+004,-1.51565951570297e+001,-3.28768233576033e-001

3.89061978964912e+004,-1.51565996026369e+001,-3.33355070693190e-001

3.94493081797342e+004,-1.51566041710568e+001,-3.38005828832749e-001

3.99999999999998e+004,-1.51566088656203e+001,-3.42721395777445e-001

4.05583791916010e+004,-1.51566136897450e+001,-3.47502671517971e-001

4.11245530662425e+004,-1.51566186469375e+001,-3.52350568417335e-001

4.16986304336447e+004,-1.51566237407953e+001,-3.57266011374397e-001

4.22807216224550e+004,-1.51566289750093e+001,-3.62249937989293e-001

4.28709385014515e+004,-1.51566343533655e+001,-3.67303298738453e-001

4.34693945010421e+004,-1.51566398797479e+001,-3.72427057137635e-001

4.40762046350642e+004,-1.51566455581395e+001,-3.77622189923305e-001

4.46914855228886e+004,-1.51566513926264e+001,-3.82889687220572e-001

4.53153554118317e+004,-1.51566573873983e+001,-3.88230552727847e-001

4.59479341998812e+004,-1.51566635467523e+001,-3.93645803889127e-001

4.65893434587380e+004,-1.51566698750943e+001,-3.99136472082112e-001

4.72397064571810e+004,-1.51566763769423e+001,-4.04703602797094e-001

4.78991481847569e+004,-1.51566830569280e+001,-4.10348255826729e-001

4.85677953758016e+004,-1.51566899198001e+001,-4.16071505451911e-001

4.92457765337964e+004,-1.51566969704261e+001,-4.21874440634693e-001

4.99332219560642e+004,-1.51567042137957e+001,-4.27758165206866e-001

5.06302637588109e+004,-1.51567116550227e+001,-4.33723798069756e-001

5.13370359025159e+004,-1.51567192993480e+001,-4.39772473388267e-001

5.20536742176771e+004,-1.51567271521420e+001,-4.45905340791810e-001

5.27803164309155e+004,-1.51567352189079e+001,-4.52123565575175e-001

5.35171021914442e+004,-1.51567435052834e+001,-4.58428328905084e-001

5.42641730979066e+004,-1.51567520170446e+001,-4.64820828022666e-001

5.50216727255895e+004,-1.51567607601080e+001,-4.71302276455927e-001

5.57897466540159e+004,-1.51567697405334e+001,-4.77873904230883e-001

5.65685424949235e+004,-1.51567789645268e+001,-4.84536958083886e-001

5.73582099206328e+004,-1.51567884384435e+001,-4.91292701676813e-001

5.81589006928121e+004,-1.51567981687904e+001,-4.98142415819446e-001

5.89707686916437e+004,-1.51568081622294e+001,-5.05087398686127e-001

5.97939699453972e+004,-1.51568184255796e+001,-5.12128966043998e-001

6.06286626604156e+004,-1.51568289658209e+001,-5.19268451475383e-001

6.14750072515201e+004,-1.51568397900964e+001,-5.26507206607438e-001

6.23331663728396e+004,-1.51568509057153e+001,-5.33846601344680e-001

6.32033049490698e+004,-1.51568623201560e+001,-5.41288024100630e-001

6.40855902071694e+004,-1.51568740410686e+001,-5.48832882037415e-001

6.49801917084985e+004,-1.51568860762779e+001,-5.56482601301835e-001

6.58872813814055e+004,-1.51568984337865e+001,-5.64238627267346e-001

6.68070335542691e+004,-1.51569111217769e+001,-5.72102424781467e-001

6.77396249890018e+004,-1.51569241486151e+001,-5.80075478408456e-001

6.86852349150199e+004,-1.51569375228525e+001,-5.88159292683526e-001

6.96440450636895e+004,-1.51569512532294e+001,-5.96355392361820e-001

7.06162397032520e+004,-1.51569653486767e+001,-6.04665322676811e-001

7.16020056742374e+004,-1.51569798183194e+001,-6.13090649596730e-001

7.26015324253724e+004,-1.51569946714786e+001,-6.21632960086565e-001

7.36150120499896e+004,-1.51570099176740e+001,-6.30293862371362e-001

7.46426393229441e+004,-1.51570255666264e+001,-6.39074986204013e-001

7.56846117380472e+004,-1.51570416282601e+001,-6.47977983135233e-001

7.67411295460207e+004,-1.51570581127046e+001,-6.57004526785875e-001

7.78123957929823e+004,-1.51570750302974e+001,-6.66156313124059e-001

7.88986163594682e+004,-1.51570923915853e+001,-6.75435060743510e-001

7.99999999999995e+004,-1.51571102073271e+001,-6.84842511145088e-001

8.11167583832018e+004,-1.51571284884943e+001,-6.94380429024589e-001

8.22491061324848e+004,-1.51571472462737e+001,-7.04050602560342e-001

8.33972608672892e+004,-1.51571664920680e+001,-7.13854843704766e-001

8.45614432449099e+004,-1.51571862374979e+001,-7.23794988480168e-001

8.57418770029029e+004,-1.51572064944027e+001,-7.33872897278848e-001

8.69387890020841e+004,-1.51572272748410e+001,-7.44090455164462e-001

8.81524092701283e+004,-1.51572485910924e+001,-7.54449572177394e-001

8.93829710457770e+004,-1.51572704556567e+001,-7.64952183647110e-001

9.06307108236633e+004,-1.51572928812554e+001,-7.75600250501811e-001

9.18958683997622e+004,-1.51573158808311e+001,-7.86395759589568e-001

9.31786869174758e+004,-1.51573394675472e+001,-7.97340723996551e-001

9.44794129143618e+004,-1.51573636547878e+001,-8.08437183374122e-001

9.57982963695136e+004,-1.51573884561570e+001,-8.19687204267367e-001

9.71355907516031e+004,-1.51574138854773e+001,-8.31092880447961e-001

9.84915530675926e+004,-1.51574399567888e+001,-8.42656333254557e-001

9.98664439121282e+004,-1.51574666843472e+001,-8.54379711931472e-001

1.01260527517622e+005,-1.51574940826217e+001,-8.66265193979556e-001

1.02674071805032e+005,-1.51575221662928e+001,-8.78314985504534e-001

1.04107348435354e+005,-1.51575509502497e+001,-8.90531321575527e-001

1.05560632861831e+005,-1.51575804495862e+001,-9.02916466587071e-001

1.07034204382888e+005,-1.51576106795981e+001,-9.15472714623522e-001

1.08528346195813e+005,-1.51576416557788e+001,-9.28202389834006e-001

1.10043345451179e+005,-1.51576733938145e+001,-9.41107846808289e-001

1.11579493308032e+005,-1.51577059095796e+001,-9.54191470960885e-001

1.13137084989847e+005,-1.51577392191313e+001,-9.67455678920648e-001

1.14716419841265e+005,-1.51577733387031e+001,-9.80902918925619e-001

1.16317801385624e+005,-1.51578082846990e+001,-9.94535671226141e-001

1.17941537383287e+005,-1.51578440736862e+001,-1.00835644849164e+000

1.19587939890794e+005,-1.51578807223873e+001,-1.02236779622831e+000

1.21257325320831e+005,-1.51579182476724e+001,-1.03657229319898e+000

1.22950014503040e+005,-1.51579566665506e+001,-1.05097255185505e+000

1.24666332745679e+005,-1.51579959961601e+001,-1.06557121877302e+000

1.26406609898139e+005,-1.51580362537589e+001,-1.08037097510049e+000

1.28171180414339e+005,-1.51580774567137e+001,-1.09537453700904e+000

1.29960383416997e+005,-1.51581196224890e+001,-1.11058465615783e+000

1.31774562762811e+005,-1.51581627686351e+001,-1.12600412016327e+000

1.33614067108538e+005,-1.51582069127758e+001,-1.14163575308060e+000

1.35479249978003e+005,-1.51582520725949e+001,-1.15748241589474e+000

1.37370469830040e+005,-1.51582982658226e+001,-1.17354700701719e+000

1.39288090127379e+005,-1.51583455102209e+001,-1.18983246280030e+000

1.41232479406504e+005,-1.51583938235684e+001,-1.20634175805639e+000

1.43204011348474e+005,-1.51584432236442e+001,-1.22307790659037e+000

1.45203064850745e+005,-1.51584937282117e+001,-1.24004396174362e+000

1.47230024099979e+005,-1.51585453550010e+001,-1.25724301695078e+000

1.49285278645888e+005,-1.51585981216913e+001,-1.27467820630733e+000

1.51369223476094e+005,-1.51586520458918e+001,-1.29235270515267e+000

1.53482259092041e+005,-1.51587071451232e+001,-1.31026973066189e+000

1.55624791585964e+005,-1.51587634367970e+001,-1.32843254245777e+000

1.57797232718936e+005,-1.51588209381959e+001,-1.34684444323212e+000

1.59999999999999e+005,-1.51588796664519e+001,-1.36550877938361e+000

1.62233516766403e+005,-1.51589396385251e+001,-1.38442894167253e+000

1.64498212264969e+005,-1.51590008711815e+001,-1.40360836588738e+000

1.66794521734578e+005,-1.51590633809702e+001,-1.42305053353331e+000

1.69122886489819e+005,-1.51591271842004e+001,-1.44275897253157e+000

1.71483754005805e+005,-1.51591922969174e+001,-1.46273725794201e+000

1.73877578004168e+005,-1.51592587348792e+001,-1.48298901269838e+000

1.76304818540256e+005,-1.51593265135320e+001,-1.50351790836536e+000

1.78765942091554e+005,-1.51593956479853e+001,-1.52432766591295e+000

1.81261421647326e+005,-1.51594661529877e+001,-1.54542205651137e+000

1.83791736799524e+005,-1.51595380429015e+001,-1.56680490234453e+000

1.86357373834951e+005,-1.51596113316778e+001,-1.58848007744421e+000

1.88958825828723e+005,-1.51596860328317e+001,-1.61045150854559e+000

1.91596592739027e+005,-1.51597621594173e+001,-1.63272317596365e+000

1.94271181503206e+005,-1.51598397240025e+001,-1.65529911449093e+000

1.96983106135185e+005,-1.51599187386449e+001,-1.67818341431781e+000

1.99732887824256e+005,-1.51599992148677e+001,-1.70138022197462e+000

2.02521055035243e+005,-1.51600811636352e+001,-1.72489374129715e+000

2.05348143610063e+005,-1.51601645953305e+001,-1.74872823441450e+000

2.08214696870707e+005,-1.51602495197323e+001,-1.77288802276159e+000

2.11121265723661e+005,-1.51603359459930e+001,-1.79737748811365e+000

2.14068408765776e+005,-1.51604238826181e+001,-1.82220107364533e+000

2.17056692391625e+005,-1.51605133374460e+001,-1.84736328501462e+000

2.20086690902357e+005,-1.51606043176291e+001,-1.87286869146856e+000

2.23158986616063e+005,-1.51606968296159e+001,-1.89872192697736e+000

2.26274169979693e+005,-1.51607908791350e+001,-1.92492769138680e+000

2.29432839682530e+005,-1.51608864711799e+001,-1.95149075160143e+000

2.32635602771247e+005,-1.51609836099960e+001,-1.97841594278568e+000

2.35883074766574e+005,-1.51610822990685e+001,-2.00570816959573e+000

2.39175879781588e+005,-1.51611825411136e+001,-2.03337240742761e+000

2.42514650641661e+005,-1.51612843380695e+001,-2.06141370369706e+000

2.45900029006080e+005,-1.51613876910917e+001,-2.08983717913612e+000

2.49332665491357e+005,-1.51614926005490e+001,-2.11864802911631e+000

2.52813219796278e+005,-1.51615990660225e+001,-2.14785152499457e+000

2.56342360828676e+005,-1.51617070863072e+001,-2.17745301547885e+000

2.59920766833993e+005,-1.51618166594150e+001,-2.20745792801894e+000

2.63549125525621e+005,-1.51619277825826e+001,-2.23787177021486e+000

2.67228134217075e+005,-1.51620404522791e+001,-2.26870013124992e+000

2.70958499956006e+005,-1.51621546642196e+001,-2.29994868333958e+000

2.74740939660078e+005,-1.51622704133795e+001,-2.33162318320157e+000

2.78576180254757e+005,-1.51623876940128e+001,-2.36372947354527e+000

2.82464958813007e+005,-1.51625064996732e+001,-2.39627348457675e+000

2.86408022696948e+005,-1.51626268232387e+001,-2.42926123552136e+000

2.90406129701488e+005,-1.51627486569390e+001,-2.46269883616369e+000

2.94460048199957e+005,-1.51628719923859e+001,-2.49659248839991e+000

2.98570557291775e+005,-1.51629968206082e+001,-2.53094848780635e+000

3.02738446952187e+005,-1.51631231320882e+001,-2.56577322522048e+000

3.06964518184081e+005,-1.51632509168031e+001,-2.60107318833380e+000

3.11249583171928e+005,-1.51633801642684e+001,-2.63685496329610e+000

3.15594465437872e+005,-1.51635108635852e+001,-2.67312523633113e+000

3.19999999999997e+005,-1.51636430034909e+001,-2.70989079535921e+000

3.24467033532806e+005,-1.51637765724129e+001,-2.74715853163028e+000

3.28996424529938e+005,-1.51639115585250e+001,-2.78493544136314e+000

3.33589043469155e+005,-1.51640479498077e+001,-2.82322862739225e+000

3.38245772979638e+005,-1.51641857341110e+001,-2.86204530081853e+000

3.42967508011610e+005,-1.51643248992199e+001,-2.90139278266700e+000

3.47755156008335e+005,-1.51644654329234e+001,-2.94127850554640e+000

3.52609637080511e+005,-1.51646073230855e+001,-2.98171001531268e+000

3.57531884183106e+005,-1.51647505577190e+001,-3.02269497273641e+000

3.62522843294651e+005,-1.51648951250620e+001,-3.06424115516970e+000

3.67583473599047e+005,-1.51650410136561e+001,-3.10635645821690e+000

3.72714747669902e+005,-1.51651882124272e+001,-3.14904889740342e+000

3.77917651657445e+005,-1.51653367107679e+001,-3.19232660984881e+000

3.83193185478053e+005,-1.51654864986221e+001,-3.23619785593612e+000

3.88542363006410e+005,-1.51656375665707e+001,-3.28067102098401e+000

3.93966212270369e+005,-1.51657899059192e+001,-3.32575461691673e+000

3.99465775648511e+005,-1.51659435087861e+001,-3.37145728393688e+000

4.05042110070485e+005,-1.51660983681926e+001,-3.41778779219444e+000

4.10696287220124e+005,-1.51662544781534e+001,-3.46475504345783e+000

4.16429393741414e+005,-1.51664118337676e+001,-3.51236807278566e+000

4.22242531447321e+005,-1.51665704313103e+001,-3.56063605019905e+000

4.28136817531551e+005,-1.51667302683250e+001,-3.60956828235291e+000

4.34113384783250e+005,-1.51668913437154e+001,-3.65917421421279e+000

4.40173381804713e+005,-1.51670536578373e+001,-3.70946343073127e+000

4.46317973232124e+005,-1.51672172125909e+001,-3.76044565852801e+000

4.52548339959385e+005,-1.51673820115117e+001,-3.81213076757476e+000

4.58865679365059e+005,-1.51675480598616e+001,-3.86452877288480e+000

4.65271205542494e+005,-1.51677153647189e+001,-3.91764983620813e+000

4.71766149533147e+005,-1.51678839350676e+001,-3.97150426773415e+000

4.78351759563174e+005,-1.51680537818861e+001,-4.02610252780191e+000

4.85029301283321e+005,-1.51682249182336e+001,-4.08145522862087e+000

4.91800058012158e+005,-1.51683973593368e+001,-4.13757313600153e+000

4.98665330982714e+005,-1.51685711226741e+001,-4.19446717109939e+000

5.05626439592555e+005,-1.51687462280593e+001,-4.25214841216945e+000

5.12684721657352e+005,-1.51689226977231e+001,-4.31062809634104e+000

5.19841533667984e+005,-1.51691005563937e+001,-4.36991762140274e+000

5.27098251051240e+005,-1.51692798313755e+001,-4.43002854761038e+000

5.34456268434150e+005,-1.51694605526261e+001,-4.49097259951172e+000

5.41916999912011e+005,-1.51696427528321e+001,-4.55276166779337e+000

