Freq.,VOut,OutRef

1.00000000000000e+004,-3.67622098889841e+001,-1.95403468825259e-001

1.01395947979003e+004,-3.67622116247077e+001,-1.98130987080402e-001

1.02811382665607e+004,-3.67622134091831e+001,-2.00896571054716e-001

1.04246576084112e+004,-3.67622152437783e+001,-2.03700751743083e-001

1.05701804056138e+004,-3.67622171298995e+001,-2.06544067538164e-001

1.07177346253629e+004,-3.67622190689925e+001,-2.09427064328611e-001

1.08673486252606e+004,-3.67622210625434e+001,-2.12350295608542e-001

1.10190511587661e+004,-3.67622231120800e+001,-2.15314322578615e-001

1.11728713807222e+004,-3.67622252191726e+001,-2.18319714255601e-001

1.13288388529580e+004,-3.67622273854359e+001,-2.21367047578456e-001

1.14869835499703e+004,-3.67622296125295e+001,-2.24456907519451e-001

1.16473358646846e+004,-3.67622319021594e+001,-2.27589887195320e-001

1.18099266142953e+004,-3.67622342560795e+001,-2.30766587980220e-001

1.19747870461893e+004,-3.67622366760928e+001,-2.33987619618293e-001

1.21419488439505e+004,-3.67622391640523e+001,-2.37253600342911e-001

1.23114441334492e+004,-3.67622417218635e+001,-2.40565156990108e-001

1.24833054890161e+004,-3.67622443514845e+001,-2.43922925121032e-001

1.26575659397028e+004,-3.67622470549286e+001,-2.47327549141146e-001

1.28342589756290e+004,-3.67622498342653e+001,-2.50779682421169e-001

1.30134185544193e+004,-3.67622526916219e+001,-2.54279987423564e-001

1.31950791077289e+004,-3.67622556291849e+001,-2.57829135827468e-001

1.33792755478611e+004,-3.67622586492023e+001,-2.61427808654155e-001

1.35660432744767e+004,-3.67622617539846e+001,-2.65076696399065e-001

1.37554181813974e+004,-3.67622649459069e+001,-2.68776499160119e-001

1.39474366635040e+004,-3.67622682274109e+001,-2.72527926770793e-001

1.41421356237309e+004,-3.67622716010060e+001,-2.76331698935276e-001

1.43395524801583e+004,-3.67622750692720e+001,-2.80188545365459e-001

1.45397251732031e+004,-3.67622786348605e+001,-2.84099205915546e-001

1.47426921729110e+004,-3.67622823004971e+001,-2.88064430726204e-001

1.49484924863494e+004,-3.67622860689837e+001,-2.92084980361802e-001

1.51571656651040e+004,-3.67622899431999e+001,-2.96161625958654e-001

1.53687518128801e+004,-3.67622939261060e+001,-3.00295149365980e-001

1.55832915932100e+004,-3.67622980207444e+001,-3.04486343298332e-001

1.58008262372675e+004,-3.67623022302428e+001,-3.08736011480317e-001

1.60213975517924e+004,-3.67623065578158e+001,-3.13044968800474e-001

1.62450479271247e+004,-3.67623110067673e+001,-3.17414041465819e-001

1.64718203453514e+004,-3.67623155804936e+001,-3.21844067154295e-001

1.67017583885674e+004,-3.67623202824855e+001,-3.26335895174927e-001

1.69349062472505e+004,-3.67623251163306e+001,-3.30890386627254e-001

1.71713087287550e+004,-3.67623300857169e+001,-3.35508414561054e-001

1.74110112659224e+004,-3.67623351944345e+001,-3.40190864143237e-001

1.76540599258131e+004,-3.67623404463791e+001,-3.44938632822061e-001

1.79005014185594e+004,-3.67623458455547e+001,-3.49752630495563e-001

1.81503831063432e+004,-3.67623513960767e+001,-3.54633779682802e-001

1.84037530124975e+004,-3.67623571021748e+001,-3.59583015695861e-001

1.86606598307361e+004,-3.67623629681958e+001,-3.64601286815880e-001

1.89211529345119e+004,-3.67623689986077e+001,-3.69689554470028e-001

1.91852823865052e+004,-3.67623751980023e+001,-3.74848793410051e-001

1.94530989482457e+004,-3.67623815710987e+001,-3.80079991896680e-001

1.97246540898671e+004,-3.67623881227471e+001,-3.85384151880469e-001

1.99999999999999e+004,-3.67623948579320e+001,-3.90762289192181e-001

2.02791895958005e+004,-3.67624017817760e+001,-3.96215433731232e-001

2.05622765331213e+004,-3.67624088995438e+001,-4.01744629654753e-001

2.08493152168224e+004,-3.67624162166458e+001,-4.07350935574578e-001

2.11403608112276e+004,-3.67624237386421e+001,-4.13035424753336e-001

2.14354692507258e+004,-3.67624314712466e+001,-4.18799185302771e-001

2.17346972505211e+004,-3.67624394203311e+001,-4.24643320386850e-001

2.20381023175322e+004,-3.67624475919302e+001,-4.30568948423885e-001

2.23457427614443e+004,-3.67624559922448e+001,-4.36577203295706e-001

2.26576777059159e+004,-3.67624646276470e+001,-4.42669234557245e-001

2.29739670999406e+004,-3.67624735046848e+001,-4.48846207647079e-001

2.32946717293690e+004,-3.67624826300873e+001,-4.55109304102692e-001

2.36198532285905e+004,-3.67624920107683e+001,-4.61459721781246e-001

2.39495740923785e+004,-3.67625016538329e+001,-4.67898675075004e-001

2.42838976879009e+004,-3.67625115665812e+001,-4.74427395139112e-001

2.46228882668982e+004,-3.67625217565149e+001,-4.81047130114145e-001

2.49666109780322e+004,-3.67625322313416e+001,-4.87759145357711e-001

2.53151318794055e+004,-3.67625429989808e+001,-4.94564723675367e-001

2.56685179512580e+004,-3.67625540675696e+001,-5.01465165553524e-001

2.60268371088386e+004,-3.67625654454689e+001,-5.08461789398566e-001

2.63901582154578e+004,-3.67625771412684e+001,-5.15555931777145e-001

2.67585510957221e+004,-3.67625891637935e+001,-5.22748947660924e-001

2.71320865489533e+004,-3.67626015221117e+001,-5.30042210669202e-001

2.75108363627948e+004,-3.67626142255384e+001,-5.37437113321714e-001

2.78948733270080e+004,-3.67626272836441e+001,-5.44935067290173e-001

2.82842712474618e+004,-3.67626407062607e+001,-5.52537503653010e-001

2.86791049603164e+004,-3.67626545034886e+001,-5.60245873155987e-001

2.90794503464061e+004,-3.67626686857042e+001,-5.68061646470411e-001

2.94853843458219e+004,-3.67626832635666e+001,-5.75986314462323e-001

2.98969849726987e+004,-3.67626982480255e+001,-5.84021388456032e-001

3.03143313302078e+004,-3.67627136503284e+001,-5.92168400509869e-001

3.07375036257601e+004,-3.67627294820289e+001,-6.00428903686692e-001

3.11665831864199e+004,-3.67627457549945e+001,-6.08804472333998e-001

3.16016524745350e+004,-3.67627624814147e+001,-6.17296702363532e-001

3.20427951035848e+004,-3.67627796738098e+001,-6.25907211536718e-001

3.24900958542493e+004,-3.67627973450390e+001,-6.34637639750170e-001

3.29436406907028e+004,-3.67628155083097e+001,-6.43489649329303e-001

3.34035167771346e+004,-3.67628341771863e+001,-6.52464925319141e-001

3.38698124945009e+004,-3.67628533655991e+001,-6.61565175785262e-001

3.43426174575100e+004,-3.67628730878548e+001,-6.70792132111190e-001

3.48220225318448e+004,-3.67628933586448e+001,-6.80147549305899e-001

3.53081198516260e+004,-3.67629141930562e+001,-6.89633206309358e-001

3.58010028371187e+004,-3.67629356065813e+001,-6.99250906304458e-001

3.63007662126863e+004,-3.67629576151286e+001,-7.09002477031074e-001

3.68075060249948e+004,-3.67629802350324e+001,-7.18889771105401e-001

3.73213196614721e+004,-3.67630034830645e+001,-7.28914666339583e-001

3.78423058690237e+004,-3.67630273764450e+001,-7.39079066067959e-001

3.83705647730104e+004,-3.67630519328536e+001,-7.49384899475361e-001

3.89061978964912e+004,-3.67630771704411e+001,-7.59834121928890e-001

3.94493081797342e+004,-3.67631031078412e+001,-7.70428715314137e-001

3.99999999999998e+004,-3.67631297641828e+001,-7.81170688372447e-001

4.05583791916010e+004,-3.67631571591021e+001,-7.92062077046577e-001

4.11245530662425e+004,-3.67631853127554e+001,-8.03104944823614e-001

4.16986304336447e+004,-3.67632142458316e+001,-8.14301383087136e-001

4.22807216224550e+004,-3.67632439795657e+001,-8.25653511469650e-001

4.28709385014515e+004,-3.67632745357520e+001,-8.37163478208957e-001

4.34693945010421e+004,-3.67633059367578e+001,-8.48833460510085e-001

4.40762046350642e+004,-3.67633382055373e+001,-8.60665664908037e-001

4.46914855228886e+004,-3.67633713656459e+001,-8.72662327635539e-001

4.53153554118317e+004,-3.67634054412545e+001,-8.84825714995371e-001

4.59479341998812e+004,-3.67634404571646e+001,-8.97158123733783e-001

4.65893434587380e+004,-3.67634764388229e+001,-9.09661881420333e-001

4.72397064571810e+004,-3.67635134123370e+001,-9.22339346828495e-001

4.78991481847569e+004,-3.67635514044910e+001,-9.35192910321890e-001

4.85677953758016e+004,-3.67635904427608e+001,-9.48224994244293e-001

4.92457765337964e+004,-3.67636305553312e+001,-9.61438053310509e-001

4.99332219560642e+004,-3.67636717711116e+001,-9.74834575003708e-001

5.06302637588109e+004,-3.67637141197532e+001,-9.88417079976159e-001

5.13370359025159e+004,-3.67637576316655e+001,-1.00218812245105e+000

5.20536742176771e+004,-3.67638023380343e+001,-1.01615029062984e+000

5.27803164309155e+004,-3.67638482708385e+001,-1.03030620710325e+000

5.35171021914442e+004,-3.67638954628686e+001,-1.04465852926499e+000

5.42641730979066e+004,-3.67639439477443e+001,-1.05920994972880e+000

5.50216727255895e+004,-3.67639937599332e+001,-1.07396319675003e+000

5.57897466540159e+004,-3.67640449347691e+001,-1.08892103464982e+000

5.65685424949235e+004,-3.67640975084714e+001,-1.10408626424330e+000

5.73582099206328e+004,-3.67641515181637e+001,-1.11946172326950e+000

5.81589006928121e+004,-3.67642070018935e+001,-1.13505028682852e+000

5.89707686916437e+004,-3.67642639986518e+001,-1.15085486781789e+000

5.97939699453972e+004,-3.67643225483927e+001,-1.16687841737561e+000

6.06286626604156e+004,-3.67643826920538e+001,-1.18312392532303e+000

6.14750072515201e+004,-3.67644444715765e+001,-1.19959442061519e+000

6.23331663728396e+004,-3.67645079299259e+001,-1.21629297179235e+000

6.32033049490698e+004,-3.67645731111122e+001,-1.23322268743410e+000

6.40855902071694e+004,-3.67646400602113e+001,-1.25038671661844e+000

6.49801917084985e+004,-3.67647088233854e+001,-1.26778824938366e+000

6.58872813814055e+004,-3.67647794479047e+001,-1.28543051719309e+000

6.68070335542691e+004,-3.67648519821687e+001,-1.30331679340335e+000

6.77396249890018e+004,-3.67649264757271e+001,-1.32145039373700e+000

6.86852349150199e+004,-3.67650029793018e+001,-1.33983467675611e+000

6.96440450636895e+004,-3.67650815448081e+001,-1.35847304434210e+000

7.06162397032520e+004,-3.67651622253766e+001,-1.37736894217647e+000

7.16020056742374e+004,-3.67652450753752e+001,-1.39652586022544e+000

7.26015324253724e+004,-3.67653301504297e+001,-1.41594733322973e+000

7.36150120499896e+004,-3.67654175074469e+001,-1.43563694119405e+000

7.46426393229441e+004,-3.67655072046352e+001,-1.45559830988491e+000

7.56846117380472e+004,-3.67655993015264e+001,-1.47583511132669e+000

7.67411295460207e+004,-3.67656938589977e+001,-1.49635106430466e+000

7.78123957929823e+004,-3.67657909392924e+001,-1.51714993487017e+000

7.88986163594682e+004,-3.67658906060416e+001,-1.53823553684980e+000

7.99999999999995e+004,-3.67659929242848e+001,-1.55961173235843e+000

8.11167583832018e+004,-3.67660979604912e+001,-1.58128243231355e+000

8.22491061324848e+004,-3.67662057825797e+001,-1.60325159695799e+000

8.33972608672892e+004,-3.67663164599395e+001,-1.62552323638219e+000

8.45614432449099e+004,-3.67664300634499e+001,-1.64810141105255e+000

8.57418770029029e+004,-3.67665466654998e+001,-1.67099023234357e+000

8.69387890020841e+004,-3.67666663400068e+001,-1.69419386307336e+000

8.81524092701283e+004,-3.67667891624359e+001,-1.71771651804509e+000

8.93829710457770e+004,-3.67669152098172e+001,-1.74156246459247e+000

9.06307108236633e+004,-3.67670445607642e+001,-1.76573602312813e+000

9.18958683997622e+004,-3.67671772954901e+001,-1.79024156769999e+000

9.31786869174758e+004,-3.67673134958239e+001,-1.81508352655076e+000

9.44794129143618e+004,-3.67674532452267e+001,-1.84026638268327e+000

9.57982963695136e+004,-3.67675966288059e+001,-1.86579467443171e+000

9.71355907516031e+004,-3.67677437333291e+001,-1.89167299603897e+000

9.84915530675926e+004,-3.67678946472374e+001,-1.91790599823984e+000

9.98664439121282e+004,-3.67680494606574e+001,-1.94449838885124e+000

1.01260527517622e+005,-3.67682082654125e+001,-1.97145493336912e+000

1.02674071805032e+005,-3.67683711550322e+001,-1.99878045557375e+000

1.04107348435354e+005,-3.67685382247621e+001,-2.02647983814168e+000

1.05560632861831e+005,-3.67687095715709e+001,-2.05455802326592e+000

1.07034204382888e+005,-3.67688852941571e+001,-2.08302001328740e+000

1.08528346195813e+005,-3.67690654929541e+001,-2.11187087133267e+000

1.10043345451179e+005,-3.67692502701341e+001,-2.14111572196356e+000

1.11579493308032e+005,-3.67694397296107e+001,-2.17075975183738e+000

1.13137084989847e+005,-3.67696339770395e+001,-2.20080821037664e+000

1.14716419841265e+005,-3.67698331198176e+001,-2.23126641045395e+000

1.16317801385624e+005,-3.67700372670815e+001,-2.26213972908632e+000

1.17941537383287e+005,-3.67702465297030e+001,-2.29343360814553e+000

1.19587939890794e+005,-3.67704610202840e+001,-2.32515355508139e+000

1.21257325320831e+005,-3.67706808531487e+001,-2.35730514366097e+000

1.22950014503040e+005,-3.67709061443349e+001,-2.38989401472450e+000

1.24666332745679e+005,-3.67711370115829e+001,-2.42292587695613e+000

1.26406609898139e+005,-3.67713735743224e+001,-2.45640650767715e+000

1.28171180414339e+005,-3.67716159536583e+001,-2.49034175365430e+000

1.29960383416997e+005,-3.67718642723533e+001,-2.52473753193137e+000

1.31774562762811e+005,-3.67721186548100e+001,-2.55959983068137e+000

1.33614067108538e+005,-3.67723792270495e+001,-2.59493471008127e+000

1.35479249978003e+005,-3.67726461166894e+001,-2.63074830321262e+000

1.37370469830040e+005,-3.67729194529187e+001,-2.66704681698657e+000

1.39288090127379e+005,-3.67731993664714e+001,-2.70383653309547e+000

1.41232479406504e+005,-3.67734859895978e+001,-2.74112380899446e+000

1.43204011348474e+005,-3.67737794560340e+001,-2.77891507891171e+000

1.45203064850745e+005,-3.67740799009696e+001,-2.81721685489055e+000

1.47230024099979e+005,-3.67743874610133e+001,-2.85603572786584e+000

1.49285278645888e+005,-3.67747022741567e+001,-2.89537836877338e+000

1.51369223476094e+005,-3.67750244797364e+001,-2.93525152969698e+000

1.53482259092041e+005,-3.67753542183950e+001,-2.97566204505376e+000

1.55624791585964e+005,-3.67756916320397e+001,-3.01661683281797e+000

1.57797232718936e+005,-3.67760368637999e+001,-3.05812289578977e+000

1.59999999999999e+005,-3.67763900579839e+001,-3.10018732290263e+000

1.62233516766403e+005,-3.67767513600336e+001,-3.14281729058130e+000

1.64498212264969e+005,-3.67771209164791e+001,-3.18602006414367e+000

1.66794521734578e+005,-3.67774988748923e+001,-3.22980299925220e+000

1.69122886489819e+005,-3.67778853838391e+001,-3.27417354341815e+000

1.71483754005805e+005,-3.67782805928330e+001,-3.31913923755556e+000

1.73877578004168e+005,-3.67786846522867e+001,-3.36470771759201e+000

1.76304818540256e+005,-3.67790977134654e+001,-3.41088671613550e+000

1.78765942091554e+005,-3.67795199284398e+001,-3.45768406419840e+000

1.81261421647326e+005,-3.67799514500398e+001,-3.50510769298243e+000

1.83791736799524e+005,-3.67803924318100e+001,-3.55316563572462e+000

1.86357373834951e+005,-3.67808430279659e+001,-3.60186602960631e+000

1.88958825828723e+005,-3.67813033933527e+001,-3.65121711772726e+000

1.91596592739027e+005,-3.67817736834056e+001,-3.70122725114513e+000

1.94271181503206e+005,-3.67822540541135e+001,-3.75190489098438e+000

1.96983106135185e+005,-3.67827446619855e+001,-3.80325861061042e+000

1.99732887824256e+005,-3.67832456640205e+001,-3.85529709787778e+000

2.02521055035243e+005,-3.67837572176821e+001,-3.90802915744538e+000

2.05348143610063e+005,-3.67842794808773e+001,-3.96146371316616e+000

2.08214696870707e+005,-3.67848126119398e+001,-4.01560981054801e+000

2.11121265723661e+005,-3.67853567696202e+001,-4.07047661928732e+000

2.14068408765776e+005,-3.67859121130818e+001,-4.12607343587651e+000

2.17056692391625e+005,-3.67864788019027e+001,-4.18240968628421e+000

2.20086690902357e+005,-3.67870569960867e+001,-4.23949492870940e+000

2.23158986616063e+005,-3.67876468560806e+001,-4.29733885640824e+000

2.26274169979693e+005,-3.67882485428010e+001,-4.35595130059327e+000

2.29432839682530e+005,-3.67888622176706e+001,-4.41534223340508e+000

2.32635602771247e+005,-3.67894880426636e+001,-4.47552177095346e+000

2.35883074766574e+005,-3.67901261803621e+001,-4.53650017642968e+000

2.39175879781588e+005,-3.67907767940235e+001,-4.59828786328570e+000

2.42514650641661e+005,-3.67914400476596e+001,-4.66089539848017e+000

2.45900029006080e+005,-3.67921161061284e+001,-4.72433350578790e+000

2.49332665491357e+005,-3.67928051352382e+001,-4.78861306917316e+000

2.52813219796278e+005,-3.67935073018664e+001,-4.85374513621943e+000

2.56342360828676e+005,-3.67942227740912e+001,-4.91974092161866e+000

2.59920766833993e+005,-3.67949517213393e+001,-4.98661181071191e+000

2.63549125525621e+005,-3.67956943145481e+001,-5.05436936308058e+000

2.67228134217075e+005,-3.67964507263440e+001,-5.12302531618446e+000

2.70958499956006e+005,-3.67972211312374e+001,-5.19259158904143e+000

2.74740939660078e+005,-3.67980057058336e+001,-5.26308028594646e+000

2.78576180254757e+005,-3.67988046290624e+001,-5.33450370022378e+000

2.82464958813007e+005,-3.67996180824240e+001,-5.40687431800855e+000

2.86408022696948e+005,-3.68004462502537e+001,-5.48020482205405e+000

2.90406129701488e+005,-3.68012893200049e+001,-5.55450809555746e+000

2.94460048199957e+005,-3.68021474825502e+001,-5.62979722600068e+000

2.98570557291775e+005,-3.68030209325024e+001,-5.70608550900071e+000

3.02738446952187e+005,-3.68039098685532e+001,-5.78338645216350e+000

3.06964518184081e+005,-3.68048144938325e+001,-5.86171377893645e+000

3.11249583171928e+005,-3.68057350162858e+001,-5.94108143245411e+000

3.15594465437872e+005,-3.68066716490714e+001,-6.02150357937129e+000

3.19999999999997e+005,-3.68076246109770e+001,-6.10299461367703e+000

3.24467033532806e+005,-3.68085941268551e+001,-6.18556916048630e+000

3.28996424529938e+005,-3.68095804280775e+001,-6.26924207980110e+000

3.33589043469155e+005,-3.68105837530089e+001,-6.35402847023773e+000

3.38245772979638e+005,-3.68116043474991e+001,-6.43994367271339e+000

3.42967508011610e+005,-3.68126424653929e+001,-6.52700327408749e+000

3.47755156008335e+005,-3.68136983690586e+001,-6.61522311075353e+000

3.52609637080511e+005,-3.68147723299342e+001,-6.70461927217462e+000

3.57531884183106e+005,-3.68158646290895e+001,-6.79520810435969e+000

3.62522843294651e+005,-3.68169755578067e+001,-6.88700621327565e+000

3.67583473599047e+005,-3.68181054181755e+001,-6.98003046819115e+000

3.72714747669902e+005,-3.68192545237044e+001,-7.07429800494746e+000

3.77917651657445e+005,-3.68204231999471e+001,-7.16982622915503e+000

3.83193185478053e+005,-3.68216117851429e+001,-7.26663281930993e+000

3.88542363006410e+005,-3.68228206308711e+001,-7.36473572982864e+000

3.93966212270369e+005,-3.68240501027178e+001,-7.46415319399952e+000

3.99465775648511e+005,-3.68253005809563e+001,-7.56490372684650e+000

4.05042110070485e+005,-3.68265724612374e+001,-7.66700612790618e+000

4.10696287220124e+005,-3.68278661552923e+001,-7.77047948391321e+000

4.16429393741414e+005,-3.68291820916448e+001,-7.87534317139798e+000

4.22242531447321e+005,-3.68305207163333e+001,-7.98161685918988e+000

4.28136817531551e+005,-3.68318824936415e+001,-8.08932051083243e+000

4.34113384783250e+005,-3.68332679068381e+001,-8.19847438690396e+000

4.40173381804713e+005,-3.68346774589233e+001,-8.30909904724970e+000

4.46317973232124e+005,-3.68361116733823e+001,-8.42121535312261e+000

4.52548339959385e+005,-3.68375710949455e+001,-8.53484446923599e+000

4.58865679365059e+005,-3.68390562903546e+001,-8.65000786572760e+000

4.65271205542494e+005,-3.68405678491339e+001,-8.76672732003886e+000

4.71766149533147e+005,-3.68421063843661e+001,-8.88502491870984e+000

4.78351759563174e+005,-3.68436725334732e+001,-9.00492305909228e+000

4.85029301283321e+005,-3.68452669590009e+001,-9.12644445098447e+000

4.91800058012158e+005,-3.68468903494069e+001,-9.24961211818743e+000

4.98665330982714e+005,-3.68485434198530e+001,-9.37444939998948e+000

5.05626439592555e+005,-3.68502269129996e+001,-9.50097995257772e+000

5.12684721657352e+005,-3.68519415998041e+001,-9.62922775038211e+000

5.19841533667984e+005,-3.68536882803221e+001,-9.75921708735472e+000

5.27098251051240e+005,-3.68554677845109e+001,-9.89097257818545e+000

5.34456268434150e+005,-3.68572809730371e+001,-1.00245191594592e+001

5.41916999912011e+005,-3.68591287380861e+001,-1.01598820907558e+001

