Freq.,VOut,OutRef

1.00000000000000e+004,-1.98059258592065e+001,-2.80360029484504e-001

1.01395947979003e+004,-1.98059282762431e+001,-2.84273415386889e-001

1.02811382665607e+004,-1.98059307611684e+001,-2.88241417635611e-001

1.04246576084112e+004,-1.98059333158878e+001,-2.92264798116118e-001

1.05701804056138e+004,-1.98059359423593e+001,-2.96344329328785e-001

1.07177346253629e+004,-1.98059386425962e+001,-3.00480794533593e-001

1.08673486252606e+004,-1.98059414186682e+001,-3.04674987898988e-001

1.10190511587661e+004,-1.98059442727026e+001,-3.08927714655412e-001

1.11728713807222e+004,-1.98059472068866e+001,-3.13239791247431e-001

1.13288388529580e+004,-1.98059502234685e+001,-3.17612045488457e-001

1.14869835499703e+004,-1.98059533247595e+001,-3.22045316719506e-001

1.16473358646846e+004,-1.98059565131354e+001,-3.26540455968367e-001

1.18099266142953e+004,-1.98059597910385e+001,-3.31098326111844e-001

1.19747870461893e+004,-1.98059631609797e+001,-3.35719802037856e-001

1.21419488439505e+004,-1.98059666255398e+001,-3.40405770814894e-001

1.23114441334492e+004,-1.98059701873718e+001,-3.45157131859948e-001

1.24833054890161e+004,-1.98059738492032e+001,-3.49974797106114e-001

1.26575659397028e+004,-1.98059776138373e+001,-3.54859691179919e-001

1.28342589756290e+004,-1.98059814841561e+001,-3.59812751575084e-001

1.30134185544193e+004,-1.98059854631222e+001,-3.64834928829227e-001

1.31950791077289e+004,-1.98059895537807e+001,-3.69927186707467e-001

1.33792755478611e+004,-1.98059937592619e+001,-3.75090502381500e-001

1.35660432744767e+004,-1.98059980827837e+001,-3.80325866617333e-001

1.37554181813974e+004,-1.98060025276537e+001,-3.85634283962792e-001

1.39474366635040e+004,-1.98060070972720e+001,-3.91016772936666e-001

1.41421356237309e+004,-1.98060117951335e+001,-3.96474366222562e-001

1.43395524801583e+004,-1.98060166248308e+001,-4.02008110863645e-001

1.45397251732031e+004,-1.98060215900566e+001,-4.07619068462475e-001

1.47426921729110e+004,-1.98060266946068e+001,-4.13308315379049e-001

1.49484924863494e+004,-1.98060319423832e+001,-4.19076942936628e-001

1.51571656651040e+004,-1.98060373373963e+001,-4.24926057626489e-001

1.53687518128801e+004,-1.98060428837686e+001,-4.30856781318399e-001

1.55832915932100e+004,-1.98060485857374e+001,-4.36870251469879e-001

1.58008262372675e+004,-1.98060544476581e+001,-4.42967621344762e-001

1.60213975517924e+004,-1.98060604740076e+001,-4.49150060226097e-001

1.62450479271247e+004,-1.98060666693874e+001,-4.55418753640231e-001

1.64718203453514e+004,-1.98060730385272e+001,-4.61774903578208e-001

1.67017583885674e+004,-1.98060795862885e+001,-4.68219728721665e-001

1.69349062472505e+004,-1.98060863176680e+001,-4.74754464675003e-001

1.71713087287550e+004,-1.98060932378015e+001,-4.81380364193981e-001

1.74110112659224e+004,-1.98061003519677e+001,-4.88098697423893e-001

1.76540599258131e+004,-1.98061076655921e+001,-4.94910752137143e-001

1.79005014185594e+004,-1.98061151842509e+001,-5.01817833976005e-001

1.81503831063432e+004,-1.98061229136758e+001,-5.08821266693984e-001

1.84037530124975e+004,-1.98061308597573e+001,-5.15922392408632e-001

1.86606598307361e+004,-1.98061390285495e+001,-5.23122571851048e-001

1.89211529345119e+004,-1.98061474262750e+001,-5.30423184620032e-001

1.91852823865052e+004,-1.98061560593288e+001,-5.37825629439882e-001

1.94530989482457e+004,-1.98061649342836e+001,-5.45331324423484e-001

1.97246540898671e+004,-1.98061740578941e+001,-5.52941707336752e-001

1.99999999999999e+004,-1.98061834371028e+001,-5.60658235864603e-001

2.02791895958005e+004,-1.98061930790440e+001,-5.68482387887054e-001

2.05622765331213e+004,-1.98062029910502e+001,-5.76415661750371e-001

2.08493152168224e+004,-1.98062131806568e+001,-5.84459576548312e-001

2.11403608112276e+004,-1.98062236556077e+001,-5.92615672404300e-001

2.14354692507258e+004,-1.98062344238612e+001,-6.00885510758382e-001

2.17346972505211e+004,-1.98062454935958e+001,-6.09270674654880e-001

2.20381023175322e+004,-1.98062568732159e+001,-6.17772769038371e-001

2.23457427614443e+004,-1.98062685713582e+001,-6.26393421049775e-001

2.26576777059159e+004,-1.98062805968981e+001,-6.35134280328048e-001

2.29739670999406e+004,-1.98062929589559e+001,-6.43997019314703e-001

2.32946717293690e+004,-1.98063056669037e+001,-6.52983333563834e-001

2.36198532285905e+004,-1.98063187303717e+001,-6.62094942053895e-001

2.39495740923785e+004,-1.98063321592558e+001,-6.71333587504996e-001

2.42838976879009e+004,-1.98063459637245e+001,-6.80701036700118e-001

2.46228882668982e+004,-1.98063601542263e+001,-6.90199080809076e-001

2.49666109780322e+004,-1.98063747414970e+001,-6.99829535718524e-001

2.53151318794055e+004,-1.98063897365677e+001,-7.09594242364128e-001

2.56685179512580e+004,-1.98064051507727e+001,-7.19495067068383e-001

2.60268371088386e+004,-1.98064209957575e+001,-7.29533901882521e-001

2.63901582154578e+004,-1.98064372834873e+001,-7.39712664930689e-001

2.67585510957221e+004,-1.98064540262554e+001,-7.50033300762153e-001

2.71320865489533e+004,-1.98064712366919e+001,-7.60497780703758e-001

2.75108363627948e+004,-1.98064889277731e+001,-7.71108103218876e-001

2.78948733270080e+004,-1.98065071128303e+001,-7.81866294271404e-001

2.82842712474618e+004,-1.98065258055591e+001,-7.92774407692904e-001

2.86791049603164e+004,-1.98065450200296e+001,-8.03834525553783e-001

2.90794503464061e+004,-1.98065647706961e+001,-8.15048758540631e-001

2.94853843458219e+004,-1.98065850724070e+001,-8.26419246336296e-001

2.98969849726987e+004,-1.98066059404156e+001,-8.37948158007708e-001

3.03143313302078e+004,-1.98066273903905e+001,-8.49637692392452e-001

3.07375036257601e+004,-1.98066494384266e+001,-8.61490078497302e-001

3.11665831864199e+004,-1.98066721010563e+001,-8.73507575895474e-001

3.16016524745350e+004,-1.98066953952610e+001,-8.85692475131290e-001

3.20427951035848e+004,-1.98067193384829e+001,-8.98047098129503e-001

3.24900958542493e+004,-1.98067439486366e+001,-9.10573798609785e-001

3.29436406907028e+004,-1.98067692441222e+001,-9.23274962502750e-001

3.34035167771346e+004,-1.98067952438371e+001,-9.36153008376865e-001

3.38698124945009e+004,-1.98068219671894e+001,-9.49210387864329e-001

3.43426174575100e+004,-1.98068494341107e+001,-9.62449586095047e-001

3.48220225318448e+004,-1.98068776650701e+001,-9.75873122134565e-001

3.53081198516260e+004,-1.98069066810876e+001,-9.89483549427590e-001

3.58010028371187e+004,-1.98069365037484e+001,-1.00328345624585e+000

3.63007662126863e+004,-1.98069671552175e+001,-1.01727546614104e+000

3.68075060249948e+004,-1.98069986582540e+001,-1.03146223840380e+000

3.73213196614721e+004,-1.98070310362270e+001,-1.04584646852519e+000

3.78423058690237e+004,-1.98070643131302e+001,-1.06043088866703e+000

3.83705647730104e+004,-1.98070985135984e+001,-1.07521826813396e+000

3.89061978964912e+004,-1.98071336629233e+001,-1.09021141385187e+000

3.94493081797342e+004,-1.98071697870700e+001,-1.10541317085343e+000

3.99999999999998e+004,-1.98072069126942e+001,-1.12082642276388e+000

4.05583791916010e+004,-1.98072450671587e+001,-1.13645409229779e+000

4.11245530662425e+004,-1.98072842785520e+001,-1.15229914175740e+000

4.16986304336447e+004,-1.98073245757052e+001,-1.16836457353649e+000

4.22807216224550e+004,-1.98073659882112e+001,-1.18465343063001e+000

4.28709385014515e+004,-1.98074085464431e+001,-1.20116879714967e+000

4.34693945010421e+004,-1.98074522815729e+001,-1.21791379884445e+000

4.40762046350642e+004,-1.98074972255917e+001,-1.23489160362402e+000

4.46914855228886e+004,-1.98075434113290e+001,-1.25210542209182e+000

4.53153554118317e+004,-1.98075908724733e+001,-1.26955850807866e+000

4.59479341998812e+004,-1.98076396435923e+001,-1.28725415918593e+000

4.65893434587380e+004,-1.98076897601548e+001,-1.30519571733006e+000

4.72397064571810e+004,-1.98077412585509e+001,-1.32338656929636e+000

4.78991481847569e+004,-1.98077941761151e+001,-1.34183014729401e+000

4.85677953758016e+004,-1.98078485511476e+001,-1.36052992951962e+000

4.92457765337964e+004,-1.98079044229375e+001,-1.37948944072339e+000

4.99332219560642e+004,-1.98079618317854e+001,-1.39871225278366e+000

5.06302637588109e+004,-1.98080208190272e+001,-1.41820198528348e+000

5.13370359025159e+004,-1.98080814270577e+001,-1.43796230609407e+000

5.20536742176771e+004,-1.98081436993549e+001,-1.45799693196388e+000

5.27803164309155e+004,-1.98082076805045e+001,-1.47830962911172e+000

5.35171021914442e+004,-1.98082734162251e+001,-1.49890421382575e+000

5.42641730979066e+004,-1.98083409533932e+001,-1.51978455306813e+000

5.50216727255895e+004,-1.98084103400696e+001,-1.54095456508323e+000

5.57897466540159e+004,-1.98084816255248e+001,-1.56241822001304e+000

5.65685424949235e+004,-1.98085548602660e+001,-1.58417954051598e+000

5.73582099206328e+004,-1.98086300960636e+001,-1.60624260239286e+000

5.81589006928121e+004,-1.98087073859787e+001,-1.62861153521497e+000

5.89707686916437e+004,-1.98087867843906e+001,-1.65129052296099e+000

5.97939699453972e+004,-1.98088683470245e+001,-1.67428380465535e+000

6.06286626604156e+004,-1.98089521309799e+001,-1.69759567501439e+000

6.14750072515201e+004,-1.98090381947589e+001,-1.72123048509566e+000

6.23331663728396e+004,-1.98091265982952e+001,-1.74519264295484e+000

6.32033049490698e+004,-1.98092174029831e+001,-1.76948661430337e+000

6.40855902071694e+004,-1.98093106717067e+001,-1.79411692317654e+000

6.49801917084985e+004,-1.98094064688698e+001,-1.81908815260126e+000

6.58872813814055e+004,-1.98095048604252e+001,-1.84440494527328e+000

6.68070335542691e+004,-1.98096059139053e+001,-1.87007200423626e+000

6.77396249890018e+004,-1.98097096984520e+001,-1.89609409356721e+000

6.86852349150199e+004,-1.98098162848466e+001,-1.92247603906734e+000

6.96440450636895e+004,-1.98099257455413e+001,-1.94922272895645e+000

7.06162397032520e+004,-1.98100381546887e+001,-1.97633911457386e+000

7.16020056742374e+004,-1.98101535881733e+001,-2.00383021108308e+000

7.26015324253724e+004,-1.98102721236414e+001,-2.03170109818274e+000

7.36150120499896e+004,-1.98103938405327e+001,-2.05995692082142e+000

7.46426393229441e+004,-1.98105188201102e+001,-2.08860288991822e+000

7.56846117380472e+004,-1.98106471454912e+001,-2.11764428308892e+000

7.67411295460207e+004,-1.98107789016775e+001,-2.14708644537668e+000

7.78123957929823e+004,-1.98109141755863e+001,-2.17693478998721e+000

7.88986163594682e+004,-1.98110530560798e+001,-2.20719479903209e+000

7.99999999999995e+004,-1.98111956339957e+001,-2.23787202427342e+000

8.11167583832018e+004,-1.98113420021764e+001,-2.26897208787863e+000

8.22491061324848e+004,-1.98114922554985e+001,-2.30050068317660e+000

8.33972608672892e+004,-1.98116464909017e+001,-2.33246357542350e+000

8.45614432449099e+004,-1.98118048074176e+001,-2.36486660257082e+000

8.57418770029029e+004,-1.98119673061974e+001,-2.39771567604245e+000

8.69387890020841e+004,-1.98121340905397e+001,-2.43101678151668e+000

8.81524092701283e+004,-1.98123052659167e+001,-2.46477597971484e+000

8.93829710457770e+004,-1.98124809400015e+001,-2.49899940719688e+000

9.06307108236633e+004,-1.98126612226923e+001,-2.53369327716396e+000

9.18958683997622e+004,-1.98128462261382e+001,-2.56886388026819e+000

9.31786869174758e+004,-1.98130360647619e+001,-2.60451758542995e+000

9.44794129143618e+004,-1.98132308552834e+001,-2.64066084066296e+000

9.57982963695136e+004,-1.98134307167412e+001,-2.67730017390820e+000

9.71355907516031e+004,-1.98136357705132e+001,-2.71444219387615e+000

9.84915530675926e+004,-1.98138461403363e+001,-2.75209359089789e+000

9.98664439121282e+004,-1.98140619523246e+001,-2.79026113778661e+000

1.01260527517622e+005,-1.98142833349862e+001,-2.82895169070786e+000

1.02674071805032e+005,-1.98145104192388e+001,-2.86817219006292e+000

1.04107348435354e+005,-1.98147433384237e+001,-2.90792966138065e+000

1.05560632861831e+005,-1.98149822283185e+001,-2.94823121622308e+000

1.07034204382888e+005,-1.98152272271474e+001,-2.98908405310276e+000

1.08528346195813e+005,-1.98154784755907e+001,-3.03049545841478e+000

1.10043345451179e+005,-1.98157361167918e+001,-3.07247280738089e+000

1.11579493308032e+005,-1.98160002963626e+001,-3.11502356501111e+000

1.13137084989847e+005,-1.98162711623866e+001,-3.15815528707866e+000

1.14716419841265e+005,-1.98165488654206e+001,-3.20187562111384e+000

1.16317801385624e+005,-1.98168335584936e+001,-3.24619230741488e+000

1.17941537383287e+005,-1.98171253971038e+001,-3.29111318007834e+000

1.19587939890794e+005,-1.98174245392132e+001,-3.33664616804860e+000

1.21257325320831e+005,-1.98177311452399e+001,-3.38279929619045e+000

1.22950014503040e+005,-1.98180453780480e+001,-3.42958068638212e+000

1.24666332745679e+005,-1.98183674029353e+001,-3.47699855863454e+000

1.26406609898139e+005,-1.98186973876177e+001,-3.52506123223454e+000

1.28171180414339e+005,-1.98190355022119e+001,-3.57377712691559e+000

1.29960383416997e+005,-1.98193819192154e+001,-3.62315476405616e+000

1.31774562762811e+005,-1.98197368134828e+001,-3.67320276790979e+000

1.33614067108538e+005,-1.98201003622012e+001,-3.72392986686494e+000

1.35479249978003e+005,-1.98204727448614e+001,-3.77534489474037e+000

1.37370469830040e+005,-1.98208541432273e+001,-3.82745679211416e+000

1.39288090127379e+005,-1.98212447413023e+001,-3.88027460769143e+000

1.41232479406504e+005,-1.98216447252932e+001,-3.93380749971005e+000

1.43204011348474e+005,-1.98220542835714e+001,-3.98806473738932e+000

1.45203064850745e+005,-1.98224736066318e+001,-4.04305570241994e+000

1.47230024099979e+005,-1.98229028870490e+001,-4.09878989050170e+000

1.49285278645888e+005,-1.98233423194310e+001,-4.15527691292773e+000

1.51369223476094e+005,-1.98237921003712e+001,-4.21252649821843e+000

1.53482259092041e+005,-1.98242524283974e+001,-4.27054849380983e+000

1.55624791585964e+005,-1.98247235039198e+001,-4.32935286779421e+000

1.57797232718936e+005,-1.98252055291759e+001,-4.38894971072029e+000

1.59999999999999e+005,-1.98256987081751e+001,-4.44934923745034e+000

1.62233516766403e+005,-1.98262032466407e+001,-4.51056178908229e+000

1.64498212264969e+005,-1.98267193519515e+001,-4.57259783493448e+000

1.66794521734578e+005,-1.98272472330819e+001,-4.63546797459765e+000

1.69122886489819e+005,-1.98277871005416e+001,-4.69918294005738e+000

1.71483754005805e+005,-1.98283391663149e+001,-4.76375359788759e+000

1.73877578004168e+005,-1.98289036438000e+001,-4.82919095151838e+000

1.76304818540256e+005,-1.98294807477485e+001,-4.89550614358197e+000

1.78765942091554e+005,-1.98300706942060e+001,-4.96271045833598e+000

1.81261421647326e+005,-1.98306737004536e+001,-5.03081532416961e+000

1.83791736799524e+005,-1.98312899849508e+001,-5.09983231619337e+000

1.86357373834951e+005,-1.98319197672814e+001,-5.16977315891321e+000

1.88958825828723e+005,-1.98325632681012e+001,-5.24064972899466e+000

1.91596592739027e+005,-1.98332207090891e+001,-5.31247405811486e+000

1.94271181503206e+005,-1.98338923129026e+001,-5.38525833590704e+000

1.96983106135185e+005,-1.98345783031365e+001,-5.45901491299803e+000

1.99732887824256e+005,-1.98352789042881e+001,-5.53375630413986e+000

2.02521055035243e+005,-1.98359943417268e+001,-5.60949519143778e+000

2.05348143610063e+005,-1.98367248416711e+001,-5.68624442767458e+000

2.08214696870707e+005,-1.98374706311719e+001,-5.76401703973296e+000

2.11121265723661e+005,-1.98382319381044e+001,-5.84282623211537e+000

2.14068408765776e+005,-1.98390089911681e+001,-5.92268539056448e+000

2.17056692391625e+005,-1.98398020198967e+001,-6.00360808577901e+000

2.20086690902357e+005,-1.98406112546776e+001,-6.08560807723111e+000

2.23158986616063e+005,-1.98414369267833e+001,-6.16869931708004e+000

2.26274169979693e+005,-1.98422792684140e+001,-6.25289595418297e+000

2.29432839682530e+005,-1.98431385127531e+001,-6.33821233820145e+000

2.32635602771247e+005,-1.98440148940366e+001,-6.42466302380336e+000

2.35883074766574e+005,-1.98449086476369e+001,-6.51226277495608e+000

2.39175879781588e+005,-1.98458200101615e+001,-6.60102656930965e+000

2.42514650641661e+005,-1.98467492195682e+001,-6.69096960266915e+000

2.45900029006080e+005,-1.98476965152974e+001,-6.78210729355012e+000

2.49332665491357e+005,-1.98486621384222e+001,-6.87445528781539e+000

2.52813219796278e+005,-1.98496463318170e+001,-6.96802946339085e+000

2.56342360828676e+005,-1.98506493403457e+001,-7.06284593505260e+000

2.59920766833993e+005,-1.98516714110703e+001,-7.15892105928373e+000

2.63549125525621e+005,-1.98527127934803e+001,-7.25627143919676e+000

2.67228134217075e+005,-1.98537737397437e+001,-7.35491392951130e+000

2.70958499956006e+005,-1.98548545049808e+001,-7.45486564158868e+000

2.74740939660078e+005,-1.98559553475607e+001,-7.55614394851121e+000

2.78576180254757e+005,-1.98570765294211e+001,-7.65876649020391e+000

2.82464958813007e+005,-1.98582183164133e+001,-7.76275117858966e+000

2.86408022696948e+005,-1.98593809786704e+001,-7.86811620277332e+000

2.90406129701488e+005,-1.98605647910015e+001,-7.97488003424473e+000

2.94460048199957e+005,-1.98617700333110e+001,-8.08306143209692e+000

2.98570557291775e+005,-1.98629969910435e+001,-8.19267944824803e+000

3.02738446952187e+005,-1.98642459556547e+001,-8.30375343266274e+000

3.06964518184081e+005,-1.98655172251080e+001,-8.41630303856395e+000

3.11249583171928e+005,-1.98668111043979e+001,-8.53034822762512e+000

3.15594465437872e+005,-1.98681279060986e+001,-8.64590927513906e+000

3.19999999999997e+005,-1.98694679509399e+001,-8.76300677515161e+000

3.24467033532806e+005,-1.98708315684070e+001,-8.88166164555413e+000

3.28996424529938e+005,-1.98722190973685e+001,-9.00189513312603e+000

3.33589043469155e+005,-1.98736308867276e+001,-9.12372881852027e+000

3.38245772979638e+005,-1.98750672960993e+001,-9.24718462118297e+000

3.42967508011610e+005,-1.98765286965120e+001,-9.37228480420058e+000

3.47755156008335e+005,-1.98780154711332e+001,-9.49905197906664e+000

3.52609637080511e+005,-1.98795280160179e+001,-9.62750911036159e+000

3.57531884183106e+005,-1.98810667408812e+001,-9.75767952033784e+000

3.62522843294651e+005,-1.98826320698910e+001,-9.88958689340499e+000

3.67583473599047e+005,-1.98842244424838e+001,-1.00232552805075e+001

3.72714747669902e+005,-1.98858443141997e+001,-1.01587091033901e+001

3.77917651657445e+005,-1.98874921575374e+001,-1.02959731587454e+001

3.83193185478053e+005,-1.98891684628277e+001,-1.04350726222386e+001

3.88542363006410e+005,-1.98908737391247e+001,-1.05760330524043e+001

3.93966212270369e+005,-1.98926085151139e+001,-1.07188803944133e+001

3.99465775648511e+005,-1.98943733400355e+001,-1.08636409837019e+001

4.05042110070485e+005,-1.98961687846225e+001,-1.10103415494666e+001

4.10696287220124e+005,-1.98979954420523e+001,-1.11590092180153e+001

4.16429393741414e+005,-1.98998539289112e+001,-1.13096715159781e+001

4.22242531447321e+005,-1.99017448861700e+001,-1.14623563733727e+001

4.28136817531551e+005,-1.99036689801701e+001,-1.16170921265248e+001

4.34113384783250e+005,-1.99056269036189e+001,-1.17739075208440e+001

4.40173381804713e+005,-1.99076193765941e+001,-1.19328317134520e+001

4.46317973232124e+005,-1.99096471475546e+001,-1.20938942756666e+001

4.52548339959385e+005,-1.99117109943591e+001,-1.22571251953405e+001

4.58865679365059e+005,-1.99138117252891e+001,-1.24225548790564e+001

4.65271205542494e+005,-1.99159501800774e+001,-1.25902141541803e+001

4.71766149533147e+005,-1.99181272309404e+001,-1.27601342707738e+001

4.78351759563174e+005,-1.99203437836136e+001,-1.29323469033691e+001

4.85029301283321e+005,-1.99226007783892e+001,-1.31068841526073e+001

4.91800058012158e+005,-1.99248991911565e+001,-1.32837785467446e+001

4.98665330982714e+005,-1.99272400344430e+001,-1.34630630430269e+001

5.05626439592555e+005,-1.99296243584560e+001,-1.36447710289380e+001

5.12684721657352e+005,-1.99320532521255e+001,-1.38289363233218e+001

5.19841533667984e+005,-1.99345278441462e+001,-1.40155931773848e+001

5.27098251051240e+005,-1.99370493040201e+001,-1.42047762755789e+001

5.34456268434150e+005,-1.99396188430975e+001,-1.43965207363687e+001

5.41916999912011e+005,-1.99422377156184e+001,-1.45908621128868e+001

