Freq.,VOut,OutRef

1.00000000000000e+004,-1.53575635467740e+001,-1.27740217132376e-001

1.01395947979003e+004,-1.53575653977775e+001,-1.29523101285814e-001

1.02811382665607e+004,-1.53575673007529e+001,-1.31330860727002e-001

1.04246576084112e+004,-1.53575692571576e+001,-1.33163842156232e-001

1.05701804056138e+004,-1.53575712684899e+001,-1.35022397090691e-001

1.07177346253629e+004,-1.53575733362894e+001,-1.36906881933511e-001

1.08673486252606e+004,-1.53575754621394e+001,-1.38817658033601e-001

1.10190511587661e+004,-1.53575776476670e+001,-1.40755091761694e-001

1.11728713807222e+004,-1.53575798945451e+001,-1.42719554572846e-001

1.13288388529580e+004,-1.53575822044930e+001,-1.44711423081355e-001

1.14869835499703e+004,-1.53575845792786e+001,-1.46731079126274e-001

1.16473358646846e+004,-1.53575870207183e+001,-1.48778909850940e-001

1.18099266142953e+004,-1.53575895306800e+001,-1.50855307765930e-001

1.19747870461893e+004,-1.53575921110835e+001,-1.52960670829866e-001

1.21419488439505e+004,-1.53575947639023e+001,-1.55095402521491e-001

1.23114441334492e+004,-1.53575974911647e+001,-1.57259911915737e-001

1.24833054890161e+004,-1.53576002949559e+001,-1.59454613759021e-001

1.26575659397028e+004,-1.53576031774190e+001,-1.61679928550128e-001

1.28342589756290e+004,-1.53576061407572e+001,-1.63936282614466e-001

1.30134185544193e+004,-1.53576091872349e+001,-1.66224108186292e-001

1.31950791077289e+004,-1.53576123191797e+001,-1.68543843489561e-001

1.33792755478611e+004,-1.53576155389842e+001,-1.70895932818286e-001

1.35660432744767e+004,-1.53576188491076e+001,-1.73280826619916e-001

1.37554181813974e+004,-1.53576222520777e+001,-1.75698981579366e-001

1.39474366635040e+004,-1.53576257504922e+001,-1.78150860706266e-001

1.41421356237309e+004,-1.53576293470219e+001,-1.80636933413651e-001

1.43395524801583e+004,-1.53576330444115e+001,-1.83157675615501e-001

1.45397251732031e+004,-1.53576368454823e+001,-1.85713569804008e-001

1.47426921729110e+004,-1.53576407531338e+001,-1.88305105150252e-001

1.49484924863494e+004,-1.53576447703466e+001,-1.90932777583692e-001

1.51571656651040e+004,-1.53576489001837e+001,-1.93597089893628e-001

1.53687518128801e+004,-1.53576531457936e+001,-1.96298551814203e-001

1.55832915932100e+004,-1.53576575104124e+001,-1.99037680122940e-001

1.58008262372675e+004,-1.53576619973655e+001,-2.01814998735751e-001

1.60213975517924e+004,-1.53576666100713e+001,-2.04631038801775e-001

1.62450479271247e+004,-1.53576713520427e+001,-2.07486338800495e-001

1.64718203453514e+004,-1.53576762268905e+001,-2.10381444643515e-001

1.67017583885674e+004,-1.53576812383252e+001,-2.13316909771309e-001

1.69349062472505e+004,-1.53576863901605e+001,-2.16293295257963e-001

1.71713087287550e+004,-1.53576916863156e+001,-2.19311169910752e-001

1.74110112659224e+004,-1.53576971308185e+001,-2.22371110374911e-001

1.76540599258131e+004,-1.53577027278087e+001,-2.25473701240420e-001

1.79005014185594e+004,-1.53577084815404e+001,-2.28619535144421e-001

1.81503831063432e+004,-1.53577143963856e+001,-2.31809212883754e-001

1.84037530124975e+004,-1.53577204768367e+001,-2.35043343521740e-001

1.86606598307361e+004,-1.53577267275109e+001,-2.38322544498030e-001

1.89211529345119e+004,-1.53577331531529e+001,-2.41647441740792e-001

1.91852823865052e+004,-1.53577397586382e+001,-2.45018669779476e-001

1.94530989482457e+004,-1.53577465489772e+001,-2.48436871860884e-001

1.97246540898671e+004,-1.53577535293184e+001,-2.51902700062083e-001

1.99999999999999e+004,-1.53577607049526e+001,-2.55416815408644e-001

2.02791895958005e+004,-1.53577680813158e+001,-2.58979887995945e-001

2.05622765331213e+004,-1.53577756639945e+001,-2.62592597103210e-001

2.08493152168224e+004,-1.53577834587286e+001,-2.66255631320974e-001

2.11403608112276e+004,-1.53577914714158e+001,-2.69969688670438e-001

2.14354692507258e+004,-1.53577997081165e+001,-2.73735476726550e-001

2.17346972505211e+004,-1.53578081750573e+001,-2.77553712745481e-001

2.20381023175322e+004,-1.53578168786360e+001,-2.81425123792289e-001

2.23457427614443e+004,-1.53578258254259e+001,-2.85350446866906e-001

2.26576777059159e+004,-1.53578350221807e+001,-2.89330429035400e-001

2.29739670999406e+004,-1.53578444758388e+001,-2.93365827562289e-001

2.32946717293690e+004,-1.53578541935296e+001,-2.97457410039171e-001

2.36198532285905e+004,-1.53578641825765e+001,-3.01605954524682e-001

2.39495740923785e+004,-1.53578744505039e+001,-3.05812249675414e-001

2.42838976879009e+004,-1.53578850050415e+001,-3.10077094885970e-001

2.46228882668982e+004,-1.53578958541305e+001,-3.14401300423217e-001

2.49666109780322e+004,-1.53579070059283e+001,-3.18785687573504e-001

2.53151318794055e+004,-1.53579184688148e+001,-3.23231088778046e-001

2.56685179512580e+004,-1.53579302513980e+001,-3.27738347778243e-001

2.60268371088386e+004,-1.53579423625205e+001,-3.32308319759072e-001

2.63901582154578e+004,-1.53579548112649e+001,-3.36941871496820e-001

2.67585510957221e+004,-1.53579676069608e+001,-3.41639881505323e-001

2.71320865489533e+004,-1.53579807591904e+001,-3.46403240185784e-001

2.75108363627948e+004,-1.53579942777961e+001,-3.51232849975482e-001

2.78948733270080e+004,-1.53580081728867e+001,-3.56129625500675e-001

2.82842712474618e+004,-1.53580224548443e+001,-3.61094493729417e-001

2.86791049603164e+004,-1.53580371343314e+001,-3.66128394129224e-001

2.90794503464061e+004,-1.53580522222984e+001,-3.71232278816937e-001

2.94853843458219e+004,-1.53580677299907e+001,-3.76407112724048e-001

2.98969849726987e+004,-1.53580836689566e+001,-3.81653873749641e-001

3.03143313302078e+004,-1.53581000510546e+001,-3.86973552924537e-001

3.07375036257601e+004,-1.53581168884619e+001,-3.92367154571428e-001

3.11665831864199e+004,-1.53581341936822e+001,-3.97835696469848e-001

3.16016524745350e+004,-1.53581519795536e+001,-4.03380210020305e-001

3.20427951035848e+004,-1.53581702592583e+001,-4.09001740408337e-001

3.24900958542493e+004,-1.53581890463299e+001,-4.14701346776062e-001

3.29436406907028e+004,-1.53582083546627e+001,-4.20480102388529e-001

3.34035167771346e+004,-1.53582281985216e+001,-4.26339094803561e-001

3.38698124945009e+004,-1.53582485925500e+001,-4.32279426044800e-001

3.43426174575100e+004,-1.53582695517801e+001,-4.38302212774115e-001

3.48220225318448e+004,-1.53582910916423e+001,-4.44408586465208e-001

3.53081198516260e+004,-1.53583132279752e+001,-4.50599693578801e-001

3.58010028371187e+004,-1.53583359770351e+001,-4.56876695741775e-001

3.63007662126863e+004,-1.53583593555070e+001,-4.63240769920687e-001

3.68075060249948e+004,-1.53583833805146e+001,-4.69693108603536e-001

3.73213196614721e+004,-1.53584080696311e+001,-4.76234919979441e-001

3.78423058690237e+004,-1.53584334408899e+001,-4.82867428119492e-001

3.83705647730104e+004,-1.53584595127958e+001,-4.89591873159542e-001

3.89061978964912e+004,-1.53584863043365e+001,-4.96409511482961e-001

3.94493081797342e+004,-1.53585138349936e+001,-5.03321615904834e-001

3.99999999999998e+004,-1.53585421247547e+001,-5.10329475857331e-001

4.05583791916010e+004,-1.53585711941253e+001,-5.17434397575712e-001

4.11245530662425e+004,-1.53586010641407e+001,-5.24637704286276e-001

4.16986304336447e+004,-1.53586317563785e+001,-5.31940736392832e-001

4.22807216224550e+004,-1.53586632929712e+001,-5.39344851666013e-001

4.28709385014515e+004,-1.53586956966187e+001,-5.46851425432466e-001

4.34693945010421e+004,-1.53587289906018e+001,-5.54461850763914e-001

4.40762046350642e+004,-1.53587631987945e+001,-5.62177538669932e-001

4.46914855228886e+004,-1.53587983456782e+001,-5.69999918286866e-001

4.53153554118317e+004,-1.53588344563550e+001,-5.77930437069326e-001

4.59479341998812e+004,-1.53588715565611e+001,-5.85970560984484e-001

4.65893434587380e+004,-1.53589096726813e+001,-5.94121774702109e-001

4.72397064571810e+004,-1.53589488317626e+001,-6.02385581788303e-001

4.78991481847569e+004,-1.53589890615291e+001,-6.10763504897743e-001

4.85677953758016e+004,-1.53590303903960e+001,-6.19257085967289e-001

4.92457765337964e+004,-1.53590728474844e+001,-6.27867886408773e-001

4.99332219560642e+004,-1.53591164626363e+001,-6.36597487301875e-001

5.06302637588109e+004,-1.53591612664294e+001,-6.45447489586866e-001

5.13370359025159e+004,-1.53592072901923e+001,-6.54419514257750e-001

5.20536742176771e+004,-1.53592545660192e+001,-6.63515202556315e-001

5.27803164309155e+004,-1.53593031267865e+001,-6.72736216160152e-001

5.35171021914442e+004,-1.53593530061669e+001,-6.82084237379097e-001

5.42641730979066e+004,-1.53594042386463e+001,-6.91560969342841e-001

5.50216727255895e+004,-1.53594568595381e+001,-7.01168136193515e-001

5.57897466540159e+004,-1.53595109050001e+001,-7.10907483274851e-001

5.65685424949235e+004,-1.53595664120495e+001,-7.20780777322694e-001

5.73582099206328e+004,-1.53596234185793e+001,-7.30789806649621e-001

5.81589006928121e+004,-1.53596819633738e+001,-7.40936381335775e-001

5.89707686916437e+004,-1.53597420861245e+001,-7.51222333413667e-001

5.97939699453972e+004,-1.53598038274460e+001,-7.61649517051929e-001

6.06286626604156e+004,-1.53598672288918e+001,-7.72219808740063e-001

6.14750072515201e+004,-1.53599323329701e+001,-7.82935107470513e-001

6.23331663728396e+004,-1.53599991831587e+001,-7.93797334919563e-001

6.32033049490698e+004,-1.53600678239218e+001,-8.04808435624871e-001

6.40855902071694e+004,-1.53601383007242e+001,-8.15970377163621e-001

6.49801917084985e+004,-1.53602106600470e+001,-8.27285150329696e-001

6.58872813814055e+004,-1.53602849494025e+001,-8.38754769303795e-001

6.68070335542691e+004,-1.53603612173486e+001,-8.50381271828836e-001

6.77396249890018e+004,-1.53604395135037e+001,-8.62166719376179e-001

6.86852349150199e+004,-1.53605198885604e+001,-8.74113197315271e-001

6.96440450636895e+004,-1.53606023942994e+001,-8.86222815076819e-001

7.06162397032520e+004,-1.53606870836029e+001,-8.98497706318053e-001

7.16020056742374e+004,-1.53607740104671e+001,-9.10940029079918e-001

7.26015324253724e+004,-1.53608632300149e+001,-9.23551965947696e-001

7.36150120499896e+004,-1.53609547985078e+001,-9.36335724203481e-001

7.46426393229441e+004,-1.53610487733567e+001,-9.49293535981964e-001

7.56846117380472e+004,-1.53611452131326e+001,-9.62427658417201e-001

7.67411295460207e+004,-1.53612441775767e+001,-9.75740373792118e-001

7.78123957929823e+004,-1.53613457276091e+001,-9.89233989682215e-001

7.88986163594682e+004,-1.53614499253373e+001,-1.00291083909683e+000

7.99999999999995e+004,-1.53615568340631e+001,-1.01677328061886e+000

8.11167583832018e+004,-1.53616665182893e+001,-1.03082369854142e+000

8.22491061324848e+004,-1.53617790437250e+001,-1.04506450299963e+000

8.33972608672892e+004,-1.53618944772893e+001,-1.05949813010326e+000

8.45614432449099e+004,-1.53620128871148e+001,-1.07412704206416e+000

8.57418770029029e+004,-1.53621343425491e+001,-1.08895372732124e+000

8.69387890020841e+004,-1.53622589141546e+001,-1.10398070066605e+000

8.81524092701283e+004,-1.53623866737085e+001,-1.11921050335978e+000

8.93829710457770e+004,-1.53625176941989e+001,-1.13464570325580e+000

9.06307108236633e+004,-1.53626520498214e+001,-1.15028889491364e+000

9.18958683997622e+004,-1.53627898159723e+001,-1.16614269971562e+000

9.31786869174758e+004,-1.53629310692417e+001,-1.18220976597767e+000

9.44794129143618e+004,-1.53630758874027e+001,-1.19849276906435e+000

9.57982963695136e+004,-1.53632243494006e+001,-1.21499441149587e+000

9.71355907516031e+004,-1.53633765353378e+001,-1.23171742306194e+000

9.84915530675926e+004,-1.53635325264591e+001,-1.24866456092797e+000

9.98664439121282e+004,-1.53636924051318e+001,-1.26583860974701e+000

1.01260527517622e+005,-1.53638562548254e+001,-1.28324238176943e+000

1.02674071805032e+005,-1.53640241600883e+001,-1.30087871695207e+000

1.04107348435354e+005,-1.53641962065208e+001,-1.31875048307367e+000

1.05560632861831e+005,-1.53643724807466e+001,-1.33686057584767e+000

1.07034204382888e+005,-1.53645530703808e+001,-1.35521191903922e+000

1.08528346195813e+005,-1.53647380639946e+001,-1.37380746458718e+000

1.10043345451179e+005,-1.53649275510777e+001,-1.39265019272718e+000

1.11579493308032e+005,-1.53651216219958e+001,-1.41174311212301e+000

1.13137084989847e+005,-1.53653203679469e+001,-1.43108926000028e+000

1.14716419841265e+005,-1.53655238809122e+001,-1.45069170228903e+000

1.16317801385624e+005,-1.53657322536043e+001,-1.47055353377500e+000

1.17941537383287e+005,-1.53659455794112e+001,-1.49067787825548e+000

1.19587939890794e+005,-1.53661639523372e+001,-1.51106788870959e+000

1.21257325320831e+005,-1.53663874669387e+001,-1.53172674747550e+000

1.22950014503040e+005,-1.53666162182568e+001,-1.55265766644507e+000

1.24666332745679e+005,-1.53668503017454e+001,-1.57386388726544e+000

1.26406609898139e+005,-1.53670898131949e+001,-1.59534868156208e+000

1.28171180414339e+005,-1.53673348486519e+001,-1.61711535117317e+000

1.29960383416997e+005,-1.53675855043341e+001,-1.63916722840555e+000

1.31774562762811e+005,-1.53678418765405e+001,-1.66150767630908e+000

1.33614067108538e+005,-1.53681040615579e+001,-1.68414008897151e+000

1.35479249978003e+005,-1.53683721555612e+001,-1.70706789183787e+000

1.37370469830040e+005,-1.53686462545110e+001,-1.73029454205471e+000

1.39288090127379e+005,-1.53689264540441e+001,-1.75382352883997e+000

1.41232479406504e+005,-1.53692128493616e+001,-1.77765837388436e+000

1.43204011348474e+005,-1.53695055351102e+001,-1.80180263178039e+000

1.45203064850745e+005,-1.53698046052599e+001,-1.82625989048878e+000

1.47230024099979e+005,-1.53701101529766e+001,-1.85103377183636e+000

1.49285278645888e+005,-1.53704222704899e+001,-1.87612793205410e+000

1.51369223476094e+005,-1.53707410489561e+001,-1.90154606235433e+000

1.53482259092041e+005,-1.53710665783169e+001,-1.92729188955136e+000

1.55624791585964e+005,-1.53713989471530e+001,-1.95336917672590e+000

1.57797232718936e+005,-1.53717382425342e+001,-1.97978172393753e+000

1.59999999999999e+005,-1.53720845498640e+001,-2.00653336898667e+000

1.62233516766403e+005,-1.53724379527212e+001,-2.03362798823052e+000

1.64498212264969e+005,-1.53727985326967e+001,-2.06106949745184e+000

1.66794521734578e+005,-1.53731663692269e+001,-2.08886185278765e+000

1.69122886489819e+005,-1.53735415394237e+001,-2.11700905171706e+000

1.71483754005805e+005,-1.53739241179006e+001,-2.14551513411192e+000

1.73877578004168e+005,-1.53743141765970e+001,-2.17438418335379e+000

1.76304818540256e+005,-1.53747117845984e+001,-2.20362032751851e+000

1.78765942091554e+005,-1.53751170079550e+001,-2.23322774063130e+000

1.81261421647326e+005,-1.53755299094989e+001,-2.26321064399432e+000

1.83791736799524e+005,-1.53759505486583e+001,-2.29357330759159e+000

1.86357373834951e+005,-1.53763789812721e+001,-2.32432005156801e+000

1.88958825828723e+005,-1.53768152594026e+001,-2.35545524779204e+000

1.91596592739027e+005,-1.53772594311488e+001,-2.38698332149843e+000

1.94271181503206e+005,-1.53777115404598e+001,-2.41890875301373e+000

1.96983106135185e+005,-1.53781716269493e+001,-2.45123607956981e+000

1.99732887824256e+005,-1.53786397257107e+001,-2.48396989720304e+000

2.02521055035243e+005,-1.53791158671358e+001,-2.51711486274186e+000

2.05348143610063e+005,-1.53796000767350e+001,-2.55067569588606e+000

2.08214696870707e+005,-1.53800923749610e+001,-2.58465718137412e+000

2.11121265723661e+005,-1.53805927770374e+001,-2.61906417124517e+000

2.14068408765776e+005,-1.53811012927912e+001,-2.65390158719089e+000

2.17056692391625e+005,-1.53816179264909e+001,-2.68917442300016e+000

2.20086690902357e+005,-1.53821426766913e+001,-2.72488774709776e+000

2.23158986616063e+005,-1.53826755360849e+001,-2.76104670517194e+000

2.26274169979693e+005,-1.53832164913611e+001,-2.79765652289663e+000

2.29432839682530e+005,-1.53837655230742e+001,-2.83472250874034e+000

2.32635602771247e+005,-1.53843226055200e+001,-2.87225005686833e+000

2.35883074766574e+005,-1.53848877066232e+001,-2.91024465012752e+000

2.39175879781588e+005,-1.53854607878357e+001,-2.94871186311921e+000

2.42514650641661e+005,-1.53860418040459e+001,-2.98765736535506e+000

2.45900029006080e+005,-1.53866307035007e+001,-3.02708692449002e+000

2.49332665491357e+005,-1.53872274277408e+001,-3.06700640963590e+000

2.52813219796278e+005,-1.53878319115500e+001,-3.10742179474448e+000

2.56342360828676e+005,-1.53884440829184e+001,-3.14833916206217e+000

2.59920766833993e+005,-1.53890638630213e+001,-3.18976470564900e+000

2.63549125525621e+005,-1.53896911662144e+001,-3.23170473495872e+000

2.67228134217075e+005,-1.53903259000443e+001,-3.27416567847196e+000

2.70958499956006e+005,-1.53909679652774e+001,-3.31715408738159e+000

2.74740939660078e+005,-1.53916172559453e+001,-3.36067663932157e+000

2.78576180254757e+005,-1.53922736594087e+001,-3.40474014213406e+000

2.82464958813007e+005,-1.53929370564396e+001,-3.44935153766815e+000

2.86408022696948e+005,-1.53936073213223e+001,-3.49451790560504e+000

2.90406129701488e+005,-1.53942843219731e+001,-3.54024646730091e+000

2.94460048199957e+005,-1.53949679200798e+001,-3.58654458964210e+000

2.98570557291775e+005,-1.53956579712598e+001,-3.63341978890536e+000

3.02738446952187e+005,-1.53963543252384e+001,-3.68087973461468e+000

3.06964518184081e+005,-1.53970568260460e+001,-3.72893225338780e+000

3.11249583171928e+005,-1.53977653122341e+001,-3.77758533276752e+000

3.15594465437872e+005,-1.53984796171119e+001,-3.82684712502493e+000

3.19999999999997e+005,-1.53991995690001e+001,-3.87672595093310e+000

3.24467033532806e+005,-1.53999249915042e+001,-3.92723030349979e+000

3.28996424529938e+005,-1.54006557038053e+001,-3.97836885165309e+000

3.33589043469155e+005,-1.54013915209690e+001,-4.03015044387485e+000

3.38245772979638e+005,-1.54021322542708e+001,-4.08258411177001e+000

3.42967508011610e+005,-1.54028777115377e+001,-4.13567907357203e+000

3.47755156008335e+005,-1.54036276975057e+001,-4.18944473757186e+000

3.52609637080511e+005,-1.54043820141919e+001,-4.24389070546797e+000

3.57531884183106e+005,-1.54051404612803e+001,-4.29902677563119e+000

3.62522843294651e+005,-1.54059028365200e+001,-4.35486294627716e+000

3.67583473599047e+005,-1.54066689361365e+001,-4.41140941854518e+000

3.72714747669902e+005,-1.54074385552518e+001,-4.46867659947518e+000

3.77917651657445e+005,-1.54082114883162e+001,-4.52667510488197e+000

3.83193185478053e+005,-1.54089875295467e+001,-4.58541576212138e+000

3.88542363006410e+005,-1.54097664733738e+001,-4.64490961274832e+000

3.93966212270369e+005,-1.54105481148933e+001,-4.70516791506044e+000

3.99465775648511e+005,-1.54113322503239e+001,-4.76620214652961e+000

4.05042110070485e+005,-1.54121186774667e+001,-4.82802400611978e+000

4.10696287220124e+005,-1.54129071961684e+001,-4.89064541648726e+000

4.16429393741414e+005,-1.54136976087835e+001,-4.95407852606965e+000

4.22242531447321e+005,-1.54144897206378e+001,-5.01833571105860e+000

4.28136817531551e+005,-1.54152833404882e+001,-5.08342957726325e+000

4.34113384783250e+005,-1.54160782809807e+001,-5.14937296186108e+000

4.40173381804713e+005,-1.54168743591038e+001,-5.21617893504463e+000

4.46317973232124e+005,-1.54176713966357e+001,-5.28386080156127e+000

4.52548339959385e+005,-1.54184692205854e+001,-5.35243210215736e+000

4.58865679365059e+005,-1.54192676636256e+001,-5.42190661492363e+000

4.65271205542494e+005,-1.54200665645171e+001,-5.49229835655191e+000

4.71766149533147e+005,-1.54208657685223e+001,-5.56362158350774e+000

4.78351759563174e+005,-1.54216651278089e+001,-5.63589079312272e+000

4.85029301283321e+005,-1.54224645018410e+001,-5.70912072461492e+000

4.91800058012158e+005,-1.54232637577583e+001,-5.78332636004423e+000

4.98665330982714e+005,-1.54240627707411e+001,-5.85852292520761e+000

5.05626439592555e+005,-1.54248614243621e+001,-5.93472589048382e+000

5.12684721657352e+005,-1.54256596109235e+001,-6.01195097163305e+000

5.19841533667984e+005,-1.54264572317786e+001,-6.09021413056214e+000

5.27098251051240e+005,-1.54272541976386e+001,-6.16953157605945e+000

5.34456268434150e+005,-1.54280504288633e+001,-6.24991976451043e+000

5.41916999912011e+005,-1.54288458557357e+001,-6.33139540060066e+000

