Freq.,VOut,OutRef

1.00000000000000e+004,-2.03922074223365e+001,-2.16720165851768e-001

1.01395947979003e+004,-2.03922097355904e+001,-2.19745145049936e-001

1.02811382665607e+004,-2.03922121138082e+001,-2.22812337741145e-001

1.04246576084112e+004,-2.03922145588128e+001,-2.25922332623625e-001

1.05701804056138e+004,-2.03922170724772e+001,-2.29075726591522e-001

1.07177346253629e+004,-2.03922196567276e+001,-2.32273124844096e-001

1.08673486252606e+004,-2.03922223135434e+001,-2.35515141004048e-001

1.10190511587661e+004,-2.03922250449598e+001,-2.38802397230655e-001

1.11728713807222e+004,-2.03922278530689e+001,-2.42135524339469e-001

1.13288388529580e+004,-2.03922307400212e+001,-2.45515161923033e-001

1.14869835499703e+004,-2.03922337080273e+001,-2.48941958469202e-001

1.16473358646846e+004,-2.03922367593598e+001,-2.52416571487027e-001

1.18099266142953e+004,-2.03922398963550e+001,-2.55939667627728e-001

1.19747870461893e+004,-2.03922431214137e+001,-2.59511922816593e-001

1.21419488439505e+004,-2.03922464370046e+001,-2.63134022374738e-001

1.23114441334492e+004,-2.03922498456654e+001,-2.66806661151102e-001

1.24833054890161e+004,-2.03922533500041e+001,-2.70530543655669e-001

1.26575659397028e+004,-2.03922569527019e+001,-2.74306384191254e-001

1.28342589756290e+004,-2.03922606565151e+001,-2.78134906986017e-001

1.30134185544193e+004,-2.03922644642766e+001,-2.82016846333609e-001

1.31950791077289e+004,-2.03922683788984e+001,-2.85952946732473e-001

1.33792755478611e+004,-2.03922724033743e+001,-2.89943963020050e-001

1.35660432744767e+004,-2.03922765407808e+001,-2.93990660524140e-001

1.37554181813974e+004,-2.03922807942810e+001,-2.98093815199124e-001

1.39474366635040e+004,-2.03922851671259e+001,-3.02254213775300e-001

1.41421356237309e+004,-2.03922896626574e+001,-3.06472653908051e-001

1.43395524801583e+004,-2.03922942843100e+001,-3.10749944327573e-001

1.45397251732031e+004,-2.03922990356146e+001,-3.15086904988037e-001

1.47426921729110e+004,-2.03923039202004e+001,-3.19484367224113e-001

1.49484924863494e+004,-2.03923089417972e+001,-3.23943173908154e-001

1.51571656651040e+004,-2.03923141042395e+001,-3.28464179604402e-001

1.53687518128801e+004,-2.03923194114679e+001,-3.33048250733736e-001

1.55832915932100e+004,-2.03923248675331e+001,-3.37696265732197e-001

1.58008262372675e+004,-2.03923304765983e+001,-3.42409115218687e-001

1.60213975517924e+004,-2.03923362429430e+001,-3.47187702158158e-001

1.62450479271247e+004,-2.03923421709650e+001,-3.52032942034314e-001

1.64718203453514e+004,-2.03923482651852e+001,-3.56945763016862e-001

1.67017583885674e+004,-2.03923545302498e+001,-3.61927106137216e-001

1.69349062472505e+004,-2.03923609709340e+001,-3.66977925463222e-001

1.71713087287550e+004,-2.03923675921459e+001,-3.72099188277267e-001

1.74110112659224e+004,-2.03923743989299e+001,-3.77291875255956e-001

1.76540599258131e+004,-2.03923813964705e+001,-3.82556980652216e-001

1.79005014185594e+004,-2.03923885900958e+001,-3.87895512481687e-001

1.81503831063432e+004,-2.03923959852822e+001,-3.93308492707085e-001

1.84037530124975e+004,-2.03924035876576e+001,-3.98796957431375e-001

1.86606598307361e+004,-2.03924114030060e+001,-4.04361957086766e-001

1.89211529345119e+004,-2.03924194372720e+001,-4.10004556629910e-001

1.91852823865052e+004,-2.03924276965644e+001,-4.15725835740940e-001

1.94530989482457e+004,-2.03924361871616e+001,-4.21526889018700e-001

1.97246540898671e+004,-2.03924449155155e+001,-4.27408826187591e-001

1.99999999999999e+004,-2.03924538882565e+001,-4.33372772298768e-001

2.02791895958005e+004,-2.03924631121987e+001,-4.39419867937792e-001

2.05622765331213e+004,-2.03924725943441e+001,-4.45551269435478e-001

2.08493152168224e+004,-2.03924823418883e+001,-4.51768149080516e-001

2.11403608112276e+004,-2.03924923622257e+001,-4.58071695332071e-001

2.14354692507258e+004,-2.03925026629548e+001,-4.64463113039977e-001

2.17346972505211e+004,-2.03925132518836e+001,-4.70943623664131e-001

2.20381023175322e+004,-2.03925241370354e+001,-4.77514465497733e-001

2.23457427614443e+004,-2.03925353266547e+001,-4.84176893892794e-001

2.26576777059159e+004,-2.03925468292128e+001,-4.90932181491099e-001

2.29739670999406e+004,-2.03925586534144e+001,-4.97781618451539e-001

2.32946717293690e+004,-2.03925708082037e+001,-5.04726512687939e-001

2.36198532285905e+004,-2.03925833027705e+001,-5.11768190105575e-001

2.39495740923785e+004,-2.03925961465572e+001,-5.18907994840570e-001

2.42838976879009e+004,-2.03926093492655e+001,-5.26147289502142e-001

2.46228882668982e+004,-2.03926229208633e+001,-5.33487455420108e-001

2.49666109780322e+004,-2.03926368715917e+001,-5.40929892892996e-001

2.53151318794055e+004,-2.03926512119723e+001,-5.48476021440540e-001

2.56685179512580e+004,-2.03926659528150e+001,-5.56127280055946e-001

2.60268371088386e+004,-2.03926811052254e+001,-5.63885127466138e-001

2.63901582154578e+004,-2.03926966806122e+001,-5.71751042393209e-001

2.67585510957221e+004,-2.03927126906964e+001,-5.79726523815012e-001

2.71320865489533e+004,-2.03927291475186e+001,-5.87813091234390e-001

2.75108363627948e+004,-2.03927460634476e+001,-5.96012284949360e-001

2.78948733270080e+004,-2.03927634511892e+001,-6.04325666325643e-001

2.82842712474618e+004,-2.03927813237952e+001,-6.12754818071740e-001

2.86791049603164e+004,-2.03927996946724e+001,-6.21301344519889e-001

2.90794503464061e+004,-2.03928185775917e+001,-6.29966871907857e-001

2.94853843458219e+004,-2.03928379866977e+001,-6.38753048664462e-001

2.98969849726987e+004,-2.03928579365187e+001,-6.47661545700043e-001

3.03143313302078e+004,-2.03928784419767e+001,-6.56694056694585e-001

3.07375036257601e+004,-2.03928995183969e+001,-6.65852298398233e-001

3.11665831864199e+004,-2.03929211815193e+001,-6.75138010924569e-001

3.16016524745350e+004,-2.03929434475088e+001,-6.84552958055812e-001

3.20427951035848e+004,-2.03929663329657e+001,-6.94098927547038e-001

3.24900958542493e+004,-2.03929898549381e+001,-7.03777731433121e-001

3.29436406907028e+004,-2.03930140309324e+001,-7.13591206340574e-001

3.34035167771346e+004,-2.03930388789254e+001,-7.23541213803763e-001

3.38698124945009e+004,-2.03930644173762e+001,-7.33629640580893e-001

3.43426174575100e+004,-2.03930906652387e+001,-7.43858398976422e-001

3.48220225318448e+004,-2.03931176419739e+001,-7.54229427164420e-001

3.53081198516260e+004,-2.03931453675630e+001,-7.64744689517221e-001

3.58010028371187e+004,-2.03931738625202e+001,-7.75406176936675e-001

3.63007662126863e+004,-2.03932031479062e+001,-7.86215907187587e-001

3.68075060249948e+004,-2.03932332453422e+001,-7.97175925235919e-001

3.73213196614721e+004,-2.03932641770236e+001,-8.08288303588423e-001

3.78423058690237e+004,-2.03932959657341e+001,-8.19555142639204e-001

3.83705647730104e+004,-2.03933286348608e+001,-8.30978571013959e-001

3.89061978964912e+004,-2.03933622084087e+001,-8.42560745922450e-001

3.94493081797342e+004,-2.03933967110158e+001,-8.54303853512444e-001

3.99999999999998e+004,-2.03934321679691e+001,-8.66210109225438e-001

4.05583791916010e+004,-2.03934686052201e+001,-8.78281758156871e-001

4.11245530662425e+004,-2.03935060494007e+001,-8.90521075421631e-001

4.16986304336447e+004,-2.03935445278402e+001,-9.02930366517910e-001

4.22807216224550e+004,-2.03935840685814e+001,-9.15511967698187e-001

4.28709385014515e+004,-2.03936247003983e+001,-9.28268246342188e-001

4.34693945010421e+004,-2.03936664528132e+001,-9.41201601331263e-001

4.40762046350642e+004,-2.03937093561143e+001,-9.54314463430141e-001

4.46914855228886e+004,-2.03937534413741e+001,-9.67609295664851e-001

4.53153554118317e+004,-2.03937987404674e+001,-9.81088593711735e-001

4.59479341998812e+004,-2.03938452860901e+001,-9.94754886283144e-001

4.65893434587380e+004,-2.03938931117783e+001,-1.00861073551832e+000

4.72397064571810e+004,-2.03939422519277e+001,-1.02265873737794e+000

4.78991481847569e+004,-2.03939927418128e+001,-1.03690152203951e+000

4.85677953758016e+004,-2.03940446176072e+001,-1.05134175429933e+000

4.92457765337964e+004,-2.03940979164040e+001,-1.06598213397105e+000

4.99332219560642e+004,-2.03941526762357e+001,-1.08082539629397e+000

5.06302637588109e+004,-2.03942089360960e+001,-1.09587431233799e+000

5.13370359025159e+004,-2.03942667359599e+001,-1.11113168941653e+000

5.20536742176771e+004,-2.03943261168061e+001,-1.12660037149607e+000

5.27803164309155e+004,-2.03943871206380e+001,-1.14228323961478e+000

5.35171021914442e+004,-2.03944497905062e+001,-1.15818321229760e+000

5.42641730979066e+004,-2.03945141705306e+001,-1.17430324597806e+000

5.50216727255895e+004,-2.03945803059227e+001,-1.19064633542023e+000

5.57897466540159e+004,-2.03946482430084e+001,-1.20721551414425e+000

5.65685424949235e+004,-2.03947180292515e+001,-1.22401385485226e+000

5.73582099206328e+004,-2.03947897132762e+001,-1.24104446985765e+000

5.81589006928121e+004,-2.03948633448910e+001,-1.25831051151804e+000

5.89707686916437e+004,-2.03949389751122e+001,-1.27581517266680e+000

5.97939699453972e+004,-2.03950166561873e+001,-1.29356168705010e+000

6.06286626604156e+004,-2.03950964416196e+001,-1.31155332976221e+000

6.14750072515201e+004,-2.03951783861917e+001,-1.32979341768592e+000

6.23331663728396e+004,-2.03952625459900e+001,-1.34828530993385e+000

6.32033049490698e+004,-2.03953489784287e+001,-1.36703240828998e+000

6.40855902071694e+004,-2.03954377422744e+001,-1.38603815765412e+000

6.49801917084985e+004,-2.03955288976703e+001,-1.40530604648836e+000

6.58872813814055e+004,-2.03956225061606e+001,-1.42483960726489e+000

6.68070335542691e+004,-2.03957186307149e+001,-1.44464241691363e+000

6.77396249890018e+004,-2.03958173357525e+001,-1.46471809727299e+000

6.86852349150199e+004,-2.03959186871665e+001,-1.48507031554295e+000

6.96440450636895e+004,-2.03960227523483e+001,-1.50570278473652e+000

7.06162397032520e+004,-2.03961296002111e+001,-1.52661926413443e+000

7.16020056742374e+004,-2.03962393012138e+001,-1.54782355974225e+000

7.26015324253724e+004,-2.03963519273846e+001,-1.56931952474583e+000

7.36150120499896e+004,-2.03964675523442e+001,-1.59111105996954e+000

7.46426393229441e+004,-2.03965862513286e+001,-1.61320211433638e+000

7.56846117380472e+004,-2.03967081012117e+001,-1.63559668532883e+000

7.67411295460207e+004,-2.03968331805274e+001,-1.65829881944924e+000

7.78123957929823e+004,-2.03969615694911e+001,-1.68131261268479e+000

7.88986163594682e+004,-2.03970933500208e+001,-1.70464221097012e+000

7.99999999999995e+004,-2.03972286057576e+001,-1.72829181065416e+000

8.11167583832018e+004,-2.03973674220854e+001,-1.75226565896667e+000

8.22491061324848e+004,-2.03975098861499e+001,-1.77656805448696e+000

8.33972608672892e+004,-2.03976560868769e+001,-1.80120334761426e+000

8.45614432449099e+004,-2.03978061149896e+001,-1.82617594103856e+000

8.57418770029029e+004,-2.03979600630253e+001,-1.85149029021492e+000

8.69387890020841e+004,-2.03981180253504e+001,-1.87715090383848e+000

8.81524092701283e+004,-2.03982800981750e+001,-1.90316234432226e+000

8.93829710457770e+004,-2.03984463795657e+001,-1.92952922827756e+000

9.06307108236633e+004,-2.03986169694579e+001,-1.95625622699533e+000

9.18958683997622e+004,-2.03987919696659e+001,-1.98334806693201e+000

9.31786869174758e+004,-2.03989714838922e+001,-2.01080953019872e+000

9.44794129143618e+004,-2.03991556177348e+001,-2.03864545505087e+000

9.57982963695136e+004,-2.03993444786934e+001,-2.06686073638665e+000

9.71355907516031e+004,-2.03995381761731e+001,-2.09546032624471e+000

9.84915530675926e+004,-2.03997368214872e+001,-2.12444923430888e+000

9.98664439121282e+004,-2.03999405278572e+001,-2.15383252841917e+000

1.01260527517622e+005,-2.04001494104115e+001,-2.18361533508399e+000

1.02674071805032e+005,-2.04003635861815e+001,-2.21380284000448e+000

1.04107348435354e+005,-2.04005831740956e+001,-2.24440028860079e+000

1.05560632861831e+005,-2.04008082949707e+001,-2.27541298654753e+000

1.07034204382888e+005,-2.04010390715017e+001,-2.30684630031882e+000

1.08528346195813e+005,-2.04012756282479e+001,-2.33870565773927e+000

1.10043345451179e+005,-2.04015180916171e+001,-2.37099654854776e+000

1.11579493308032e+005,-2.04017665898467e+001,-2.40372452496941e+000

1.13137084989847e+005,-2.04020212529819e+001,-2.43689520230130e+000

1.14716419841265e+005,-2.04022822128513e+001,-2.47051425950945e+000

1.16317801385624e+005,-2.04025496030389e+001,-2.50458743983935e+000

1.17941537383287e+005,-2.04028235588533e+001,-2.53912055144261e+000

1.19587939890794e+005,-2.04031042172932e+001,-2.57411946801963e+000

1.21257325320831e+005,-2.04033917170098e+001,-2.60959012947751e+000

1.22950014503040e+005,-2.04036861982660e+001,-2.64553854260983e+000

1.24666332745679e+005,-2.04039878028914e+001,-2.68197078179463e+000

1.26406609898139e+005,-2.04042966742340e+001,-2.71889298971493e+000

1.28171180414339e+005,-2.04046129571082e+001,-2.75631137810238e+000

1.29960383416997e+005,-2.04049367977392e+001,-2.79423222850637e+000

1.31774562762811e+005,-2.04052683437030e+001,-2.83266189308915e+000

1.33614067108538e+005,-2.04056077438631e+001,-2.87160679545063e+000

1.35479249978003e+005,-2.04059551483030e+001,-2.91107343148386e+000

1.37370469830040e+005,-2.04063107082548e+001,-2.95106837026133e+000

1.39288090127379e+005,-2.04066745760238e+001,-2.99159825495836e+000

1.41232479406504e+005,-2.04070469049094e+001,-3.03266980381256e+000

1.43204011348474e+005,-2.04074278491216e+001,-3.07428981112141e+000

1.45203064850745e+005,-2.04078175636940e+001,-3.11646514828181e+000

1.47230024099979e+005,-2.04082162043927e+001,-3.15920276487497e+000

1.49285278645888e+005,-2.04086239276214e+001,-3.20250968979532e+000

1.51369223476094e+005,-2.04090408903233e+001,-3.24639303242911e+000

1.53482259092041e+005,-2.04094672498782e+001,-3.29085998388495e+000

1.55624791585964e+005,-2.04099031639975e+001,-3.33591781827724e+000

1.57797232718936e+005,-2.04103487906151e+001,-3.38157389406690e+000

1.59999999999999e+005,-2.04108042877751e+001,-3.42783565546115e+000

1.62233516766403e+005,-2.04112698135170e+001,-3.47471063387531e+000

1.64498212264969e+005,-2.04117455257575e+001,-3.52220644946001e+000

1.66794521734578e+005,-2.04122315821706e+001,-3.57033081269484e+000

1.69122886489819e+005,-2.04127281400651e+001,-3.61909152605242e+000

1.71483754005805e+005,-2.04132353562600e+001,-3.66849648573741e+000

1.73877578004168e+005,-2.04137533869587e+001,-3.71855368349849e+000

1.76304818540256e+005,-2.04142823876221e+001,-3.76927120852108e+000

1.78765942091554e+005,-2.04148225128404e+001,-3.82065724939966e+000

1.81261421647326e+005,-2.04153739162055e+001,-3.87272009619459e+000

1.83791736799524e+005,-2.04159367501822e+001,-3.92546814257512e+000

1.86357373834951e+005,-2.04165111659815e+001,-3.97890988805082e+000

1.88958825828723e+005,-2.04170973134341e+001,-4.03305394029362e+000

1.91596592739027e+005,-2.04176953408657e+001,-4.08790901755327e+000

1.94271181503206e+005,-2.04183053949756e+001,-4.14348395116799e+000

1.96983106135185e+005,-2.04189276207167e+001,-4.19978768817156e+000

1.99732887824256e+005,-2.04195621611804e+001,-4.25682929399934e+000

2.02521055035243e+005,-2.04202091574856e+001,-4.31461795529506e+000

2.05348143610063e+005,-2.04208687486721e+001,-4.37316298281694e+000

2.08214696870707e+005,-2.04215410716008e+001,-4.43247381444871e+000

2.11121265723661e+005,-2.04222262608596e+001,-4.49256001831151e+000

2.14068408765776e+005,-2.04229244486772e+001,-4.55343129598138e+000

2.17056692391625e+005,-2.04236357648449e+001,-4.61509748580859e+000

2.20086690902357e+005,-2.04243603366477e+001,-4.67756856634215e+000

2.23158986616063e+005,-2.04250982888048e+001,-4.74085465985732e+000

2.26274169979693e+005,-2.04258497434214e+001,-4.80496603598433e+000

2.29432839682530e+005,-2.04266148199520e+001,-4.86991311544048e+000

2.32635602771247e+005,-2.04273936351760e+001,-4.93570647386016e+000

2.35883074766574e+005,-2.04281863031873e+001,-5.00235684572429e+000

2.39175879781588e+005,-2.04289929353974e+001,-5.06987512838390e+000

2.42514650641661e+005,-2.04298136405549e+001,-5.13827238617858e+000

2.45900029006080e+005,-2.04306485247797e+001,-5.20755985464262e+000

2.49332665491357e+005,-2.04314976916153e+001,-5.27774894480049e+000

2.52813219796278e+005,-2.04323612420988e+001,-5.34885124754105e+000

2.56342360828676e+005,-2.04332392748484e+001,-5.42087853807416e+000

2.59920766833993e+005,-2.04341318861718e+001,-5.49384278045807e+000

2.63549125525621e+005,-2.04350391701941e+001,-5.56775613219601e+000

2.67228134217075e+005,-2.04359612190064e+001,-5.64263094889624e+000

2.70958499956006e+005,-2.04368981228364e+001,-5.71847978898952e+000

2.74740939660078e+005,-2.04378499702407e+001,-5.79531541849652e+000

2.78576180254757e+005,-2.04388168483207e+001,-5.87315081584108e+000

2.82464958813007e+005,-2.04397988429610e+001,-5.95199917669960e+000

2.86408022696948e+005,-2.04407960390919e+001,-6.03187391888309e+000

2.90406129701488e+005,-2.04418085209757e+001,-6.11278868724017e+000

2.94460048199957e+005,-2.04428363725185e+001,-6.19475735857730e+000

2.98570557291775e+005,-2.04438796776051e+001,-6.27779404658582e+000

3.02738446952187e+005,-2.04449385204602e+001,-6.36191310676901e+000

3.06964518184081e+005,-2.04460129860338e+001,-6.44712914136096e+000

3.11249583171928e+005,-2.04471031604115e+001,-6.53345700422906e+000

3.15594465437872e+005,-2.04482091312505e+001,-6.62091180575113e+000

3.19999999999997e+005,-2.04493309882394e+001,-6.70950891766054e+000

3.24467033532806e+005,-2.04504688235828e+001,-6.79926397784893e+000

3.28996424529938e+005,-2.04516227325103e+001,-6.89019289512150e+000

3.33589043469155e+005,-2.04527928138092e+001,-6.98231185389319e+000

3.38245772979638e+005,-2.04539791703800e+001,-7.07563731882111e+000

3.42967508011610e+005,-2.04551819098150e+001,-7.17018603936476e+000

3.47755156008335e+005,-2.04564011449987e+001,-7.26597505426519e+000

3.52609637080511e+005,-2.04576369947298e+001,-7.36302169593902e+000

3.57531884183106e+005,-2.04588895843632e+001,-7.46134359477774e+000

3.62522843294651e+005,-2.04601590464717e+001,-7.56095868334903e+000

3.67583473599047e+005,-2.04614455215267e+001,-7.66188520049066e+000

3.72714747669902e+005,-2.04627491585963e+001,-7.76414169529655e+000

3.77917651657445e+005,-2.04640701160598e+001,-7.86774703098504e+000

3.83193185478053e+005,-2.04654085623381e+001,-7.97272038864896e+000

3.88542363006410e+005,-2.04667646766383e+001,-8.07908127088145e+000

3.93966212270369e+005,-2.04681386497116e+001,-8.18684950527613e+000

3.99465775648511e+005,-2.04695306846233e+001,-8.29604524779734e+000

4.05042110070485e+005,-2.04709409975333e+001,-8.40668898601968e+000

4.10696287220124e+005,-2.04723698184864e+001,-8.51880154223564e+000

4.16429393741414e+005,-2.04738173922115e+001,-8.63240407642869e+000

4.22242531447321e+005,-2.04752839789272e+001,-8.74751808911476e+000

4.28136817531551e+005,-2.04767698551539e+001,-8.86416542405001e+000

4.34113384783250e+005,-2.04782753145307e+001,-8.98236827080659e+000

4.40173381804713e+005,-2.04798006686355e+001,-9.10214916721929e+000

4.46317973232124e+005,-2.04813462478088e+001,-9.22353100170325e+000

4.52548339959385e+005,-2.04829124019777e+001,-9.34653701544694e+000

4.58865679365059e+005,-2.04844995014816e+001,-9.47119080448369e+000

4.65271205542494e+005,-2.04861079378965e+001,-9.59751632164377e+000

4.71766149533147e+005,-2.04877381248587e+001,-9.72553787839341e+000

4.78351759563174e+005,-2.04893904988859e+001,-9.85528014656437e+000

4.85029301283321e+005,-2.04910655201957e+001,-9.98676815997755e+000

4.91800058012158e+005,-2.04927636735206e+001,-1.01200273159684e+001

4.98665330982714e+005,-2.04944854689185e+001,-1.02550833768182e+001

5.05626439592555e+005,-2.04962314425784e+001,-1.03919624710965e+001

5.12684721657352e+005,-2.04980021576221e+001,-1.05306910949216e+001

5.19841533667984e+005,-2.04997982048991e+001,-1.06712961131447e+001

5.27098251051240e+005,-2.05016202037764e+001,-1.08138047604631e+001

5.34456268434150e+005,-2.05034688029230e+001,-1.09582446424702e+001

5.41916999912011e+005,-2.05053446810875e+001,-1.11046437366462e+001

