Freq.,VOut,OutRef

1.00000000000000e+004,-3.35392145628299e+001,-1.14372328504465e-001

1.01395947979003e+004,-3.35392157460113e+001,-1.15968733830418e-001

1.02811382665607e+004,-3.35392169624182e+001,-1.17587416810821e-001

1.04246576084112e+004,-3.35392182129829e+001,-1.19228688117193e-001

1.05701804056138e+004,-3.35392194986633e+001,-1.20892862747370e-001

1.07177346253629e+004,-3.35392208204445e+001,-1.22580260080038e-001

1.08673486252606e+004,-3.35392221793386e+001,-1.24291203942299e-001

1.10190511587661e+004,-3.35392235763862e+001,-1.26026022663320e-001

1.11728713807222e+004,-3.35392250126574e+001,-1.27785049140092e-001

1.13288388529580e+004,-3.35392264892517e+001,-1.29568620902982e-001

1.14869835499703e+004,-3.35392280072995e+001,-1.31377080175003e-001

1.16473358646846e+004,-3.35392295679631e+001,-1.33210773938464e-001

1.18099266142953e+004,-3.35392311724369e+001,-1.35070054002861e-001

1.19747870461893e+004,-3.35392328219488e+001,-1.36955277069156e-001

1.21419488439505e+004,-3.35392345177609e+001,-1.38866804796980e-001

1.23114441334492e+004,-3.35392362611709e+001,-1.40805003873361e-001

1.24833054890161e+004,-3.35392380535124e+001,-1.42770246084418e-001

1.26575659397028e+004,-3.35392398961564e+001,-1.44762908381752e-001

1.28342589756290e+004,-3.35392417905121e+001,-1.46783372956642e-001

1.30134185544193e+004,-3.35392437380282e+001,-1.48832027309998e-001

1.31950791077289e+004,-3.35392457401934e+001,-1.50909264327945e-001

1.33792755478611e+004,-3.35392477985386e+001,-1.53015482352686e-001

1.35660432744767e+004,-3.35392499146367e+001,-1.55151085261759e-001

1.37554181813974e+004,-3.35392520901052e+001,-1.57316482538061e-001

1.39474366635040e+004,-3.35392543266061e+001,-1.59512089354105e-001

1.41421356237309e+004,-3.35392566258479e+001,-1.61738326645913e-001

1.43395524801583e+004,-3.35392589895869e+001,-1.63995621190353e-001

1.45397251732031e+004,-3.35392614196280e+001,-1.66284405691482e-001

1.47426921729110e+004,-3.35392639178269e+001,-1.68605118854809e-001

1.49484924863494e+004,-3.35392664860904e+001,-1.70958205474268e-001

1.51571656651040e+004,-3.35392691263788e+001,-1.73344116515330e-001

1.53687518128801e+004,-3.35392718407068e+001,-1.75763309196739e-001

1.55832915932100e+004,-3.35392746311451e+001,-1.78216247078406e-001

1.58008262372675e+004,-3.35392774998222e+001,-1.80703400148426e-001

1.60213975517924e+004,-3.35392804489256e+001,-1.83225244909614e-001

1.62450479271247e+004,-3.35392834807036e+001,-1.85782264469536e-001

1.64718203453514e+004,-3.35392865974674e+001,-1.88374948628286e-001

1.67017583885674e+004,-3.35392898015918e+001,-1.91003793974582e-001

1.69349062472505e+004,-3.35392930955181e+001,-1.93669303973408e-001

1.71713087287550e+004,-3.35392964817548e+001,-1.96371989064310e-001

1.74110112659224e+004,-3.35392999628807e+001,-1.99112366751187e-001

1.76540599258131e+004,-3.35393035415456e+001,-2.01890961704196e-001

1.79005014185594e+004,-3.35393072204732e+001,-2.04708305851094e-001

1.81503831063432e+004,-3.35393110024624e+001,-2.07564938482738e-001

1.84037530124975e+004,-3.35393148903899e+001,-2.10461406346189e-001

1.86606598307361e+004,-3.35393188872119e+001,-2.13398263752425e-001

1.89211529345119e+004,-3.35393229959665e+001,-2.16376072673659e-001

1.91852823865052e+004,-3.35393272197758e+001,-2.19395402850220e-001

1.94530989482457e+004,-3.35393315618488e+001,-2.22456831893253e-001

1.97246540898671e+004,-3.35393360254825e+001,-2.25560945395358e-001

1.99999999999999e+004,-3.35393406140658e+001,-2.28708337032453e-001

2.02791895958005e+004,-3.35393453310802e+001,-2.31899608680885e-001

2.05622765331213e+004,-3.35393501801044e+001,-2.35135370519864e-001

2.08493152168224e+004,-3.35393551648154e+001,-2.38416241147157e-001

2.11403608112276e+004,-3.35393602889914e+001,-2.41742847695340e-001

2.14354692507258e+004,-3.35393655565153e+001,-2.45115825940315e-001

2.17346972505211e+004,-3.35393709713765e+001,-2.48535820423193e-001

2.20381023175322e+004,-3.35393765376747e+001,-2.52003484563338e-001

2.23457427614443e+004,-3.35393822596219e+001,-2.55519480782900e-001

2.26576777059159e+004,-3.35393881415467e+001,-2.59084480620682e-001

2.29739670999406e+004,-3.35393941878959e+001,-2.62699164860512e-001

2.32946717293690e+004,-3.35394004032390e+001,-2.66364223649512e-001

2.36198532285905e+004,-3.35394067922709e+001,-2.70080356626760e-001

2.39495740923785e+004,-3.35394133598150e+001,-2.73848273049044e-001

2.42838976879009e+004,-3.35394201108272e+001,-2.77668691917431e-001

2.46228882668982e+004,-3.35394270503992e+001,-2.81542342108436e-001

2.49666109780322e+004,-3.35394341837618e+001,-2.85469962504336e-001

2.53151318794055e+004,-3.35394415162895e+001,-2.89452302124907e-001

2.56685179512580e+004,-3.35394490535029e+001,-2.93490120265758e-001

2.60268371088386e+004,-3.35394568010743e+001,-2.97584186627412e-001

2.63901582154578e+004,-3.35394647648296e+001,-3.01735281461096e-001

2.67585510957221e+004,-3.35394729507549e+001,-3.05944195698401e-001

2.71320865489533e+004,-3.35394813649985e+001,-3.10211731100256e-001

2.75108363627948e+004,-3.35394900138762e+001,-3.14538700394398e-001

2.78948733270080e+004,-3.35394989038759e+001,-3.18925927419696e-001

2.82842712474618e+004,-3.35395080416612e+001,-3.23374247273698e-001

2.86791049603164e+004,-3.35395174340771e+001,-3.27884506458240e-001

2.90794503464061e+004,-3.35395270881539e+001,-3.32457563027423e-001

2.94853843458219e+004,-3.35395370111124e+001,-3.37094286740125e-001

2.98969849726987e+004,-3.35395472103687e+001,-3.41795559211345e-001

3.03143313302078e+004,-3.35395576935394e+001,-3.46562274065716e-001

3.07375036257601e+004,-3.35395684684469e+001,-3.51395337091643e-001

3.11665831864199e+004,-3.35395795431242e+001,-3.56295666401530e-001

3.16016524745350e+004,-3.35395909258208e+001,-3.61264192589108e-001

3.20427951035848e+004,-3.35396026250081e+001,-3.66301858888424e-001

3.24900958542493e+004,-3.35396146493853e+001,-3.71409621338147e-001

3.29436406907028e+004,-3.35396270078846e+001,-3.76588448946014e-001

3.34035167771346e+004,-3.35396397096779e+001,-3.81839323851588e-001

3.38698124945009e+004,-3.35396527641822e+001,-3.87163241496203e-001

3.43426174575100e+004,-3.35396661810665e+001,-3.92561210790549e-001

3.48220225318448e+004,-3.35396799702574e+001,-3.98034254287579e-001

3.53081198516260e+004,-3.35396941419461e+001,-4.03583408351930e-001

3.58010028371187e+004,-3.35397087065948e+001,-4.09209723336576e-001

3.63007662126863e+004,-3.35397236749437e+001,-4.14914263757404e-001

3.68075060249948e+004,-3.35397390580176e+001,-4.20698108470756e-001

3.73213196614721e+004,-3.35397548671331e+001,-4.26562350854436e-001

3.78423058690237e+004,-3.35397711139059e+001,-4.32508098985691e-001

3.83705647730104e+004,-3.35397878102577e+001,-4.38536475827606e-001

3.89061978964912e+004,-3.35398049684244e+001,-4.44648619410050e-001

3.94493081797342e+004,-3.35398226009633e+001,-4.50845683017046e-001

3.99999999999998e+004,-3.35398407207608e+001,-4.57128835375937e-001

4.05583791916010e+004,-3.35398593410406e+001,-4.63499260843917e-001

4.11245530662425e+004,-3.35398784753719e+001,-4.69958159601574e-001

4.16986304336447e+004,-3.35398981376771e+001,-4.76506747843851e-001

4.22807216224550e+004,-3.35399183422408e+001,-4.83146257975922e-001

4.28709385014515e+004,-3.35399391037183e+001,-4.89877938806242e-001

4.34693945010421e+004,-3.35399604371438e+001,-4.96703055747786e-001

4.40762046350642e+004,-3.35399823579399e+001,-5.03622891015057e-001

4.46914855228886e+004,-3.35400048819260e+001,-5.10638743824474e-001

4.53153554118317e+004,-3.35400280253283e+001,-5.17751930596955e-001

4.59479341998812e+004,-3.35400518047884e+001,-5.24963785161721e-001

4.65893434587380e+004,-3.35400762373729e+001,-5.32275658962714e-001

4.72397064571810e+004,-3.35401013405832e+001,-5.39688921263398e-001

4.78991481847569e+004,-3.35401271323654e+001,-5.47204959355370e-001

4.85677953758016e+004,-3.35401536311197e+001,-5.54825178769925e-001

4.92457765337964e+004,-3.35401808557113e+001,-5.62551003485643e-001

4.99332219560642e+004,-3.35402088254795e+001,-5.70383876144637e-001

5.06302637588109e+004,-3.35402375602491e+001,-5.78325258263681e-001

5.13370359025159e+004,-3.35402670803403e+001,-5.86376630450034e-001

5.20536742176771e+004,-3.35402974065791e+001,-5.94539492619816e-001

5.27803164309155e+004,-3.35403285603088e+001,-6.02815364212607e-001

5.35171021914442e+004,-3.35403605634001e+001,-6.11205784412842e-001

5.42641730979066e+004,-3.35403934382622e+001,-6.19712312369881e-001

5.50216727255895e+004,-3.35404272078544e+001,-6.28336527416890e-001

5.57897466540159e+004,-3.35404618956963e+001,-6.37080029298116e-001

5.65685424949235e+004,-3.35404975258802e+001,-6.45944438387504e-001

5.73582099206328e+004,-3.35405341230814e+001,-6.54931395918500e-001

5.81589006928121e+004,-3.35405717125703e+001,-6.64042564205134e-001

5.89707686916437e+004,-3.35406103202237e+001,-6.73279626872537e-001

5.97939699453972e+004,-3.35406499725360e+001,-6.82644289083448e-001

6.06286626604156e+004,-3.35406906966313e+001,-6.92138277766652e-001

6.14750072515201e+004,-3.35407325202749e+001,-7.01763341847745e-001

6.23331663728396e+004,-3.35407754718848e+001,-7.11521252478539e-001

6.32033049490698e+004,-3.35408195805435e+001,-7.21413803269380e-001

6.40855902071694e+004,-3.35408648760091e+001,-7.31442810522290e-001

6.49801917084985e+004,-3.35409113887279e+001,-7.41610113462390e-001

6.58872813814055e+004,-3.35409591498455e+001,-7.51917574471687e-001

6.68070335542691e+004,-3.35410081912180e+001,-7.62367079325785e-001

6.77396249890018e+004,-3.35410585454239e+001,-7.72960537427424e-001

6.86852349150199e+004,-3.35411102457754e+001,-7.83699882041619e-001

6.96440450636895e+004,-3.35411633263296e+001,-7.94587070534931e-001

7.06162397032520e+004,-3.35412178218996e+001,-8.05624084609673e-001

7.16020056742374e+004,-3.35412737680654e+001,-8.16812930544416e-001

7.26015324253724e+004,-3.35413312011850e+001,-8.28155639429753e-001

7.36150120499896e+004,-3.35413901584044e+001,-8.39654267409972e-001

7.46426393229441e+004,-3.35414506776685e+001,-8.51310895920327e-001

7.56846117380472e+004,-3.35415127977310e+001,-8.63127631928043e-001

7.67411295460207e+004,-3.35415765581638e+001,-8.75106608173698e-001

7.78123957929823e+004,-3.35416419993673e+001,-8.87249983410840e-001

7.88986163594682e+004,-3.35417091625782e+001,-8.99559942650597e-001

7.99999999999995e+004,-3.35417780898796e+001,-9.12038697401641e-001

8.11167583832018e+004,-3.35418488242083e+001,-9.24688485913796e-001

8.22491061324848e+004,-3.35419214093631e+001,-9.37511573423686e-001

8.33972608672892e+004,-3.35419958900119e+001,-9.50510252397129e-001

8.45614432449099e+004,-3.35420723116984e+001,-9.63686842777342e-001

8.57418770029029e+004,-3.35421507208486e+001,-9.77043692228108e-001

8.69387890020841e+004,-3.35422311647758e+001,-9.90583176383987e-001

8.81524092701283e+004,-3.35423136916862e+001,-1.00430769909762e+000

8.93829710457770e+004,-3.35423983506824e+001,-1.01821969268854e+000

9.06307108236633e+004,-3.35424851917669e+001,-1.03232161819682e+000

9.18958683997622e+004,-3.35425742658452e+001,-1.04661596563258e+000

9.31786869174758e+004,-3.35426656247267e+001,-1.06110525423117e+000

9.44794129143618e+004,-3.35427593211261e+001,-1.07579203270976e+000

9.57982963695136e+004,-3.35428554086629e+001,-1.09067887952446e+000

9.71355907516031e+004,-3.35429539418601e+001,-1.10576840313058e+000

9.84915530675926e+004,-3.35430549761423e+001,-1.12106324224467e+000

9.98664439121282e+004,-3.35431585678315e+001,-1.13656606611083e+000

1.01260527517622e+005,-3.35432647741433e+001,-1.15227957476811e+000

1.02674071805032e+005,-3.35433736531804e+001,-1.16820649932164e+000

1.04107348435354e+005,-3.35434852639254e+001,-1.18434960221932e+000

1.05560632861831e+005,-3.35435996662322e+001,-1.20071167752972e+000

1.07034204382888e+005,-3.35437169208160e+001,-1.21729555122633e+000

1.08528346195813e+005,-3.35438370892419e+001,-1.23410408147477e+000

1.10043345451179e+005,-3.35439602339112e+001,-1.25114015892880e+000

1.11579493308032e+005,-3.35440864180472e+001,-1.26840670702693e+000

1.13137084989847e+005,-3.35442157056781e+001,-1.28590668230095e+000

1.14716419841265e+005,-3.35443481616193e+001,-1.30364307468691e+000

1.16317801385624e+005,-3.35444838514533e+001,-1.32161890784496e+000

1.17941537383287e+005,-3.35446228415074e+001,-1.33983723948833e+000

1.19587939890794e+005,-3.35447651988303e+001,-1.35830116172035e+000

1.21257325320831e+005,-3.35449109911657e+001,-1.37701380138103e+000

1.22950014503040e+005,-3.35450602869252e+001,-1.39597832040103e+000

1.24666332745679e+005,-3.35452131551579e+001,-1.41519791617366e+000

1.26406609898139e+005,-3.35453696655180e+001,-1.43467582193124e+000

1.28171180414339e+005,-3.35455298882313e+001,-1.45441530713786e+000

1.29960383416997e+005,-3.35456938940580e+001,-1.47441967789619e+000

1.31774562762811e+005,-3.35458617542544e+001,-1.49469227736745e+000

1.33614067108538e+005,-3.35460335405317e+001,-1.51523648620737e+000

1.35479249978003e+005,-3.35462093250125e+001,-1.53605572301993e+000

1.37370469830040e+005,-3.35463891801858e+001,-1.55715344482666e+000

1.39288090127379e+005,-3.35465731788578e+001,-1.57853314755843e+000

1.41232479406504e+005,-3.35467613941027e+001,-1.60019836656409e+000

1.43204011348474e+005,-3.35469538992093e+001,-1.62215267714082e+000

1.45203064850745e+005,-3.35471507676261e+001,-1.64439969509077e+000

1.47230024099979e+005,-3.35473520729042e+001,-1.66694307729521e+000

1.49285278645888e+005,-3.35475578886371e+001,-1.68978652232211e+000

1.51369223476094e+005,-3.35477682883993e+001,-1.71293377105202e+000

1.53482259092041e+005,-3.35479833456820e+001,-1.73638860733877e+000

1.55624791585964e+005,-3.35482031338267e+001,-1.76015485869532e+000

1.57797232718936e+005,-3.35484277259571e+001,-1.78423639701454e+000

1.59999999999999e+005,-3.35486571949087e+001,-1.80863713931729e+000

1.62233516766403e+005,-3.35488916131566e+001,-1.83336104854064e+000

1.64498212264969e+005,-3.35491310527418e+001,-1.85841213435700e+000

1.66794521734578e+005,-3.35493755851954e+001,-1.88379445403176e+000

1.69122886489819e+005,-3.35496252814616e+001,-1.90951211332017e+000

1.71483754005805e+005,-3.35498802118193e+001,-1.93556926740426e+000

1.73877578004168e+005,-3.35501404458029e+001,-1.96197012187025e+000

1.76304818540256e+005,-3.35504060521212e+001,-1.98871893373048e+000

1.78765942091554e+005,-3.35506770985768e+001,-2.01582001248900e+000

1.81261421647326e+005,-3.35509536519841e+001,-2.04327772125405e+000

1.83791736799524e+005,-3.35512357780871e+001,-2.07109647789762e+000

1.86357373834951e+005,-3.35515235414778e+001,-2.09928075626322e+000

1.88958825828723e+005,-3.35518170055140e+001,-2.12783508742579e+000

1.91596592739027e+005,-3.35521162322383e+001,-2.15676406099957e+000

1.94271181503206e+005,-3.35524212822981e+001,-2.18607232650302e+000

1.96983106135185e+005,-3.35527322148658e+001,-2.21576459477311e+000

1.99732887824256e+005,-3.35530490875622e+001,-2.24584563943618e+000

2.02521055035243e+005,-3.35533719563801e+001,-2.27632029843465e+000

2.05348143610063e+005,-3.35537008756114e+001,-2.30719347560920e+000

2.08214696870707e+005,-3.35540358977765e+001,-2.33847014233753e+000

2.11121265723661e+005,-3.35543770735571e+001,-2.37015533923060e+000

2.14068408765776e+005,-3.35547244517320e+001,-2.40225417788725e+000

2.17056692391625e+005,-3.35550780791170e+001,-2.43477184270570e+000

2.20086690902357e+005,-3.35554380005099e+001,-2.46771359275416e+000

2.23158986616063e+005,-3.35558042586399e+001,-2.50108476369696e+000

2.26274169979693e+005,-3.35561768941221e+001,-2.53489076978064e+000

2.29432839682530e+005,-3.35565559454179e+001,-2.56913710587574e+000

2.32635602771247e+005,-3.35569414488024e+001,-2.60382934957419e+000

2.35883074766574e+005,-3.35573334383377e+001,-2.63897316334297e+000

2.39175879781588e+005,-3.35577319458538e+001,-2.67457429673139e+000

2.42514650641661e+005,-3.35581370009370e+001,-2.71063858863203e+000

2.45900029006080e+005,-3.35585486309272e+001,-2.74717196959125e+000

2.49332665491357e+005,-3.35589668609225e+001,-2.78418046417029e+000

2.52813219796278e+005,-3.35593917137943e+001,-2.82167019335496e+000

2.56342360828676e+005,-3.35598232102108e+001,-2.85964737700847e+000

2.59920766833993e+005,-3.35602613686713e+001,-2.89811833636814e+000

2.63549125525621e+005,-3.35607062055497e+001,-2.93708949658374e+000

2.67228134217075e+005,-3.35611577351506e+001,-2.97656738929081e+000

2.70958499956006e+005,-3.35616159697740e+001,-3.01655865522071e+000

2.74740939660078e+005,-3.35620809197938e+001,-3.05707004684017e+000

2.78576180254757e+005,-3.35625525937462e+001,-3.09810843102105e+000

2.82464958813007e+005,-3.35630309984308e+001,-3.13968079173154e+000

2.86408022696948e+005,-3.35635161390246e+001,-3.18179423275051e+000

2.90406129701488e+005,-3.35640080192065e+001,-3.22445598039740e+000

2.94460048199957e+005,-3.35645066412969e+001,-3.26767338627516e+000

2.98570557291775e+005,-3.35650120064075e+001,-3.31145393002228e+000

3.02738446952187e+005,-3.35655241146057e+001,-3.35580522206991e+000

3.06964518184081e+005,-3.35660429650910e+001,-3.40073500639862e+000

3.11249583171928e+005,-3.35665685563843e+001,-3.44625116329129e+000

3.15594465437872e+005,-3.35671008865299e+001,-3.49236171207902e+000

3.19999999999997e+005,-3.35676399533108e+001,-3.53907481387478e+000

3.24467033532806e+005,-3.35681857544751e+001,-3.58639877428894e+000

3.28996424529938e+005,-3.35687382879764e+001,-3.63434204612670e+000

3.33589043469155e+005,-3.35692975522253e+001,-3.68291323205795e+000

3.38245772979638e+005,-3.35698635463528e+001,-3.73212108726140e+000

3.42967508011610e+005,-3.35704362704853e+001,-3.78197452203401e+000

3.47755156008335e+005,-3.35710157260309e+001,-3.83248260436554e+000

3.52609637080511e+005,-3.35716019159759e+001,-3.88365456247222e+000

3.57531884183106e+005,-3.35721948451926e+001,-3.93549978728874e+000

3.62522843294651e+005,-3.35727945207553e+001,-3.98802783491373e+000

3.67583473599047e+005,-3.35734009522669e+001,-4.04124842900522e+000

3.72714747669902e+005,-3.35740141521939e+001,-4.09517146312648e+000

3.77917651657445e+005,-3.35746341362090e+001,-4.14980700303679e+000

3.83193185478053e+005,-3.35752609235418e+001,-4.20516528892717e+000

3.88542363006410e+005,-3.35758945373361e+001,-4.26125673759825e+000

3.93966212270369e+005,-3.35765350050139e+001,-4.31809194458003e+000

3.99465775648511e+005,-3.35771823586440e+001,-4.37568168619075e+000

4.05042110070485e+005,-3.35778366353168e+001,-4.43403692153712e+000

4.10696287220124e+005,-3.35784978775226e+001,-4.49316879445200e+000

4.16429393741414e+005,-3.35791661335337e+001,-4.55308863537259e+000

4.22242531447321e+005,-3.35798414577892e+001,-4.61380796315807e+000

4.28136817531551e+005,-3.35805239112830e+001,-4.67533848684727e+000

4.34113384783250e+005,-3.35812135619519e+001,-4.73769210735770e+000

4.40173381804713e+005,-3.35819104850663e+001,-4.80088091912878e+000

4.46317973232124e+005,-3.35826147636203e+001,-4.86491721170781e+000

4.52548339959385e+005,-3.35833264887221e+001,-4.92981347128405e+000

4.58865679365059e+005,-3.35840457599833e+001,-4.99558238217074e+000

4.65271205542494e+005,-3.35847726859075e+001,-5.06223682823978e+000

4.71766149533147e+005,-3.35855073842770e+001,-5.12978989430932e+000

4.78351759563174e+005,-3.35862499825368e+001,-5.19825486749097e+000

4.85029301283321e+005,-3.35870006181768e+001,-5.26764523849597e+000

4.91800058012158e+005,-3.35877594391109e+001,-5.33797470290711e+000

4.98665330982714e+005,-3.35885266040522e+001,-5.40925716241765e+000

5.05626439592555e+005,-3.35893022828860e+001,-5.48150672604393e+000

5.12684721657352e+005,-3.35900866570375e+001,-5.55473771131197e+000

5.19841533667984e+005,-3.35908799198372e+001,-5.62896464542593e+000

5.27098251051240e+005,-3.35916822768809e+001,-5.70420226641919e+000

5.34456268434150e+005,-3.35924939463865e+001,-5.78046552429491e+000

5.41916999912011e+005,-3.35933151595465e+001,-5.85776958215901e+000

