Freq.,VOut,OutRef

1.00000000000000e+004,-1.92758308640038e+001,-3.21161204215104e-001

1.01395947979003e+004,-1.92758332756992e+001,-3.25644184866817e-001

1.02811382665607e+004,-1.92758357551412e+001,-3.30189734449788e-001

1.04246576084112e+004,-1.92758383042310e+001,-3.34798725922695e-001

1.05701804056138e+004,-1.92758409249234e+001,-3.39472044407187e-001

1.07177346253629e+004,-1.92758436192278e+001,-3.44210587362743e-001

1.08673486252606e+004,-1.92758463892102e+001,-3.49015264752663e-001

1.10190511587661e+004,-1.92758492369941e+001,-3.53886999221422e-001

1.11728713807222e+004,-1.92758521647626e+001,-3.58826726269617e-001

1.13288388529580e+004,-1.92758551747600e+001,-3.63835394432644e-001

1.14869835499703e+004,-1.92758582692934e+001,-3.68913965459573e-001

1.16473358646846e+004,-1.92758614507346e+001,-3.74063414499931e-001

1.18099266142953e+004,-1.92758647215215e+001,-3.79284730287896e-001

1.19747870461893e+004,-1.92758680841606e+001,-3.84578915329796e-001

1.21419488439505e+004,-1.92758715412283e+001,-3.89946986096678e-001

1.23114441334492e+004,-1.92758750953734e+001,-3.95389973216659e-001

1.24833054890161e+004,-1.92758787493183e+001,-4.00908921674086e-001

1.26575659397028e+004,-1.92758825058621e+001,-4.06504891004522e-001

1.28342589756290e+004,-1.92758863678820e+001,-4.12178955498482e-001

1.30134185544193e+004,-1.92758903383356e+001,-4.17932204406899e-001

1.31950791077289e+004,-1.92758944202633e+001,-4.23765742145860e-001

1.33792755478611e+004,-1.92758986167905e+001,-4.29680688509070e-001

1.35660432744767e+004,-1.92759029311299e+001,-4.35678178880080e-001

1.37554181813974e+004,-1.92759073665841e+001,-4.41759364446638e-001

1.39474366635040e+004,-1.92759119265481e+001,-4.47925412421091e-001

1.41421356237309e+004,-1.92759166145115e+001,-4.54177506262475e-001

1.43395524801583e+004,-1.92759214340617e+001,-4.60516845899960e-001

1.45397251732031e+004,-1.92759263888861e+001,-4.66944647960708e-001

1.47426921729110e+004,-1.92759314827751e+001,-4.73462146003115e-001

1.49484924863494e+004,-1.92759367196251e+001,-4.80070590747555e-001

1.51571656651040e+004,-1.92759421034410e+001,-4.86771250315800e-001

1.53687518128801e+004,-1.92759476383399e+001,-4.93565410469337e-001

1.55832915932100e+004,-1.92759533285534e+001,-5.00454374857716e-001

1.58008262372675e+004,-1.92759591784315e+001,-5.07439465258719e-001

1.60213975517924e+004,-1.92759651924454e+001,-5.14522021834783e-001

1.62450479271247e+004,-1.92759713751908e+001,-5.21703403382977e-001

1.64718203453514e+004,-1.92759777313920e+001,-5.28984987593976e-001

1.67017583885674e+004,-1.92759842659046e+001,-5.36368171311908e-001

1.69349062472505e+004,-1.92759909837197e+001,-5.43854370798255e-001

1.71713087287550e+004,-1.92759978899674e+001,-5.51445022000388e-001

1.74110112659224e+004,-1.92760049899209e+001,-5.59141580820653e-001

1.76540599258131e+004,-1.92760122890000e+001,-5.66945523395042e-001

1.79005014185594e+004,-1.92760197927757e+001,-5.74858346367458e-001

1.81503831063432e+004,-1.92760275069738e+001,-5.82881567174359e-001

1.84037530124975e+004,-1.92760354374793e+001,-5.91016724332465e-001

1.86606598307361e+004,-1.92760435903415e+001,-5.99265377723314e-001

1.89211529345119e+004,-1.92760519717775e+001,-6.07629108892309e-001

1.91852823865052e+004,-1.92760605881773e+001,-6.16109521343837e-001

1.94530989482457e+004,-1.92760694461085e+001,-6.24708240843584e-001

1.97246540898671e+004,-1.92760785523212e+001,-6.33426915723433e-001

1.99999999999999e+004,-1.92760879137530e+001,-6.42267217191980e-001

2.02791895958005e+004,-1.92760975375342e+001,-6.51230839647652e-001

2.05622765331213e+004,-1.92761074309929e+001,-6.60319500996399e-001

2.08493152168224e+004,-1.92761176016608e+001,-6.69534942974503e-001

2.11403608112276e+004,-1.92761280572780e+001,-6.78878931475276e-001

2.14354692507258e+004,-1.92761388057995e+001,-6.88353256878401e-001

2.17346972505211e+004,-1.92761498554010e+001,-6.97959734385239e-001

2.20381023175322e+004,-1.92761612144841e+001,-7.07700204360083e-001

2.23457427614443e+004,-1.92761728916836e+001,-7.17576532669952e-001

2.26576777059159e+004,-1.92761848958732e+001,-7.27590611037713e-001

2.29739670999406e+004,-1.92761972361718e+001,-7.37744357391239e-001

2.32946717293690e+004,-1.92762099219510e+001,-7.48039716223053e-001

2.36198532285905e+004,-1.92762229628409e+001,-7.58478658951039e-001

2.39495740923785e+004,-1.92762363687383e+001,-7.69063184285367e-001

2.42838976879009e+004,-1.92762501498128e+001,-7.79795318601939e-001

2.46228882668982e+004,-1.92762643165149e+001,-7.90677116316065e-001

2.49666109780322e+004,-1.92762788795833e+001,-8.01710660265356e-001

2.53151318794055e+004,-1.92762938500531e+001,-8.12898062094984e-001

2.56685179512580e+004,-1.92763092392633e+001,-8.24241462649039e-001

2.60268371088386e+004,-1.92763250588650e+001,-8.35743032367951e-001

2.63901582154578e+004,-1.92763413208304e+001,-8.47404971686635e-001

2.67585510957221e+004,-1.92763580374610e+001,-8.59229511442630e-001

2.71320865489533e+004,-1.92763752213962e+001,-8.71218913288584e-001

2.75108363627948e+004,-1.92763928856231e+001,-8.83375470106039e-001

2.78948733270080e+004,-1.92764110434852e+001,-8.95701506429025e-001

2.82842712474618e+004,-1.92764297086921e+001,-9.08199378872137e-001

2.86791049603164e+004,-1.92764488953293e+001,-9.20871476561087e-001

2.90794503464061e+004,-1.92764686178686e+001,-9.33720221571487e-001

2.94853843458219e+004,-1.92764888911779e+001,-9.46748069373030e-001

2.98969849726987e+004,-1.92765097305316e+001,-9.59957509277318e-001

3.03143313302078e+004,-1.92765311516224e+001,-9.73351064893577e-001

3.07375036257601e+004,-1.92765531705710e+001,-9.86931294587964e-001

3.11665831864199e+004,-1.92765758039387e+001,-1.00070079195012e+000

3.16016524745350e+004,-1.92765990687382e+001,-1.01466218626382e+000

3.20427951035848e+004,-1.92766229824460e+001,-1.02881814298594e+000

3.24900958542493e+004,-1.92766475630144e+001,-1.04317136422800e+000

3.29436406907028e+004,-1.92766728288841e+001,-1.05772458924575e+000

3.34035167771346e+004,-1.92766987989968e+001,-1.07248059493643e+000

3.38698124945009e+004,-1.92767254928088e+001,-1.08744219633553e+000

3.43426174575100e+004,-1.92767529303039e+001,-1.10261224712791e+000

3.48220225318448e+004,-1.92767811320076e+001,-1.11799364015819e+000

3.53081198516260e+004,-1.92768101190008e+001,-1.13358930795224e+000

3.58010028371187e+004,-1.92768399129348e+001,-1.14940222324022e+000

3.63007662126863e+004,-1.92768705360454e+001,-1.16543539949094e+000

3.68075060249948e+004,-1.92769020111686e+001,-1.18169189144691e+000

3.73213196614721e+004,-1.92769343617555e+001,-1.19817479567102e+000

3.78423058690237e+004,-1.92769676118887e+001,-1.21488725109650e+000

3.83705647730104e+004,-1.92770017862982e+001,-1.23183243958284e+000

3.89061978964912e+004,-1.92770369103779e+001,-1.24901358648025e+000

3.94493081797342e+004,-1.92770730102027e+001,-1.26643396119991e+000

3.99999999999998e+004,-1.92771101125458e+001,-1.28409687778980e+000

4.05583791916010e+004,-1.92771482448964e+001,-1.30200569551702e+000

4.11245530662425e+004,-1.92771874354776e+001,-1.32016381945976e+000

4.16986304336447e+004,-1.92772277132654e+001,-1.33857470110137e+000

4.22807216224550e+004,-1.92772691080071e+001,-1.35724183893455e+000

4.28709385014515e+004,-1.92773116502408e+001,-1.37616877907056e+000

4.34693945010421e+004,-1.92773553713154e+001,-1.39535911585595e+000

4.40762046350642e+004,-1.92774003034102e+001,-1.41481649249610e+000

4.46914855228886e+004,-1.92774464795564e+001,-1.43454460168443e+000

4.53153554118317e+004,-1.92774939336567e+001,-1.45454718624106e+000

4.59479341998812e+004,-1.92775427005084e+001,-1.47482803975442e+000

4.65893434587380e+004,-1.92775928158241e+001,-1.49539100723480e+000

4.72397064571810e+004,-1.92776443162543e+001,-1.51623998576969e+000

4.78991481847569e+004,-1.92776972394107e+001,-1.53737892519007e+000

4.85677953758016e+004,-1.92777516238887e+001,-1.55881182874147e+000

4.92457765337964e+004,-1.92778075092916e+001,-1.58054275376342e+000

4.99332219560642e+004,-1.92778649362546e+001,-1.60257581237489e+000

5.06302637588109e+004,-1.92779239464694e+001,-1.62491517216750e+000

5.13370359025159e+004,-1.92779845827091e+001,-1.64756505690600e+000

5.20536742176771e+004,-1.92780468888539e+001,-1.67052974723526e+000

5.27803164309155e+004,-1.92781109099172e+001,-1.69381358139418e+000

5.35171021914442e+004,-1.92781766920719e+001,-1.71742095593874e+000

5.42641730979066e+004,-1.92782442826773e+001,-1.74135632646993e+000

5.50216727255895e+004,-1.92783137303065e+001,-1.76562420836988e+000

5.57897466540159e+004,-1.92783850847741e+001,-1.79022917754618e+000

5.65685424949235e+004,-1.92784583971651e+001,-1.81517587118103e+000

5.73582099206328e+004,-1.92785337198627e+001,-1.84046898849094e+000

5.81589006928121e+004,-1.92786111065785e+001,-1.86611329149051e+000

5.89707686916437e+004,-1.92786906123814e+001,-1.89211360576604e+000

5.97939699453972e+004,-1.92787722937281e+001,-1.91847482125586e+000

6.06286626604156e+004,-1.92788562084935e+001,-1.94520189303602e+000

6.14750072515201e+004,-1.92789424160016e+001,-1.97229984211755e+000

6.23331663728396e+004,-1.92790309770574e+001,-1.99977375624664e+000

6.32033049490698e+004,-1.92791219539779e+001,-2.02762879071548e+000

6.40855902071694e+004,-1.92792154106250e+001,-2.05587016917924e+000

6.49801917084985e+004,-1.92793114124379e+001,-2.08450318448002e+000

6.58872813814055e+004,-1.92794100264657e+001,-2.11353319948072e+000

6.68070335542691e+004,-1.92795113214016e+001,-2.14296564790349e+000

6.77396249890018e+004,-1.92796153676160e+001,-2.17280603517733e+000

6.86852349150199e+004,-1.92797222371905e+001,-2.20305993929399e+000

6.96440450636895e+004,-1.92798320039528e+001,-2.23373301166967e+000

7.06162397032520e+004,-1.92799447435109e+001,-2.26483097801636e+000

7.16020056742374e+004,-1.92800605332884e+001,-2.29635963921989e+000

7.26015324253724e+004,-1.92801794525595e+001,-2.32832487222623e+000

7.36150120499896e+004,-1.92803015824846e+001,-2.36073263093577e+000

7.46426393229441e+004,-1.92804270061460e+001,-2.39358894710452e+000

7.56846117380472e+004,-1.92805558085838e+001,-2.42689993125503e+000

7.67411295460207e+004,-1.92806880768318e+001,-2.46067177359513e+000

7.78123957929823e+004,-1.92808238999537e+001,-2.49491074494323e+000

7.88986163594682e+004,-1.92809633690798e+001,-2.52962319766456e+000

7.99999999999995e+004,-1.92811065774426e+001,-2.56481556661397e+000

8.11167583832018e+004,-1.92812536204139e+001,-2.60049437008771e+000

8.22491061324848e+004,-1.92814045955408e+001,-2.63666621078489e+000

8.33972608672892e+004,-1.92815596025820e+001,-2.67333777677674e+000

8.45614432449099e+004,-1.92817187435444e+001,-2.71051584248562e+000

8.57418770029029e+004,-1.92818821227190e+001,-2.74820726967265e+000

8.69387890020841e+004,-1.92820498467169e+001,-2.78641900843546e+000

8.81524092701283e+004,-1.92822220245051e+001,-2.82515809821589e+000

8.93829710457770e+004,-1.92823987674423e+001,-2.86443166881656e+000

9.06307108236633e+004,-1.92825801893135e+001,-2.90424694142857e+000

9.18958683997622e+004,-1.92827664063655e+001,-2.94461122966850e+000

9.31786869174758e+004,-1.92829575373413e+001,-2.98553194062865e+000

9.44794129143618e+004,-1.92831537035135e+001,-3.02701657593555e+000

9.57982963695136e+004,-1.92833550287188e+001,-3.06907273282201e+000

9.71355907516031e+004,-1.92835616393899e+001,-3.11170810520958e+000

9.84915530675926e+004,-1.92837736645887e+001,-3.15493048480527e+000

9.98664439121282e+004,-1.92839912360375e+001,-3.19874776220878e+000

1.01260527517622e+005,-1.92842144881498e+001,-3.24316792803473e+000

1.02674071805032e+005,-1.92844435580609e+001,-3.28819907404807e+000

1.04107348435354e+005,-1.92846785856565e+001,-3.33384939431370e+000

1.05560632861831e+005,-1.92849197136018e+001,-3.38012718636116e+000

1.07034204382888e+005,-1.92851670873682e+001,-3.42704085236574e+000

1.08528346195813e+005,-1.92854208552599e+001,-3.47459890034433e+000

1.10043345451179e+005,-1.92856811684394e+001,-3.52280994536962e+000

1.11579493308032e+005,-1.92859481809510e+001,-3.57168271080188e+000

1.13137084989847e+005,-1.92862220497443e+001,-3.62122602953884e+000

1.14716419841265e+005,-1.92865029346956e+001,-3.67144884528607e+000

1.16317801385624e+005,-1.92867909986279e+001,-3.72236021384599e+000

1.17941537383287e+005,-1.92870864073306e+001,-3.77396930443130e+000

1.19587939890794e+005,-1.92873893295762e+001,-3.82628540099805e+000

1.21257325320831e+005,-1.92876999371371e+001,-3.87931790360366e+000

1.22950014503040e+005,-1.92880184047998e+001,-3.93307632978955e+000

1.24666332745679e+005,-1.92883449103782e+001,-3.98757031598956e+000

1.26406609898139e+005,-1.92886796347250e+001,-4.04280961896558e+000

1.28171180414339e+005,-1.92890227617418e+001,-4.09880411727210e+000

1.29960383416997e+005,-1.92893744783873e+001,-4.15556381274996e+000

1.31774562762811e+005,-1.92897349746845e+001,-4.21309883205201e+000

1.33614067108538e+005,-1.92901044437254e+001,-4.27141942820164e+000

1.35479249978003e+005,-1.92904830816745e+001,-4.33053598218603e+000

1.37370469830040e+005,-1.92908710877718e+001,-4.39045900458386e+000

1.39288090127379e+005,-1.92912686643321e+001,-4.45119913723419e+000

1.41232479406504e+005,-1.92916760167445e+001,-4.51276715494075e+000

1.43204011348474e+005,-1.92920933534702e+001,-4.57517396722078e+000

1.45203064850745e+005,-1.92925208860384e+001,-4.63843062009556e+000

1.47230024099979e+005,-1.92929588290412e+001,-4.70254829792613e+000

1.49285278645888e+005,-1.92934074001272e+001,-4.76753832529664e+000

1.51369223476094e+005,-1.92938668199942e+001,-4.83341216894614e+000

1.53482259092041e+005,-1.92943373123812e+001,-4.90018143975191e+000

1.55624791585964e+005,-1.92948191040584e+001,-4.96785789476514e+000

1.57797232718936e+005,-1.92953124248182e+001,-5.03645343930365e+000

1.59999999999999e+005,-1.92958175074647e+001,-5.10598012909935e+000

1.62233516766403e+005,-1.92963345878031e+001,-5.17645017250777e+000

1.64498212264969e+005,-1.92968639046294e+001,-5.24787593277787e+000

1.66794521734578e+005,-1.92974056997201e+001,-5.32026993038583e+000

1.69122886489819e+005,-1.92979602178225e+001,-5.39364484543490e+000

1.71483754005805e+005,-1.92985277066459e+001,-5.46801352012409e+000

1.73877578004168e+005,-1.92991084168536e+001,-5.54338896128587e+000

1.76304818540256e+005,-1.92997026020572e+001,-5.61978434299699e+000

1.78765942091554e+005,-1.93003105188118e+001,-5.69721300926356e+000

1.81261421647326e+005,-1.93009324266144e+001,-5.77568847678166e+000

1.83791736799524e+005,-1.93015685879043e+001,-5.85522443777746e+000

1.86357373834951e+005,-1.93022192680671e+001,-5.93583476292595e+000

1.88958825828723e+005,-1.93028847354426e+001,-6.01753350435264e+000

1.91596592739027e+005,-1.93035652613361e+001,-6.10033489871740e+000

1.94271181503206e+005,-1.93042611200352e+001,-6.18425337038375e+000

1.96983106135185e+005,-1.93049725888316e+001,-6.26930353467400e+000

1.99732887824256e+005,-1.93056999480491e+001,-6.35550020121203e+000

2.02521055035243e+005,-1.93064434810772e+001,-6.44285837735403e+000

2.05348143610063e+005,-1.93072034744134e+001,-6.53139327170796e+000

2.08214696870707e+005,-1.93079802177118e+001,-6.62112029774372e+000

2.11121265723661e+005,-1.93087740038412e+001,-6.71205507749218e+000

2.14068408765776e+005,-1.93095851289523e+001,-6.80421344533566e+000

2.17056692391625e+005,-1.93104138925541e+001,-6.89761145188820e+000

2.20086690902357e+005,-1.93112605976027e+001,-6.99226536796437e+000

2.23158986616063e+005,-1.93121255505994e+001,-7.08819168864027e+000

2.26274169979693e+005,-1.93130090617031e+001,-7.18540713739948e+000

2.29432839682530e+005,-1.93139114448540e+001,-7.28392867036843e+000

2.32635602771247e+005,-1.93148330179127e+001,-7.38377348063610e+000

2.35883074766574e+005,-1.93157741028127e+001,-7.48495900265864e+000

2.39175879781588e+005,-1.93167350257288e+001,-7.58750291674386e+000

2.42514650641661e+005,-1.93177161172620e+001,-7.69142315361669e+000

2.45900029006080e+005,-1.93187177126407e+001,-7.79673789905919e+000

2.49332665491357e+005,-1.93197401519405e+001,-7.90346559862502e+000

2.52813219796278e+005,-1.93207837803217e+001,-8.01162496242179e+000

2.56342360828676e+005,-1.93218489482867e+001,-8.12123496996054e+000

2.59920766833993e+005,-1.93229360119570e+001,-8.23231487506553e+000

2.63549125525621e+005,-1.93240453333713e+001,-8.34488421084144e+000

2.67228134217075e+005,-1.93251772808048e+001,-8.45896279469169e+000

2.70958499956006e+005,-1.93263322291101e+001,-8.57457073338442e+000

2.74740939660078e+005,-1.93275105600816e+001,-8.69172842815814e+000

2.78576180254757e+005,-1.93287126628418e+001,-8.81045657986406e+000

2.82464958813007e+005,-1.93299389342530e+001,-8.93077619413670e+000

2.86408022696948e+005,-1.93311897793511e+001,-9.05270858658680e+000

2.90406129701488e+005,-1.93324656118057e+001,-9.17627538801167e+000

2.94460048199957e+005,-1.93337668544044e+001,-9.30149854961280e+000

2.98570557291775e+005,-1.93350939395618e+001,-9.42840034821719e+000

3.02738446952187e+005,-1.93364473098550e+001,-9.55700339149275e+000

3.06964518184081e+005,-1.93378274185837e+001,-9.68733062315101e+000

3.11249583171928e+005,-1.93392347303571e+001,-9.81940532813036e+000

3.15594465437872e+005,-1.93406697217055e+001,-9.95325113775100e+000

3.19999999999997e+005,-1.93421328817183e+001,-1.00888920348357e+001

3.24467033532806e+005,-1.93436247127077e+001,-1.02263523587854e+001

3.28996424529938e+005,-1.93451457308971e+001,-1.03656568106076e+001

3.33589043469155e+005,-1.93466964671365e+001,-1.05068304578832e+001

3.38245772979638e+005,-1.93482774676407e+001,-1.06498987396703e+001

3.42967508011610e+005,-1.93498892947537e+001,-1.07948874713328e+001

3.47755156008335e+005,-1.93515325277369e+001,-1.09418228492916e+001

3.52609637080511e+005,-1.93532077635807e+001,-1.10907314556845e+001

3.57531884183106e+005,-1.93549156178396e+001,-1.12416402629361e+001

3.62522843294651e+005,-1.93566567254898e+001,-1.13945766382242e+001

3.67583473599047e+005,-1.93584317418086e+001,-1.15495683478402e+001

3.72714747669902e+005,-1.93602413432750e+001,-1.17066435614362e+001

3.77917651657445e+005,-1.93620862284909e+001,-1.18658308561540e+001

3.83193185478053e+005,-1.93639671191222e+001,-1.20271592206285e+001

3.88542363006410e+005,-1.93658847608576e+001,-1.21906580588641e+001

3.93966212270369e+005,-1.93678399243870e+001,-1.23563571939755e+001

3.99465775648511e+005,-1.93698334063956e+001,-1.25242868717913e+001

4.05042110070485e+005,-1.93718660305752e+001,-1.26944777643164e+001

4.10696287220124e+005,-1.93739386486498e+001,-1.28669609730479e+001

4.16429393741414e+005,-1.93760521414164e+001,-1.30417680321437e+001

4.22242531447321e+005,-1.93782074197988e+001,-1.32189309114401e+001

4.28136817531551e+005,-1.93804054259138e+001,-1.33984820193149e+001

4.34113384783250e+005,-1.93826471341492e+001,-1.35804542053974e+001

4.40173381804713e+005,-1.93849335522521e+001,-1.37648807631199e+001

4.46317973232124e+005,-1.93872657224275e+001,-1.39517954321122e+001

4.52548339959385e+005,-1.93896447224452e+001,-1.41412324004373e+001

4.58865679365059e+005,-1.93920716667550e+001,-1.43332263066676e+001

4.65271205542494e+005,-1.93945477076093e+001,-1.45278122418016e+001

4.71766149533147e+005,-1.93970740361919e+001,-1.47250257510206e+001

4.78351759563174e+005,-1.93996518837528e+001,-1.49249028352862e+001

4.85029301283321e+005,-1.94022825227474e+001,-1.51274799527788e+001

4.91800058012158e+005,-1.94049672679809e+001,-1.53327940201765e+001

4.98665330982714e+005,-1.94077074777561e+001,-1.55408824137769e+001

5.05626439592555e+005,-1.94105045550239e+001,-1.57517829704608e+001

5.12684721657352e+005,-1.94133599485375e+001,-1.59655339884990e+001

5.19841533667984e+005,-1.94162751540079e+001,-1.61821742282034e+001

5.27098251051240e+005,-1.94192517152614e+001,-1.64017429124227e+001

5.34456268434150e+005,-1.94222912253988e+001,-1.66242797268819e+001

5.41916999912011e+005,-1.94253953279554e+001,-1.68498248203688e+001

