Freq.,VOut,OutRef

1.00000000000000e+004,-2.13619633945923e+001,-3.06207375519425e-001

1.01395947979003e+004,-2.13619662566114e+001,-3.10481538020722e-001

1.02811382665607e+004,-2.13619691990217e+001,-3.14815351470436e-001

1.04246576084112e+004,-2.13619722240792e+001,-3.19209647965758e-001

1.05701804056138e+004,-2.13619753341032e+001,-3.23665271193626e-001

1.07177346253629e+004,-2.13619785314777e+001,-3.28183076592915e-001

1.08673486252606e+004,-2.13619818186540e+001,-3.32763931514263e-001

1.10190511587661e+004,-2.13619851981515e+001,-3.37408715389034e-001

1.11728713807222e+004,-2.13619886725604e+001,-3.42118319894510e-001

1.13288388529580e+004,-2.13619922445433e+001,-3.46893649124713e-001

1.14869835499703e+004,-2.13619959168376e+001,-3.51735619760238e-001

1.16473358646846e+004,-2.13619996922570e+001,-3.56645161245915e-001

1.18099266142953e+004,-2.13620035736939e+001,-3.61623215965162e-001

1.19747870461893e+004,-2.13620075641222e+001,-3.66670739418407e-001

1.21419488439505e+004,-2.13620116665983e+001,-3.71788700407961e-001

1.23114441334492e+004,-2.13620158842645e+001,-3.76978081219373e-001

1.24833054890161e+004,-2.13620202203510e+001,-3.82239877807304e-001

1.26575659397028e+004,-2.13620246781782e+001,-3.87575099988364e-001

1.28342589756290e+004,-2.13620292611593e+001,-3.92984771628711e-001

1.30134185544193e+004,-2.13620339728031e+001,-3.98469930840384e-001

1.31950791077289e+004,-2.13620388167165e+001,-4.04031630176916e-001

1.33792755478611e+004,-2.13620437966070e+001,-4.09670936835328e-001

1.35660432744767e+004,-2.13620489162859e+001,-4.15388932855083e-001

1.37554181813974e+004,-2.13620541796709e+001,-4.21186715324939e-001

1.39474366635040e+004,-2.13620595907893e+001,-4.27065396591395e-001

1.41421356237309e+004,-2.13620651537806e+001,-4.33026104466516e-001

1.43395524801583e+004,-2.13620708729000e+001,-4.39069982445354e-001

1.45397251732031e+004,-2.13620767525218e+001,-4.45198189916696e-001

1.47426921729110e+004,-2.13620827971420e+001,-4.51411902387999e-001

1.49484924863494e+004,-2.13620890113824e+001,-4.57712311702898e-001

1.51571656651040e+004,-2.13620953999934e+001,-4.64100626270232e-001

1.53687518128801e+004,-2.13621019678583e+001,-4.70578071287642e-001

1.55832915932100e+004,-2.13621087199964e+001,-4.77145888977293e-001

1.58008262372675e+004,-2.13621156615671e+001,-4.83805338815691e-001

1.60213975517924e+004,-2.13621227978734e+001,-4.90557697775574e-001

1.62450479271247e+004,-2.13621301343664e+001,-4.97404260562497e-001

1.64718203453514e+004,-2.13621376766489e+001,-5.04346339860857e-001

1.67017583885674e+004,-2.13621454304799e+001,-5.11385266579641e-001

1.69349062472505e+004,-2.13621534017786e+001,-5.18522390104201e-001

1.71713087287550e+004,-2.13621615966294e+001,-5.25759078547223e-001

1.74110112659224e+004,-2.13621700212857e+001,-5.33096719009035e-001

1.76540599258131e+004,-2.13621786821751e+001,-5.40536717834783e-001

1.79005014185594e+004,-2.13621875859039e+001,-5.48080500879896e-001

1.81503831063432e+004,-2.13621967392623e+001,-5.55729513777567e-001

1.84037530124975e+004,-2.13622061492292e+001,-5.63485222207453e-001

1.86606598307361e+004,-2.13622158229776e+001,-5.71349112172148e-001

1.89211529345119e+004,-2.13622257678795e+001,-5.79322690275711e-001

1.91852823865052e+004,-2.13622359915121e+001,-5.87407484001268e-001

1.94530989482457e+004,-2.13622465016627e+001,-5.95605042000468e-001

1.97246540898671e+004,-2.13622573063349e+001,-6.03916934380876e-001

1.99999999999999e+004,-2.13622684137544e+001,-6.12344752997353e-001

2.02791895958005e+004,-2.13622798323750e+001,-6.20890111750433e-001

2.05622765331213e+004,-2.13622915708848e+001,-6.29554646886694e-001

2.08493152168224e+004,-2.13623036382130e+001,-6.38340017301544e-001

2.11403608112276e+004,-2.13623160435360e+001,-6.47247904848111e-001

2.14354692507258e+004,-2.13623287962844e+001,-6.56280014650287e-001

2.17346972505211e+004,-2.13623419061497e+001,-6.65438075416878e-001

2.20381023175322e+004,-2.13623553830918e+001,-6.74723839764320e-001

2.23457427614443e+004,-2.13623692373460e+001,-6.84139084538760e-001

2.26576777059159e+004,-2.13623834794304e+001,-6.93685611145689e-001

2.29739670999406e+004,-2.13623981201541e+001,-7.03365245882513e-001

2.32946717293690e+004,-2.13624131706243e+001,-7.13179840275164e-001

2.36198532285905e+004,-2.13624286422551e+001,-7.23131271419033e-001

2.39495740923785e+004,-2.13624445467755e+001,-7.33221442325327e-001

2.42838976879009e+004,-2.13624608962378e+001,-7.43452282268949e-001

2.46228882668982e+004,-2.13624777030267e+001,-7.53825747145530e-001

2.49666109780322e+004,-2.13624949798679e+001,-7.64343819827368e-001

2.53151318794055e+004,-2.13625127398375e+001,-7.75008510527356e-001

2.56685179512580e+004,-2.13625309963711e+001,-7.85821857168068e-001

2.60268371088386e+004,-2.13625497632742e+001,-7.96785925752115e-001

2.63901582154578e+004,-2.13625690547313e+001,-8.07902810738595e-001

2.67585510957221e+004,-2.13625888853167e+001,-8.19174635426251e-001

2.71320865489533e+004,-2.13626092700045e+001,-8.30603552339019e-001

2.75108363627948e+004,-2.13626302241795e+001,-8.42191743616021e-001

2.78948733270080e+004,-2.13626517636481e+001,-8.53941421407539e-001

2.82842712474618e+004,-2.13626739046496e+001,-8.65854828275981e-001

2.86791049603164e+004,-2.13626966638678e+001,-8.77934237599702e-001

2.90794503464061e+004,-2.13627200584425e+001,-8.90181953985533e-001

2.94853843458219e+004,-2.13627441059821e+001,-9.02600313680205e-001

2.98969849726987e+004,-2.13627688245755e+001,-9.15191684994533e-001

3.03143313302078e+004,-2.13627942328051e+001,-9.27958468724299e-001

3.07375036257601e+004,-2.13628203497598e+001,-9.40903098583844e-001

3.11665831864199e+004,-2.13628471950484e+001,-9.54028041637684e-001

3.16016524745350e+004,-2.13628747888130e+001,-9.67335798743740e-001

3.20427951035848e+004,-2.13629031517432e+001,-9.80828904996516e-001

3.24900958542493e+004,-2.13629323050907e+001,-9.94509930178411e-001

3.29436406907028e+004,-2.13629622706835e+001,-1.00838147921540e+000

3.34035167771346e+004,-2.13629930709413e+001,-1.02244619263663e+000

3.38698124945009e+004,-2.13630247288906e+001,-1.03670674704334e+000

3.43426174575100e+004,-2.13630572681809e+001,-1.05116585557694e+000

3.48220225318448e+004,-2.13630907131003e+001,-1.06582626839773e+000

3.53081198516260e+004,-2.13631250885925e+001,-1.08069077316701e+000

3.58010028371187e+004,-2.13631604202734e+001,-1.09576219553336e+000

3.63007662126863e+004,-2.13631967344486e+001,-1.11104339962633e+000

3.68075060249948e+004,-2.13632340581309e+001,-1.12653728855453e+000

3.73213196614721e+004,-2.13632724190584e+001,-1.14224680490984e+000

3.78423058690237e+004,-2.13633118457132e+001,-1.15817493127510e+000

3.83705647730104e+004,-2.13633523673403e+001,-1.17432469073981e+000

3.89061978964912e+004,-2.13633940139667e+001,-1.19069914742106e+000

3.94493081797342e+004,-2.13634368164215e+001,-1.20730140698667e+000

3.99999999999998e+004,-2.13634808063557e+001,-1.22413461718979e+000

4.05583791916010e+004,-2.13635260162635e+001,-1.24120196840253e+000

4.11245530662425e+004,-2.13635724795028e+001,-1.25850669415984e+000

4.16986304336447e+004,-2.13636202303170e+001,-1.27605207170773e+000

4.22807216224550e+004,-2.13636693038571e+001,-1.29384142255567e+000

4.28709385014515e+004,-2.13637197362039e+001,-1.31187811303615e+000

4.34693945010421e+004,-2.13637715643914e+001,-1.33016555486957e+000

4.40762046350642e+004,-2.13638248264298e+001,-1.34870720573397e+000

4.46914855228886e+004,-2.13638795613297e+001,-1.36750656984111e+000

4.53153554118317e+004,-2.13639358091264e+001,-1.38656719851853e+000

4.59479341998812e+004,-2.13639936109046e+001,-1.40589269079538e+000

4.65893434587380e+004,-2.13640530088238e+001,-1.42548669399663e+000

4.72397064571810e+004,-2.13641140461447e+001,-1.44535290433954e+000

4.78991481847569e+004,-2.13641767672549e+001,-1.46549506753876e+000

4.85677953758016e+004,-2.13642412176958e+001,-1.48591697941587e+000

4.92457765337964e+004,-2.13643074441902e+001,-1.50662248651346e+000

4.99332219560642e+004,-2.13643754946705e+001,-1.52761548671569e+000

5.06302637588109e+004,-2.13644454183061e+001,-1.54889992987599e+000

5.13370359025159e+004,-2.13645172655330e+001,-1.57047981844656e+000

5.20536742176771e+004,-2.13645910880829e+001,-1.59235920811649e+000

5.27803164309155e+004,-2.13646669390134e+001,-1.61454220845473e+000

5.35171021914442e+004,-2.13647448727375e+001,-1.63703298355762e+000

5.42641730979066e+004,-2.13648249450555e+001,-1.65983575270191e+000

5.50216727255895e+004,-2.13649072131857e+001,-1.68295479100541e+000

5.57897466540159e+004,-2.13649917357962e+001,-1.70639443008948e+000

5.65685424949235e+004,-2.13650785730376e+001,-1.73015905874962e+000

5.73582099206328e+004,-2.13651677865754e+001,-1.75425312363089e+000

5.81589006928121e+004,-2.13652594396236e+001,-1.77868112990702e+000

5.89707686916437e+004,-2.13653535969781e+001,-1.80344764196829e+000

5.97939699453972e+004,-2.13654503250509e+001,-1.82855728411032e+000

6.06286626604156e+004,-2.13655496919048e+001,-1.85401474123092e+000

6.14750072515201e+004,-2.13656517672886e+001,-1.87982475953254e+000

6.23331663728396e+004,-2.13657566226720e+001,-1.90599214722798e+000

6.32033049490698e+004,-2.13658643312821e+001,-1.93252177525148e+000

6.40855902071694e+004,-2.13659749681389e+001,-1.95941857797779e+000

6.49801917084985e+004,-2.13660886100926e+001,-1.98668755394165e+000

6.58872813814055e+004,-2.13662053358598e+001,-2.01433376656724e+000

6.68070335542691e+004,-2.13663252260615e+001,-2.04236234489895e+000

6.77396249890018e+004,-2.13664483632601e+001,-2.07077848433893e+000

6.86852349150199e+004,-2.13665748319974e+001,-2.09958744738991e+000

6.96440450636895e+004,-2.13667047188326e+001,-2.12879456440257e+000

7.06162397032520e+004,-2.13668381123806e+001,-2.15840523432778e+000

7.16020056742374e+004,-2.13669751033510e+001,-2.18842492547371e+000

7.26015324253724e+004,-2.13671157845858e+001,-2.21885917626958e+000

7.36150120499896e+004,-2.13672602510991e+001,-2.24971359603257e+000

7.46426393229441e+004,-2.13674086001151e+001,-2.28099386574079e+000

7.56846117380472e+004,-2.13675609311080e+001,-2.31270573881166e+000

7.67411295460207e+004,-2.13677173458401e+001,-2.34485504188411e+000

7.78123957929823e+004,-2.13678779484012e+001,-2.37744767560879e+000

7.88986163594682e+004,-2.13680428452472e+001,-2.41048961543959e+000

7.99999999999995e+004,-2.13682121452387e+001,-2.44398691243554e+000

8.11167583832018e+004,-2.13683859596801e+001,-2.47794569406322e+000

8.22491061324848e+004,-2.13685644023571e+001,-2.51237216500861e+000

8.33972608672892e+004,-2.13687475895754e+001,-2.54727260799216e+000

8.45614432449099e+004,-2.13689356401980e+001,-2.58265338459197e+000

8.57418770029029e+004,-2.13691286756827e+001,-2.61852093607109e+000

8.69387890020841e+004,-2.13693268201188e+001,-2.65488178421229e+000

8.81524092701283e+004,-2.13695302002634e+001,-2.69174253215916e+000

8.93829710457770e+004,-2.13697389455775e+001,-2.72910986526294e+000

9.06307108236633e+004,-2.13699531882605e+001,-2.76699055193855e+000

9.18958683997622e+004,-2.13701730632848e+001,-2.80539144452498e+000

9.31786869174758e+004,-2.13703987084295e+001,-2.84431948015642e+000

9.44794129143618e+004,-2.13706302643129e+001,-2.88378168163831e+000

9.57982963695136e+004,-2.13708678744240e+001,-2.92378515833455e+000

9.71355907516031e+004,-2.13711116851536e+001,-2.96433710706128e+000

9.84915530675926e+004,-2.13713618458236e+001,-3.00544481299164e+000

9.98664439121282e+004,-2.13716185087154e+001,-3.04711565056916e+000

1.01260527517622e+005,-2.13718818290969e+001,-3.08935708443196e+000

1.02674071805032e+005,-2.13721519652485e+001,-3.13217667034768e+000

1.04107348435354e+005,-2.13724290784870e+001,-3.17558205616078e+000

1.05560632861831e+005,-2.13727133331887e+001,-3.21958098275072e+000

1.07034204382888e+005,-2.13730048968100e+001,-3.26418128500463e+000

1.08528346195813e+005,-2.13733039399076e+001,-3.30939089280234e+000

1.10043345451179e+005,-2.13736106361553e+001,-3.35521783201799e+000

1.11579493308032e+005,-2.13739251623603e+001,-3.40167022553522e+000

1.13137084989847e+005,-2.13742476984766e+001,-3.44875629428068e+000

1.14716419841265e+005,-2.13745784276171e+001,-3.49648435827383e+000

1.16317801385624e+005,-2.13749175360629e+001,-3.54486283769653e+000

1.17941537383287e+005,-2.13752652132712e+001,-3.59390025398187e+000

1.19587939890794e+005,-2.13756216518798e+001,-3.64360523092480e+000

1.21257325320831e+005,-2.13759870477106e+001,-3.69398649581504e+000

1.22950014503040e+005,-2.13763615997696e+001,-3.74505288059322e+000

1.24666332745679e+005,-2.13767455102452e+001,-3.79681332303393e+000

1.26406609898139e+005,-2.13771389845036e+001,-3.84927686795385e+000

1.28171180414339e+005,-2.13775422310817e+001,-3.90245266845002e+000

1.29960383416997e+005,-2.13779554616777e+001,-3.95634998716752e+000

1.31774562762811e+005,-2.13783788911386e+001,-4.01097819759919e+000

1.33614067108538e+005,-2.13788127374457e+001,-4.06634678541967e+000

1.35479249978003e+005,-2.13792572216969e+001,-4.12246534985481e+000

1.37370469830040e+005,-2.13797125680871e+001,-4.17934360508907e+000

1.39288090127379e+005,-2.13801790038849e+001,-4.23699138171308e+000

1.41232479406504e+005,-2.13806567594084e+001,-4.29541862821247e+000

1.43204011348474e+005,-2.13811460679965e+001,-4.35463541250222e+000

1.45203064850745e+005,-2.13816471659796e+001,-4.41465192350637e+000

1.47230024099979e+005,-2.13821602926470e+001,-4.47547847278746e+000

1.49285278645888e+005,-2.13826856902122e+001,-4.53712549622722e+000

1.51369223476094e+005,-2.13832236037762e+001,-4.59960355576066e+000

1.53482259092041e+005,-2.13837742812888e+001,-4.66292334116756e+000

1.55624791585964e+005,-2.13843379735084e+001,-4.72709567192125e+000

1.57797232718936e+005,-2.13849149339595e+001,-4.79213149910128e+000

1.59999999999999e+005,-2.13855054188899e+001,-4.85804190736807e+000

1.62233516766403e+005,-2.13861096872257e+001,-4.92483811700588e+000

1.64498212264969e+005,-2.13867280005263e+001,-4.99253148603515e+000

1.66794521734578e+005,-2.13873606229384e+001,-5.06113351239651e+000

1.69122886489819e+005,-2.13880078211500e+001,-5.13065583621062e+000

1.71483754005805e+005,-2.13886698643446e+001,-5.20111024211482e+000

1.73877578004168e+005,-2.13893470241557e+001,-5.27250866168084e+000

1.76304818540256e+005,-2.13900395746227e+001,-5.34486317591500e+000

1.78765942091554e+005,-2.13907477921480e+001,-5.41818601784323e+000

1.81261421647326e+005,-2.13914719554561e+001,-5.49248957518509e+000

1.83791736799524e+005,-2.13922123455555e+001,-5.56778639311697e+000

1.86357373834951e+005,-2.13929692457026e+001,-5.64408917712878e+000

1.88958825828723e+005,-2.13937429413711e+001,-5.72141079597351e+000

1.91596592739027e+005,-2.13945337202238e+001,-5.79976428471563e+000

1.94271181503206e+005,-2.13953418720906e+001,-5.87916284787638e+000

1.96983106135185e+005,-2.13961676889514e+001,-5.95961986267933e+000

1.99732887824256e+005,-2.13970114649262e+001,-6.04114888239806e+000

2.02521055035243e+005,-2.13978734962715e+001,-6.12376363980602e+000

2.05348143610063e+005,-2.13987540813853e+001,-6.20747805073089e+000

2.08214696870707e+005,-2.13996535208204e+001,-6.29230621771250e+000

2.11121265723661e+005,-2.14005721173079e+001,-6.37826243376707e+000

2.14068408765776e+005,-2.14015101757907e+001,-6.46536118625546e+000

2.17056692391625e+005,-2.14024680034684e+001,-6.55361716085702e+000

2.20086690902357e+005,-2.14034459098552e+001,-6.64304524564859e+000

2.23158986616063e+005,-2.14044442068505e+001,-6.73366053528650e+000

2.26274169979693e+005,-2.14054632088237e+001,-6.82547833529118e+000

2.29432839682530e+005,-2.14065032327145e+001,-6.91851416643449e+000

2.32635602771247e+005,-2.14075645981493e+001,-7.01278376922381e+000

2.35883074766574e+005,-2.14086476275748e+001,-7.10830310848490e+000

2.39175879781588e+005,-2.14097526464097e+001,-7.20508837803805e+000

2.42514650641661e+005,-2.14108799832152e+001,-7.30315600546527e+000

2.45900029006080e+005,-2.14120299698865e+001,-7.40252265696467e+000

2.49332665491357e+005,-2.14132029418640e+001,-7.50320524228849e+000

2.52813219796278e+005,-2.14143992383680e+001,-7.60522091975960e+000

2.56342360828676e+005,-2.14156192026551e+001,-7.70858710136146e+000

2.59920766833993e+005,-2.14168631822986e+001,-7.81332145789773e+000

2.63549125525621e+005,-2.14181315294944e+001,-7.91944192421356e+000

2.67228134217075e+005,-2.14194246013911e+001,-8.02696670447399e+000

2.70958499956006e+005,-2.14207427604470e+001,-8.13591427749202e+000

2.74740939660078e+005,-2.14220863748143e+001,-8.24630340210008e+000

2.78576180254757e+005,-2.14234558187501e+001,-8.35815312255655e+000

2.82464958813007e+005,-2.14248514730563e+001,-8.47148277398110e+000

2.86408022696948e+005,-2.14262737255480e+001,-8.58631198780821e+000

2.90406129701488e+005,-2.14277229715510e+001,-8.70266069725466e+000

2.94460048199957e+005,-2.14291996144295e+001,-8.82054914278810e+000

2.98570557291775e+005,-2.14307040661430e+001,-8.93999787758990e+000

3.02738446952187e+005,-2.14322367478343e+001,-9.06102777300431e+000

3.06964518184081e+005,-2.14337980904471e+001,-9.18366002396212e+000

3.11249583171928e+005,-2.14353885353749e+001,-9.30791615437098e+000

3.15594465437872e+005,-2.14370085351397e+001,-9.43381802246394e+000

3.19999999999997e+005,-2.14386585541019e+001,-9.56138782609419e+000

3.24467033532806e+005,-2.14403390692000e+001,-9.69064810796853e+000

3.28996424529938e+005,-2.14420505707204e+001,-9.82162176080949e+000

3.33589043469155e+005,-2.14437935630971e+001,-9.95433203243705e+000

3.38245772979638e+005,-2.14455685657405e+001,-1.00888025307599e+001

3.42967508011610e+005,-2.14473761138953e+001,-1.02250572286675e+001

3.47755156008335e+005,-2.14492167595260e+001,-1.03631204688163e+001

3.52609637080511e+005,-2.14510910722306e+001,-1.05030169682966e+001

3.57531884183106e+005,-2.14529996401807e+001,-1.06447718231774e+001

3.62522843294651e+005,-2.14549430710877e+001,-1.07884105129176e+001

3.67583473599047e+005,-2.14569219931940e+001,-1.09339589046371e+001

3.72714747669902e+005,-2.14589370562886e+001,-1.10814432572405e+001

3.77917651657445e+005,-2.14609889327451e+001,-1.12308902253878e+001

3.83193185478053e+005,-2.14630783185832e+001,-1.13823268633037e+001

3.88542363006410e+005,-2.14652059345496e+001,-1.15357806284216e+001

3.93966212270369e+005,-2.14673725272201e+001,-1.16912793848566e+001

3.99465775648511e+005,-2.14695788701194e+001,-1.18488514067016e+001

4.05042110070485e+005,-2.14718257648594e+001,-1.20085253811450e+001

4.10696287220124e+005,-2.14741140422926e+001,-1.21703304114021e+001

4.16429393741414e+005,-2.14764445636821e+001,-1.23342960194624e+001

4.22242531447321e+005,-2.14788182218842e+001,-1.25004521486447e+001

4.28136817531551e+005,-2.14812359425445e+001,-1.26688291659633e+001

4.34113384783250e+005,-2.14836986853050e+001,-1.28394578642987e+001

4.40173381804713e+005,-2.14862074450222e+001,-1.30123694643756e+001

4.46317973232124e+005,-2.14887632529936e+001,-1.31875956165458e+001

4.52548339959385e+005,-2.14913671781928e+001,-1.33651684023756e+001

4.58865679365059e+005,-2.14940203285115e+001,-1.35451203360402e+001

4.65271205542494e+005,-2.14967238520075e+001,-1.37274843655226e+001

4.71766149533147e+005,-2.14994789381577e+001,-1.39122938736202e+001

4.78351759563174e+005,-2.15022868191149e+001,-1.40995826787603e+001

4.85029301283321e+005,-2.15051487709682e+001,-1.42893850356256e+001

4.91800058012158e+005,-2.15080661150059e+001,-1.44817356355903e+001

4.98665330982714e+005,-2.15110402189795e+001,-1.46766696069729e+001

5.05626439592555e+005,-2.15140724983688e+001,-1.48742225151020e+001

5.12684721657352e+005,-2.15171644176483e+001,-1.50744303622027e+001

5.19841533667984e+005,-2.15203174915519e+001,-1.52773295871020e+001

5.27098251051240e+005,-2.15235332863382e+001,-1.54829570647581e+001

5.34456268434150e+005,-2.15268134210539e+001,-1.56913501056140e+001

5.41916999912011e+005,-2.15301595687966e+001,-1.59025464547781e+001

