Freq.,VOut,OutRef

1.00000000000000e+004,-8.80434594769407e+000,-6.91199726596516e-002

1.01395947979003e+004,-8.80434657368461e+000,-7.00847410472468e-002

1.02811382665607e+004,-8.80434721725000e+000,-7.10629724111427e-002

1.04246576084112e+004,-8.80434787888241e+000,-7.20548544917216e-002

1.05701804056138e+004,-8.80434855908900e+000,-7.30605776346443e-002

1.07177346253629e+004,-8.80434925838980e+000,-7.40803348419248e-002

1.08673486252606e+004,-8.80434997732016e+000,-7.51143217953923e-002

1.10190511587661e+004,-8.80435071643025e+000,-7.61627369000593e-002

1.11728713807222e+004,-8.80435147628542e+000,-7.72257813218027e-002

1.13288388529580e+004,-8.80435225746749e+000,-7.83036590201935e-002

1.14869835499703e+004,-8.80435306057354e+000,-7.93965767969291e-002

1.16473358646846e+004,-8.80435388621761e+000,-8.05047443281831e-002

1.18099266142953e+004,-8.80435473503145e+000,-8.16283742009587e-002

1.19747870461893e+004,-8.80435560766394e+000,-8.27676819614306e-002

1.21419488439505e+004,-8.80435650478199e+000,-8.39228861522292e-002

1.23114441334492e+004,-8.80435742707150e+000,-8.50942083508252e-002

1.24833054890161e+004,-8.80435837523703e+000,-8.62818732172623e-002

1.26575659397028e+004,-8.80435935000338e+000,-8.74861085292141e-002

1.28342589756290e+004,-8.80436035211489e+000,-8.87071452336464e-002

1.30134185544193e+004,-8.80436138233703e+000,-8.99452174829204e-002

1.31950791077289e+004,-8.80436244145673e+000,-9.12005626808775e-002

1.33792755478611e+004,-8.80436353028257e+000,-9.24734215305581e-002

1.35660432744767e+004,-8.80436464964576e+000,-9.37640380760627e-002

1.37554181813974e+004,-8.80436580040053e+000,-9.50726597509986e-002

1.39474366635040e+004,-8.80436698342499e+000,-9.63995374227530e-002

1.41421356237309e+004,-8.80436819962173e+000,-9.77449254407379e-002

1.43395524801583e+004,-8.80436944991819e+000,-9.91090816853283e-002

1.45397251732031e+004,-8.80437073526817e+000,-1.00492267611571e-001

1.47426921729110e+004,-8.80437205665131e+000,-1.01894748305706e-001

1.49484924863494e+004,-8.80437341507504e+000,-1.03316792527556e-001

1.51571656651040e+004,-8.80437481157445e+000,-1.04758672765451e-001

1.53687518128801e+004,-8.80437624721330e+000,-1.06220665287178e-001

1.55832915932100e+004,-8.80437772308499e+000,-1.07703050189071e-001

1.58008262372675e+004,-8.80437924031372e+000,-1.09206111446898e-001

1.60213975517924e+004,-8.80438080005426e+000,-1.10730136975257e-001

1.62450479271247e+004,-8.80438240349354e+000,-1.12275418676791e-001

1.64718203453514e+004,-8.80438405185141e+000,-1.13842252497383e-001

1.67017583885674e+004,-8.80438574638213e+000,-1.15430938477591e-001

1.69349062472505e+004,-8.80438748837357e+000,-1.17041780818808e-001

1.71713087287550e+004,-8.80438927914999e+000,-1.18675087929113e-001

1.74110112659224e+004,-8.80439112007240e+000,-1.20331172483457e-001

1.76540599258131e+004,-8.80439301253907e+000,-1.22010351485605e-001

1.79005014185594e+004,-8.80439495798716e+000,-1.23712946322696e-001

1.81503831063432e+004,-8.80439695789375e+000,-1.25439282824816e-001

1.84037530124975e+004,-8.80439901377603e+000,-1.27189691330917e-001

1.86606598307361e+004,-8.80440112719367e+000,-1.28964506741922e-001

1.89211529345119e+004,-8.80440329974924e+000,-1.30764068587310e-001

1.91852823865052e+004,-8.80440553308978e+000,-1.32588721084681e-001

1.94530989482457e+004,-8.80440782890736e+000,-1.34438813207387e-001

1.97246540898671e+004,-8.80441018894052e+000,-1.36314698747578e-001

1.99999999999999e+004,-8.80441261497632e+000,-1.38216736375975e-001

2.02791895958005e+004,-8.80441510885037e+000,-1.40145289715267e-001

2.05622765331213e+004,-8.80441767244904e+000,-1.42100727402023e-001

2.08493152168224e+004,-8.80442030771075e+000,-1.44083423153867e-001

2.11403608112276e+004,-8.80442301662691e+000,-1.46093755840736e-001

2.14354692507258e+004,-8.80442580124353e+000,-1.48132109553052e-001

2.17346972505211e+004,-8.80442866366291e+000,-1.50198873670447e-001

2.20381023175322e+004,-8.80443160604494e+000,-1.52294442933163e-001

2.23457427614443e+004,-8.80443463060866e+000,-1.54419217514659e-001

2.26576777059159e+004,-8.80443773963403e+000,-1.56573603091727e-001

2.29739670999406e+004,-8.80444093546299e+000,-1.58758010922625e-001

2.32946717293690e+004,-8.80444422050195e+000,-1.60972857915762e-001

2.36198532285905e+004,-8.80444759722257e+000,-1.63218566710260e-001

2.39495740923785e+004,-8.80445106816437e+000,-1.65495565747256e-001

2.42838976879009e+004,-8.80445463593603e+000,-1.67804289349927e-001

2.46228882668982e+004,-8.80445830321684e+000,-1.70145177803647e-001

2.49666109780322e+004,-8.80446207275951e+000,-1.72518677428440e-001

2.53151318794055e+004,-8.80446594739151e+000,-1.74925240663697e-001

2.56685179512580e+004,-8.80446993001700e+000,-1.77365326147798e-001

2.60268371088386e+004,-8.80447402361906e+000,-1.79839398799434e-001

2.63901582154578e+004,-8.80447823126145e+000,-1.82347929901405e-001

2.67585510957221e+004,-8.80448255609122e+000,-1.84891397181537e-001

2.71320865489533e+004,-8.80448700133994e+000,-1.87470284902536e-001

2.75108363627948e+004,-8.80449157032720e+000,-1.90085083939321e-001

2.78948733270080e+004,-8.80449626646178e+000,-1.92736291873666e-001

2.82842712474618e+004,-8.80450109324470e+000,-1.95424413074856e-001

2.86791049603164e+004,-8.80450605427055e+000,-1.98149958796019e-001

2.90794503464061e+004,-8.80451115323150e+000,-2.00913447253196e-001

2.94853843458219e+004,-8.80451639391823e+000,-2.03715403725292e-001

2.98969849726987e+004,-8.80452178022317e+000,-2.06556360640967e-001

3.03143313302078e+004,-8.80452731614328e+000,-2.09436857669741e-001

3.07375036257601e+004,-8.80453300578219e+000,-2.12357441818374e-001

3.11665831864199e+004,-8.80453885335311e+000,-2.15318667524113e-001

3.16016524745350e+004,-8.80454486318206e+000,-2.18321096746953e-001

3.20427951035848e+004,-8.80455103970946e+000,-2.21365299073673e-001

3.24900958542493e+004,-8.80455738749440e+000,-2.24451851806070e-001

3.29436406907028e+004,-8.80456391121691e+000,-2.27581340063887e-001

3.34035167771346e+004,-8.80457061568066e+000,-2.30754356886177e-001

3.38698124945009e+004,-8.80457750581676e+000,-2.33971503326417e-001

3.43426174575100e+004,-8.80458458668635e+000,-2.37233388557376e-001

3.48220225318448e+004,-8.80459186348390e+000,-2.40540629973289e-001

3.53081198516260e+004,-8.80459934154082e+000,-2.43893853290055e-001

3.58010028371187e+004,-8.80460702632809e+000,-2.47293692654347e-001

3.63007662126863e+004,-8.80461492346023e+000,-2.50740790745444e-001

3.68075060249948e+004,-8.80462303869870e+000,-2.54235798881502e-001

3.73213196614721e+004,-8.80463137795485e+000,-2.57779377129841e-001

3.78423058690237e+004,-8.80463994729427e+000,-2.61372194411502e-001

3.83705647730104e+004,-8.80464875294010e+000,-2.65014928611734e-001

3.89061978964912e+004,-8.80465780127643e+000,-2.68708266692455e-001

3.94493081797342e+004,-8.80466709885278e+000,-2.72452904798938e-001

3.99999999999998e+004,-8.80467665238713e+000,-2.76249548376854e-001

4.05583791916010e+004,-8.80468646877055e+000,-2.80098912281210e-001

4.11245530662425e+004,-8.80469655507064e+000,-2.84001720893201e-001

4.16986304336447e+004,-8.80470691853597e+000,-2.87958708233078e-001

4.22807216224550e+004,-8.80471756659974e+000,-2.91970618078308e-001

4.28709385014515e+004,-8.80472850688444e+000,-2.96038204077668e-001

4.34693945010421e+004,-8.80473974720562e+000,-3.00162229871503e-001

4.40762046350642e+004,-8.80475129557651e+000,-3.04343469208433e-001

4.46914855228886e+004,-8.80476316021218e+000,-3.08582706065816e-001

4.53153554118317e+004,-8.80477534953386e+000,-3.12880734770212e-001

4.59479341998812e+004,-8.80478787217356e+000,-3.17238360118164e-001

4.65893434587380e+004,-8.80480073697875e+000,-3.21656397497170e-001

4.72397064571810e+004,-8.80481395301623e+000,-3.26135673012037e-001

4.78991481847569e+004,-8.80482752957783e+000,-3.30677023602903e-001

4.85677953758016e+004,-8.80484147618378e+000,-3.35281297176511e-001

4.92457765337964e+004,-8.80485580258841e+000,-3.39949352726383e-001

4.99332219560642e+004,-8.80487051878458e+000,-3.44682060459933e-001

5.06302637588109e+004,-8.80488563500805e+000,-3.49480301927729e-001

5.13370359025159e+004,-8.80490116174322e+000,-3.54344970145950e-001

5.20536742176771e+004,-8.80491710972671e+000,-3.59276969731507e-001

5.27803164309155e+004,-8.80493348995340e+000,-3.64277217024089e-001

5.35171021914442e+004,-8.80495031368060e+000,-3.69346640219824e-001

5.42641730979066e+004,-8.80496759243314e+000,-3.74486179500629e-001

5.50216727255895e+004,-8.80498533800835e+000,-3.79696787163852e-001

5.57897466540159e+004,-8.80500356248085e+000,-3.84979427755108e-001

5.65685424949235e+004,-8.80502227820740e+000,-3.90335078199715e-001

5.73582099206328e+004,-8.80504149783209e+000,-3.95764727934324e-001

5.81589006928121e+004,-8.80506123429070e+000,-4.01269379042345e-001

5.89707686916437e+004,-8.80508150081624e+000,-4.06850046383448e-001

5.97939699453972e+004,-8.80510231094301e+000,-4.12507757732187e-001

6.06286626604156e+004,-8.80512367851185e+000,-4.18243553909333e-001

6.14750072515201e+004,-8.80514561767471e+000,-4.24058488918169e-001

6.23331663728396e+004,-8.80516814289946e+000,-4.29953630078074e-001

6.32033049490698e+004,-8.80519126897414e+000,-4.35930058162654e-001

6.40855902071694e+004,-8.80521501101174e+000,-4.41988867534270e-001

6.49801917084985e+004,-8.80523938445444e+000,-4.48131166280203e-001

6.58872813814055e+004,-8.80526440507792e+000,-4.54358076350673e-001

6.68070335542691e+004,-8.80529008899554e+000,-4.60670733694321e-001

6.77396249890018e+004,-8.80531645266258e+000,-4.67070288395467e-001

6.86852349150199e+004,-8.80534351287966e+000,-4.73557904813114e-001

6.96440450636895e+004,-8.80537128679660e+000,-4.80134761717772e-001

7.06162397032520e+004,-8.80539979191620e+000,-4.86802052429208e-001

7.16020056742374e+004,-8.80542904609722e+000,-4.93560984955030e-001

7.26015324253724e+004,-8.80545906755776e+000,-5.00412782127483e-001

7.36150120499896e+004,-8.80548987487769e+000,-5.07358681745519e-001

7.46426393229441e+004,-8.80552148700160e+000,-5.14399936710251e-001

7.56846117380472e+004,-8.80555392324106e+000,-5.21537815164678e-001

7.67411295460207e+004,-8.80558720327626e+000,-5.28773600634375e-001

7.78123957929823e+004,-8.80562134715818e+000,-5.36108592164743e-001

7.88986163594682e+004,-8.80565637530961e+000,-5.43544104461359e-001

7.99999999999995e+004,-8.80569230852599e+000,-5.51081468030056e-001

8.11167583832018e+004,-8.80572916797616e+000,-5.58722029316777e-001

8.22491061324848e+004,-8.80576697520241e+000,-5.66467150846564e-001

8.33972608672892e+004,-8.80580575211984e+000,-5.74318211366878e-001

8.45614432449099e+004,-8.80584552101597e+000,-5.82276605985141e-001

8.57418770029029e+004,-8.80588630454883e+000,-5.90343746312517e-001

8.69387890020841e+004,-8.80592812574553e+000,-5.98521060603732e-001

8.81524092701283e+004,-8.80597100799920e+000,-6.06809993901565e-001

8.93829710457770e+004,-8.80601497506643e+000,-6.15212008176259e-001

9.06307108236633e+004,-8.80606005106276e+000,-6.23728582472906e-001

9.18958683997622e+004,-8.80610626045901e+000,-6.32361213051236e-001

9.31786869174758e+004,-8.80615362807522e+000,-6.41111413534658e-001

9.44794129143618e+004,-8.80620217907522e+000,-6.49980715053475e-001

9.57982963695136e+004,-8.80625193895963e+000,-6.58970666392317e-001

9.71355907516031e+004,-8.80630293355801e+000,-6.68082834139856e-001

9.84915530675926e+004,-8.80635518902075e+000,-6.77318802835384e-001

9.98664439121282e+004,-8.80640873180908e+000,-6.86680175123736e-001

1.01260527517622e+005,-8.80646358868502e+000,-6.96168571904294e-001

1.02674071805032e+005,-8.80651978669966e+000,-7.05785632488432e-001

1.04107348435354e+005,-8.80657735318040e+000,-7.15533014756292e-001

1.05560632861831e+005,-8.80663631571806e+000,-7.25412395312837e-001

1.07034204382888e+005,-8.80669670215099e+000,-7.35425469654708e-001

1.08528346195813e+005,-8.80675854055012e+000,-7.45573952329596e-001

1.10043345451179e+005,-8.80682185920077e+000,-7.55859577109038e-001

1.11579493308032e+005,-8.80688668658472e+000,-7.66284097156231e-001

1.13137084989847e+005,-8.80695305135991e+000,-7.76849285203873e-001

1.14716419841265e+005,-8.80702098233943e+000,-7.87556933731502e-001

1.16317801385624e+005,-8.80709050846850e+000,-7.98408855151422e-001

1.17941537383287e+005,-8.80716165880055e+000,-8.09406881996298e-001

1.19587939890794e+005,-8.80723446247143e+000,-8.20552867113324e-001

1.21257325320831e+005,-8.80730894867182e+000,-8.31848683866982e-001

1.22950014503040e+005,-8.80738514661860e+000,-8.43296226343631e-001

1.24666332745679e+005,-8.80746308552437e+000,-8.54897409565140e-001

1.26406609898139e+005,-8.80754279456486e+000,-8.66654169711216e-001

1.28171180414339e+005,-8.80762430284516e+000,-8.78568464347780e-001

1.29960383416997e+005,-8.80770763936417e+000,-8.90642272663269e-001

1.31774562762811e+005,-8.80779283297664e+000,-9.02877595718003e-001

1.33614067108538e+005,-8.80787991235396e+000,-9.15276456700024e-001

1.35479249978003e+005,-8.80796890594334e+000,-9.27840901190272e-001

1.37370469830040e+005,-8.80805984192396e+000,-9.40572997445056e-001

1.39288090127379e+005,-8.80815274816288e+000,-9.53474836682708e-001

1.41232479406504e+005,-8.80824765216741e+000,-9.66548533389604e-001

1.43204011348474e+005,-8.80834458103658e+000,-9.79796225637011e-001

1.45203064850745e+005,-8.80844356141066e+000,-9.93220075410156e-001

1.47230024099979e+005,-8.80854461941809e+000,-1.00682226895801e+000

1.49285278645888e+005,-8.80864778062122e+000,-1.02060501715355e+000

1.51369223476094e+005,-8.80875306995968e+000,-1.03457055587509e+000

1.53482259092041e+005,-8.80886051169222e+000,-1.04872114640273e+000

1.55624791585964e+005,-8.80897012933626e+000,-1.06305907583617e+000

1.57797232718936e+005,-8.80908194560609e+000,-1.07758665753071e+000

1.59999999999999e+005,-8.80919598234891e+000,-1.09230623155412e+000

1.62233516766403e+005,-8.80931226047952e+000,-1.10722016516519e+000

1.64498212264969e+005,-8.80943079991274e+000,-1.12233085331762e+000

1.66794521734578e+005,-8.80955161949507e+000,-1.13764071918283e+000

1.69122886489819e+005,-8.80967473693388e+000,-1.15315221470255e+000

1.71483754005805e+005,-8.80980016872617e+000,-1.16886782116260e+000

1.73877578004168e+005,-8.80992793008492e+000,-1.18479004979823e+000

1.76304818540256e+005,-8.81005803486514e+000,-1.20092144242245e+000

1.78765942091554e+005,-8.81019049548837e+000,-1.21726457208585e+000

1.81261421647326e+005,-8.81032532286600e+000,-1.23382204376639e+000

1.83791736799524e+005,-8.81046252632225e+000,-1.25059649508706e+000

1.86357373834951e+005,-8.81060211351605e+000,-1.26759059706798e+000

1.88958825828723e+005,-8.81074409036247e+000,-1.28480705490947e+000

1.91596592739027e+005,-8.81088846095406e+000,-1.30224860880680e+000

1.94271181503206e+005,-8.81103522748153e+000,-1.31991803480207e+000

1.96983106135185e+005,-8.81118439015484e+000,-1.33781814566793e+000

1.99732887824256e+005,-8.81133594712432e+000,-1.35595179182718e+000

2.02521055035243e+005,-8.81148989440229e+000,-1.37432186230906e+000

2.05348143610063e+005,-8.81164622578529e+000,-1.39293128574061e+000

2.08214696870707e+005,-8.81180493277706e+000,-1.41178303137718e+000

2.11121265723661e+005,-8.81196600451309e+000,-1.43088011016511e+000

2.14068408765776e+005,-8.81212942768588e+000,-1.45022557584825e+000

2.17056692391625e+005,-8.81229518647261e+000,-1.46982252610574e+000

2.20086690902357e+005,-8.81246326246388e+000,-1.48967410373286e+000

2.23158986616063e+005,-8.81263363459506e+000,-1.50978349785552e+000

2.26274169979693e+005,-8.81280627908043e+000,-1.53015394518232e+000

2.29432839682530e+005,-8.81298116934884e+000,-1.55078873129770e+000

2.32635602771247e+005,-8.81315827598389e+000,-1.57169119198500e+000

2.35883074766574e+005,-8.81333756666598e+000,-1.59286471459202e+000

2.39175879781588e+005,-8.81351900611864e+000,-1.61431273942838e+000

2.42514650641661e+005,-8.81370255605856e+000,-1.63603876119787e+000

2.45900029006080e+005,-8.81388817514960e+000,-1.65804633046528e+000

2.49332665491357e+005,-8.81407581896097e+000,-1.68033905515541e+000

2.52813219796278e+005,-8.81426543993014e+000,-1.70292060208386e+000

2.56342360828676e+005,-8.81445698733091e+000,-1.72579469851574e+000

2.59920766833993e+005,-8.81465040724561e+000,-1.74896513375728e+000

2.63549125525621e+005,-8.81484564254366e+000,-1.77243576076889e+000

2.67228134217075e+005,-8.81504263286496e+000,-1.79621049780727e+000

2.70958499956006e+005,-8.81524131460892e+000,-1.82029333008997e+000

2.74740939660078e+005,-8.81544162092991e+000,-1.84468831147940e+000

2.78576180254757e+005,-8.81564348173793e+000,-1.86939956618912e+000

2.82464958813007e+005,-8.81584682370609e+000,-1.89443129050431e+000

2.86408022696948e+005,-8.81605157028402e+000,-1.91978775451818e+000

2.90406129701488e+005,-8.81625764171765e+000,-1.94547330388045e+000

2.94460048199957e+005,-8.81646495507520e+000,-1.97149236155652e+000

2.98570557291775e+005,-8.81667342428016e+000,-1.99784942959235e+000

3.02738446952187e+005,-8.81688296014994e+000,-2.02454909088542e+000

3.06964518184081e+005,-8.81709347044158e+000,-2.05159601095688e+000

3.11249583171928e+005,-8.81730485990349e+000,-2.07899493972391e+000

3.15594465437872e+005,-8.81751703033346e+000,-2.10675071326869e+000

3.19999999999997e+005,-8.81772988064274e+000,-2.13486825560333e+000

3.24467033532806e+005,-8.81794330692661e+000,-2.16335258042202e+000

3.28996424529938e+005,-8.81815720254018e+000,-2.19220879284752e+000

3.33589043469155e+005,-8.81837145818016e+000,-2.22144209116094e+000

3.38245772979638e+005,-8.81858596197193e+000,-2.25105776851713e+000

3.42967508011610e+005,-8.81880059956167e+000,-2.28106121464171e+000

3.47755156008335e+005,-8.81901525421339e+000,-2.31145791750760e+000

3.52609637080511e+005,-8.81922980691056e+000,-2.34225346498868e+000

3.57531884183106e+005,-8.81944413646157e+000,-2.37345354649003e+000

3.62522843294651e+005,-8.81965811960926e+000,-2.40506395455124e+000

3.67583473599047e+005,-8.81987163114354e+000,-2.43709058642256e+000

3.72714747669902e+005,-8.82008454401736e+000,-2.46953944560985e+000

3.77917651657445e+005,-8.82029672946459e+000,-2.50241664339150e+000

3.83193185478053e+005,-8.82050805712058e+000,-2.53572840030146e+000

3.88542363006410e+005,-8.82071839514372e+000,-2.56948104758106e+000

3.93966212270369e+005,-8.82092761033834e+000,-2.60368102859686e+000

3.99465775648511e+005,-8.82113556827820e+000,-2.63833490022508e+000

4.05042110070485e+005,-8.82134213343002e+000,-2.67344933420137e+000

4.10696287220124e+005,-8.82154716927639e+000,-2.70903111843871e+000

4.16429393741414e+005,-8.82175053843791e+000,-2.74508715830940e+000

4.22242531447321e+005,-8.82195210279379e+000,-2.78162447789528e+000

4.28136817531551e+005,-8.82215172360045e+000,-2.81865022120543e+000

4.34113384783250e+005,-8.82234926160745e+000,-2.85617165336279e+000

4.40173381804713e+005,-8.82254457717088e+000,-2.89419616175906e+000

4.46317973232124e+005,-8.82273753036278e+000,-2.93273125718304e+000

4.52548339959385e+005,-8.82292798107681e+000,-2.97178457492041e+000

4.58865679365059e+005,-8.82311578912951e+000,-3.01136387582842e+000

4.65271205542494e+005,-8.82330081435686e+000,-3.05147704738711e+000

4.71766149533147e+005,-8.82348291670514e+000,-3.09213210473079e+000

4.78351759563174e+005,-8.82366195631664e+000,-3.13333719165880e+000

4.85029301283321e+005,-8.82383779360890e+000,-3.17510058163184e+000

4.91800058012158e+005,-8.82401028934805e+000,-3.21743067875341e+000

4.98665330982714e+005,-8.82417930471488e+000,-3.26033601874217e+000

5.05626439592555e+005,-8.82434470136436e+000,-3.30382526989521e+000

5.12684721657352e+005,-8.82450634147766e+000,-3.34790723404781e+000

5.19841533667984e+005,-8.82466408780695e+000,-3.39259084752995e+000

5.27098251051240e+005,-8.82481780371202e+000,-3.43788518212693e+000

5.34456268434150e+005,-8.82496735318971e+000,-3.48379944604198e+000

5.41916999912011e+005,-8.82511260089455e+000,-3.53034298486945e+000

