Freq.,VOut,OutRef

1.00000000000000e+004,-2.17800608636003e+001,-1.82069578513962e-001

1.01395947979003e+004,-2.17800632308069e+001,-1.84610826457307e-001

1.02811382665607e+004,-2.17800656644881e+001,-1.87187534108144e-001

1.04246576084112e+004,-2.17800681665087e+001,-1.89800195836281e-001

1.05701804056138e+004,-2.17800707387850e+001,-1.92449312889922e-001

1.07177346253629e+004,-2.17800733832876e+001,-1.95135393483022e-001

1.08673486252606e+004,-2.17800761020417e+001,-1.97858952898653e-001

1.10190511587661e+004,-2.17800788971295e+001,-2.00620513580825e-001

1.11728713807222e+004,-2.17800817706912e+001,-2.03420605234692e-001

1.13288388529580e+004,-2.17800847249271e+001,-2.06259764928296e-001

1.14869835499703e+004,-2.17800877620986e+001,-2.09138537193806e-001

1.16473358646846e+004,-2.17800908845306e+001,-2.12057474127048e-001

1.18099266142953e+004,-2.17800940946131e+001,-2.15017135494915e-001

1.19747870461893e+004,-2.17800973948025e+001,-2.18018088839809e-001

1.21419488439505e+004,-2.17801007876242e+001,-2.21060909586191e-001

1.23114441334492e+004,-2.17801042756738e+001,-2.24146181150455e-001

1.24833054890161e+004,-2.17801078616197e+001,-2.27274495047453e-001

1.26575659397028e+004,-2.17801115482048e+001,-2.30446451004667e-001

1.28342589756290e+004,-2.17801153382482e+001,-2.33662657075270e-001

1.30134185544193e+004,-2.17801192346481e+001,-2.36923729749903e-001

1.31950791077289e+004,-2.17801232403834e+001,-2.40230294073256e-001

1.33792755478611e+004,-2.17801273585160e+001,-2.43582983762867e-001

1.35660432744767e+004,-2.17801315921936e+001,-2.46982441324978e-001

1.37554181813974e+004,-2.17801359446513e+001,-2.50429318178189e-001

1.39474366635040e+004,-2.17801404192144e+001,-2.53924274774279e-001

1.41421356237309e+004,-2.17801450193013e+001,-2.57467980718238e-001

1.43395524801583e+004,-2.17801497484250e+001,-2.61061114900098e-001

1.45397251732031e+004,-2.17801546101973e+001,-2.64704365614829e-001

1.47426921729110e+004,-2.17801596083297e+001,-2.68398430696602e-001

1.49484924863494e+004,-2.17801647466375e+001,-2.72144017644771e-001

1.51571656651040e+004,-2.17801700290422e+001,-2.75941843757621e-001

1.53687518128801e+004,-2.17801754595742e+001,-2.79792636266117e-001

1.55832915932100e+004,-2.17801810423767e+001,-2.83697132466208e-001

1.58008262372675e+004,-2.17801867817073e+001,-2.87656079860901e-001

1.60213975517924e+004,-2.17801926819425e+001,-2.91670236294874e-001

1.62450479271247e+004,-2.17801987475804e+001,-2.95740370095108e-001

1.64718203453514e+004,-2.17802049832440e+001,-2.99867260216953e-001

1.67017583885674e+004,-2.17802113936848e+001,-3.04051696383253e-001

1.69349062472505e+004,-2.17802179837863e+001,-3.08294479234000e-001

1.71713087287550e+004,-2.17802247585675e+001,-3.12596420473228e-001

1.74110112659224e+004,-2.17802317231867e+001,-3.16958343018174e-001

1.76540599258131e+004,-2.17802388829454e+001,-3.21381081149716e-001

1.79005014185594e+004,-2.17802462432919e+001,-3.25865480669888e-001

1.81503831063432e+004,-2.17802538098258e+001,-3.30412399052781e-001

1.84037530124975e+004,-2.17802615883016e+001,-3.35022705605367e-001

1.86606598307361e+004,-2.17802695846337e+001,-3.39697281622898e-001

1.89211529345119e+004,-2.17802778048995e+001,-3.44437020555848e-001

1.91852823865052e+004,-2.17802862553453e+001,-3.49242828167948e-001

1.94530989482457e+004,-2.17802949423897e+001,-3.54115622704220e-001

1.97246540898671e+004,-2.17803038726290e+001,-3.59056335059075e-001

1.99999999999999e+004,-2.17803130528417e+001,-3.64065908944068e-001

2.02791895958005e+004,-2.17803224899938e+001,-3.69145301057933e-001

2.05622765331213e+004,-2.17803321912432e+001,-3.74295481264927e-001

2.08493152168224e+004,-2.17803421639459e+001,-3.79517432765782e-001

2.11403608112276e+004,-2.17803524156601e+001,-3.84812152279812e-001

2.14354692507258e+004,-2.17803629541529e+001,-3.90180650220617e-001

2.17346972505211e+004,-2.17803737874053e+001,-3.95623950880432e-001

2.20381023175322e+004,-2.17803849236178e+001,-4.01143092615196e-001

2.23457427614443e+004,-2.17803963712169e+001,-4.06739128029566e-001

2.26576777059159e+004,-2.17804081388605e+001,-4.12413124166478e-001

2.29739670999406e+004,-2.17804202354447e+001,-4.18166162696536e-001

2.32946717293690e+004,-2.17804326701101e+001,-4.23999340113134e-001

2.36198532285905e+004,-2.17804454522476e+001,-4.29913767927549e-001

2.39495740923785e+004,-2.17804585915066e+001,-4.35910572863563e-001

2.42838976879009e+004,-2.17804720978001e+001,-4.41990897063183e-001

2.46228882668982e+004,-2.17804859813133e+001,-4.48155898281543e-001

2.49666109780322e+004,-2.17805002525097e+001,-4.54406750098364e-001

2.53151318794055e+004,-2.17805149221393e+001,-4.60744642119534e-001

2.56685179512580e+004,-2.17805300012458e+001,-4.67170780188908e-001

2.60268371088386e+004,-2.17805455011745e+001,-4.73686386598351e-001

2.63901582154578e+004,-2.17805614335800e+001,-4.80292700302753e-001

2.67585510957221e+004,-2.17805778104349e+001,-4.86990977134800e-001

2.71320865489533e+004,-2.17805946440379e+001,-4.93782490024035e-001

2.75108363627948e+004,-2.17806119470221e+001,-5.00668529217173e-001

2.78948733270080e+004,-2.17806297323644e+001,-5.07650402501931e-001

2.82842712474618e+004,-2.17806480133939e+001,-5.14729435431746e-001

2.86791049603164e+004,-2.17806668038014e+001,-5.21906971554429e-001

2.90794503464061e+004,-2.17806861176490e+001,-5.29184372641123e-001

2.94853843458219e+004,-2.17807059693794e+001,-5.36563018920043e-001

2.98969849726987e+004,-2.17807263738258e+001,-5.44044309311284e-001

3.03143313302078e+004,-2.17807473462225e+001,-5.51629661663535e-001

3.07375036257601e+004,-2.17807689022149e+001,-5.59320512994068e-001

3.11665831864199e+004,-2.17807910578699e+001,-5.67118319730491e-001

3.16016524745350e+004,-2.17808138296871e+001,-5.75024557956524e-001

3.20427951035848e+004,-2.17808372346100e+001,-5.83040723656530e-001

3.24900958542493e+004,-2.17808612900367e+001,-5.91168332966597e-001

3.29436406907028e+004,-2.17808860138322e+001,-5.99408922425498e-001

3.34035167771346e+004,-2.17809114243402e+001,-6.07764049226492e-001

3.38698124945009e+004,-2.17809375403946e+001,-6.16235291477733e-001

3.43426174575100e+004,-2.17809643813325e+001,-6.24824248456151e-001

3.48220225318448e+004,-2.17809919670066e+001,-6.33532540871450e-001

3.53081198516260e+004,-2.17810203177985e+001,-6.42361811126845e-001

3.58010028371187e+004,-2.17810494546314e+001,-6.51313723585818e-001

3.63007662126863e+004,-2.17810793989840e+001,-6.60389964839044e-001

3.68075060249948e+004,-2.17811101729042e+001,-6.69592243973403e-001

3.73213196614721e+004,-2.17811417990229e+001,-6.78922292846274e-001

3.78423058690237e+004,-2.17811743005689e+001,-6.88381866356084e-001

3.83705647730104e+004,-2.17812077013830e+001,-6.97972742721506e-001

3.89061978964912e+004,-2.17812420259335e+001,-7.07696723758613e-001

3.94493081797342e+004,-2.17812772993312e+001,-7.17555635160361e-001

3.99999999999998e+004,-2.17813135473446e+001,-7.27551326780708e-001

4.05583791916010e+004,-2.17813507964165e+001,-7.37685672918701e-001

4.11245530662425e+004,-2.17813890736795e+001,-7.47960572603929e-001

4.16986304336447e+004,-2.17814284069729e+001,-7.58377949885529e-001

4.22807216224550e+004,-2.17814688248595e+001,-7.68939754121986e-001

4.28709385014515e+004,-2.17815103566420e+001,-7.79647960274584e-001

4.34693945010421e+004,-2.17815530323814e+001,-7.90504569199023e-001

4.40762046350642e+004,-2.17815968829138e+001,-8.01511607943573e-001

4.46914855228886e+004,-2.17816419398691e+001,-8.12671130043130e-001

4.53153554118317e+004,-2.17816882356887e+001,-8.23985215821546e-001

4.59479341998812e+004,-2.17817358036443e+001,-8.35455972690264e-001

4.65893434587380e+004,-2.17817846778573e+001,-8.47085535449773e-001

4.72397064571810e+004,-2.17818348933169e+001,-8.58876066594829e-001

4.78991481847569e+004,-2.17818864859008e+001,-8.70829756617827e-001

4.85677953758016e+004,-2.17819394923939e+001,-8.82948824315531e-001

4.92457765337964e+004,-2.17819939505093e+001,-8.95235517095738e-001

4.99332219560642e+004,-2.17820498989076e+001,-9.07692111287674e-001

5.06302637588109e+004,-2.17821073772187e+001,-9.20320912448828e-001

5.13370359025159e+004,-2.17821664260613e+001,-9.33124255677541e-001

5.20536742176771e+004,-2.17822270870653e+001,-9.46104505924710e-001

5.27803164309155e+004,-2.17822894028921e+001,-9.59264058305042e-001

5.35171021914442e+004,-2.17823534172568e+001,-9.72605338410550e-001

5.42641730979066e+004,-2.17824191749499e+001,-9.86130802625128e-001

5.50216727255895e+004,-2.17824867218593e+001,-9.99842938437367e-001

5.57897466540159e+004,-2.17825561049921e+001,-1.01374426475808e+000

5.65685424949235e+004,-2.17826273724976e+001,-1.02783733223271e+000

5.73582099206328e+004,-2.17827005736896e+001,-1.04212472355924e+000

5.81589006928121e+004,-2.17827757590690e+001,-1.05660905380206e+000

5.89707686916437e+004,-2.17828529803467e+001,-1.07129297070992e+000

5.97939699453972e+004,-2.17829322904666e+001,-1.08617915503024e+000

6.06286626604156e+004,-2.17830137436283e+001,-1.10127032082586e+000

6.14750072515201e+004,-2.17830973953108e+001,-1.11656921579064e+000

6.23331663728396e+004,-2.17831833022949e+001,-1.13207862156391e+000

6.32033049490698e+004,-2.17832715226868e+001,-1.14780135404758e+000

6.40855902071694e+004,-2.17833621159410e+001,-1.16374026371855e+000

6.49801917084985e+004,-2.17834551428833e+001,-1.17989823594316e+000

6.58872813814055e+004,-2.17835506657339e+001,-1.19627819129188e+000

6.68070335542691e+004,-2.17836487481301e+001,-1.21288308585089e+000

6.77396249890018e+004,-2.17837494551491e+001,-1.22971591153300e+000

6.86852349150199e+004,-2.17838528533303e+001,-1.24677969639031e+000

6.96440450636895e+004,-2.17839590106978e+001,-1.26407750492270e+000

7.06162397032520e+004,-2.17840679967819e+001,-1.28161243838693e+000

7.16020056742374e+004,-2.17841798826414e+001,-1.29938763510414e+000

7.26015324253724e+004,-2.17842947408841e+001,-1.31740627076665e+000

7.36150120499896e+004,-2.17844126456882e+001,-1.33567155874319e+000

7.46426393229441e+004,-2.17845336728221e+001,-1.35418675038168e+000

7.56846117380472e+004,-2.17846578996646e+001,-1.37295513531297e+000

7.67411295460207e+004,-2.17847854052240e+001,-1.39198004175174e+000

7.78123957929823e+004,-2.17849162701562e+001,-1.41126483679544e+000

7.88986163594682e+004,-2.17850505767831e+001,-1.43081292672401e+000

7.99999999999995e+004,-2.17851884091091e+001,-1.45062775729554e+000

8.11167583832018e+004,-2.17853298528371e+001,-1.47071281404339e+000

8.22491061324848e+004,-2.17854749953840e+001,-1.49107162256992e+000

8.33972608672892e+004,-2.17856239258948e+001,-1.51170774883889e+000

8.45614432449099e+004,-2.17857767352551e+001,-1.53262479946938e+000

8.57418770029029e+004,-2.17859335161035e+001,-1.55382642202515e+000

8.69387890020841e+004,-2.17860943628416e+001,-1.57531630530630e+000

8.81524092701283e+004,-2.17862593716437e+001,-1.59709817963687e+000

8.93829710457770e+004,-2.17864286404637e+001,-1.61917581715587e+000

9.06307108236633e+004,-2.17866022690419e+001,-1.64155303210416e+000

9.18958683997622e+004,-2.17867803589091e+001,-1.66423368111391e+000

9.31786869174758e+004,-2.17869630133896e+001,-1.68722166349599e+000

9.44794129143618e+004,-2.17871503376014e+001,-1.71052092153120e+000

9.57982963695136e+004,-2.17873424384553e+001,-1.73413544075851e+000

9.71355907516031e+004,-2.17875394246522e+001,-1.75806925026640e+000

9.84915530675926e+004,-2.17877414066765e+001,-1.78232642298704e+000

9.98664439121282e+004,-2.17879484967893e+001,-1.80691107598969e+000

1.01260527517622e+005,-2.17881608090172e+001,-1.83182737078007e+000

1.02674071805032e+005,-2.17883784591407e+001,-1.85707951360004e+000

1.04107348435354e+005,-2.17886015646773e+001,-1.88267175573343e+000

1.05560632861831e+005,-2.17888302448643e+001,-1.90860839381517e+000

1.07034204382888e+005,-2.17890646206370e+001,-1.93489377014587e+000

1.08528346195813e+005,-2.17893048146046e+001,-1.96153227301331e+000

1.10043345451179e+005,-2.17895509510227e+001,-1.98852833701942e+000

1.11579493308032e+005,-2.17898031557624e+001,-2.01588644341732e+000

1.13137084989847e+005,-2.17900615562764e+001,-2.04361112045511e+000

1.14716419841265e+005,-2.17903262815608e+001,-2.07170694373126e+000

1.16317801385624e+005,-2.17905974621142e+001,-2.10017853655989e+000

1.17941537383287e+005,-2.17908752298923e+001,-2.12903057034914e+000

1.19587939890794e+005,-2.17911597182583e+001,-2.15826776499399e+000

1.21257325320831e+005,-2.17914510619307e+001,-2.18789488928121e+000

1.22950014503040e+005,-2.17917493969254e+001,-2.21791676131528e+000

1.24666332745679e+005,-2.17920548604942e+001,-2.24833824895779e+000

1.26406609898139e+005,-2.17923675910597e+001,-2.27916427028894e+000

1.28171180414339e+005,-2.17926877281441e+001,-2.31039979409105e+000

1.29960383416997e+005,-2.17930154122953e+001,-2.34204984035297e+000

1.31774562762811e+005,-2.17933507850077e+001,-2.37411948080127e+000

1.33614067108538e+005,-2.17936939886375e+001,-2.40661383945777e+000

1.35479249978003e+005,-2.17940451663151e+001,-2.43953809322699e+000

1.37370469830040e+005,-2.17944044618516e+001,-2.47289747251275e+000

1.39288090127379e+005,-2.17947720196403e+001,-2.50669726187126e+000

1.41232479406504e+005,-2.17951479845547e+001,-2.54094280069706e+000

1.43204011348474e+005,-2.17955325018406e+001,-2.57563948394969e+000

1.45203064850745e+005,-2.17959257170041e+001,-2.61079276291882e+000

1.47230024099979e+005,-2.17963277756946e+001,-2.64640814603391e+000

1.49285278645888e+005,-2.17967388235834e+001,-2.68249119971921e+000

1.51369223476094e+005,-2.17971590062375e+001,-2.71904754929845e+000

1.53482259092041e+005,-2.17975884689894e+001,-2.75608287994834e+000

1.55624791585964e+005,-2.17980273568020e+001,-2.79360293770900e+000

1.57797232718936e+005,-2.17984758141297e+001,-2.83161353054940e+000

1.59999999999999e+005,-2.17989339847757e+001,-2.87012052949293e+000

1.62233516766403e+005,-2.17994020117449e+001,-2.90912986980782e+000

1.64498212264969e+005,-2.17998800370939e+001,-2.94864755225970e+000

1.66794521734578e+005,-2.18003682017769e+001,-2.98867964443656e+000

1.69122886489819e+005,-2.18008666454898e+001,-3.02923228214221e+000

1.71483754005805e+005,-2.18013755065104e+001,-3.07031167086790e+000

1.73877578004168e+005,-2.18018949215367e+001,-3.11192408733761e+000

1.76304818540256e+005,-2.18024250255240e+001,-3.15407588113752e+000

1.78765942091554e+005,-2.18029659515189e+001,-3.19677347642618e+000

1.81261421647326e+005,-2.18035178304941e+001,-3.24002337373217e+000

1.83791736799524e+005,-2.18040807911808e+001,-3.28383215184082e+000

1.86357373834951e+005,-2.18046549599028e+001,-3.32820646977109e+000

1.88958825828723e+005,-2.18052404604098e+001,-3.37315306884703e+000

1.91596592739027e+005,-2.18058374137122e+001,-3.41867877486707e+000

1.94271181503206e+005,-2.18064459379184e+001,-3.46479050036794e+000

1.96983106135185e+005,-2.18070661480731e+001,-3.51149524699364e+000

1.99732887824256e+005,-2.18076981560002e+001,-3.55880010796273e+000

2.02521055035243e+005,-2.18083420701484e+001,-3.60671227064175e+000

2.05348143610063e+005,-2.18089979954424e+001,-3.65523901922337e+000

2.08214696870707e+005,-2.18096660331384e+001,-3.70438773751038e+000

2.11121265723661e+005,-2.18103462806871e+001,-3.75416591180633e+000

2.14068408765776e+005,-2.18110388316028e+001,-3.80458113391604e+000

2.17056692391625e+005,-2.18117437753410e+001,-3.85564110425133e+000

2.20086690902357e+005,-2.18124611971844e+001,-3.90735363504547e+000

2.23158986616063e+005,-2.18131911781393e+001,-3.95972665367559e+000

2.26274169979693e+005,-2.18139337948423e+001,-4.01276820609068e+000

2.29432839682530e+005,-2.18146891194785e+001,-4.06648646034398e+000

2.32635602771247e+005,-2.18154572197123e+001,-4.12088971023149e+000

2.35883074766574e+005,-2.18162381586322e+001,-4.17598637902877e+000

2.39175879781588e+005,-2.18170319947094e+001,-4.23178502332947e+000

2.42514650641661e+005,-2.18178387817724e+001,-4.28829433697805e+000

2.45900029006080e+005,-2.18186585689971e+001,-4.34552315509700e+000

2.49332665491357e+005,-2.18194914009150e+001,-4.40348045820178e+000

2.52813219796278e+005,-2.18203373174390e+001,-4.46217537640119e+000

2.56342360828676e+005,-2.18211963539082e+001,-4.52161719367909e+000

2.59920766833993e+005,-2.18220685411528e+001,-4.58181535224874e+000

2.63549125525621e+005,-2.18229539055790e+001,-4.64277945698040e+000

2.67228134217075e+005,-2.18238524692762e+001,-4.70451927988952e+000

2.70958499956006e+005,-2.18247642501450e+001,-4.76704476468465e+000

2.74740939660078e+005,-2.18256892620491e+001,-4.83036603136521e+000

2.78576180254757e+005,-2.18266275149896e+001,-4.89449338086415e+000

2.82464958813007e+005,-2.18275790153034e+001,-4.95943729972606e+000

2.86408022696948e+005,-2.18285437658863e+001,-5.02520846481469e+000

2.90406129701488e+005,-2.18295217664398e+001,-5.09181774804215e+000

2.94460048199957e+005,-2.18305130137438e+001,-5.15927622110906e+000

2.98570557291775e+005,-2.18315175019538e+001,-5.22759516025139e+000

3.02738446952187e+005,-2.18325352229240e+001,-5.29678605098111e+000

3.06964518184081e+005,-2.18335661665549e+001,-5.36686059281592e+000

3.11249583171928e+005,-2.18346103211674e+001,-5.43783070398526e+000

3.15594465437872e+005,-2.18356676739012e+001,-5.50970852610832e+000

3.19999999999997e+005,-2.18367382111386e+001,-5.58250642883041e+000

3.24467033532806e+005,-2.18378219189529e+001,-5.65623701441400e+000

3.28996424529938e+005,-2.18389187835808e+001,-5.73091312227156e+000

3.33589043469155e+005,-2.18400287919192e+001,-5.80654783343405e+000

3.38245772979638e+005,-2.18411519320447e+001,-5.88315447494608e+000

3.42967508011610e+005,-2.18422881937559e+001,-5.96074662418066e+000

3.47755156008335e+005,-2.18434375691369e+001,-6.03933811306398e+000

3.52609637080511e+005,-2.18446000531424e+001,-6.11894303220523e+000

3.57531884183106e+005,-2.18457756442025e+001,-6.19957573492323e+000

3.62522843294651e+005,-2.18469643448464e+001,-6.28125084116258e+000

3.67583473599047e+005,-2.18481661623439e+001,-6.36398324129616e+000

3.72714747669902e+005,-2.18493811093639e+001,-6.44778809980541e+000

3.77917651657445e+005,-2.18506092046486e+001,-6.53268085883484e+000

3.83193185478053e+005,-2.18518504737016e+001,-6.61867724161825e+000

3.88542363006410e+005,-2.18531049494893e+001,-6.70579325576864e+000

3.93966212270369e+005,-2.18543726731543e+001,-6.79404519643412e+000

3.99465775648511e+005,-2.18556536947385e+001,-6.88344964931260e+000

4.05042110070485e+005,-2.18569480739163e+001,-6.97402349352666e+000

4.10696287220124e+005,-2.18582558807343e+001,-7.06578390435680e+000

4.16429393741414e+005,-2.18595771963581e+001,-7.15874835583301e+000

4.22242531447321e+005,-2.18609121138240e+001,-7.25293462318270e+000

4.28136817531551e+005,-2.18622607387937e+001,-7.34836078514042e+000

4.34113384783250e+005,-2.18636231903116e+001,-7.44504522611774e+000

4.40173381804713e+005,-2.18649996015636e+001,-7.54300663823535e+000

4.46317973232124e+005,-2.18663901206349e+001,-7.64226402322352e+000

4.52548339959385e+005,-2.18677949112662e+001,-7.74283669419192e+000

4.58865679365059e+005,-2.18692141536082e+001,-7.84474427727307e+000

4.65271205542494e+005,-2.18706480449715e+001,-7.94800671314578e+000

4.71766149533147e+005,-2.18720968005720e+001,-8.05264425844223e+000

4.78351759563174e+005,-2.18735606542712e+001,-8.15867748704476e+000

4.85029301283321e+005,-2.18750398593090e+001,-8.26612729127997e+000

4.91800058012158e+005,-2.18765346890301e+001,-8.37501488301334e+000

4.98665330982714e+005,-2.18780454376020e+001,-8.48536179465553e+000

5.05626439592555e+005,-2.18795724207242e+001,-8.59718988008320e+000

5.12684721657352e+005,-2.18811159763292e+001,-8.71052131548489e+000

5.19841533667984e+005,-2.18826764652730e+001,-8.82537860013739e+000

5.27098251051240e+005,-2.18842542720167e+001,-8.94178455712161e+000

5.34456268434150e+005,-2.18858498052972e+001,-9.05976233398503e+000

5.41916999912011e+005,-2.18874634987890e+001,-9.17933540335759e+000

