Freq.,VOut,OutRef

1.00000000000000e+004,-2.36256753131782e+001,-3.27582401230530e-001

1.01395947979003e+004,-2.36256786155840e+001,-3.32154911917893e-001

1.02811382665607e+004,-2.36256820107550e+001,-3.36791236808635e-001

1.04246576084112e+004,-2.36256855012944e+001,-3.41492266053155e-001

1.05701804056138e+004,-2.36256890898788e+001,-3.46258902197781e-001

1.07177346253629e+004,-2.36256927792596e+001,-3.51092060358765e-001

1.08673486252606e+004,-2.36256965722653e+001,-3.55992668396833e-001

1.10190511587661e+004,-2.36257004718036e+001,-3.60961667092565e-001

1.11728713807222e+004,-2.36257044808638e+001,-3.66000010325694e-001

1.13288388529580e+004,-2.36257086025186e+001,-3.71108665259877e-001

1.14869835499703e+004,-2.36257128399271e+001,-3.76288612519804e-001

1.16473358646846e+004,-2.36257171963364e+001,-3.81540846384794e-001

1.18099266142953e+004,-2.36257216750848e+001,-3.86866374972860e-001

1.19747870461893e+004,-2.36257262796040e+001,-3.92266220434610e-001

1.21419488439505e+004,-2.36257310134218e+001,-3.97741419145975e-001

1.23114441334492e+004,-2.36257358801645e+001,-4.03293021906925e-001

1.24833054890161e+004,-2.36257408835600e+001,-4.08922094138938e-001

1.26575659397028e+004,-2.36257460274403e+001,-4.14629716089130e-001

1.28342589756290e+004,-2.36257513157450e+001,-4.20416983032434e-001

1.30134185544193e+004,-2.36257567525234e+001,-4.26285005482425e-001

1.31950791077289e+004,-2.36257623419384e+001,-4.32234909398986e-001

1.33792755478611e+004,-2.36257680882691e+001,-4.38267836404449e-001

1.35660432744767e+004,-2.36257739959141e+001,-4.44384943996593e-001

1.37554181813974e+004,-2.36257800693953e+001,-4.50587405770655e-001

1.39474366635040e+004,-2.36257863133605e+001,-4.56876411640762e-001

1.41421356237309e+004,-2.36257927325877e+001,-4.63253168062920e-001

1.43395524801583e+004,-2.36257993319884e+001,-4.69718898265838e-001

1.45397251732031e+004,-2.36258061166109e+001,-4.76274842481233e-001

1.47426921729110e+004,-2.36258130916448e+001,-4.82922258176663e-001

1.49484924863494e+004,-2.36258202624247e+001,-4.89662420295014e-001

1.51571656651040e+004,-2.36258276344336e+001,-4.96496621494969e-001

1.53687518128801e+004,-2.36258352133079e+001,-5.03426172393157e-001

1.55832915932100e+004,-2.36258430048413e+001,-5.10452401811835e-001

1.58008262372675e+004,-2.36258510149890e+001,-5.17576657030209e-001

1.60213975517924e+004,-2.36258592498723e+001,-5.24800304037554e-001

1.62450479271247e+004,-2.36258677157831e+001,-5.32124727790766e-001

1.64718203453514e+004,-2.36258764191890e+001,-5.39551332472829e-001

1.67017583885674e+004,-2.36258853667375e+001,-5.47081541760161e-001

1.69349062472505e+004,-2.36258945652615e+001,-5.54716799087114e-001

1.71713087287550e+004,-2.36259040217842e+001,-5.62458567919570e-001

1.74110112659224e+004,-2.36259137435246e+001,-5.70308332025724e-001

1.76540599258131e+004,-2.36259237379022e+001,-5.78267595759661e-001

1.79005014185594e+004,-2.36259340125437e+001,-5.86337884337687e-001

1.81503831063432e+004,-2.36259445752873e+001,-5.94520744128115e-001

1.84037530124975e+004,-2.36259554341899e+001,-6.02817742938001e-001

1.86606598307361e+004,-2.36259665975320e+001,-6.11230470308573e-001

1.89211529345119e+004,-2.36259780738247e+001,-6.19760537809100e-001

1.91852823865052e+004,-2.36259898718152e+001,-6.28409579341330e-001

1.94530989482457e+004,-2.36260020004942e+001,-6.37179251441449e-001

1.97246540898671e+004,-2.36260144691017e+001,-6.46071233589882e-001

1.99999999999999e+004,-2.36260272871347e+001,-6.55087228524057e-001

2.02791895958005e+004,-2.36260404643535e+001,-6.64228962555811e-001

2.05622765331213e+004,-2.36260540107892e+001,-6.73498185890517e-001

2.08493152168224e+004,-2.36260679367511e+001,-6.82896672954348e-001

2.11403608112276e+004,-2.36260822528346e+001,-6.92426222722362e-001

2.14354692507258e+004,-2.36260969699285e+001,-7.02088659050142e-001

2.17346972505211e+004,-2.36261120992234e+001,-7.11885831015294e-001

2.20381023175322e+004,-2.36261276522195e+001,-7.21819613257417e-001

2.23457427614443e+004,-2.36261436407357e+001,-7.31891906324192e-001

2.26576777059159e+004,-2.36261600769178e+001,-7.42104637021954e-001

2.29739670999406e+004,-2.36261769732472e+001,-7.52459758772881e-001

2.32946717293690e+004,-2.36261943425506e+001,-7.62959251973781e-001

2.36198532285905e+004,-2.36262121980092e+001,-7.73605124358052e-001

2.39495740923785e+004,-2.36262305531680e+001,-7.84399411368547e-001

2.42838976879009e+004,-2.36262494219457e+001,-7.95344176528794e-001

2.46228882668982e+004,-2.36262688186454e+001,-8.06441511821288e-001

2.49666109780322e+004,-2.36262887579643e+001,-8.17693538071089e-001

2.53151318794055e+004,-2.36263092550046e+001,-8.29102405332353e-001

2.56685179512580e+004,-2.36263303252847e+001,-8.40670293281853e-001

2.60268371088386e+004,-2.36263519847498e+001,-8.52399411616223e-001

2.63901582154578e+004,-2.36263742497842e+001,-8.64292000453288e-001

2.67585510957221e+004,-2.36263971372221e+001,-8.76350330739749e-001

2.71320865489533e+004,-2.36264206643608e+001,-8.88576704663182e-001

2.75108363627948e+004,-2.36264448489720e+001,-9.00973456069939e-001

2.78948733270080e+004,-2.36264697093155e+001,-9.13542950885363e-001

2.82842712474618e+004,-2.36264952641516e+001,-9.26287587542275e-001

2.86791049603164e+004,-2.36265215327547e+001,-9.39209797414010e-001

2.90794503464061e+004,-2.36265485349267e+001,-9.52312045250864e-001

2.94853843458219e+004,-2.36265762910118e+001,-9.65596829622372e-001

2.98969849726987e+004,-2.36266048219101e+001,-9.79066683367029e-001

3.03143313302078e+004,-2.36266341490925e+001,-9.92724174044320e-001

3.07375036257601e+004,-2.36266642946164e+001,-1.00657190439346e+000

3.11665831864199e+004,-2.36266952811406e+001,-1.02061251279713e+000

3.16016524745350e+004,-2.36267271319412e+001,-1.03484867375247e+000

3.20427951035848e+004,-2.36267598709282e+001,-1.04928309834308e+000

3.24900958542493e+004,-2.36267935226619e+001,-1.06391853472197e+000

3.29436406907028e+004,-2.36268281123702e+001,-1.07875776859574e+000

3.34035167771346e+004,-2.36268636659659e+001,-1.09380362371572e+000

3.38698124945009e+004,-2.36269002100644e+001,-1.10905896237629e+000

3.43426174575100e+004,-2.36269377720026e+001,-1.12452668591528e+000

3.48220225318448e+004,-2.36269763798572e+001,-1.14020973522394e+000

3.53081198516260e+004,-2.36270160624641e+001,-1.15611109125894e+000

3.58010028371187e+004,-2.36270568494378e+001,-1.17223377556249e+000

3.63007662126863e+004,-2.36270987711922e+001,-1.18858085078759e+000

3.68075060249948e+004,-2.36271418589604e+001,-1.20515542122767e+000

3.73213196614721e+004,-2.36271861448161e+001,-1.22196063335454e+000

3.78423058690237e+004,-2.36272316616955e+001,-1.23899967635933e+000

3.83705647730104e+004,-2.36272784434187e+001,-1.25627578270041e+000

3.89061978964912e+004,-2.36273265247128e+001,-1.27379222865878e+000

3.94493081797342e+004,-2.36273759412346e+001,-1.29155233489518e+000

3.99999999999998e+004,-2.36274267295945e+001,-1.30955946701700e+000

4.05583791916010e+004,-2.36274789273803e+001,-1.32781703614960e+000

4.11245530662425e+004,-2.36275325731820e+001,-1.34632849951203e+000

4.16986304336447e+004,-2.36275877066170e+001,-1.36509736100070e+000

4.22807216224550e+004,-2.36276443683558e+001,-1.38412717177813e+000

4.28709385014515e+004,-2.36277026001481e+001,-1.40342153086705e+000

4.34693945010421e+004,-2.36277624448497e+001,-1.42298408575162e+000

4.40762046350642e+004,-2.36278239464503e+001,-1.44281853298178e+000

4.46914855228886e+004,-2.36278871501009e+001,-1.46292861878687e+000

4.53153554118317e+004,-2.36279521021426e+001,-1.48331813969367e+000

4.59479341998812e+004,-2.36280188501356e+001,-1.50399094314898e+000

4.65893434587380e+004,-2.36280874428894e+001,-1.52495092814961e+000

4.72397064571810e+004,-2.36281579304925e+001,-1.54620204587786e+000

4.78991481847569e+004,-2.36282303643435e+001,-1.56774830034245e+000

4.85677953758016e+004,-2.36283047971829e+001,-1.58959374902584e+000

4.92457765337964e+004,-2.36283812831248e+001,-1.61174250353629e+000

4.99332219560642e+004,-2.36284598776899e+001,-1.63419873026644e+000

5.06302637588109e+004,-2.36285406378387e+001,-1.65696665105799e+000

5.13370359025159e+004,-2.36286236220057e+001,-1.68005054387014e+000

5.20536742176771e+004,-2.36287088901336e+001,-1.70345474345723e+000

5.27803164309155e+004,-2.36287965037086e+001,-1.72718364204765e+000

5.35171021914442e+004,-2.36288865257964e+001,-1.75124169003148e+000

5.42641730979066e+004,-2.36289790210784e+001,-1.77563339665408e+000

5.50216727255895e+004,-2.36290740558885e+001,-1.80036333071134e+000

5.57897466540159e+004,-2.36291716982512e+001,-1.82543612125522e+000

5.65685424949235e+004,-2.36292720179197e+001,-1.85085645830136e+000

5.73582099206328e+004,-2.36293750864143e+001,-1.87662909354433e+000

5.81589006928121e+004,-2.36294809770621e+001,-1.90275884107634e+000

5.89707686916437e+004,-2.36295897650371e+001,-1.92925057811326e+000

5.97939699453972e+004,-2.36297015274007e+001,-1.95610924572427e+000

6.06286626604156e+004,-2.36298163431427e+001,-1.98333984956760e+000

6.14750072515201e+004,-2.36299342932230e+001,-2.01094746063168e+000

6.23331663728396e+004,-2.36300554606139e+001,-2.03893721598168e+000

6.32033049490698e+004,-2.36301799303431e+001,-2.06731431950932e+000

6.40855902071694e+004,-2.36303077895365e+001,-2.09608404269093e+000

6.49801917084985e+004,-2.36304391274621e+001,-2.12525172534817e+000

6.58872813814055e+004,-2.36305740355746e+001,-2.15482277641454e+000

6.68070335542691e+004,-2.36307126075597e+001,-2.18480267470762e+000

6.77396249890018e+004,-2.36308549393794e+001,-2.21519696970451e+000

6.86852349150199e+004,-2.36310011293175e+001,-2.24601128232503e+000

6.96440450636895e+004,-2.36311512780258e+001,-2.27725130571681e+000

7.06162397032520e+004,-2.36313054885700e+001,-2.30892280604785e+000

7.16020056742374e+004,-2.36314638664764e+001,-2.34103162330269e+000

7.26015324253724e+004,-2.36316265197792e+001,-2.37358367208360e+000

7.36150120499896e+004,-2.36317935590674e+001,-2.40658494241718e+000

7.46426393229441e+004,-2.36319650975320e+001,-2.44004150056637e+000

7.56846117380472e+004,-2.36321412510140e+001,-2.47395948984516e+000

7.67411295460207e+004,-2.36323221380521e+001,-2.50834513144219e+000

7.78123957929823e+004,-2.36325078799303e+001,-2.54320472524525e+000

7.88986163594682e+004,-2.36326986007260e+001,-2.57854465067401e+000

7.99999999999995e+004,-2.36328944273579e+001,-2.61437136751685e+000

8.11167583832018e+004,-2.36330954896338e+001,-2.65069141677287e+000

8.22491061324848e+004,-2.36333019202986e+001,-2.68751142149901e+000

8.33972608672892e+004,-2.36335138550817e+001,-2.72483808766383e+000

8.45614432449099e+004,-2.36337314327444e+001,-2.76267820500623e+000

8.57418770029029e+004,-2.36339547951273e+001,-2.80103864790020e+000

8.69387890020841e+004,-2.36341840871971e+001,-2.83992637622485e+000

8.81524092701283e+004,-2.36344194570926e+001,-2.87934843624224e+000

8.93829710457770e+004,-2.36346610561713e+001,-2.91931196148084e+000

9.06307108236633e+004,-2.36349090390544e+001,-2.95982417362492e+000

9.18958683997622e+004,-2.36351635636717e+001,-3.00089238341369e+000

9.31786869174758e+004,-2.36354247913056e+001,-3.04252399154383e+000

9.44794129143618e+004,-2.36356928866349e+001,-3.08472648958365e+000

9.57982963695136e+004,-2.36359680177768e+001,-3.12750746089410e+000

9.71355907516031e+004,-2.36362503563288e+001,-3.17087458155648e+000

9.84915530675926e+004,-2.36365400774091e+001,-3.21483562131283e+000

9.98664439121282e+004,-2.36368373596962e+001,-3.25939844451343e+000

1.01260527517622e+005,-2.36371423854673e+001,-3.30457101107455e+000

1.02674071805032e+005,-2.36374553406352e+001,-3.35036137744921e+000

1.04107348435354e+005,-2.36377764147841e+001,-3.39677769760673e+000

1.05560632861831e+005,-2.36381058012038e+001,-3.44382822402718e+000

1.07034204382888e+005,-2.36384436969222e+001,-3.49152130870616e+000

1.08528346195813e+005,-2.36387903027371e+001,-3.53986540417651e+000

1.10043345451179e+005,-2.36391458232448e+001,-3.58886906454229e+000

1.11579493308032e+005,-2.36395104668684e+001,-3.63854094653016e+000

1.13137084989847e+005,-2.36398844458831e+001,-3.68888981055640e+000

1.14716419841265e+005,-2.36402679764404e+001,-3.73992452181349e+000

1.16317801385624e+005,-2.36406612785893e+001,-3.79165405137440e+000

1.17941537383287e+005,-2.36410645762966e+001,-3.84408747731787e+000

1.19587939890794e+005,-2.36414780974643e+001,-3.89723398587523e+000

1.21257325320831e+005,-2.36419020739445e+001,-3.95110287260090e+000

1.22950014503040e+005,-2.36423367415528e+001,-4.00570354356648e+000

1.24666332745679e+005,-2.36427823400784e+001,-4.06104551658248e+000

1.26406609898139e+005,-2.36432391132929e+001,-4.11713842244646e+000

1.28171180414339e+005,-2.36437073089559e+001,-4.17399200622111e+000

1.29960383416997e+005,-2.36441871788179e+001,-4.23161612854522e+000

1.31774562762811e+005,-2.36446789786219e+001,-4.29002076697488e+000

1.33614067108538e+005,-2.36451829681010e+001,-4.34921601736332e+000

1.35479249978003e+005,-2.36456994109749e+001,-4.40921209527550e+000

1.37370469830040e+005,-2.36462285749428e+001,-4.47001933744344e+000

1.39288090127379e+005,-2.36467707316747e+001,-4.53164820326325e+000

1.41232479406504e+005,-2.36473261568003e+001,-4.59410927633517e+000

1.43204011348474e+005,-2.36478951298945e+001,-4.65741326605121e+000

1.45203064850745e+005,-2.36484779344623e+001,-4.72157100923088e+000

1.47230024099979e+005,-2.36490748579204e+001,-4.78659347180856e+000

1.49285278645888e+005,-2.36496861915774e+001,-4.85249175057427e+000

1.51369223476094e+005,-2.36503122306118e+001,-4.91927707497222e+000

1.53482259092041e+005,-2.36509532740488e+001,-4.98696080895701e+000

1.55624791585964e+005,-2.36516096247351e+001,-5.05555445291335e+000

1.57797232718936e+005,-2.36522815893129e+001,-5.12506964563951e+000

1.59999999999999e+005,-2.36529694781932e+001,-5.19551816639921e+000

1.62233516766403e+005,-2.36536736055270e+001,-5.26691193704352e+000

1.64498212264969e+005,-2.36543942891786e+001,-5.33926302420547e+000

1.66794521734578e+005,-2.36551318506960e+001,-5.41258364157324e+000

1.69122886489819e+005,-2.36558866152843e+001,-5.48688615223805e+000

1.71483754005805e+005,-2.36566589117777e+001,-5.56218307112912e+000

1.73877578004168e+005,-2.36574490726148e+001,-5.63848706752861e+000

1.76304818540256e+005,-2.36582574338135e+001,-5.71581096767695e+000

1.78765942091554e+005,-2.36590843349499e+001,-5.79416775746627e+000

1.81261421647326e+005,-2.36599301191390e+001,-5.87357058522757e+000

1.83791736799524e+005,-2.36607951330192e+001,-5.95403276461238e+000

1.86357373834951e+005,-2.36616797267406e+001,-6.03556777757120e+000

1.88958825828723e+005,-2.36625842539581e+001,-6.11818927743316e+000

1.91596592739027e+005,-2.36635090718305e+001,-6.20191109208539e+000

1.94271181503206e+005,-2.36644545410242e+001,-6.28674722725654e+000

1.96983106135185e+005,-2.36654210257259e+001,-6.37271186990602e+000

1.99732887824256e+005,-2.36664088936614e+001,-6.45981939171890e+000

2.02521055035243e+005,-2.36674185161238e+001,-6.54808435270880e+000

2.05348143610063e+005,-2.36684502680113e+001,-6.63752150493017e+000

2.08214696870707e+005,-2.36695045278750e+001,-6.72814579629812e+000

2.11121265723661e+005,-2.36705816779787e+001,-6.81997237452005e+000

2.14068408765776e+005,-2.36716821043701e+001,-6.91301659113524e+000

2.17056692391625e+005,-2.36728061969667e+001,-7.00729400566467e+000

2.20086690902357e+005,-2.36739543496550e+001,-7.10282038986875e+000

2.23158986616063e+005,-2.36751269604057e+001,-7.19961173211335e+000

2.26274169979693e+005,-2.36763244314052e+001,-7.29768424184090e+000

2.29432839682530e+005,-2.36775471692053e+001,-7.39705435414619e+000

2.32635602771247e+005,-2.36787955848905e+001,-7.49773873445331e+000

2.35883074766574e+005,-2.36800700942661e+001,-7.59975428329204e+000

2.39175879781588e+005,-2.36813711180668e+001,-7.70311814116898e+000

2.42514650641661e+005,-2.36826990821871e+001,-7.80784769353134e+000

2.45900029006080e+005,-2.36840544179352e+001,-7.91396057581745e+000

2.49332665491357e+005,-2.36854375623102e+001,-8.02147467859059e+000

2.52813219796278e+005,-2.36868489583057e+001,-8.13040815275014e+000

2.56342360828676e+005,-2.36882890552382e+001,-8.24077941481471e+000

2.59920766833993e+005,-2.36897583091038e+001,-8.35260715227124e+000

2.63549125525621e+005,-2.36912571829620e+001,-8.46591032898216e+000

2.67228134217075e+005,-2.36927861473494e+001,-8.58070819064559e+000

2.70958499956006e+005,-2.36943456807228e+001,-8.69702027029895e+000

2.74740939660078e+005,-2.36959362699327e+001,-8.81486639385982e+000

2.78576180254757e+005,-2.36975584107291e+001,-8.93426668569300e+000

2.82464958813007e+005,-2.36992126082983e+001,-9.05524157419805e+000

2.86408022696948e+005,-2.37008993778333e+001,-9.17781179740574e+000

2.90406129701488e+005,-2.37026192451368e+001,-9.30199840857486e+000

2.94460048199957e+005,-2.37043727472584e+001,-9.42782278177967e+000

2.98570557291775e+005,-2.37061604331655e+001,-9.55530661747608e+000

3.02738446952187e+005,-2.37079828644489e+001,-9.68447194804026e+000

3.06964518184081e+005,-2.37098406160624e+001,-9.81534114326320e+000

3.11249583171928e+005,-2.37117342770979e+001,-9.94793691579606e+000

3.15594465437872e+005,-2.37136644515943e+001,-1.00822823265325e+001

3.19999999999997e+005,-2.37156317593817e+001,-1.02184007899171e+001

3.24467033532806e+005,-2.37176368369597e+001,-1.03563160791700e+001

3.28996424529938e+005,-2.37196803384097e+001,-1.04960523314163e+001

3.33589043469155e+005,-2.37217629363413e+001,-1.06376340527097e+001

3.38245772979638e+005,-2.37238853228719e+001,-1.07810861229393e+001

3.42967508011610e+005,-2.37260482106389e+001,-1.09264338006089e+001

3.47755156008335e+005,-2.37282523338438e+001,-1.10737027274793e+001

3.52609637080511e+005,-2.37304984493286e+001,-1.12229189330633e+001

3.57531884183106e+005,-2.37327873376810e+001,-1.13741088389626e+001

3.62522843294651e+005,-2.37351198043712e+001,-1.15272992630391e+001

3.67583473599047e+005,-2.37374966809153e+001,-1.16825174234102e+001

3.72714747669902e+005,-2.37399188260680e+001,-1.18397909422603e+001

3.77917651657445e+005,-2.37423871270406e+001,-1.19991478494596e+001

3.83193185478053e+005,-2.37449025007445e+001,-1.21606165859843e+001

3.88542363006410e+005,-2.37474658950588e+001,-1.23242260071291e+001

3.93966212270369e+005,-2.37500782901208e+001,-1.24900053855071e+001

3.99465775648511e+005,-2.37527406996374e+001,-1.26579844138300e+001

4.05042110070485e+005,-2.37554541722172e+001,-1.28281932074637e+001

4.10696287220124e+005,-2.37582197927205e+001,-1.30006623067552e+001

4.16429393741414e+005,-2.37610386836275e+001,-1.31754226791253e+001

4.22242531447321e+005,-2.37639120064215e+001,-1.33525057209236e+001

4.28136817531551e+005,-2.37668409629875e+001,-1.35319432590436e+001

4.34113384783250e+005,-2.37698267970236e+001,-1.37137675522950e+001

4.40173381804713e+005,-2.37728707954635e+001,-1.38980112925302e+001

4.46317973232124e+005,-2.37759742899112e+001,-1.40847076055245e+001

4.52548339959385e+005,-2.37791386580827e+001,-1.42738900516092e+001

4.58865679365059e+005,-2.37823653252572e+001,-1.44655926260558e+001

4.65271205542494e+005,-2.37856557657344e+001,-1.46598497592118e+001

4.71766149533147e+005,-2.37890115042968e+001,-1.48566963163887e+001

4.78351759563174e+005,-2.37924341176775e+001,-1.50561675975023e+001

4.85029301283321e+005,-2.37959252360297e+001,-1.52582993364652e+001

4.91800058012158e+005,-2.37994865443999e+001,-1.54631277003341e+001

4.98665330982714e+005,-2.38031197842015e+001,-1.56706892882132e+001

5.05626439592555e+005,-2.38068267546889e+001,-1.58810211299120e+001

5.12684721657352e+005,-2.38106093144313e+001,-1.60941606843639e+001

5.19841533667984e+005,-2.38144693827853e+001,-1.63101458378024e+001

5.27098251051240e+005,-2.38184089413656e+001,-1.65290149016992e+001

5.34456268434150e+005,-2.38224300355124e+001,-1.67508066104654e+001

5.41916999912011e+005,-2.38265347757570e+001,-1.69755601189142e+001

