Freq.,VOut,OutRef

1.00000000000000e+004,-2.29015185887007e+001,-3.83723314987883e-001

1.01395947979003e+004,-2.29015223760263e+001,-3.89079504710010e-001

1.02811382665607e+004,-2.29015262697475e+001,-3.94510447584575e-001

1.04246576084112e+004,-2.29015302728508e+001,-4.00017186429851e-001

1.05701804056138e+004,-2.29015343884067e+001,-4.05600778589003e-001

1.07177346253629e+004,-2.29015386195713e+001,-4.11262296136372e-001

1.08673486252606e+004,-2.29015429695896e+001,-4.17002826078269e-001

1.10190511587661e+004,-2.29015474417972e+001,-4.22823470562596e-001

1.11728713807222e+004,-2.29015520396232e+001,-4.28725347087088e-001

1.13288388529580e+004,-2.29015567665929e+001,-4.34709588713004e-001

1.14869835499703e+004,-2.29015616263302e+001,-4.40777344280653e-001

1.16473358646846e+004,-2.29015666225607e+001,-4.46929778628173e-001

1.18099266142953e+004,-2.29015717591140e+001,-4.53168072812210e-001

1.19747870461893e+004,-2.29015770399272e+001,-4.59493424334702e-001

1.21419488439505e+004,-2.29015824690474e+001,-4.65907047368669e-001

1.23114441334492e+004,-2.29015880506355e+001,-4.72410172989093e-001

1.24833054890161e+004,-2.29015937889683e+001,-4.79004049408494e-001

1.26575659397028e+004,-2.29015996884426e+001,-4.85689942212248e-001

1.28342589756290e+004,-2.29016057535780e+001,-4.92469134601253e-001

1.30134185544193e+004,-2.29016119890210e+001,-4.99342927632617e-001

1.31950791077289e+004,-2.29016183995476e+001,-5.06312640468452e-001

1.33792755478611e+004,-2.29016249900678e+001,-5.13379610626758e-001

1.35660432744767e+004,-2.29016317656286e+001,-5.20545194233826e-001

1.37554181813974e+004,-2.29016387314185e+001,-5.27810766280790e-001

1.39474366635040e+004,-2.29016458927706e+001,-5.35177720887757e-001

1.41421356237309e+004,-2.29016532551678e+001,-5.42647471561903e-001

1.43395524801583e+004,-2.29016608242455e+001,-5.50221451472644e-001

1.45397251732031e+004,-2.29016686057971e+001,-5.57901113716271e-001

1.47426921729110e+004,-2.29016766057777e+001,-5.65687931594847e-001

1.49484924863494e+004,-2.29016848303088e+001,-5.73583398893349e-001

1.51571656651040e+004,-2.29016932856831e+001,-5.81589030162552e-001

1.53687518128801e+004,-2.29017019783685e+001,-5.89706361006098e-001

1.55832915932100e+004,-2.29017109150143e+001,-5.97936948368137e-001

1.58008262372675e+004,-2.29017201024547e+001,-6.06282370830218e-001

1.60213975517924e+004,-2.29017295477151e+001,-6.14744228907109e-001

1.62450479271247e+004,-2.29017392580168e+001,-6.23324145349439e-001

1.64718203453514e+004,-2.29017492407827e+001,-6.32023765449785e-001

1.67017583885674e+004,-2.29017595036426e+001,-6.40844757352532e-001

1.69349062472505e+004,-2.29017700544393e+001,-6.49788812367285e-001

1.71713087287550e+004,-2.29017809012341e+001,-6.58857645287799e-001

1.74110112659224e+004,-2.29017920523130e+001,-6.68052994716198e-001

1.76540599258131e+004,-2.29018035161932e+001,-6.77376623386172e-001

1.79005014185594e+004,-2.29018153016290e+001,-6.86830318496469e-001

1.81503831063432e+004,-2.29018274176185e+001,-6.96415892047343e-001

1.84037530124975e+004,-2.29018398734106e+001,-7.06135181178268e-001

1.86606598307361e+004,-2.29018526785117e+001,-7.15990048513103e-001

1.89211529345119e+004,-2.29018658426924e+001,-7.25982382510685e-001

1.91852823865052e+004,-2.29018793759959e+001,-7.36114097815669e-001

1.94530989482457e+004,-2.29018932887441e+001,-7.46387135619724e-001

1.97246540898671e+004,-2.29019075915462e+001,-7.56803464022111e-001

1.99999999999999e+004,-2.29019222953066e+001,-7.67365078398486e-001

2.02791895958005e+004,-2.29019374112323e+001,-7.78074001773473e-001

2.05622765331213e+004,-2.29019529508421e+001,-7.88932285197790e-001

2.08493152168224e+004,-2.29019689259745e+001,-7.99942008129562e-001

2.11403608112276e+004,-2.29019853487968e+001,-8.11105278823558e-001

2.14354692507258e+004,-2.29020022318139e+001,-8.22424234722154e-001

2.17346972505211e+004,-2.29020195878777e+001,-8.33901042852615e-001

2.20381023175322e+004,-2.29020374301967e+001,-8.45537900229624e-001

2.23457427614443e+004,-2.29020557723452e+001,-8.57337034264258e-001

2.26576777059159e+004,-2.29020746282743e+001,-8.69300703173533e-001

2.29739670999406e+004,-2.29020940123209e+001,-8.81431196403354e-001

2.32946717293690e+004,-2.29021139392195e+001,-8.93730835047144e-001

2.36198532285905e+004,-2.29021344241122e+001,-9.06201972278585e-001

2.39495740923785e+004,-2.29021554825598e+001,-9.18846993783828e-001

2.42838976879009e+004,-2.29021771305538e+001,-9.31668318202183e-001

2.46228882668982e+004,-2.29021993845275e+001,-9.44668397571137e-001

2.49666109780322e+004,-2.29022222613686e+001,-9.57849717777808e-001

2.53151318794055e+004,-2.29022457784305e+001,-9.71214799016314e-001

2.56685179512580e+004,-2.29022699535462e+001,-9.84766196248533e-001

2.60268371088386e+004,-2.29022948050404e+001,-9.98506499673791e-001

2.63901582154578e+004,-2.29023203517430e+001,-1.01243833520351e+000

2.67585510957221e+004,-2.29023466130029e+001,-1.02656436493897e+000

2.71320865489533e+004,-2.29023736087020e+001,-1.04088728765917e+000

2.75108363627948e+004,-2.29024013592690e+001,-1.05540983931294e+000

2.78948733270080e+004,-2.29024298856954e+001,-1.07013479351486e+000

2.82842712474618e+004,-2.29024592095490e+001,-1.08506496205252e+000

2.86791049603164e+004,-2.29024893529906e+001,-1.10020319539413e+000

2.90794503464061e+004,-2.29025203387896e+001,-1.11555238320547e+000

2.94853843458219e+004,-2.29025521903398e+001,-1.13111545487477e+000

2.98969849726987e+004,-2.29025849316767e+001,-1.14689538003957e+000

3.03143313302078e+004,-2.29026185874944e+001,-1.16289516912221e+000

3.07375036257601e+004,-2.29026531831632e+001,-1.17911787387270e+000

3.11665831864199e+004,-2.29026887447475e+001,-1.19556658791750e+000

3.16016524745350e+004,-2.29027252990242e+001,-1.21224444731247e+000

3.20427951035848e+004,-2.29027628735021e+001,-1.22915463110624e+000

3.24900958542493e+004,-2.29028014964404e+001,-1.24630036190639e+000

3.29436406907028e+004,-2.29028411968696e+001,-1.26368490645593e+000

3.34035167771346e+004,-2.29028820046108e+001,-1.28131157621301e+000

3.38698124945009e+004,-2.29029239502974e+001,-1.29918372794034e+000

3.43426174575100e+004,-2.29029670653960e+001,-1.31730476429965e+000

3.48220225318448e+004,-2.29030113822284e+001,-1.33567813445230e+000

3.53081198516260e+004,-2.29030569339939e+001,-1.35430733467040e+000

3.58010028371187e+004,-2.29031037547925e+001,-1.37319590894867e+000

3.63007662126863e+004,-2.29031518796481e+001,-1.39234744963017e+000

3.68075060249948e+004,-2.29032013445328e+001,-1.41176559803441e+000

3.73213196614721e+004,-2.29032521863914e+001,-1.43145404509283e+000

3.78423058690237e+004,-2.29033044431665e+001,-1.45141653199327e+000

3.83705647730104e+004,-2.29033581538246e+001,-1.47165685083107e+000

3.89061978964912e+004,-2.29034133583823e+001,-1.49217884526514e+000

3.94493081797342e+004,-2.29034700979334e+001,-1.51298641118337e+000

3.99999999999998e+004,-2.29035284146762e+001,-1.53408349737552e+000

4.05583791916010e+004,-2.29035883519426e+001,-1.55547410621032e+000

4.11245530662425e+004,-2.29036499542261e+001,-1.57716229432391e+000

4.16986304336447e+004,-2.29037132672119e+001,-1.59915217331171e+000

4.22807216224550e+004,-2.29037783378070e+001,-1.62144791043017e+000

4.28709385014515e+004,-2.29038452141713e+001,-1.64405372930455e+000

4.34693945010421e+004,-2.29039139457488e+001,-1.66697391064435e+000

4.40762046350642e+004,-2.29039845833003e+001,-1.69021279296581e+000

4.46914855228886e+004,-2.29040571789361e+001,-1.71377477332181e+000

4.53153554118317e+004,-2.29041317861499e+001,-1.73766430803968e+000

4.59479341998812e+004,-2.29042084598533e+001,-1.76188591346522e+000

4.65893434587380e+004,-2.29042872564105e+001,-1.78644416671488e+000

4.72397064571810e+004,-2.29043682336750e+001,-1.81134370643481e+000

4.78991481847569e+004,-2.29044514510254e+001,-1.83658923356810e+000

4.85677953758016e+004,-2.29045369694033e+001,-1.86218551212803e+000

4.92457765337964e+004,-2.29046248513517e+001,-1.88813736997950e+000

4.99332219560642e+004,-2.29047151610531e+001,-1.91444969962776e+000

5.06302637588109e+004,-2.29048079643699e+001,-1.94112745901497e+000

5.13370359025159e+004,-2.29049033288849e+001,-1.96817567232202e+000

5.20536742176771e+004,-2.29050013239421e+001,-1.99559943078007e+000

5.27803164309155e+004,-2.29051020206893e+001,-2.02340389348797e+000

5.35171021914442e+004,-2.29052054921206e+001,-2.05159428823789e+000

5.42641730979066e+004,-2.29053118131201e+001,-2.08017591234686e+000

5.50216727255895e+004,-2.29054210605065e+001,-2.10915413349663e+000

5.57897466540159e+004,-2.29055333130785e+001,-2.13853439058102e+000

5.65685424949235e+004,-2.29056486516604e+001,-2.16832219455865e+000

5.73582099206328e+004,-2.29057671591494e+001,-2.19852312931500e+000

5.81589006928121e+004,-2.29058889205633e+001,-2.22914285253044e+000

5.89707686916437e+004,-2.29060140230884e+001,-2.26018709655568e+000

5.97939699453972e+004,-2.29061425561295e+001,-2.29166166929368e+000

6.06286626604156e+004,-2.29062746113595e+001,-2.32357245509000e+000

6.14750072515201e+004,-2.29064102827706e+001,-2.35592541562828e+000

6.23331663728396e+004,-2.29065496667254e+001,-2.38872659083553e+000

6.32033049490698e+004,-2.29066928620099e+001,-2.42198209978995e+000

6.40855902071694e+004,-2.29068399698864e+001,-2.45569814164150e+000

6.49801917084985e+004,-2.29069910941472e+001,-2.48988099653401e+000

6.58872813814055e+004,-2.29071463411698e+001,-2.52453702653783e+000

6.68070335542691e+004,-2.29073058199719e+001,-2.55967267658716e+000

6.77396249890018e+004,-2.29074696422673e+001,-2.59529447542596e+000

6.86852349150199e+004,-2.29076379225234e+001,-2.63140903655955e+000

6.96440450636895e+004,-2.29078107780179e+001,-2.66802305921369e+000

7.06162397032520e+004,-2.29079883288976e+001,-2.70514332929980e+000

7.16020056742374e+004,-2.29081706982364e+001,-2.74277672038828e+000

7.26015324253724e+004,-2.29083580120955e+001,-2.78093019468739e+000

7.36150120499896e+004,-2.29085503995825e+001,-2.81961080403010e+000

7.46426393229441e+004,-2.29087479929125e+001,-2.85882569086667e+000

7.56846117380472e+004,-2.29089509274690e+001,-2.89858208926559e+000

7.67411295460207e+004,-2.29091593418650e+001,-2.93888732592051e+000

7.78123957929823e+004,-2.29093733780055e+001,-2.97974882116399e+000

7.88986163594682e+004,-2.29095931811493e+001,-3.02117408999037e+000

7.99999999999995e+004,-2.29098188999721e+001,-3.06317074308252e+000

8.11167583832018e+004,-2.29100506866295e+001,-3.10574648784909e+000

8.22491061324848e+004,-2.29102886968200e+001,-3.14890912946751e+000

8.33972608672892e+004,-2.29105330898494e+001,-3.19266657193422e+000

8.45614432449099e+004,-2.29107840286933e+001,-3.23702681912423e+000

8.57418770029029e+004,-2.29110416800623e+001,-3.28199797585719e+000

8.69387890020841e+004,-2.29113062144651e+001,-3.32758824897157e+000

8.81524092701283e+004,-2.29115778062727e+001,-3.37380594840830e+000

8.93829710457770e+004,-2.29118566337828e+001,-3.42065948830121e+000

9.06307108236633e+004,-2.29121428792829e+001,-3.46815738807816e+000

9.18958683997622e+004,-2.29124367291151e+001,-3.51630827356926e+000

9.31786869174758e+004,-2.29127383737382e+001,-3.56512087812716e+000

9.44794129143618e+004,-2.29130480077925e+001,-3.61460404375413e+000

9.57982963695136e+004,-2.29133658301612e+001,-3.66476672224219e+000

9.71355907516031e+004,-2.29136920440338e+001,-3.71561797632165e+000

9.84915530675926e+004,-2.29140268569678e+001,-3.76716698082294e+000

9.98664439121282e+004,-2.29143704809498e+001,-3.81942302384842e+000

1.01260527517622e+005,-2.29147231324566e+001,-3.87239550795692e+000

1.02674071805032e+005,-2.29150850325147e+001,-3.92609395136265e+000

1.04107348435354e+005,-2.29154564067603e+001,-3.98052798914520e+000

1.05560632861831e+005,-2.29158374854967e+001,-4.03570737447617e+000

1.07034204382888e+005,-2.29162285037525e+001,-4.09164197985948e+000

1.08528346195813e+005,-2.29166297013375e+001,-4.14834179838839e+000

1.10043345451179e+005,-2.29170413228983e+001,-4.20581694501919e+000

1.11579493308032e+005,-2.29174636179721e+001,-4.26407765786275e+000

1.13137084989847e+005,-2.29178968410401e+001,-4.32313429949508e+000

1.14716419841265e+005,-2.29183412515786e+001,-4.38299735828760e+000

1.16317801385624e+005,-2.29187971141094e+001,-4.44367744975907e+000

1.17941537383287e+005,-2.29192646982492e+001,-4.50518531794918e+000

1.19587939890794e+005,-2.29197442787562e+001,-4.56753183681711e+000

1.21257325320831e+005,-2.29202361355765e+001,-4.63072801166353e+000

1.22950014503040e+005,-2.29207405538880e+001,-4.69478498058137e+000

1.24666332745679e+005,-2.29212578241438e+001,-4.75971401593237e+000

1.26406609898139e+005,-2.29217882421125e+001,-4.82552652585568e+000

1.28171180414339e+005,-2.29223321089184e+001,-4.89223405580638e+000

1.29960383416997e+005,-2.29228897310788e+001,-4.95984829012773e+000

1.31774562762811e+005,-2.29234614205406e+001,-5.02838105365961e+000

1.33614067108538e+005,-2.29240474947146e+001,-5.09784431338234e+000

1.35479249978003e+005,-2.29246482765087e+001,-5.16825018010100e+000

1.37370469830040e+005,-2.29252640943593e+001,-5.23961091017095e+000

1.39288090127379e+005,-2.29258952822611e+001,-5.31193890726605e+000

1.41232479406504e+005,-2.29265421797959e+001,-5.38524672419343e+000

1.43204011348474e+005,-2.29272051321597e+001,-5.45954706475655e+000

1.45203064850745e+005,-2.29278844901888e+001,-5.53485278566763e+000

1.47230024099979e+005,-2.29285806103848e+001,-5.61117689851377e+000

1.49285278645888e+005,-2.29292938549384e+001,-5.68853257177976e+000

1.51369223476094e+005,-2.29300245917531e+001,-5.76693313292633e+000

1.53482259092041e+005,-2.29307731944679e+001,-5.84639207053225e+000

1.55624791585964e+005,-2.29315400424797e+001,-5.92692303649745e+000

1.57797232718936e+005,-2.29323255209662e+001,-6.00853984831331e+000

1.59999999999999e+005,-2.29331300209081e+001,-6.09125649140210e+000

1.62233516766403e+005,-2.29339539391131e+001,-6.17508712152767e+000

1.64498212264969e+005,-2.29347976782398e+001,-6.26004606728059e+000

1.66794521734578e+005,-2.29356616468236e+001,-6.34614783264047e+000

1.69122886489819e+005,-2.29365462593039e+001,-6.43340709961841e+000

1.71483754005805e+005,-2.29374519360539e+001,-6.52183873098142e+000

1.73877578004168e+005,-2.29383791034129e+001,-6.61145777306295e+000

1.76304818540256e+005,-2.29393281937217e+001,-6.70227945866046e+000

1.78765942091554e+005,-2.29402996453621e+001,-6.79431921002389e+000

1.81261421647326e+005,-2.29412939028004e+001,-6.88759264193609e+000

1.83791736799524e+005,-2.29423114166365e+001,-6.98211556488892e+000

1.86357373834951e+005,-2.29433526436583e+001,-7.07790398835611e+000

1.88958825828723e+005,-2.29444180469026e+001,-7.17497412416588e+000

1.91596592739027e+005,-2.29455080957232e+001,-7.27334238997280e+000

1.94271181503206e+005,-2.29466232658672e+001,-7.37302541283467e+000

1.96983106135185e+005,-2.29477640395602e+001,-7.47404003289109e+000

1.99732887824256e+005,-2.29489309056010e+001,-7.57640330714815e+000

2.02521055035243e+005,-2.29501243594665e+001,-7.68013251336940e+000

2.05348143610063e+005,-2.29513449034295e+001,-7.78524515407260e+000

2.08214696870707e+005,-2.29525930466878e+001,-7.89175896063368e+000

2.11121265723661e+005,-2.29538693055074e+001,-7.99969189749759e+000

2.14068408765776e+005,-2.29551742033801e+001,-8.10906216649565e+000

2.17056692391625e+005,-2.29565082711974e+001,-8.21988821126808e+000

2.20086690902357e+005,-2.29578720474401e+001,-8.33218872179150e+000

2.23158986616063e+005,-2.29592660783868e+001,-8.44598263900935e+000

2.26274169979693e+005,-2.29606909183405e+001,-8.56128915956286e+000

2.29432839682530e+005,-2.29621471298764e+001,-8.67812774062012e+000

2.32635602771247e+005,-2.29636352841099e+001,-8.79651810480173e+000

2.35883074766574e+005,-2.29651559609874e+001,-8.91648024519718e+000

2.39175879781588e+005,-2.29667097496013e+001,-9.03803443047021e+000

2.42514650641661e+005,-2.29682972485287e+001,-9.16120121004739e+000

2.45900029006080e+005,-2.29699190661966e+001,-9.28600141938545e+000

2.49332665491357e+005,-2.29715758212738e+001,-9.41245618531196e+000

2.52813219796278e+005,-2.29732681430909e+001,-9.54058693143307e+000

2.56342360828676e+005,-2.29749966720898e+001,-9.67041538360239e+000

2.59920766833993e+005,-2.29767620603026e+001,-9.80196357544220e+000

2.63549125525621e+005,-2.29785649718619e+001,-9.93525385391318e+000

2.67228134217075e+005,-2.29804060835439e+001,-1.00703088849193e+001

2.70958499956006e+005,-2.29822860853434e+001,-1.02071516589441e+001

2.74740939660078e+005,-2.29842056810833e+001,-1.03458054967071e+001

2.78576180254757e+005,-2.29861655890583e+001,-1.04862940548303e+001

2.82464958813007e+005,-2.29881665427143e+001,-1.06286413315065e+001

2.86408022696948e+005,-2.29902092913635e+001,-1.07728716721576e+001

2.90406129701488e+005,-2.29922946009357e+001,-1.09190097750736e+001

2.94460048199957e+005,-2.29944232547671e+001,-1.10670806970192e+001

2.98570557291775e+005,-2.29965960544261e+001,-1.12171098587989e+001

3.02738446952187e+005,-2.29988138205764e+001,-1.13691230507676e+001

3.06964518184081e+005,-2.30010773938789e+001,-1.15231464382742e+001

3.11249583171928e+005,-2.30033876359300e+001,-1.16792065670283e+001

3.15594465437872e+005,-2.30057454302393e+001,-1.18373303683750e+001

3.19999999999997e+005,-2.30081516832443e+001,-1.19975451644681e+001

3.24467033532806e+005,-2.30106073253623e+001,-1.21598786733270e+001

3.28996424529938e+005,-2.30131133120802e+001,-1.23243590137668e+001

3.33589043469155e+005,-2.30156706250813e+001,-1.24910147101876e+001

3.38245772979638e+005,-2.30182802734070e+001,-1.26598746972123e+001

3.42967508011610e+005,-2.30209432946560e+001,-1.28309683241593e+001

3.47755156008335e+005,-2.30236607562170e+001,-1.30043253593395e+001

3.52609637080511e+005,-2.30264337565359e+001,-1.31799759941653e+001

3.57531884183106e+005,-2.30292634264164e+001,-1.33579508470590e+001

3.62522843294651e+005,-2.30321509303519e+001,-1.35382809671529e+001

3.67583473599047e+005,-2.30350974678899e+001,-1.37209978377661e+001

3.72714747669902e+005,-2.30381042750241e+001,-1.39061333796516e+001

3.77917651657445e+005,-2.30411726256172e+001,-1.40937199540006e+001

3.83193185478053e+005,-2.30443038328490e+001,-1.42837903651969e+001

3.88542363006410e+005,-2.30474992506918e+001,-1.44763778633121e+001

3.93966212270369e+005,-2.30507602754089e+001,-1.46715161463311e+001

3.99465775648511e+005,-2.30540883470771e+001,-1.48692393621044e+001

4.05042110070485e+005,-2.30574849511289e+001,-1.50695821100150e+001

4.10696287220124e+005,-2.30609516199164e+001,-1.52725794423563e+001

4.16429393741414e+005,-2.30644899342911e+001,-1.54782668654144e+001

4.22242531447321e+005,-2.30681015252019e+001,-1.56866803402486e+001

4.28136817531551e+005,-2.30717880753062e+001,-1.58978562831645e+001

4.34113384783250e+005,-2.30755513205960e+001,-1.61118315658768e+001

4.40173381804713e+005,-2.30793930520333e+001,-1.63286435153568e+001

4.46317973232124e+005,-2.30833151171970e+001,-1.65483299133603e+001

4.52548339959385e+005,-2.30873194219367e+001,-1.67709289956353e+001

4.58865679365059e+005,-2.30914079320340e+001,-1.69964794508040e+001

4.65271205542494e+005,-2.30955826748676e+001,-1.72250204189194e+001

4.71766149533147e+005,-2.30998457410828e+001,-1.74565914896926e+001

4.78351759563174e+005,-2.31041992862616e+001,-1.76912327003918e+001

4.85029301283321e+005,-2.31086455325941e+001,-1.79289845334091e+001

4.91800058012158e+005,-2.31131867705478e+001,-1.81698879134966e+001

4.98665330982714e+005,-2.31178253605348e+001,-1.84139842046700e+001

5.05626439592555e+005,-2.31225637345745e+001,-1.86613152067787e+001

5.12684721657352e+005,-2.31274043979509e+001,-1.89119231517430e+001

5.19841533667984e+005,-2.31323499308636e+001,-1.91658506994583e+001

5.27098251051240e+005,-2.31374029900695e+001,-1.94231409333645e+001

5.34456268434150e+005,-2.31425663105166e+001,-1.96838373556814e+001

5.41916999912011e+005,-2.31478427069661e+001,-1.99479838823100e+001

