Freq.,VOut,OutRef

1.00000000000000e+004,-1.67034290993791e+001,-1.82712728744249e-001

1.01395947979003e+004,-1.67034303152338e+001,-1.85263131037291e-001

1.02811382665607e+004,-1.67034315652329e+001,-1.87849128308071e-001

1.04246576084112e+004,-1.67034328503346e+001,-1.90471217131561e-001

1.05701804056138e+004,-1.67034341715233e+001,-1.93129901005684e-001

1.07177346253629e+004,-1.67034355298110e+001,-1.95825690440785e-001

1.08673486252606e+004,-1.67034369262385e+001,-1.98559103059827e-001

1.10190511587661e+004,-1.67034383618748e+001,-2.01330663698374e-001

1.11728713807222e+004,-1.67034398378201e+001,-2.04140904499171e-001

1.13288388529580e+004,-1.67034413552042e+001,-2.06990365019887e-001

1.14869835499703e+004,-1.67034429151890e+001,-2.09879592334287e-001

1.16473358646846e+004,-1.67034445189688e+001,-2.12809141133332e-001

1.18099266142953e+004,-1.67034461677715e+001,-2.15779573832670e-001

1.19747870461893e+004,-1.67034478628589e+001,-2.18791460682166e-001

1.21419488439505e+004,-1.67034496055284e+001,-2.21845379870460e-001

1.23114441334492e+004,-1.67034513971136e+001,-2.24941917636783e-001

1.24833054890161e+004,-1.67034532389851e+001,-2.28081668382782e-001

1.26575659397028e+004,-1.67034551325522e+001,-2.31265234785410e-001

1.28342589756290e+004,-1.67034570792631e+001,-2.34493227911014e-001

1.30134185544193e+004,-1.67034590806069e+001,-2.37766267331179e-001

1.31950791077289e+004,-1.67034611381140e+001,-2.41084981240819e-001

1.33792755478611e+004,-1.67034632533575e+001,-2.44450006579106e-001

1.35660432744767e+004,-1.67034654279542e+001,-2.47861989148123e-001

1.37554181813974e+004,-1.67034676635667e+001,-2.51321583734821e-001

1.39474366635040e+004,-1.67034699619032e+001,-2.54829454237765e-001

1.41421356237309e+004,-1.67034723247199e+001,-2.58386273793313e-001

1.43395524801583e+004,-1.67034747538221e+001,-2.61992724898505e-001

1.45397251732031e+004,-1.67034772510649e+001,-2.65649499546872e-001

1.47426921729110e+004,-1.67034798183558e+001,-2.69357299354342e-001

1.49484924863494e+004,-1.67034824576548e+001,-2.73116835695509e-001

1.51571656651040e+004,-1.67034851709769e+001,-2.76928829835193e-001

1.53687518128801e+004,-1.67034879603929e+001,-2.80794013068684e-001

1.55832915932100e+004,-1.67034908280316e+001,-2.84713126856263e-001

1.58008262372675e+004,-1.67034937760807e+001,-2.88686922966758e-001

1.60213975517924e+004,-1.67034968067889e+001,-2.92716163615823e-001

1.62450479271247e+004,-1.67034999224677e+001,-2.96801621613203e-001

1.64718203453514e+004,-1.67035031254923e+001,-3.00944080507666e-001

1.67017583885674e+004,-1.67035064183044e+001,-3.05144334733623e-001

1.69349062472505e+004,-1.67035098034133e+001,-3.09403189763430e-001

1.71713087287550e+004,-1.67035132833981e+001,-3.13721462256630e-001

1.74110112659224e+004,-1.67035168609096e+001,-3.18099980213730e-001

1.76540599258131e+004,-1.67035205386720e+001,-3.22539583134631e-001

1.79005014185594e+004,-1.67035243194851e+001,-3.27041122175524e-001

1.81503831063432e+004,-1.67035282062265e+001,-3.31605460307547e-001

1.84037530124975e+004,-1.67035322018535e+001,-3.36233472480661e-001

1.86606598307361e+004,-1.67035363094055e+001,-3.40926045786398e-001

1.89211529345119e+004,-1.67035405320058e+001,-3.45684079626177e-001

1.91852823865052e+004,-1.67035448728644e+001,-3.50508485879324e-001

1.94530989482457e+004,-1.67035493352803e+001,-3.55400189072832e-001

1.97246540898671e+004,-1.67035539226434e+001,-3.60360126557043e-001

1.99999999999999e+004,-1.67035586384378e+001,-3.65389248677819e-001

2.02791895958005e+004,-1.67035634862435e+001,-3.70488518958140e-001

2.05622765331213e+004,-1.67035684697395e+001,-3.75658914275076e-001

2.08493152168224e+004,-1.67035735927069e+001,-3.80901425042437e-001

2.11403608112276e+004,-1.67035788590305e+001,-3.86217055398176e-001

2.14354692507258e+004,-1.67035842727025e+001,-3.91606823390064e-001

2.17346972505211e+004,-1.67035898378255e+001,-3.97071761163930e-001

2.20381023175322e+004,-1.67035955586147e+001,-4.02612915158273e-001

2.23457427614443e+004,-1.67036014394015e+001,-4.08231346297963e-001

2.26576777059159e+004,-1.67036074846370e+001,-4.13928130190504e-001

2.29739670999406e+004,-1.67036136988939e+001,-4.19704357327685e-001

2.32946717293690e+004,-1.67036200868716e+001,-4.25561133284897e-001

2.36198532285905e+004,-1.67036266533978e+001,-4.31499578929801e-001

2.39495740923785e+004,-1.67036334034332e+001,-4.37520830627105e-001

2.42838976879009e+004,-1.67036403420746e+001,-4.43626040448172e-001

2.46228882668982e+004,-1.67036474745583e+001,-4.49816376387614e-001

2.49666109780322e+004,-1.67036548062643e+001,-4.56093022574668e-001

2.53151318794055e+004,-1.67036623427200e+001,-4.62457179493068e-001

2.56685179512580e+004,-1.67036700896038e+001,-4.68910064203481e-001

2.60268371088386e+004,-1.67036780527495e+001,-4.75452910564255e-001

2.63901582154578e+004,-1.67036862381502e+001,-4.82086969461990e-001

2.67585510957221e+004,-1.67036946519627e+001,-4.88813509036470e-001

2.71320865489533e+004,-1.67037033005114e+001,-4.95633814918189e-001

2.75108363627948e+004,-1.67037121902936e+001,-5.02549190458436e-001

2.78948733270080e+004,-1.67037213279829e+001,-5.09560956971131e-001

2.82842712474618e+004,-1.67037307204348e+001,-5.16670453973445e-001

2.86791049603164e+004,-1.67037403746909e+001,-5.23879039427018e-001

2.90794503464061e+004,-1.67037502979841e+001,-5.31188089990333e-001

2.94853843458219e+004,-1.67037604977434e+001,-5.38599001263328e-001

2.98969849726987e+004,-1.67037709815990e+001,-5.46113188044627e-001

3.03143313302078e+004,-1.67037817573878e+001,-5.53732084585649e-001

3.07375036257601e+004,-1.67037928331583e+001,-5.61457144851491e-001

3.11665831864199e+004,-1.67038042171767e+001,-5.69289842781800e-001

3.16016524745350e+004,-1.67038159179318e+001,-5.77231672558492e-001

3.20427951035848e+004,-1.67038279441414e+001,-5.85284148872570e-001

3.24900958542493e+004,-1.67038403047576e+001,-5.93448807198790e-001

3.29436406907028e+004,-1.67038530089732e+001,-6.01727204068507e-001

3.34035167771346e+004,-1.67038660662280e+001,-6.10120917348801e-001

3.38698124945009e+004,-1.67038794862145e+001,-6.18631546525969e-001

3.43426174575100e+004,-1.67038932788846e+001,-6.27260712989668e-001

3.48220225318448e+004,-1.67039074544565e+001,-6.36010060320245e-001

3.53081198516260e+004,-1.67039220234209e+001,-6.44881254583206e-001

3.58010028371187e+004,-1.67039369965481e+001,-6.53875984622356e-001

3.63007662126863e+004,-1.67039523848952e+001,-6.62995962358987e-001

3.68075060249948e+004,-1.67039681998127e+001,-6.72242923095714e-001

3.73213196614721e+004,-1.67039844529525e+001,-6.81618625818423e-001

3.78423058690237e+004,-1.67040011562749e+001,-6.91124853508339e-001

3.83705647730104e+004,-1.67040183220562e+001,-7.00763413454274e-001

3.89061978964912e+004,-1.67040359628969e+001,-7.10536137565915e-001

3.94493081797342e+004,-1.67040540917293e+001,-7.20444882696820e-001

3.99999999999998e+004,-1.67040727218253e+001,-7.30491530965090e-001

4.05583791916010e+004,-1.67040918668056e+001,-7.40677990080467e-001

4.11245530662425e+004,-1.67041115406471e+001,-7.51006193674977e-001

4.16986304336447e+004,-1.67041317576920e+001,-7.61478101636242e-001

4.22807216224550e+004,-1.67041525326566e+001,-7.72095700444948e-001

4.28709385014515e+004,-1.67041738806399e+001,-7.82861003514966e-001

4.34693945010421e+004,-1.67041958171330e+001,-7.93776051539302e-001

4.40762046350642e+004,-1.67042183580280e+001,-8.04842912837702e-001

4.46914855228886e+004,-1.67042415196277e+001,-8.16063683707448e-001

4.53153554118317e+004,-1.67042653186548e+001,-8.27440488781147e-001

4.59479341998812e+004,-1.67042897722622e+001,-8.38975481383804e-001

4.65893434587380e+004,-1.67043148980425e+001,-8.50670843895545e-001

4.72397064571810e+004,-1.67043407140378e+001,-8.62528788121306e-001

4.78991481847569e+004,-1.67043672387506e+001,-8.74551555656246e-001

4.85677953758016e+004,-1.67043944911535e+001,-8.86741418264923e-001

4.92457765337964e+004,-1.67044224907001e+001,-8.99100678254680e-001

4.99332219560642e+004,-1.67044512573358e+001,-9.11631668858728e-001

5.06302637588109e+004,-1.67044808115081e+001,-9.24336754622629e-001

5.13370359025159e+004,-1.67045111741780e+001,-9.37218331791306e-001

5.20536742176771e+004,-1.67045423668313e+001,-9.50278828701306e-001

5.27803164309155e+004,-1.67045744114891e+001,-9.63520706179810e-001

5.35171021914442e+004,-1.67046073307202e+001,-9.76946457941636e-001

5.42641730979066e+004,-1.67046411476516e+001,-9.90558610995729e-001

5.50216727255895e+004,-1.67046758859812e+001,-1.00435972605047e+000

5.57897466540159e+004,-1.67047115699886e+001,-1.01835239792688e+000

5.65685424949235e+004,-1.67047482245478e+001,-1.03253925597311e+000

5.73582099206328e+004,-1.67047858751384e+001,-1.04692296448308e+000

5.81589006928121e+004,-1.67048245478585e+001,-1.06150622311915e+000

5.89707686916437e+004,-1.67048642694361e+001,-1.07629176734003e+000

5.97939699453972e+004,-1.67049050672421e+001,-1.09128236882773e+000

6.06286626604156e+004,-1.67049469693020e+001,-1.10648083592590e+000

6.14750072515201e+004,-1.67049900043085e+001,-1.12189001407327e+000

6.23331663728396e+004,-1.67050342016340e+001,-1.13751278624896e+000

6.32033049490698e+004,-1.67050795913432e+001,-1.15335207341476e+000

6.40855902071694e+004,-1.67051262042048e+001,-1.16941083496709e+000

6.49801917084985e+004,-1.67051740717051e+001,-1.18569206918719e+000

6.58872813814055e+004,-1.67052232260595e+001,-1.20219881370021e+000

6.68070335542691e+004,-1.67052737002255e+001,-1.21893414593453e+000

6.77396249890018e+004,-1.67053255279151e+001,-1.23590118358646e+000

6.86852349150199e+004,-1.67053787436065e+001,-1.25310308508915e+000

6.96440450636895e+004,-1.67054333825571e+001,-1.27054305008448e+000

7.06162397032520e+004,-1.67054894808152e+001,-1.28822431989804e+000

7.16020056742374e+004,-1.67055470752322e+001,-1.30615017802139e+000

7.26015324253724e+004,-1.67056062034743e+001,-1.32432395059442e+000

7.36150120499896e+004,-1.67056669040343e+001,-1.34274900689419e+000

7.46426393229441e+004,-1.67057292162430e+001,-1.36142875982635e+000

7.56846117380472e+004,-1.67057931802807e+001,-1.38036666642168e+000

7.67411295460207e+004,-1.67058588371878e+001,-1.39956622833716e+000

7.78123957929823e+004,-1.67059262288758e+001,-1.41903099235902e+000

7.88986163594682e+004,-1.67059953981374e+001,-1.43876455091264e+000

7.99999999999995e+004,-1.67060663886572e+001,-1.45877054257523e+000

8.11167583832018e+004,-1.67061392450203e+001,-1.47905265259359e+000

8.22491061324848e+004,-1.67062140127226e+001,-1.49961461340677e+000

8.33972608672892e+004,-1.67062907381790e+001,-1.52046020517074e+000

8.45614432449099e+004,-1.67063694687315e+001,-1.54159325629335e+000

8.57418770029029e+004,-1.67064502526577e+001,-1.56301764396667e+000

8.69387890020841e+004,-1.67065331391769e+001,-1.58473729471190e+000

8.81524092701283e+004,-1.67066181784577e+001,-1.60675618492331e+000

8.93829710457770e+004,-1.67067054216230e+001,-1.62907834142191e+000

9.06307108236633e+004,-1.67067949207558e+001,-1.65170784201076e+000

9.18958683997622e+004,-1.67068867289031e+001,-1.67464881604082e+000

9.31786869174758e+004,-1.67069809000799e+001,-1.69790544497651e+000

9.44794129143618e+004,-1.67070774892713e+001,-1.72148196297400e+000

9.57982963695136e+004,-1.67071765524350e+001,-1.74538265746081e+000

9.71355907516031e+004,-1.67072781465018e+001,-1.76961186972429e+000

9.84915530675926e+004,-1.67073823293753e+001,-1.79417399550750e+000

9.98664439121282e+004,-1.67074891599306e+001,-1.81907348561090e+000

1.01260527517622e+005,-1.67075986980123e+001,-1.84431484650264e+000

1.02674071805032e+005,-1.67077110044306e+001,-1.86990264093746e+000

1.04107348435354e+005,-1.67078261409562e+001,-1.89584148858194e+000

1.05560632861831e+005,-1.67079441703147e+001,-1.92213606665112e+000

1.07034204382888e+005,-1.67080651561786e+001,-1.94879111055221e+000

1.08528346195813e+005,-1.67081891631587e+001,-1.97581141453974e+000

1.10043345451179e+005,-1.67083162567933e+001,-2.00320183238016e+000

1.11579493308032e+005,-1.67084465035364e+001,-2.03096727802729e+000

1.13137084989847e+005,-1.67085799707444e+001,-2.05911272630952e+000

1.14716419841265e+005,-1.67087167266602e+001,-2.08764321362863e+000

1.16317801385624e+005,-1.67088568403966e+001,-2.11656383867248e+000

1.17941537383287e+005,-1.67090003819177e+001,-2.14587976313947e+000

1.19587939890794e+005,-1.67091474220179e+001,-2.17559621247820e+000

1.21257325320831e+005,-1.67092980322997e+001,-2.20571847664252e+000

1.22950014503040e+005,-1.67094522851494e+001,-2.23625191086075e+000

1.24666332745679e+005,-1.67096102537102e+001,-2.26720193642314e+000

1.26406609898139e+005,-1.67097720118545e+001,-2.29857404148591e+000

1.28171180414339e+005,-1.67099376341528e+001,-2.33037378189468e+000

1.29960383416997e+005,-1.67101071958415e+001,-2.36260678202621e+000

1.31774562762811e+005,-1.67102807727878e+001,-2.39527873565135e+000

1.33614067108538e+005,-1.67104584414531e+001,-2.42839540682045e+000

1.35479249978003e+005,-1.67106402788540e+001,-2.46196263076924e+000

1.37370469830040e+005,-1.67108263625207e+001,-2.49598631485098e+000

1.39288090127379e+005,-1.67110167704536e+001,-2.53047243949321e+000

1.41232479406504e+005,-1.67112115810777e+001,-2.56542705917879e+000

1.43204011348474e+005,-1.67114108731944e+001,-2.60085630345868e+000

1.45203064850745e+005,-1.67116147259317e+001,-2.63676637798903e+000

1.47230024099979e+005,-1.67118232186916e+001,-2.67316356560374e+000

1.49285278645888e+005,-1.67120364310959e+001,-2.71005422741377e+000

1.51369223476094e+005,-1.67122544429292e+001,-2.74744480394468e+000

1.53482259092041e+005,-1.67124773340810e+001,-2.78534181630420e+000

1.55624791585964e+005,-1.67127051844843e+001,-2.82375186739095e+000

1.57797232718936e+005,-1.67129380740538e+001,-2.86268164313693e+000

1.59999999999999e+005,-1.67131760826210e+001,-2.90213791379182e+000

1.62233516766403e+005,-1.67134192898688e+001,-2.94212753524777e+000

1.64498212264969e+005,-1.67136677752633e+001,-2.98265745040685e+000

1.66794521734578e+005,-1.67139216179851e+001,-3.02373469059172e+000

1.69122886489819e+005,-1.67141808968587e+001,-3.06536637700436e+000

1.71483754005805e+005,-1.67144456902812e+001,-3.10755972223044e+000

1.73877578004168e+005,-1.67147160761495e+001,-3.15032203179309e+000

1.76304818540256e+005,-1.67149921317874e+001,-3.19366070575767e+000

1.78765942091554e+005,-1.67152739338714e+001,-3.23758324038912e+000

1.81261421647326e+005,-1.67155615583566e+001,-3.28209722986202e+000

1.83791736799524e+005,-1.67158550804030e+001,-3.32721036802675e+000

1.86357373834951e+005,-1.67161545743006e+001,-3.37293045023184e+000

1.88958825828723e+005,-1.67164601133965e+001,-3.41926537520508e+000

1.91596592739027e+005,-1.67167717700219e+001,-3.46622314699267e+000

1.94271181503206e+005,-1.67170896154202e+001,-3.51381187696078e+000

1.96983106135185e+005,-1.67174137196771e+001,-3.56203978585730e+000

1.99732887824256e+005,-1.67177441516517e+001,-3.61091520593779e+000

2.02521055035243e+005,-1.67180809789107e+001,-3.66044658315333e+000

2.05348143610063e+005,-1.67184242676641e+001,-3.71064247940628e+000

2.08214696870707e+005,-1.67187740827044e+001,-3.76151157486760e+000

2.11121265723661e+005,-1.67191304873495e+001,-3.81306267036271e+000

2.14068408765776e+005,-1.67194935433887e+001,-3.86530468982358e+000

2.17056692391625e+005,-1.67198633110329e+001,-3.91824668280611e+000

2.20086690902357e+005,-1.67202398488704e+001,-3.97189782707578e+000

2.23158986616063e+005,-1.67206232138269e+001,-4.02626743125951e+000

2.26274169979693e+005,-1.67210134611311e+001,-4.08136493756409e+000

2.29432839682530e+005,-1.67214106442871e+001,-4.13719992456110e+000

2.32635602771247e+005,-1.67218148150530e+001,-4.19378211003635e+000

2.35883074766574e+005,-1.67222260234257e+001,-4.25112135390603e+000

2.39175879781588e+005,-1.67226443176347e+001,-4.30922766119457e+000

2.42514650641661e+005,-1.67230697441430e+001,-4.36811118507592e+000

2.45900029006080e+005,-1.67235023476561e+001,-4.42778222997633e+000

2.49332665491357e+005,-1.67239421711408e+001,-4.48825125473601e+000

2.52813219796278e+005,-1.67243892558526e+001,-4.54952887582802e+000

2.56342360828676e+005,-1.67248436413739e+001,-4.61162587063354e+000

2.59920766833993e+005,-1.67253053656606e+001,-4.67455318077025e+000

2.63549125525621e+005,-1.67257744651017e+001,-4.73832191547028e+000

2.67228134217075e+005,-1.67262509745879e+001,-4.80294335500799e+000

2.70958499956006e+005,-1.67267349275928e+001,-4.86842895417087e+000

2.74740939660078e+005,-1.67272263562651e+001,-4.93479034577472e+000

2.78576180254757e+005,-1.67277252915335e+001,-5.00203934421544e+000

2.82464958813007e+005,-1.67282317632234e+001,-5.07018794905778e+000

2.86408022696948e+005,-1.67287458001860e+001,-5.13924834865539e+000

2.90406129701488e+005,-1.67292674304411e+001,-5.20923292379836e+000

2.94460048199957e+005,-1.67297966813316e+001,-5.28015425138589e+000

2.98570557291775e+005,-1.67303335796919e+001,-5.35202510811926e+000

3.02738446952187e+005,-1.67308781520293e+001,-5.42485847420990e+000

3.06964518184081e+005,-1.67314304247185e+001,-5.49866753710136e+000

3.11249583171928e+005,-1.67319904242092e+001,-5.57346569519856e+000

3.15594465437872e+005,-1.67325581772470e+001,-5.64926656160093e+000

3.19999999999997e+005,-1.67331337111075e+001,-5.72608396783543e+000

3.24467033532806e+005,-1.67337170538434e+001,-5.80393196758580e+000

3.28996424529938e+005,-1.67343082345437e+001,-5.88282484041270e+000

3.33589043469155e+005,-1.67349072836064e+001,-5.96277709546289e+000

3.38245772979638e+005,-1.67355142330229e+001,-6.04380347516066e+000

3.42967508011610e+005,-1.67361291166745e+001,-6.12591895888048e+000

3.47755156008335e+005,-1.67367519706406e+001,-6.20913876659619e+000

3.52609637080511e+005,-1.67373828335181e+001,-6.29347836250264e+000

3.57531884183106e+005,-1.67380217467512e+001,-6.37895345860820e+000

3.62522843294651e+005,-1.67386687549726e+001,-6.46558001829315e+000

3.67583473599047e+005,-1.67393239063529e+001,-6.55337425983329e+000

3.72714747669902e+005,-1.67399872529611e+001,-6.64235265988478e+000

3.77917651657445e+005,-1.67406588511320e+001,-6.73253195692826e+000

3.83193185478053e+005,-1.67413387618435e+001,-6.82392915467096e+000

3.88542363006410e+005,-1.67420270510999e+001,-6.91656152540445e+000

3.93966212270369e+005,-1.67427237903231e+001,-7.01044661331785e+000

3.99465775648511e+005,-1.67434290567499e+001,-7.10560223776324e+000

4.05042110070485e+005,-1.67441429338343e+001,-7.20204649647559e+000

4.10696287220124e+005,-1.67448655116555e+001,-7.29979776874491e+000

4.16429393741414e+005,-1.67455968873302e+001,-7.39887471854163e+000

4.22242531447321e+005,-1.67463371654279e+001,-7.49929629759371e+000

4.28136817531551e+005,-1.67470864583900e+001,-7.60108174842010e+000

4.34113384783250e+005,-1.67478448869506e+001,-7.70425060731746e+000

4.40173381804713e+005,-1.67486125805602e+001,-7.80882270730322e+000

4.46317973232124e+005,-1.67493896778089e+001,-7.91481818101853e+000

4.52548339959385e+005,-1.67501763268524e+001,-8.02225746358874e+000

4.58865679365059e+005,-1.67509726858358e+001,-8.13116129544863e+000

4.65271205542494e+005,-1.67517789233191e+001,-8.24155072513055e+000

4.71766149533147e+005,-1.67525952187004e+001,-8.35344711202189e+000

4.78351759563174e+005,-1.67534217626386e+001,-8.46687212909226e+000

4.85029301283321e+005,-1.67542587574741e+001,-8.58184776559531e+000

4.91800058012158e+005,-1.67551064176474e+001,-8.69839632974748e+000

4.98665330982714e+005,-1.67559649701154e+001,-8.81654045138797e+000

5.05626439592555e+005,-1.67568346547658e+001,-8.93630308462367e+000

5.12684721657352e+005,-1.67577157248274e+001,-9.05770751046208e+000

5.19841533667984e+005,-1.67586084472786e+001,-9.18077733943746e+000

5.27098251051240e+005,-1.67595131032522e+001,-9.30553651423280e+000

5.34456268434150e+005,-1.67604299884374e+001,-9.43200931230268e+000

5.41916999912011e+005,-1.67613594134785e+001,-9.56022034849994e+000

