Freq.,VOut,OutRef

1.00000000000000e+004,-5.72743256313728e+000,-3.49938066463477e-002

1.01395947979003e+004,-5.72743295373631e+000,-3.54822346582084e-002

1.02811382665607e+004,-5.72743335530177e+000,-3.59774780142652e-002

1.04246576084112e+004,-5.72743376814141e+000,-3.64796317299326e-002

1.05701804056138e+004,-5.72743419257052e+000,-3.69887921497942e-002

1.07177346253629e+004,-5.72743462891499e+000,-3.75050569449419e-002

1.08673486252606e+004,-5.72743507750785e+000,-3.80285251581503e-002

1.10190511587661e+004,-5.72743553869301e+000,-3.85592971980097e-002

1.11728713807222e+004,-5.72743601282314e+000,-3.90974748755031e-002

1.13288388529580e+004,-5.72743650026086e+000,-3.96431614139131e-002

1.14869835499703e+004,-5.72743700137928e+000,-4.01964614703452e-002

1.16473358646846e+004,-5.72743751656163e+000,-4.07574811570733e-002

1.18099266142953e+004,-5.72743804620179e+000,-4.13263280607521e-002

1.19747870461893e+004,-5.72743859070497e+000,-4.19031112608760e-002

1.21419488439505e+004,-5.72743915048763e+000,-4.24879413516221e-002

1.23114441334492e+004,-5.72743972597706e+000,-4.30809304681302e-002

1.24833054890161e+004,-5.72744031761396e+000,-4.36821922932789e-002

1.26575659397028e+004,-5.72744092584939e+000,-4.42918421000731e-002

1.28342589756290e+004,-5.72744155114915e+000,-4.49099967478270e-002

1.30134185544193e+004,-5.72744219399032e+000,-4.55367747283232e-002

1.31950791077289e+004,-5.72744285486376e+000,-4.61722961750024e-002

1.33792755478611e+004,-5.72744353427461e+000,-4.68166828830222e-002

1.35660432744767e+004,-5.72744423274157e+000,-4.74700583412995e-002

1.37554181813974e+004,-5.72744495079753e+000,-4.81325477524010e-002

1.39474366635040e+004,-5.72744568899019e+000,-4.88042780550570e-002

1.41421356237309e+004,-5.72744644788384e+000,-4.94853779393033e-002

1.43395524801583e+004,-5.72744722805668e+000,-5.01759778903042e-002

1.45397251732031e+004,-5.72744803010371e+000,-5.08762101968866e-002

1.47426921729110e+004,-5.72744885463726e+000,-5.15862089756654e-002

1.49484924863494e+004,-5.72744970228502e+000,-5.23061102118718e-002

1.51571656651040e+004,-5.72745057369352e+000,-5.30360517645874e-002

1.53687518128801e+004,-5.72745146952674e+000,-5.37761734057911e-002

1.55832915932100e+004,-5.72745239046733e+000,-5.45266168396657e-002

1.58008262372675e+004,-5.72745333721647e+000,-5.52875257353354e-002

1.60213975517924e+004,-5.72745431049524e+000,-5.60590457462478e-002

1.62450479271247e+004,-5.72745531104425e+000,-5.68413245438526e-002

1.64718203453514e+004,-5.72745633962494e+000,-5.76345118399274e-002

1.67017583885674e+004,-5.72745739702036e+000,-5.84387594128461e-002

1.69349062472505e+004,-5.72745848403414e+000,-5.92542211463005e-002

1.71713087287550e+004,-5.72745960149286e+000,-6.00810530455280e-002

1.74110112659224e+004,-5.72746075024626e+000,-6.09194132688142e-002

1.76540599258131e+004,-5.72746193116697e+000,-6.17694621638426e-002

1.79005014185594e+004,-5.72746314515223e+000,-6.26313622875103e-002

1.81503831063432e+004,-5.72746439312366e+000,-6.35052784442608e-002

1.84037530124975e+004,-5.72746567602855e+000,-6.43913777103024e-002

1.86606598307361e+004,-5.72746699484068e+000,-6.52898294646331e-002

1.89211529345119e+004,-5.72746835056012e+000,-6.62008054254798e-002

1.91852823865052e+004,-5.72746974421524e+000,-6.71244796732450e-002

1.94530989482457e+004,-5.72747117686192e+000,-6.80610286923298e-002

1.97246540898671e+004,-5.72747264958588e+000,-6.90106313935475e-002

1.99999999999999e+004,-5.72747416350252e+000,-6.99734691523777e-002

2.02791895958005e+004,-5.72747571975808e+000,-7.09497258397485e-002

2.05622765331213e+004,-5.72747731952975e+000,-7.19395878595667e-002

2.08493152168224e+004,-5.72747896402768e+000,-7.29432441765882e-002

2.11403608112276e+004,-5.72748065449522e+000,-7.39608863523291e-002

2.14354692507258e+004,-5.72748239220995e+000,-7.49927085806015e-002

2.17346972505211e+004,-5.72748417848408e+000,-7.60389077249754e-002

2.20381023175322e+004,-5.72748601466604e+000,-7.70996833503612e-002

2.23457427614443e+004,-5.72748790214174e+000,-7.81752377560880e-002

2.26576777059159e+004,-5.72748984233418e+000,-7.92657760224291e-002

2.29739670999406e+004,-5.72749183670583e+000,-8.03715060375435e-002

2.32946717293690e+004,-5.72749388675903e+000,-8.14926385383174e-002

2.36198532285905e+004,-5.72749599403729e+000,-8.26293871473162e-002

2.39495740923785e+004,-5.72749816012608e+000,-8.37819684122330e-002

2.42838976879009e+004,-5.72750038665423e+000,-8.49506018418824e-002

2.46228882668982e+004,-5.72750267529513e+000,-8.61355099460976e-002

2.49666109780322e+004,-5.72750502776764e+000,-8.73369182750089e-002

2.53151318794055e+004,-5.72750744583696e+000,-8.85550554620426e-002

2.56685179512580e+004,-5.72750993131712e+000,-8.97901532556265e-002

2.60268371088386e+004,-5.72751248607062e+000,-9.10424465700227e-002

2.63901582154578e+004,-5.72751511201097e+000,-9.23121735184287e-002

2.67585510957221e+004,-5.72751781110339e+000,-9.35995754585759e-002

2.71320865489533e+004,-5.72752058536668e+000,-9.49048970312908e-002

2.75108363627948e+004,-5.72752343687342e+000,-9.62283862104853e-002

2.78948733270080e+004,-5.72752636775298e+000,-9.75702943358621e-002

2.82842712474618e+004,-5.72752938019168e+000,-9.89308761639397e-002

2.86791049603164e+004,-5.72753247643522e+000,-1.00310389906571e-001

2.90794503464061e+004,-5.72753565878964e+000,-1.01709097278135e-001

2.94853843458219e+004,-5.72753892962233e+000,-1.03127263544005e-001

2.98969849726987e+004,-5.72754229136532e+000,-1.04565157554092e-001

3.03143313302078e+004,-5.72754574651530e+000,-1.06023051799974e-001

3.07375036257601e+004,-5.72754929763543e+000,-1.07501222458489e-001

3.11665831864199e+004,-5.72755294735829e+000,-1.08999949431048e-001

3.16016524745350e+004,-5.72755669838629e+000,-1.10519516398882e-001

3.20427951035848e+004,-5.72756055349387e+000,-1.12060210867680e-001

3.24900958542493e+004,-5.72756451552921e+000,-1.13622324216006e-001

3.29436406907028e+004,-5.72756858741684e+000,-1.15206151738392e-001

3.34035167771346e+004,-5.72757277215798e+000,-1.16811992704765e-001

3.38698124945009e+004,-5.72757707283421e+000,-1.18440150397750e-001

3.43426174575100e+004,-5.72758149260791e+000,-1.20090932172047e-001

3.48220225318448e+004,-5.72758603472571e+000,-1.21764649495866e-001

3.53081198516260e+004,-5.72759070251908e+000,-1.23461618010216e-001

3.58010028371187e+004,-5.72759549940728e+000,-1.25182157574476e-001

3.63007662126863e+004,-5.72760042889972e+000,-1.26926592316351e-001

3.68075060249948e+004,-5.72760549459714e+000,-1.28695250689516e-001

3.73213196614721e+004,-5.72761070019525e+000,-1.30488465517912e-001

3.78423058690237e+004,-5.72761604948509e+000,-1.32306574058757e-001

3.83705647730104e+004,-5.72762154635737e+000,-1.34149918044089e-001

3.89061978964912e+004,-5.72762719480322e+000,-1.36018843742919e-001

3.94493081797342e+004,-5.72763299891743e+000,-1.37913702011076e-001

3.99999999999998e+004,-5.72763896290039e+000,-1.39834848347289e-001

4.05583791916010e+004,-5.72764509106108e+000,-1.41782642944643e-001

4.11245530662425e+004,-5.72765138781914e+000,-1.43757450749097e-001

4.16986304336447e+004,-5.72765785770746e+000,-1.45759641513642e-001

4.22807216224550e+004,-5.72766450537485e+000,-1.47789589854093e-001

4.28709385014515e+004,-5.72767133558914e+000,-1.49847675301283e-001

4.34693945010421e+004,-5.72767835323868e+000,-1.51934282366310e-001

4.40762046350642e+004,-5.72768556333619e+000,-1.54049800588799e-001

4.46914855228886e+004,-5.72769297102126e+000,-1.56194624595666e-001

4.53153554118317e+004,-5.72770058156196e+000,-1.58369154166341e-001

4.59479341998812e+004,-5.72770840035992e+000,-1.60573794276209e-001

4.65893434587380e+004,-5.72771643295113e+000,-1.62808955166685e-001

4.72397064571810e+004,-5.72772468500988e+000,-1.65075052397718e-001

4.78991481847569e+004,-5.72773316235116e+000,-1.67372506909328e-001

4.85677953758016e+004,-5.72774187093408e+000,-1.69701745077078e-001

4.92457765337964e+004,-5.72775081686449e+000,-1.72063198773467e-001

4.99332219560642e+004,-5.72776000639827e+000,-1.74457305425851e-001

5.06302637588109e+004,-5.72776944594442e+000,-1.76884508074851e-001

5.13370359025159e+004,-5.72777914206723e+000,-1.79345255439902e-001

5.20536742176771e+004,-5.72778910149090e+000,-1.81840001968790e-001

5.27803164309155e+004,-5.72779933110132e+000,-1.84369207907283e-001

5.35171021914442e+004,-5.72780983794982e+000,-1.86933339353443e-001

5.42641730979066e+004,-5.72782062925637e+000,-1.89532868318801e-001

5.50216727255895e+004,-5.72783171241188e+000,-1.92168272792851e-001

5.57897466540159e+004,-5.72784309498274e+000,-1.94840036795339e-001

5.65685424949235e+004,-5.72785478471262e+000,-1.97548650445114e-001

5.73582099206328e+004,-5.72786678952665e+000,-2.00294610014117e-001

5.81589006928121e+004,-5.72787911753377e+000,-2.03078417992346e-001

5.89707686916437e+004,-5.72789177703032e+000,-2.05900583146544e-001

5.97939699453972e+004,-5.72790477650317e+000,-2.08761620580129e-001

6.06286626604156e+004,-5.72791812463246e+000,-2.11662051795219e-001

6.14750072515201e+004,-5.72793183029517e+000,-2.14602404751549e-001

6.23331663728396e+004,-5.72794590256733e+000,-2.17583213930678e-001

6.32033049490698e+004,-5.72796035072813e+000,-2.20605020390088e-001

6.40855902071694e+004,-5.72797518426216e+000,-2.23668371827337e-001

6.49801917084985e+004,-5.72799041286189e+000,-2.26773822643589e-001

6.58872813814055e+004,-5.72800604643189e+000,-2.29921933994103e-001

6.68070335542691e+004,-5.72802209509008e+000,-2.33113273858403e-001

6.77396249890018e+004,-5.72803856917142e+000,-2.36348417092833e-001

6.86852349150199e+004,-5.72805547922982e+000,-2.39627945494959e-001

6.96440450636895e+004,-5.72807283604144e+000,-2.42952447858318e-001

7.06162397032520e+004,-5.72809065060613e+000,-2.46322520035958e-001

7.16020056742374e+004,-5.72810893415077e+000,-2.49738764994518e-001

7.26015324253724e+004,-5.72812769813033e+000,-2.53201792878720e-001

7.36150120499896e+004,-5.72814695423073e+000,-2.56712221064709e-001

7.46426393229441e+004,-5.72816671437005e+000,-2.60270674222186e-001

7.56846117380472e+004,-5.72818699070090e+000,-2.63877784368287e-001

7.67411295460207e+004,-5.72820779561142e+000,-2.67534190928530e-001

7.78123957929823e+004,-5.72822914172670e+000,-2.71240540793045e-001

7.88986163594682e+004,-5.72825104191015e+000,-2.74997488372855e-001

7.99999999999995e+004,-5.72827350926384e+000,-2.78805695660069e-001

8.11167583832018e+004,-5.72829655712989e+000,-2.82665832279152e-001

8.22491061324848e+004,-5.72832019909036e+000,-2.86578575547549e-001

8.33972608672892e+004,-5.72834444896758e+000,-2.90544610529830e-001

8.45614432449099e+004,-5.72836932082362e+000,-2.94564630096365e-001

8.57418770029029e+004,-5.72839482896059e+000,-2.98639334974224e-001

8.69387890020841e+004,-5.72842098791913e+000,-3.02769433807186e-001

8.81524092701283e+004,-5.72844781247745e+000,-3.06955643209487e-001

8.93829710457770e+004,-5.72847531765022e+000,-3.11198687819989e-001

9.06307108236633e+004,-5.72850351868615e+000,-3.15499300359383e-001

9.18958683997622e+004,-5.72853243106566e+000,-3.19858221686071e-001

9.31786869174758e+004,-5.72856207049883e+000,-3.24276200847879e-001

9.44794129143618e+004,-5.72859245292130e+000,-3.28753995141841e-001

9.57982963695136e+004,-5.72862359449131e+000,-3.33292370166606e-001

9.71355907516031e+004,-5.72865551158512e+000,-3.37892099879632e-001

9.84915530675926e+004,-5.72868822079230e+000,-3.42553966654359e-001

9.98664439121282e+004,-5.72872173891085e+000,-3.47278761334274e-001

1.01260527517622e+005,-5.72875608294080e+000,-3.52067283293049e-001

1.02674071805032e+005,-5.72879127007806e+000,-3.56920340490786e-001

1.04107348435354e+005,-5.72882731770738e+000,-3.61838749532685e-001

1.05560632861831e+005,-5.72886424339456e+000,-3.66823335728710e-001

1.07034204382888e+005,-5.72890206487777e+000,-3.71874933154858e-001

1.08528346195813e+005,-5.72894080005877e+000,-3.76994384714473e-001

1.10043345451179e+005,-5.72898046699261e+000,-3.82182542202230e-001

1.11579493308032e+005,-5.72902108387748e+000,-3.87440266366543e-001

1.13137084989847e+005,-5.72906266904252e+000,-3.92768426980673e-001

1.14716419841265e+005,-5.72910524093637e+000,-3.98167902905820e-001

1.16317801385624e+005,-5.72914881811324e+000,-4.03639582166424e-001

1.17941537383287e+005,-5.72919341921946e+000,-4.09184362021145e-001

1.19587939890794e+005,-5.72923906297797e+000,-4.14803149040216e-001

1.21257325320831e+005,-5.72928576817302e+000,-4.20496859182373e-001

1.22950014503040e+005,-5.72933355363303e+000,-4.26266417878625e-001

1.24666332745679e+005,-5.72938243821265e+000,-4.32112760118043e-001

1.26406609898139e+005,-5.72943244077431e+000,-4.38036830536363e-001

1.28171180414339e+005,-5.72948358016785e+000,-4.44039583511324e-001

1.29960383416997e+005,-5.72953587521022e+000,-4.50121983258813e-001

1.31774562762811e+005,-5.72958934466282e+000,-4.56285003939755e-001

1.33614067108538e+005,-5.72964400720914e+000,-4.62529629764688e-001

1.35479249978003e+005,-5.72969988142977e+000,-4.68856855113040e-001

1.37370469830040e+005,-5.72975698577791e+000,-4.75267684649531e-001

1.39288090127379e+005,-5.72981533855255e+000,-4.81763133453390e-001

1.41232479406504e+005,-5.72987495787087e+000,-4.88344227153016e-001

1.43204011348474e+005,-5.72993586163975e+000,-4.95012002067066e-001

1.45203064850745e+005,-5.72999806752589e+000,-5.01767505354541e-001

1.47230024099979e+005,-5.73006159292451e+000,-5.08611795175262e-001

1.49285278645888e+005,-5.73012645492798e+000,-5.15545940852794e-001

1.51369223476094e+005,-5.73019267029155e+000,-5.22571023058017e-001

1.53482259092041e+005,-5.73026025539999e+000,-5.29688133990663e-001

1.55624791585964e+005,-5.73032922623165e+000,-5.36898377579549e-001

1.57797232718936e+005,-5.73039959832160e+000,-5.44202869694819e-001

1.59999999999999e+005,-5.73047138672500e+000,-5.51602738362578e-001

1.62233516766403e+005,-5.73054460597747e+000,-5.59099124004740e-001

1.64498212264969e+005,-5.73061927005614e+000,-5.66693179682898e-001

1.66794521734578e+005,-5.73069539233886e+000,-5.74386071358365e-001

1.69122886489819e+005,-5.73077298556292e+000,-5.82178978167351e-001

1.71483754005805e+005,-5.73085206178286e+000,-5.90073092709148e-001

1.73877578004168e+005,-5.73093263232700e+000,-5.98069621353781e-001

1.76304818540256e+005,-5.73101470775429e+000,-6.06169784558442e-001

1.78765942091554e+005,-5.73109829780946e+000,-6.14374817208530e-001

1.81261421647326e+005,-5.73118341137861e+000,-6.22685968967787e-001

1.83791736799524e+005,-5.73127005644296e+000,-6.31104504656223e-001

1.86357373834951e+005,-5.73135824003394e+000,-6.39631704634053e-001

1.88958825828723e+005,-5.73144796818670e+000,-6.48268865214561e-001

1.91596592739027e+005,-5.73153924589361e+000,-6.57017299091553e-001

1.94271181503206e+005,-5.73163207705865e+000,-6.65878335784934e-001

1.96983106135185e+005,-5.73172646445043e+000,-6.74853322112042e-001

1.99732887824256e+005,-5.73182240965670e+000,-6.83943622671990e-001

2.02521055035243e+005,-5.73191991303792e+000,-6.93150620358580e-001

2.05348143610063e+005,-5.73201897368281e+000,-7.02475716886563e-001

2.08214696870707e+005,-5.73211958936288e+000,-7.11920333346255e-001

2.11121265723661e+005,-5.73222175648902e+000,-7.21485910772857e-001

2.14068408765776e+005,-5.73232547006785e+000,-7.31173910745602e-001

2.17056692391625e+005,-5.73243072366036e+000,-7.40985815999043e-001

2.20086690902357e+005,-5.73253750934046e+000,-7.50923131065269e-001

2.23158986616063e+005,-5.73264581765609e+000,-7.60987382930084e-001

2.26274169979693e+005,-5.73275563759088e+000,-7.71180121717329e-001

2.29432839682530e+005,-5.73286695652835e+000,-7.81502921388687e-001

2.32635602771247e+005,-5.73297976021716e+000,-7.91957380470490e-001

2.35883074766574e+005,-5.73309403273945e+000,-8.02545122794723e-001

2.39175879781588e+005,-5.73320975648024e+000,-8.13267798266594e-001

2.42514650641661e+005,-5.73332691210021e+000,-8.24127083647474e-001

2.45900029006080e+005,-5.73344547851037e+000,-8.35124683359791e-001

2.49332665491357e+005,-5.73356543284973e+000,-8.46262330308942e-001

2.52813219796278e+005,-5.73368675046590e+000,-8.57541786723120e-001

2.56342360828676e+005,-5.73380940489858e+000,-8.68964845010137e-001

2.59920766833993e+005,-5.73393336786615e+000,-8.80533328631773e-001

2.63549125525621e+005,-5.73405860925578e+000,-8.92249092990683e-001

2.67228134217075e+005,-5.73418509711692e+000,-9.04114026332482e-001

2.70958499956006e+005,-5.73431279765811e+000,-9.16130050660484e-001

2.74740939660078e+005,-5.73444167524787e+000,-9.28299122662462e-001

2.78576180254757e+005,-5.73457169241903e+000,-9.40623234645478e-001

2.82464958813007e+005,-5.73470280987685e+000,-9.53104415483425e-001

2.86408022696948e+005,-5.73483498651156e+000,-9.65744731567358e-001

2.90406129701488e+005,-5.73496817941415e+000,-9.78546287766147e-001

2.94460048199957e+005,-5.73510234389693e+000,-9.91511228386671e-001

2.98570557291775e+005,-5.73523743351730e+000,-1.00464173814292e+000

3.02738446952187e+005,-5.73537340010640e+000,-1.01794004312086e+000

3.06964518184081e+005,-5.73551019380125e+000,-1.03140841174469e+000

3.11249583171928e+005,-5.73564776308100e+000,-1.04504915574414e+000

3.15594465437872e+005,-5.73578605480722e+000,-1.05886463111290e+000

3.19999999999997e+005,-5.73592501426815e+000,-1.07285723906548e+000

3.24467033532806e+005,-5.73606458522649e+000,-1.08702942698586e+000

3.28996424529938e+005,-5.73620470997117e+000,-1.10138368936861e+000

3.33589043469155e+005,-5.73634532937256e+000,-1.11592256874850e+000

3.38245772979638e+005,-5.73648638294111e+000,-1.13064865661987e+000

3.42967508011610e+005,-5.73662780888946e+000,-1.14556459434218e+000

3.47755156008335e+005,-5.73676954419739e+000,-1.16067307403136e+000

3.52609637080511e+005,-5.73691152467972e+000,-1.17597683943673e+000

3.57531884183106e+005,-5.73705368505723e+000,-1.19147868679802e+000

3.62522843294651e+005,-5.73719595902965e+000,-1.20718146568770e+000

3.67583473599047e+005,-5.73733827935106e+000,-1.22308807983194e+000

3.72714747669902e+005,-5.73748057790739e+000,-1.23920148791121e+000

3.77917651657445e+005,-5.73762278579541e+000,-1.25552470434218e+000

3.83193185478053e+005,-5.73776483340348e+000,-1.27206080003549e+000

3.88542363006410e+005,-5.73790665049276e+000,-1.28881290313361e+000

3.93966212270369e+005,-5.73804816628049e+000,-1.30578419972294e+000

3.99465775648511e+005,-5.73818930952262e+000,-1.32297793452645e+000

4.05042110070485e+005,-5.73833000859716e+000,-1.34039741157183e+000

4.10696287220124e+005,-5.73847019158809e+000,-1.35804599483336e+000

4.16429393741414e+005,-5.73860978636778e+000,-1.37592710885671e+000

4.22242531447321e+005,-5.73874872067958e+000,-1.39404423935618e+000

4.28136817531551e+005,-5.73888692221920e+000,-1.41240093379084e+000

4.34113384783250e+005,-5.73902431871494e+000,-1.43100080191897e+000

4.40173381804713e+005,-5.73916083800599e+000,-1.44984751633124e+000

4.46317973232124e+005,-5.73929640811927e+000,-1.46894481296411e+000

4.52548339959385e+005,-5.73943095734405e+000,-1.48829649159128e+000

4.58865679365059e+005,-5.73956441430406e+000,-1.50790641629993e+000

4.65271205542494e+005,-5.73969670802690e+000,-1.52777851594750e+000

4.71766149533147e+005,-5.73982776801094e+000,-1.54791678460199e+000

4.78351759563174e+005,-5.73995752428835e+000,-1.56832528197095e+000

4.85029301283321e+005,-5.74008590748529e+000,-1.58900813381329e+000

4.91800058012158e+005,-5.74021284887898e+000,-1.60996953234041e+000

4.98665330982714e+005,-5.74033828044942e+000,-1.63121373661130e+000

5.05626439592555e+005,-5.74046213492913e+000,-1.65274507291293e+000

5.12684721657352e+005,-5.74058434584736e+000,-1.67456793514014e+000

5.19841533667984e+005,-5.74070484757117e+000,-1.69668678516514e+000

5.27098251051240e+005,-5.74082357534088e+000,-1.71910615321105e+000

5.34456268434150e+005,-5.74094046530254e+000,-1.74183063821796e+000

5.41916999912011e+005,-5.74105545453489e+000,-1.76486490821394e+000

