Freq.,VOut,OutRef

1.00000000000000e+004,-1.74149467733603e+001,-1.86292755722142e-001

1.01395947979003e+004,-1.74149489647878e+001,-1.88892970975128e-001

1.02811382665607e+004,-1.74149512177513e+001,-1.91529469679299e-001

1.04246576084112e+004,-1.74149535339762e+001,-1.94202757731796e-001

1.05701804056138e+004,-1.74149559152370e+001,-1.96913348062954e-001

1.07177346253629e+004,-1.74149583633573e+001,-1.99661760740467e-001

1.08673486252606e+004,-1.74149608802116e+001,-2.02448523062883e-001

1.10190511587661e+004,-1.74149634677274e+001,-2.05274169658978e-001

1.11728713807222e+004,-1.74149661278855e+001,-2.08139242593507e-001

1.13288388529580e+004,-1.74149688627224e+001,-2.11044291464260e-001

1.14869835499703e+004,-1.74149716743314e+001,-2.13989873510088e-001

1.16473358646846e+004,-1.74149745648644e+001,-2.16976553713836e-001

1.18099266142953e+004,-1.74149775365332e+001,-2.20004904910010e-001

1.19747870461893e+004,-1.74149805916118e+001,-2.23075507891609e-001

1.21419488439505e+004,-1.74149837324372e+001,-2.26188951522718e-001

1.23114441334492e+004,-1.74149869614119e+001,-2.29345832845534e-001

1.24833054890161e+004,-1.74149902810059e+001,-2.32546757194121e-001

1.26575659397028e+004,-1.74149936937574e+001,-2.35792338311265e-001

1.28342589756290e+004,-1.74149972022759e+001,-2.39083198461085e-001

1.30134185544193e+004,-1.74150008092436e+001,-2.42419968545891e-001

1.31950791077289e+004,-1.74150045174175e+001,-2.45803288226277e-001

1.33792755478611e+004,-1.74150083296317e+001,-2.49233806039607e-001

1.35660432744767e+004,-1.74150122487990e+001,-2.52712179524533e-001

1.37554181813974e+004,-1.74150162779137e+001,-2.56239075341143e-001

1.39474366635040e+004,-1.74150204200534e+001,-2.59815169397811e-001

1.41421356237309e+004,-1.74150246783814e+001,-2.63441146978957e-001

1.43395524801583e+004,-1.74150290561496e+001,-2.67117702868441e-001

1.45397251732031e+004,-1.74150335566996e+001,-2.70845541486623e-001

1.47426921729110e+004,-1.74150381834669e+001,-2.74625377016713e-001

1.49484924863494e+004,-1.74150429399821e+001,-2.78457933539642e-001

1.51571656651040e+004,-1.74150478298744e+001,-2.82343945168850e-001

1.53687518128801e+004,-1.74150528568736e+001,-2.86284156190241e-001

1.55832915932100e+004,-1.74150580248137e+001,-2.90279321195716e-001

1.58008262372675e+004,-1.74150633376348e+001,-2.94330205227907e-001

1.60213975517924e+004,-1.74150687993870e+001,-2.98437583919574e-001

1.62450479271247e+004,-1.74150744142325e+001,-3.02602243641697e-001

1.64718203453514e+004,-1.74150801864496e+001,-3.06824981643078e-001

1.67017583885674e+004,-1.74150861204348e+001,-3.11106606205927e-001

1.69349062472505e+004,-1.74150922207071e+001,-3.15447936789780e-001

1.71713087287550e+004,-1.74150984919109e+001,-3.19849804183987e-001

1.74110112659224e+004,-1.74151049388191e+001,-3.24313050665643e-001

1.76540599258131e+004,-1.74151115663374e+001,-3.28838530148144e-001

1.79005014185594e+004,-1.74151183795068e+001,-3.33427108347310e-001

1.81503831063432e+004,-1.74151253835088e+001,-3.38079662931922e-001

1.84037530124975e+004,-1.74151325836677e+001,-3.42797083692430e-001

1.86606598307361e+004,-1.74151399854556e+001,-3.47580272700383e-001

1.89211529345119e+004,-1.74151475944958e+001,-3.52430144476144e-001

1.91852823865052e+004,-1.74151554165673e+001,-3.57347626155617e-001

1.94530989482457e+004,-1.74151634576087e+001,-3.62333657660674e-001

1.97246540898671e+004,-1.74151717237227e+001,-3.67389191870719e-001

1.99999999999999e+004,-1.74151802211809e+001,-3.72515194796244e-001

2.02791895958005e+004,-1.74151889564275e+001,-3.77712645756265e-001

2.05622765331213e+004,-1.74151979360846e+001,-3.82982537556584e-001

2.08493152168224e+004,-1.74152071669575e+001,-3.88325876667751e-001

2.11403608112276e+004,-1.74152166560382e+001,-3.93743683412698e-001

2.14354692507258e+004,-1.74152264105118e+001,-3.99236992146332e-001

2.17346972505211e+004,-1.74152364377613e+001,-4.04806851445802e-001

2.20381023175322e+004,-1.74152467453723e+001,-4.10454324301289e-001

2.23457427614443e+004,-1.74152573411394e+001,-4.16180488303936e-001

2.26576777059159e+004,-1.74152682330714e+001,-4.21986435842348e-001

2.29739670999406e+004,-1.74152794293967e+001,-4.27873274298353e-001

2.32946717293690e+004,-1.74152909385697e+001,-4.33842126246792e-001

2.36198532285905e+004,-1.74153027692768e+001,-4.39894129652969e-001

2.39495740923785e+004,-1.74153149304421e+001,-4.46030438080970e-001

2.42838976879009e+004,-1.74153274312343e+001,-4.52252220895719e-001

2.46228882668982e+004,-1.74153402810729e+001,-4.58560663472021e-001

2.49666109780322e+004,-1.74153534896350e+001,-4.64956967405639e-001

2.53151318794055e+004,-1.74153670668619e+001,-4.71442350726242e-001

2.56685179512580e+004,-1.74153810229666e+001,-4.78018048110267e-001

2.60268371088386e+004,-1.74153953684403e+001,-4.84685311103437e-001

2.63901582154578e+004,-1.74154101140603e+001,-4.91445408335528e-001

2.67585510957221e+004,-1.74154252708974e+001,-4.98299625747393e-001

2.71320865489533e+004,-1.74154408503232e+001,-5.05249266813638e-001

2.75108363627948e+004,-1.74154568640188e+001,-5.12295652770284e-001

2.78948733270080e+004,-1.74154733239821e+001,-5.19440122846717e-001

2.82842712474618e+004,-1.74154902425364e+001,-5.26684034495794e-001

2.86791049603164e+004,-1.74155076323390e+001,-5.34028763630601e-001

2.90794503464061e+004,-1.74155255063899e+001,-5.41475704861028e-001

2.94853843458219e+004,-1.74155438780404e+001,-5.49026271734430e-001

2.98969849726987e+004,-1.74155627610023e+001,-5.56681896978155e-001

3.03143313302078e+004,-1.74155821693576e+001,-5.64444032743238e-001

3.07375036257601e+004,-1.74156021175672e+001,-5.72314150855517e-001

3.11665831864199e+004,-1.74156226204816e+001,-5.80293743061244e-001

3.16016524745350e+004,-1.74156436933501e+001,-5.88384321282950e-001

3.20427951035848e+004,-1.74156653518314e+001,-5.96587417873440e-001

3.24900958542493e+004,-1.74156876120041e+001,-6.04904585872999e-001

3.29436406907028e+004,-1.74157104903769e+001,-6.13337399270950e-001

3.34035167771346e+004,-1.74157340038999e+001,-6.21887453267232e-001

3.38698124945009e+004,-1.74157581699756e+001,-6.30556364537040e-001

3.43426174575100e+004,-1.74157830064704e+001,-6.39345771500397e-001

3.48220225318448e+004,-1.74158085317258e+001,-6.48257334590416e-001

3.53081198516260e+004,-1.74158347645711e+001,-6.57292736526046e-001

3.58010028371187e+004,-1.74158617243345e+001,-6.66453682588697e-001

3.63007662126863e+004,-1.74158894308562e+001,-6.75741900897500e-001

3.68075060249948e+004,-1.74159179045008e+001,-6.85159142691646e-001

3.73213196614721e+004,-1.74159471661703e+001,-6.94707182609949e-001

3.78423058690237e+004,-1.74159772373171e+001,-7.04387818977686e-001

3.83705647730104e+004,-1.74160081399573e+001,-7.14202874092702e-001

3.89061978964912e+004,-1.74160398966851e+001,-7.24154194513993e-001

3.94493081797342e+004,-1.74160725306856e+001,-7.34243651355988e-001

3.99999999999998e+004,-1.74161060657502e+001,-7.44473140578559e-001

4.05583791916010e+004,-1.74161405262901e+001,-7.54844583287516e-001

4.11245530662425e+004,-1.74161759373519e+001,-7.65359926028605e-001

4.16986304336447e+004,-1.74162123246321e+001,-7.76021141091468e-001

4.22807216224550e+004,-1.74162497144924e+001,-7.86830226811362e-001

4.28709385014515e+004,-1.74162881339756e+001,-7.97789207873456e-001

4.34693945010421e+004,-1.74163276108211e+001,-8.08900135619591e-001

4.40762046350642e+004,-1.74163681734816e+001,-8.20165088357492e-001

4.46914855228886e+004,-1.74164098511385e+001,-8.31586171672928e-001

4.53153554118317e+004,-1.74164526737194e+001,-8.43165518739962e-001

4.59479341998812e+004,-1.74164966719146e+001,-8.54905290637301e-001

4.65893434587380e+004,-1.74165418771944e+001,-8.66807676664576e-001

4.72397064571810e+004,-1.74165883218265e+001,-8.78874894659971e-001

4.78991481847569e+004,-1.74166360388938e+001,-8.91109191320570e-001

4.85677953758016e+004,-1.74166850623118e+001,-9.03512842524283e-001

4.92457765337964e+004,-1.74167354268475e+001,-9.16088153651846e-001

4.99332219560642e+004,-1.74167871681371e+001,-9.28837459913337e-001

5.06302637588109e+004,-1.74168403227052e+001,-9.41763126671902e-001

5.13370359025159e+004,-1.74168949279834e+001,-9.54867549772724e-001

5.20536742176771e+004,-1.74169510223289e+001,-9.68153155872690e-001

5.27803164309155e+004,-1.74170086450444e+001,-9.81622402768318e-001

5.35171021914442e+004,-1.74170678363975e+001,-9.95277779728086e-001

5.42641730979066e+004,-1.74171286376397e+001,-1.00912180782443e+000

5.50216727255895e+004,-1.74171910910267e+001,-1.02315704026754e+000

5.57897466540159e+004,-1.74172552398382e+001,-1.03738606273856e+000

5.65685424949235e+004,-1.74173211283977e+001,-1.05181149372523e+000

5.73582099206328e+004,-1.74173888020931e+001,-1.06643598485828e+000

5.81589006928121e+004,-1.74174583073966e+001,-1.08126222124563e+000

5.89707686916437e+004,-1.74175296918852e+001,-1.09629292181216e+000

5.97939699453972e+004,-1.74176030042610e+001,-1.11153083963435e+000

6.06286626604156e+004,-1.74176782943716e+001,-1.12697876228137e+000

6.14750072515201e+004,-1.74177556132310e+001,-1.14263951215028e+000

6.23331663728396e+004,-1.74178350130391e+001,-1.15851594680619e+000

6.32033049490698e+004,-1.74179165472030e+001,-1.17461095932016e+000

6.40855902071694e+004,-1.74180002703568e+001,-1.19092747860874e+000

6.49801917084985e+004,-1.74180862383820e+001,-1.20746846977094e+000

6.58872813814055e+004,-1.74181745084272e+001,-1.22423693442849e+000

6.68070335542691e+004,-1.74182651389287e+001,-1.24123591106316e+000

6.77396249890018e+004,-1.74183581896294e+001,-1.25846847535465e+000

6.86852349150199e+004,-1.74184537215989e+001,-1.27593774051940e+000

6.96440450636895e+004,-1.74185517972520e+001,-1.29364685764680e+000

7.06162397032520e+004,-1.74186524803680e+001,-1.31159901603715e+000

7.16020056742374e+004,-1.74187558361089e+001,-1.32979744353684e+000

7.26015324253724e+004,-1.74188619310373e+001,-1.34824540687518e+000

7.36150120499896e+004,-1.74189708331344e+001,-1.36694621199874e+000

7.46426393229441e+004,-1.74190826118160e+001,-1.38590320440697e+000

7.56846117380472e+004,-1.74191973379498e+001,-1.40511976948507e+000

7.67411295460207e+004,-1.74193150838707e+001,-1.42459933283820e+000

7.78123957929823e+004,-1.74194359233956e+001,-1.44434536062265e+000

7.88986163594682e+004,-1.74195599318381e+001,-1.46436135987989e+000

7.99999999999995e+004,-1.74196871860213e+001,-1.48465087886469e+000

8.11167583832018e+004,-1.74198177642906e+001,-1.50521750737884e+000

8.22491061324848e+004,-1.74199517465249e+001,-1.52606487709977e+000

8.33972608672892e+004,-1.74200892141472e+001,-1.54719666191009e+000

8.45614432449099e+004,-1.74202302501333e+001,-1.56861657822680e+000

8.57418770029029e+004,-1.74203749390203e+001,-1.59032838533045e+000

8.69387890020841e+004,-1.74205233669129e+001,-1.61233588569443e+000

8.81524092701283e+004,-1.74206756214886e+001,-1.63464292531306e+000

8.93829710457770e+004,-1.74208317920013e+001,-1.65725339403126e+000

9.06307108236633e+004,-1.74209919692835e+001,-1.68017122587368e+000

9.18958683997622e+004,-1.74211562457469e+001,-1.70340039937463e+000

9.31786869174758e+004,-1.74213247153801e+001,-1.72694493791076e+000

9.44794129143618e+004,-1.74214974737465e+001,-1.75080891003115e+000

9.57982963695136e+004,-1.74216746179776e+001,-1.77499642979407e+000

9.71355907516031e+004,-1.74218562467663e+001,-1.79951165710151e+000

9.84915530675926e+004,-1.74220424603569e+001,-1.82435879803748e+000

9.98664439121282e+004,-1.74222333605329e+001,-1.84954210521139e+000

1.01260527517622e+005,-1.74224290506025e+001,-1.87506587810111e+000

1.02674071805032e+005,-1.74226296353814e+001,-1.90093446340286e+000

1.04107348435354e+005,-1.74228352211726e+001,-1.92715225538541e+000

1.05560632861831e+005,-1.74230459157440e+001,-1.95372369624849e+000

1.07034204382888e+005,-1.74232618283024e+001,-1.98065327648751e+000

1.08528346195813e+005,-1.74234830694648e+001,-2.00794553526688e+000

1.10043345451179e+005,-1.74237097512265e+001,-2.03560506079787e+000

1.11579493308032e+005,-1.74239419869254e+001,-2.06363649072853e+000

1.13137084989847e+005,-1.74241798912036e+001,-2.09204451254035e+000

1.14716419841265e+005,-1.74244235799646e+001,-2.12083386395773e+000

1.16317801385624e+005,-1.74246731703274e+001,-2.15000933336691e+000

1.17941537383287e+005,-1.74249287805768e+001,-2.17957576025058e+000

1.19587939890794e+005,-1.74251905301091e+001,-2.20953803563500e+000

1.21257325320831e+005,-1.74254585393745e+001,-2.23990110255168e+000

1.22950014503040e+005,-1.74257329298151e+001,-2.27066995651994e+000

1.24666332745679e+005,-1.74260138237984e+001,-2.30184964604248e+000

1.26406609898139e+005,-1.74263013445468e+001,-2.33344527312638e+000

1.28171180414339e+005,-1.74265956160624e+001,-2.36546199382208e+000

1.29960383416997e+005,-1.74268967630474e+001,-2.39790501878737e+000

1.31774562762811e+005,-1.74272049108199e+001,-2.43077961387700e+000

1.33614067108538e+005,-1.74275201852251e+001,-2.46409110075873e+000

1.35479249978003e+005,-1.74278427125413e+001,-2.49784485755934e+000

1.37370469830040e+005,-1.74281726193819e+001,-2.53204631954162e+000

1.39288090127379e+005,-1.74285100325922e+001,-2.56670097981468e+000

1.41232479406504e+005,-1.74288550791410e+001,-2.60181439008054e+000

1.43204011348474e+005,-1.74292078860083e+001,-2.63739216141897e+000

1.45203064850745e+005,-1.74295685800673e+001,-2.67343996511188e+000

1.47230024099979e+005,-1.74299372879621e+001,-2.70996353351248e+000

1.49285278645888e+005,-1.74303141359805e+001,-2.74696866095781e+000

1.51369223476094e+005,-1.74306992499225e+001,-2.78446120473112e+000

1.53482259092041e+005,-1.74310927549637e+001,-2.82244708607507e+000

1.55624791585964e+005,-1.74314947755143e+001,-2.86093229125786e+000

1.57797232718936e+005,-1.74319054350745e+001,-2.89992287269563e+000

1.59999999999999e+005,-1.74323248560848e+001,-2.93942495013509e+000

1.62233516766403e+005,-1.74327531597729e+001,-2.97944471189782e+000

1.64498212264969e+005,-1.74331904659968e+001,-3.01998841618861e+000

1.66794521734578e+005,-1.74336368930838e+001,-3.06106239247440e+000

1.69122886489819e+005,-1.74340925576675e+001,-3.10267304292935e+000

1.71483754005805e+005,-1.74345575745204e+001,-3.14482684395869e+000

1.73877578004168e+005,-1.74350320563849e+001,-3.18753034779588e+000

1.76304818540256e+005,-1.74355161138016e+001,-3.23079018418020e+000

1.78765942091554e+005,-1.74360098549361e+001,-3.27461306211615e+000

1.81261421647326e+005,-1.74365133854038e+001,-3.31900577171804e+000

1.83791736799524e+005,-1.74370268080944e+001,-3.36397518614183e+000

1.86357373834951e+005,-1.74375502229955e+001,-3.40952826360764e+000

1.88958825828723e+005,-1.74380837270161e+001,-3.45567204951375e+000

1.91596592739027e+005,-1.74386274138117e+001,-3.50241367864593e+000

1.94271181503206e+005,-1.74391813736095e+001,-3.54976037748416e+000

1.96983106135185e+005,-1.74397456930357e+001,-3.59771946660705e+000

1.99732887824256e+005,-1.74403204549462e+001,-3.64629836319868e+000

2.02521055035243e+005,-1.74409057382591e+001,-3.69550458365602e+000

2.05348143610063e+005,-1.74415016177926e+001,-3.74534574630041e+000

2.08214696870707e+005,-1.74421081641061e+001,-3.79582957419559e+000

2.11121265723661e+005,-1.74427254433481e+001,-3.84696389806847e+000

2.14068408765776e+005,-1.74433535171098e+001,-3.89875665933804e+000

2.17056692391625e+005,-1.74439924422852e+001,-3.95121591325080e+000

2.20086690902357e+005,-1.74446422709403e+001,-4.00434983212083e+000

2.23158986616063e+005,-1.74453030501905e+001,-4.05816670867820e+000

2.26274169979693e+005,-1.74459748220870e+001,-4.11267495952099e+000

2.29432839682530e+005,-1.74466576235152e+001,-4.16788312867216e+000

2.32635602771247e+005,-1.74473514861032e+001,-4.22379989123912e+000

2.35883074766574e+005,-1.74480564361434e+001,-4.28043405717335e+000

2.39175879781588e+005,-1.74487724945270e+001,-4.33779457512996e+000

2.42514650641661e+005,-1.74494996766929e+001,-4.39589053642177e+000

2.45900029006080e+005,-1.74502379925909e+001,-4.45473117906685e+000

2.49332665491357e+005,-1.74509874466614e+001,-4.51432589192491e+000

2.52813219796278e+005,-1.74517480378316e+001,-4.57468421891932e+000

2.56342360828676e+005,-1.74525197595291e+001,-4.63581586334006e+000

2.59920766833993e+005,-1.74533025997134e+001,-4.69773069222211e+000

2.63549125525621e+005,-1.74540965409270e+001,-4.76043874079641e+000

2.67228134217075e+005,-1.74549015603659e+001,-4.82395021700437e+000

2.70958499956006e+005,-1.74557176299703e+001,-4.88827550607312e+000

2.74740939660078e+005,-1.74565447165364e+001,-4.95342517514486e+000

2.78576180254757e+005,-1.74573827818496e+001,-5.01940997794956e+000

2.82464958813007e+005,-1.74582317828399e+001,-5.08624085952151e+000

2.86408022696948e+005,-1.74590916717591e+001,-5.15392896094518e+000

2.90406129701488e+005,-1.74599623963813e+001,-5.22248562412756e+000

2.94460048199957e+005,-1.74608439002265e+001,-5.29192239658669e+000

2.98570557291775e+005,-1.74617361228066e+001,-5.36225103625028e+000

3.02738446952187e+005,-1.74626389998952e+001,-5.43348351625508e+000

3.06964518184081e+005,-1.74635524638210e+001,-5.50563202973928e+000

3.11249583171928e+005,-1.74644764437839e+001,-5.57870899461992e+000

3.15594465437872e+005,-1.74654108661946e+001,-5.65272705834656e+000

3.19999999999997e+005,-1.74663556550366e+001,-5.72769910262241e+000

3.24467033532806e+005,-1.74673107322515e+001,-5.80363824808678e+000

3.28996424529938e+005,-1.74682760181458e+001,-5.88055785894798e+000

3.33589043469155e+005,-1.74692514318192e+001,-5.95847154756176e+000

3.38245772979638e+005,-1.74702368916148e+001,-6.03739317894374e+000

3.42967508011610e+005,-1.74712323155884e+001,-6.11733687521243e+000

3.47755156008335e+005,-1.74722376219984e+001,-6.19831701995301e+000

3.52609637080511e+005,-1.74732527298141e+001,-6.28034826249601e+000

3.57531884183106e+005,-1.74742775592411e+001,-6.36344552210408e+000

3.62522843294651e+005,-1.74753120322648e+001,-6.44762399206136e+000

3.67583473599047e+005,-1.74763560732086e+001,-6.53289914365901e+000

3.72714747669902e+005,-1.74774096093069e+001,-6.61928673007395e+000

3.77917651657445e+005,-1.74784725712917e+001,-6.70680279013347e+000

3.83193185478053e+005,-1.74795448939916e+001,-6.79546365196415e+000

3.88542363006410e+005,-1.74806265169412e+001,-6.88528593652068e+000

3.93966212270369e+005,-1.74817173850003e+001,-6.97628656099341e+000

3.99465775648511e+005,-1.74828174489816e+001,-7.06848274208927e+000

4.05042110070485e+005,-1.74839266662852e+001,-7.16189199918959e+000

4.10696287220124e+005,-1.74850450015387e+001,-7.25653215737987e+000

4.16429393741414e+005,-1.74861724272413e+001,-7.35242135035383e+000

4.22242531447321e+005,-1.74873089244112e+001,-7.44957802319224e+000

4.28136817531551e+005,-1.74884544832341e+001,-7.54802093501655e+000

4.34113384783250e+005,-1.74896091037122e+001,-7.64776916152070e+000

4.40173381804713e+005,-1.74907727963119e+001,-7.74884209738447e+000

4.46317973232124e+005,-1.74919455826096e+001,-7.85125945856810e+000

4.52548339959385e+005,-1.74931274959331e+001,-7.95504128449680e+000

4.58865679365059e+005,-1.74943185819995e+001,-8.06020794013603e+000

4.65271205542494e+005,-1.74955188995466e+001,-8.16678011796384e+000

4.71766149533147e+005,-1.74967285209572e+001,-8.27477883984646e+000

4.78351759563174e+005,-1.74979475328769e+001,-8.38422545882073e+000

4.85029301283321e+005,-1.74991760368221e+001,-8.49514166079322e+000

4.91800058012158e+005,-1.75004141497789e+001,-8.60754946615931e+000

4.98665330982714e+005,-1.75016620047928e+001,-8.72147123135109e+000

5.05626439592555e+005,-1.75029197515460e+001,-8.83692965032249e+000

5.12684721657352e+005,-1.75041875569253e+001,-8.95394775597561e+000

5.19841533667984e+005,-1.75054656055768e+001,-9.07254892154033e+000

5.27098251051240e+005,-1.75067541004498e+001,-9.19275686191199e+000

5.34456268434150e+005,-1.75080532633273e+001,-9.31459563495677e+000

5.41916999912011e+005,-1.75093633353453e+001,-9.43808964279147e+000

