Freq.,VOut,OutRef

1.00000000000000e+004,-2.45057674773139e+001,-4.03794390214291e-001

1.01395947979003e+004,-2.45057711125462e+001,-4.09430836782384e-001

1.02811382665607e+004,-2.45057748499164e+001,-4.15145951927948e-001

1.04246576084112e+004,-2.45057786922921e+001,-4.20940833261533e-001

1.05701804056138e+004,-2.45057826426219e+001,-4.26816593688942e-001

1.07177346253629e+004,-2.45057867039368e+001,-4.32774361628778e-001

1.08673486252606e+004,-2.45057908793527e+001,-4.38815281225189e-001

1.10190511587661e+004,-2.45057951720729e+001,-4.44940512567649e-001

1.11728713807222e+004,-2.45057995853908e+001,-4.51151231909588e-001

1.13288388529580e+004,-2.45058041226917e+001,-4.57448631897756e-001

1.14869835499703e+004,-2.45058087874561e+001,-4.63833921794789e-001

1.16473358646846e+004,-2.45058135832619e+001,-4.70308327713898e-001

1.18099266142953e+004,-2.45058185137873e+001,-4.76873092849049e-001

1.19747870461893e+004,-2.45058235828136e+001,-4.83529477715770e-001

1.21419488439505e+004,-2.45058287942281e+001,-4.90278760387893e-001

1.23114441334492e+004,-2.45058341520268e+001,-4.97122236744549e-001

1.24833054890161e+004,-2.45058396603179e+001,-5.04061220714467e-001

1.26575659397028e+004,-2.45058453233247e+001,-5.11097044526982e-001

1.28342589756290e+004,-2.45058511453884e+001,-5.18231058967045e-001

1.30134185544193e+004,-2.45058571309723e+001,-5.25464633630086e-001

1.31950791077289e+004,-2.45058632846645e+001,-5.32799157184962e-001

1.33792755478611e+004,-2.45058696111811e+001,-5.40236037638315e-001

1.35660432744767e+004,-2.45058761153712e+001,-5.47776702599107e-001

1.37554181813974e+004,-2.45058828022187e+001,-5.55422599554939e-001

1.39474366635040e+004,-2.45058896768476e+001,-5.63175196143597e-001

1.41421356237309e+004,-2.45058967445251e+001,-5.71035980433816e-001

1.43395524801583e+004,-2.45059040106658e+001,-5.79006461208066e-001

1.45397251732031e+004,-2.45059114808358e+001,-5.87088168247902e-001

1.47426921729110e+004,-2.45059191607569e+001,-5.95282652626442e-001

1.49484924863494e+004,-2.45059270563111e+001,-6.03591487000732e-001

1.51571656651040e+004,-2.45059351735446e+001,-6.12016265913184e-001

1.53687518128801e+004,-2.45059435186731e+001,-6.20558606089625e-001

1.55832915932100e+004,-2.45059520980857e+001,-6.29220146751170e-001

1.58008262372675e+004,-2.45059609183504e+001,-6.38002549920404e-001

1.60213975517924e+004,-2.45059699862187e+001,-6.46907500739108e-001

1.62450479271247e+004,-2.45059793086307e+001,-6.55936707787464e-001

1.64718203453514e+004,-2.45059888927205e+001,-6.65091903406223e-001

1.67017583885674e+004,-2.45059987458214e+001,-6.74374844024951e-001

1.69349062472505e+004,-2.45060088754718e+001,-6.83787310495819e-001

1.71713087287550e+004,-2.45060192894204e+001,-6.93331108428211e-001

1.74110112659224e+004,-2.45060299956323e+001,-7.03008068532494e-001

1.76540599258131e+004,-2.45060410022950e+001,-7.12820046963181e-001

1.79005014185594e+004,-2.45060523178246e+001,-7.22768925672159e-001

1.81503831063432e+004,-2.45060639508719e+001,-7.32856612762641e-001

1.84037530124975e+004,-2.45060759103292e+001,-7.43085042849278e-001

1.86606598307361e+004,-2.45060882053367e+001,-7.53456177422893e-001

1.89211529345119e+004,-2.45061008452897e+001,-7.63972005220547e-001

1.91852823865052e+004,-2.45061138398453e+001,-7.74634542601099e-001

1.94530989482457e+004,-2.45061271989299e+001,-7.85445833921666e-001

1.97246540898671e+004,-2.45061409327463e+001,-7.96407951927433e-001

1.99999999999999e+004,-2.45061550517820e+001,-8.07522998136339e-001

2.02791895958005e+004,-2.45061695668163e+001,-8.18793103236782e-001

2.05622765331213e+004,-2.45061844889286e+001,-8.30220427489275e-001

2.08493152168224e+004,-2.45061998295072e+001,-8.41807161127191e-001

2.11403608112276e+004,-2.45062156002568e+001,-8.53555524773646e-001

2.14354692507258e+004,-2.45062318132082e+001,-8.65467769852363e-001

2.17346972505211e+004,-2.45062484807267e+001,-8.77546179013565e-001

2.20381023175322e+004,-2.45062656155215e+001,-8.89793066559047e-001

2.23457427614443e+004,-2.45062832306551e+001,-9.02210778875969e-001

2.26576777059159e+004,-2.45063013395530e+001,-9.14801694875498e-001

2.29739670999406e+004,-2.45063199560137e+001,-9.27568226437051e-001

2.32946717293690e+004,-2.45063390942190e+001,-9.40512818858125e-001

2.36198532285905e+004,-2.45063587687441e+001,-9.53637951312679e-001

2.39495740923785e+004,-2.45063789945693e+001,-9.66946137308187e-001

2.42838976879009e+004,-2.45063997870901e+001,-9.80439925159322e-001

2.46228882668982e+004,-2.45064211621291e+001,-9.94121898458552e-001

2.49666109780322e+004,-2.45064431359473e+001,-1.00799467655773e+000

2.53151318794055e+004,-2.45064657252568e+001,-1.02206091505349e+000

2.56685179512580e+004,-2.45064889472323e+001,-1.03632330628107e+000

2.60268371088386e+004,-2.45065128195241e+001,-1.05078457981291e+000

2.63901582154578e+004,-2.45065373602710e+001,-1.06544750296381e+000

2.67585510957221e+004,-2.45065625881139e+001,-1.08031488130304e+000

2.71320865489533e+004,-2.45065885222087e+001,-1.09538955917329e+000

2.75108363627948e+004,-2.45066151822412e+001,-1.11067442021451e+000

2.78948733270080e+004,-2.45066425884408e+001,-1.12617238789735e+000

2.82842712474618e+004,-2.45066707615955e+001,-1.14188642606043e+000

2.86791049603164e+004,-2.45066997230674e+001,-1.15781953945451e+000

2.90794503464061e+004,-2.45067294948075e+001,-1.17397477429801e+000

2.94853843458219e+004,-2.45067600993721e+001,-1.19035521883257e+000

2.98969849726987e+004,-2.45067915599392e+001,-1.20696400389125e+000

3.03143313302078e+004,-2.45068239003250e+001,-1.22380430347126e+000

3.07375036257601e+004,-2.45068571450012e+001,-1.24087933531309e+000

3.11665831864199e+004,-2.45068913191129e+001,-1.25819236149039e+000

3.16016524745350e+004,-2.45069264484962e+001,-1.27574668900198e+000

3.20427951035848e+004,-2.45069625596974e+001,-1.29354567037634e+000

3.24900958542493e+004,-2.45069996799912e+001,-1.31159270427950e+000

3.29436406907028e+004,-2.45070378374011e+001,-1.32989123613342e+000

3.34035167771346e+004,-2.45070770607188e+001,-1.34844475873891e+000

3.38698124945009e+004,-2.45071173795250e+001,-1.36725681290948e+000

3.43426174575100e+004,-2.45071588242103e+001,-1.38633098810993e+000

3.48220225318448e+004,-2.45072014259970e+001,-1.40567092310381e+000

3.53081198516260e+004,-2.45072452169610e+001,-1.42528030660972e+000

3.58010028371187e+004,-2.45072902300542e+001,-1.44516287796383e+000

3.63007662126863e+004,-2.45073364991285e+001,-1.46532242779130e+000

3.68075060249948e+004,-2.45073840589587e+001,-1.48576279868435e+000

3.73213196614721e+004,-2.45074329452675e+001,-1.50648788589062e+000

3.78423058690237e+004,-2.45074831947503e+001,-1.52750163800813e+000

3.83705647730104e+004,-2.45075348451008e+001,-1.54880805768701e+000

3.89061978964912e+004,-2.45075879350370e+001,-1.57041120234399e+000

3.94493081797342e+004,-2.45076425043287e+001,-1.59231518487905e+000

3.99999999999998e+004,-2.45076985938242e+001,-1.61452417440581e+000

4.05583791916010e+004,-2.45077562454788e+001,-1.63704239698732e+000

4.11245530662425e+004,-2.45078155023841e+001,-1.65987413638006e+000

4.16986304336447e+004,-2.45078764087966e+001,-1.68302373478939e+000

4.22807216224550e+004,-2.45079390101691e+001,-1.70649559362902e+000

4.28709385014515e+004,-2.45080033531803e+001,-1.73029417429381e+000

4.34693945010421e+004,-2.45080694857677e+001,-1.75442399893749e+000

4.40762046350642e+004,-2.45081374571593e+001,-1.77888965126077e+000

4.46914855228886e+004,-2.45082073179069e+001,-1.80369577730831e+000

4.53153554118317e+004,-2.45082791199204e+001,-1.82884708627360e+000

4.59479341998812e+004,-2.45083529165018e+001,-1.85434835131331e+000

4.65893434587380e+004,-2.45084287623813e+001,-1.88020441037034e+000

4.72397064571810e+004,-2.45085067137536e+001,-1.90642016700511e+000

4.78991481847569e+004,-2.45085868283145e+001,-1.93300059123722e+000

4.85677953758016e+004,-2.45086691652994e+001,-1.95995072039519e+000

4.92457765337964e+004,-2.45087537855219e+001,-1.98727565997434e+000

4.99332219560642e+004,-2.45088407514133e+001,-2.01498058450551e+000

5.06302637588109e+004,-2.45089301270634e+001,-2.04307073843175e+000

5.13370359025159e+004,-2.45090219782617e+001,-2.07155143699441e+000

5.20536742176771e+004,-2.45091163725397e+001,-2.10042806712739e+000

5.27803164309155e+004,-2.45092133792141e+001,-2.12970608836365e+000

5.35171021914442e+004,-2.45093130694311e+001,-2.15939103374609e+000

5.42641730979066e+004,-2.45094155162110e+001,-2.18948851075209e+000

5.50216727255895e+004,-2.45095207944945e+001,-2.22000420222510e+000

5.57897466540159e+004,-2.45096289811895e+001,-2.25094386731600e+000

5.65685424949235e+004,-2.45097401552189e+001,-2.28231334243287e+000

5.73582099206328e+004,-2.45098543975696e+001,-2.31411854220184e+000

5.81589006928121e+004,-2.45099717913421e+001,-2.34636546043652e+000

5.89707686916437e+004,-2.45100924218011e+001,-2.37906017111539e+000

5.97939699453972e+004,-2.45102163764278e+001,-2.41220882937095e+000

6.06286626604156e+004,-2.45103437449721e+001,-2.44581767248676e+000

6.14750072515201e+004,-2.45104746195067e+001,-2.47989302090411e+000

6.23331663728396e+004,-2.45106090944816e+001,-2.51444127923833e+000

6.32033049490698e+004,-2.45107472667800e+001,-2.54946893730501e+000

6.40855902071694e+004,-2.45108892357754e+001,-2.58498257115457e+000

6.49801917084985e+004,-2.45110351033886e+001,-2.62098884411750e+000

6.58872813814055e+004,-2.45111849741472e+001,-2.65749450785892e+000

6.68070335542691e+004,-2.45113389552452e+001,-2.69450640344197e+000

6.77396249890018e+004,-2.45114971566041e+001,-2.73203146240123e+000

6.86852349150199e+004,-2.45116596909342e+001,-2.77007670782650e+000

6.96440450636895e+004,-2.45118266737983e+001,-2.80864925545485e+000

7.06162397032520e+004,-2.45119982236749e+001,-2.84775631477414e+000

7.16020056742374e+004,-2.45121744620237e+001,-2.88740519013374e+000

7.26015324253724e+004,-2.45123555133512e+001,-2.92760328186857e+000

7.36150120499896e+004,-2.45125415052780e+001,-2.96835808742890e+000

7.46426393229441e+004,-2.45127325686061e+001,-3.00967720252371e+000

7.56846117380472e+004,-2.45129288373886e+001,-3.05156832227226e+000

7.67411295460207e+004,-2.45131304489994e+001,-3.09403924236501e+000

7.78123957929823e+004,-2.45133375442037e+001,-3.13709786023615e+000

7.88986163594682e+004,-2.45135502672304e+001,-3.18075217624632e+000

7.99999999999995e+004,-2.45137687658445e+001,-3.22501029487408e+000

8.11167583832018e+004,-2.45139931914211e+001,-3.26988042591937e+000

8.22491061324848e+004,-2.45142236990196e+001,-3.31537088571708e+000

8.33972608672892e+004,-2.45144604474598e+001,-3.36149009836071e+000

8.45614432449099e+004,-2.45147035993980e+001,-3.40824659693739e+000

8.57418770029029e+004,-2.45149533214040e+001,-3.45564902477474e+000

8.69387890020841e+004,-2.45152097840397e+001,-3.50370613669676e+000

8.81524092701283e+004,-2.45154731619377e+001,-3.55242680029278e+000

8.93829710457770e+004,-2.45157436338807e+001,-3.60181999719836e+000

9.06307108236633e+004,-2.45160213828827e+001,-3.65189482438640e+000

9.18958683997622e+004,-2.45163065962694e+001,-3.70266049547075e+000

9.31786869174758e+004,-2.45165994657605e+001,-3.75412634202432e+000

9.44794129143618e+004,-2.45169001875522e+001,-3.80630181490669e+000

9.57982963695136e+004,-2.45172089624002e+001,-3.85919648560672e+000

9.71355907516031e+004,-2.45175259957038e+001,-3.91282004759879e+000

9.84915530675926e+004,-2.45178514975902e+001,-3.96718231771096e+000

9.98664439121282e+004,-2.45181856829995e+001,-4.02229323750939e+000

1.01260527517622e+005,-2.45185287717699e+001,-4.07816287469670e+000

1.02674071805032e+005,-2.45188809887243e+001,-4.13480142452488e+000

1.04107348435354e+005,-2.45192425637562e+001,-4.19221921122454e+000

1.05560632861831e+005,-2.45196137319171e+001,-4.25042668945016e+000

1.07034204382888e+005,-2.45199947335031e+001,-4.30943444574339e+000

1.08528346195813e+005,-2.45203858141436e+001,-4.36925320001177e+000

1.10043345451179e+005,-2.45207872248885e+001,-4.42989380702685e+000

1.11579493308032e+005,-2.45211992222970e+001,-4.49136725794186e+000

1.13137084989847e+005,-2.45216220685261e+001,-4.55368468182844e+000

1.14716419841265e+005,-2.45220560314200e+001,-4.61685734723338e+000

1.16317801385624e+005,-2.45225013845988e+001,-4.68089666375849e+000

1.17941537383287e+005,-2.45229584075488e+001,-4.74581418366145e+000

1.19587939890794e+005,-2.45234273857114e+001,-4.81162160348047e+000

1.21257325320831e+005,-2.45239086105740e+001,-4.87833076568430e+000

1.22950014503040e+005,-2.45244023797599e+001,-4.94595366034621e+000

1.24666332745679e+005,-2.45249089971192e+001,-5.01450242684638e+000

1.26406609898139e+005,-2.45254287728194e+001,-5.08398935560130e+000

1.28171180414339e+005,-2.45259620234368e+001,-5.15442688982259e+000

1.29960383416997e+005,-2.45265090720484e+001,-5.22582762730583e+000

1.31774562762811e+005,-2.45270702483234e+001,-5.29820432225360e+000

1.33614067108538e+005,-2.45276458886158e+001,-5.37156988712875e+000

1.35479249978003e+005,-2.45282363360576e+001,-5.44593739454452e+000

1.37370469830040e+005,-2.45288419406521e+001,-5.52132007919144e+000

1.39288090127379e+005,-2.45294630593683e+001,-5.59773133980090e+000

1.41232479406504e+005,-2.45301000562359e+001,-5.67518474114926e+000

1.43204011348474e+005,-2.45307533024412e+001,-5.75369401610383e+000

1.45203064850745e+005,-2.45314231764240e+001,-5.83327306771141e+000

1.47230024099979e+005,-2.45321100639762e+001,-5.91393597133181e+000

1.49285278645888e+005,-2.45328143583407e+001,-5.99569697681873e+000

1.51369223476094e+005,-2.45335364603133e+001,-6.07857051074900e+000

1.53482259092041e+005,-2.45342767783447e+001,-6.16257117870237e+000

1.55624791585964e+005,-2.45350357286461e+001,-6.24771376759446e+000

1.57797232718936e+005,-2.45358137352961e+001,-6.33401324806339e+000

1.59999999999999e+005,-2.45366112303503e+001,-6.42148477691322e+000

1.62233516766403e+005,-2.45374286539539e+001,-6.51014369961608e+000

1.64498212264969e+005,-2.45382664544571e+001,-6.60000555287403e+000

1.66794521734578e+005,-2.45391250885349e+001,-6.69108606724338e+000

1.69122886489819e+005,-2.45400050213094e+001,-6.78340116982349e+000

1.71483754005805e+005,-2.45409067264781e+001,-6.87696698701122e+000

1.73877578004168e+005,-2.45418306864452e+001,-6.97179984732291e+000

1.76304818540256e+005,-2.45427773924594e+001,-7.06791628428672e+000

1.78765942091554e+005,-2.45437473447570e+001,-7.16533303940555e+000

1.81261421647326e+005,-2.45447410527112e+001,-7.26406706519260e+000

1.83791736799524e+005,-2.45457590349883e+001,-7.36413552828175e+000

1.86357373834951e+005,-2.45468018197111e+001,-7.46555581261314e+000

1.88958825828723e+005,-2.45478699446306e+001,-7.56834552269589e+000

1.91596592739027e+005,-2.45489639573063e+001,-7.67252248694768e+000

1.94271181503206e+005,-2.45500844152955e+001,-7.77810476111483e+000

1.96983106135185e+005,-2.45512318863537e+001,-7.88511063177022e+000

1.99732887824256e+005,-2.45524069486444e+001,-7.99355861989197e+000

2.02521055035243e+005,-2.45536101909615e+001,-8.10346748452210e+000

2.05348143610063e+005,-2.45548422129640e+001,-8.21485622650509e+000

2.08214696870707e+005,-2.45561036254234e+001,-8.32774409230758e+000

2.11121265723661e+005,-2.45573950504857e+001,-8.44215057791600e+000

2.14068408765776e+005,-2.45587171219483e+001,-8.55809543281410e+000

2.17056692391625e+005,-2.45600704855523e+001,-8.67559866403734e+000

2.20086690902357e+005,-2.45614557992919e+001,-8.79468054030371e+000

2.23158986616063e+005,-2.45628737337420e+001,-8.91536159621895e+000

2.26274169979693e+005,-2.45643249724028e+001,-9.03766263655331e+000

2.29432839682530e+005,-2.45658102120663e+001,-9.16160474058882e+000

2.32635602771247e+005,-2.45673301632011e+001,-9.28720926653205e+000

2.35883074766574e+005,-2.45688855503601e+001,-9.41449785599166e+000

2.39175879781588e+005,-2.45704771126104e+001,-9.54349243851396e+000

2.42514650641661e+005,-2.45721056039860e+001,-9.67421523617483e+000

2.45900029006080e+005,-2.45737717939658e+001,-9.80668876822240e+000

2.49332665491357e+005,-2.45754764679761e+001,-9.94093585576495e+000

2.52813219796278e+005,-2.45772204279197e+001,-1.00769796264994e+001

2.56342360828676e+005,-2.45790044927322e+001,-1.02148435194739e+001

2.59920766833993e+005,-2.45808294989658e+001,-1.03545512898787e+001

2.63549125525621e+005,-2.45826963014027e+001,-1.04961270138581e+001

2.67228134217075e+005,-2.45846057736969e+001,-1.06395950933354e+001

2.70958499956006e+005,-2.45865588090479e+001,-1.07849802608456e+001

2.74740939660078e+005,-2.45885563209041e+001,-1.09323075843653e+001

2.78576180254757e+005,-2.45905992436988e+001,-1.10816024721321e+001

2.82464958813007e+005,-2.45926885336182e+001,-1.12328906774455e+001

2.86408022696948e+005,-2.45948251694025e+001,-1.13861983034390e+001

2.90406129701488e+005,-2.45970101531797e+001,-1.15415518078148e+001

2.94460048199957e+005,-2.45992445113346e+001,-1.16989780075293e+001

2.98570557291775e+005,-2.46015292954103e+001,-1.18585040834223e+001

3.02738446952187e+005,-2.46038655830456e+001,-1.20201575847770e+001

3.06964518184081e+005,-2.46062544789456e+001,-1.21839664338007e+001

3.11249583171928e+005,-2.46086971158881e+001,-1.23499589300158e+001

3.15594465437872e+005,-2.46111946557644e+001,-1.25181637545502e+001

3.19999999999997e+005,-2.46137482906542e+001,-1.26886099743145e+001

3.24467033532806e+005,-2.46163592439365e+001,-1.28613270460574e+001

3.28996424529938e+005,-2.46190287714328e+001,-1.30363448202844e+001

3.33589043469155e+005,-2.46217581625860e+001,-1.32136935450325e+001

3.38245772979638e+005,-2.46245487416721e+001,-1.33934038694859e+001

3.42967508011610e+005,-2.46274018690450e+001,-1.35755068474235e+001

3.47755156008335e+005,-2.46303189424140e+001,-1.37600339404873e+001

3.52609637080511e+005,-2.46333013981529e+001,-1.39470170212589e+001

3.57531884183106e+005,-2.46363507126404e+001,-1.41364883761348e+001

3.62522843294651e+005,-2.46394684036308e+001,-1.43284807079887e+001

3.67583473599047e+005,-2.46426560316537e+001,-1.45230271386116e+001

3.72714747669902e+005,-2.46459152014425e+001,-1.47201612109180e+001

3.77917651657445e+005,-2.46492475633897e+001,-1.49199168909093e+001

3.83193185478053e+005,-2.46526548150290e+001,-1.51223285693844e+001

3.88542363006410e+005,-2.46561387025420e+001,-1.53274310633883e+001

3.93966212270369e+005,-2.46597010222885e+001,-1.55352596173892e+001

3.99465775648511e+005,-2.46633436223602e+001,-1.57458499041768e+001

4.05042110070485e+005,-2.46670684041538e+001,-1.59592380254722e+001

4.10696287220124e+005,-2.46708773239660e+001,-1.61754605122415e+001

4.16429393741414e+005,-2.46747723946049e+001,-1.63945543247073e+001

4.22242531447321e+005,-2.46787556870195e+001,-1.66165568520495e+001

4.28136817531551e+005,-2.46828293319439e+001,-1.68415059117886e+001

4.34113384783250e+005,-2.46869955215553e+001,-1.70694397488458e+001

4.40173381804713e+005,-2.46912565111453e+001,-1.73003970342742e+001

4.46317973232124e+005,-2.46956146208001e+001,-1.75344168636549e+001

4.52548339959385e+005,-2.47000722370920e+001,-1.77715387551521e+001

4.58865679365059e+005,-2.47046318147765e+001,-1.80118026472234e+001

4.65271205542494e+005,-2.47092958784969e+001,-1.82552488959811e+001

4.71766149533147e+005,-2.47140670244927e+001,-1.85019182721974e+001

4.78351759563174e+005,-2.47189479223106e+001,-1.87518519579518e+001

4.85029301283321e+005,-2.47239413165172e+001,-1.90050915429169e+001

4.91800058012158e+005,-2.47290500284106e+001,-1.92616790202768e+001

4.98665330982714e+005,-2.47342769577313e+001,-1.95216567822756e+001

5.05626439592555e+005,-2.47396250843680e+001,-1.97850676153943e+001

5.12684721657352e+005,-2.47450974700592e+001,-2.00519546951490e+001

5.19841533667984e+005,-2.47506972600877e+001,-2.03223615805102e+001

5.27098251051240e+005,-2.47564276849665e+001,-2.05963322079398e+001

5.34456268434150e+005,-2.47622920621151e+001,-2.08739108850408e+001

5.41916999912011e+005,-2.47682937975234e+001,-2.11551422838178e+001

