Freq.,VOut,OutRef

1.00000000000000e+004,-1.68781706248800e+001,-8.50183652698022e-002

1.01395947979003e+004,-1.68781718946627e+001,-8.62049697735864e-002

1.02811382665607e+004,-1.68781732000979e+001,-8.74081298496186e-002

1.04246576084112e+004,-1.68781745421855e+001,-8.86280762305166e-002

1.05701804056138e+004,-1.68781759219531e+001,-8.98650428563271e-002

1.07177346253629e+004,-1.68781773404574e+001,-9.11192669125812e-002

1.08673486252606e+004,-1.68781787987840e+001,-9.23909888826010e-002

1.10190511587661e+004,-1.68781802980495e+001,-9.36804525863772e-002

1.11728713807222e+004,-1.68781818394011e+001,-9.49879052310629e-002

1.13288388529580e+004,-1.68781834240188e+001,-9.63135974513844e-002

1.14869835499703e+004,-1.68781850531148e+001,-9.76577833648417e-002

1.16473358646846e+004,-1.68781867279355e+001,-9.90207206124510e-002

1.18099266142953e+004,-1.68781884497621e+001,-1.00402670411771e-001

1.19747870461893e+004,-1.68781902199119e+001,-1.01803897599759e-001

1.21419488439505e+004,-1.68781920397383e+001,-1.03224670692445e-001

1.23114441334492e+004,-1.68781939106330e+001,-1.04665261923574e-001

1.24833054890161e+004,-1.68781958340262e+001,-1.06125947305788e-001

1.26575659397028e+004,-1.68781978113883e+001,-1.07607006673639e-001

1.28342589756290e+004,-1.68781998442307e+001,-1.09108723741976e-001

1.30134185544193e+004,-1.68782019341069e+001,-1.10631386155802e-001

1.31950791077289e+004,-1.68782040826133e+001,-1.12175285547275e-001

1.33792755478611e+004,-1.68782062913914e+001,-1.13740717584111e-001

1.35660432744767e+004,-1.68782085621282e+001,-1.15327982030241e-001

1.37554181813974e+004,-1.68782108965576e+001,-1.16937382798585e-001

1.39474366635040e+004,-1.68782132964621e+001,-1.18569228008515e-001

1.41421356237309e+004,-1.68782157636733e+001,-1.20223830044427e-001

1.43395524801583e+004,-1.68782183000746e+001,-1.21901505607683e-001

1.45397251732031e+004,-1.68782209076011e+001,-1.23602575784989e-001

1.47426921729110e+004,-1.68782235882419e+001,-1.25327366100737e-001

1.49484924863494e+004,-1.68782263440418e+001,-1.27076206576292e-001

1.51571656651040e+004,-1.68782291771021e+001,-1.28849431796706e-001

1.53687518128801e+004,-1.68782320895825e+001,-1.30647380969225e-001

1.55832915932100e+004,-1.68782350837030e+001,-1.32470397984317e-001

1.58008262372675e+004,-1.68782381617449e+001,-1.34318831482259e-001

1.60213975517924e+004,-1.68782413260533e+001,-1.36193034913675e-001

1.62450479271247e+004,-1.68782445790382e+001,-1.38093366606850e-001

1.64718203453514e+004,-1.68782479231761e+001,-1.40020189834542e-001

1.67017583885674e+004,-1.68782513610130e+001,-1.41973872876232e-001

1.69349062472505e+004,-1.68782548951647e+001,-1.43954789089663e-001

1.71713087287550e+004,-1.68782585283202e+001,-1.45963316975592e-001

1.74110112659224e+004,-1.68782622632424e+001,-1.47999840251130e-001

1.76540599258131e+004,-1.68782661027712e+001,-1.50064747914374e-001

1.79005014185594e+004,-1.68782700498250e+001,-1.52158434318768e-001

1.81503831063432e+004,-1.68782741074028e+001,-1.54281299243922e-001

1.84037530124975e+004,-1.68782782785867e+001,-1.56433747967848e-001

1.86606598307361e+004,-1.68782825665442e+001,-1.58616191337046e-001

1.89211529345119e+004,-1.68782869745299e+001,-1.60829045849360e-001

1.91852823865052e+004,-1.68782915058888e+001,-1.63072733717888e-001

1.94530989482457e+004,-1.68782961640577e+001,-1.65347682956317e-001

1.97246540898671e+004,-1.68783009525688e+001,-1.67654327450277e-001

1.99999999999999e+004,-1.68783058750516e+001,-1.69993107035074e-001

2.02791895958005e+004,-1.68783109352352e+001,-1.72364467579843e-001

2.05622765331213e+004,-1.68783161369519e+001,-1.74768861060673e-001

2.08493152168224e+004,-1.68783214841395e+001,-1.77206745644312e-001

2.11403608112276e+004,-1.68783269808440e+001,-1.79678585768525e-001

2.14354692507258e+004,-1.68783326312228e+001,-1.82184852226256e-001

2.17346972505211e+004,-1.68783384395472e+001,-1.84726022247139e-001

2.20381023175322e+004,-1.68783444102064e+001,-1.87302579581543e-001

2.23457427614443e+004,-1.68783505477100e+001,-1.89915014584948e-001

2.26576777059159e+004,-1.68783568566906e+001,-1.92563824310601e-001

2.29739670999406e+004,-1.68783633419085e+001,-1.95249512587405e-001

2.32946717293690e+004,-1.68783700082542e+001,-1.97972590112197e-001

2.36198532285905e+004,-1.68783768607522e+001,-2.00733574539717e-001

2.39495740923785e+004,-1.68783839045640e+001,-2.03532990572280e-001

2.42838976879009e+004,-1.68783911449926e+001,-2.06371370047419e-001

2.46228882668982e+004,-1.68783985874853e+001,-2.09249252036268e-001

2.49666109780322e+004,-1.68784062376386e+001,-2.12167182928523e-001

2.53151318794055e+004,-1.68784141012013e+001,-2.15125716531176e-001

2.56685179512580e+004,-1.68784221840786e+001,-2.18125414163671e-001

2.60268371088386e+004,-1.68784304923365e+001,-2.21166844751596e-001

2.63901582154578e+004,-1.68784390322061e+001,-2.24250584923097e-001

2.67585510957221e+004,-1.68784478100877e+001,-2.27377219107841e-001

2.71320865489533e+004,-1.68784568325547e+001,-2.30547339637893e-001

2.75108363627948e+004,-1.68784661063597e+001,-2.33761546840149e-001

2.78948733270080e+004,-1.68784756384371e+001,-2.37020449145317e-001

2.82842712474618e+004,-1.68784854359095e+001,-2.40324663184640e-001

2.86791049603164e+004,-1.68784955060917e+001,-2.43674813892659e-001

2.90794503464061e+004,-1.68785058564958e+001,-2.47071534612911e-001

2.94853843458219e+004,-1.68785164948366e+001,-2.50515467199289e-001

2.98969849726987e+004,-1.68785274290365e+001,-2.54007262123509e-001

3.03143313302078e+004,-1.68785386672308e+001,-2.57547578581073e-001

3.07375036257601e+004,-1.68785502177735e+001,-2.61137084596414e-001

3.11665831864199e+004,-1.68785620892424e+001,-2.64776457135549e-001

3.16016524745350e+004,-1.68785742904451e+001,-2.68466382209482e-001

3.20427951035848e+004,-1.68785868304249e+001,-2.72207554986583e-001

3.24900958542493e+004,-1.68785997184660e+001,-2.76000679907043e-001

3.29436406907028e+004,-1.68786129641011e+001,-2.79846470786038e-001

3.34035167771346e+004,-1.68786265771158e+001,-2.83745650933929e-001

3.38698124945009e+004,-1.68786405675564e+001,-2.87698953266065e-001

3.43426174575100e+004,-1.68786549457355e+001,-2.91707120417605e-001

3.48220225318448e+004,-1.68786697222389e+001,-2.95770904859152e-001

3.53081198516260e+004,-1.68786849079327e+001,-2.99891069009817e-001

3.58010028371187e+004,-1.68787005139693e+001,-3.04068385357809e-001

3.63007662126863e+004,-1.68787165517954e+001,-3.08303636575375e-001

3.68075060249948e+004,-1.68787330331586e+001,-3.12597615636058e-001

3.73213196614721e+004,-1.68787499701150e+001,-3.16951125933911e-001

3.78423058690237e+004,-1.68787673750365e+001,-3.21364981405516e-001

3.83705647730104e+004,-1.68787852606182e+001,-3.25840006646684e-001

3.89061978964912e+004,-1.68788036398866e+001,-3.30377037034865e-001

3.94493081797342e+004,-1.68788225262072e+001,-3.34976918849597e-001

3.99999999999998e+004,-1.68788419332926e+001,-3.39640509395470e-001

4.05583791916010e+004,-1.68788618752108e+001,-3.44368677123643e-001

4.11245530662425e+004,-1.68788823663930e+001,-3.49162301755909e-001

4.16986304336447e+004,-1.68789034216430e+001,-3.54022274406526e-001

4.22807216224550e+004,-1.68789250561450e+001,-3.58949497706455e-001

4.28709385014515e+004,-1.68789472854726e+001,-3.63944885931002e-001

4.34693945010421e+004,-1.68789701255978e+001,-3.69009365118598e-001

4.40762046350642e+004,-1.68789935929000e+001,-3.74143873201159e-001

4.46914855228886e+004,-1.68790177041750e+001,-3.79349360126380e-001

4.53153554118317e+004,-1.68790424766447e+001,-3.84626787984638e-001

4.59479341998812e+004,-1.68790679279659e+001,-3.89977131134210e-001

4.65893434587380e+004,-1.68790940762409e+001,-3.95401376326514e-001

4.72397064571810e+004,-1.68791209400258e+001,-4.00900522834518e-001

4.78991481847569e+004,-1.68791485383416e+001,-4.06475582576662e-001

4.85677953758016e+004,-1.68791768906835e+001,-4.12127580243258e-001

4.92457765337964e+004,-1.68792060170312e+001,-4.17857553423295e-001

4.99332219560642e+004,-1.68792359378588e+001,-4.23666552730440e-001

5.06302637588109e+004,-1.68792666741453e+001,-4.29555641928797e-001

5.13370359025159e+004,-1.68792982473850e+001,-4.35525898056964e-001

5.20536742176771e+004,-1.68793306795980e+001,-4.41578411555511e-001

5.27803164309155e+004,-1.68793639933403e+001,-4.47714286391162e-001

5.35171021914442e+004,-1.68793982117151e+001,-4.53934640182138e-001

5.42641730979066e+004,-1.68794333583829e+001,-4.60240604321183e-001

5.50216727255895e+004,-1.68794694575729e+001,-4.66633324098097e-001

5.57897466540159e+004,-1.68795065340932e+001,-4.73113958826052e-001

5.65685424949235e+004,-1.68795446133418e+001,-4.79683681963056e-001

5.73582099206328e+004,-1.68795837213178e+001,-4.86343681229593e-001

5.81589006928121e+004,-1.68796238846317e+001,-4.93095158736750e-001

5.89707686916437e+004,-1.68796651305169e+001,-4.99939331099278e-001

5.97939699453972e+004,-1.68797074868402e+001,-5.06877429558847e-001

6.06286626604156e+004,-1.68797509821127e+001,-5.13910700100605e-001

6.14750072515201e+004,-1.68797956455007e+001,-5.21040403570743e-001

6.23331663728396e+004,-1.68798415068361e+001,-5.28267815791754e-001

6.32033049490698e+004,-1.68798885966275e+001,-5.35594227677908e-001

6.40855902071694e+004,-1.68799369460706e+001,-5.43020945346933e-001

6.49801917084985e+004,-1.68799865870582e+001,-5.50549290234560e-001

6.58872813814055e+004,-1.68800375521912e+001,-5.58180599203188e-001

6.68070335542691e+004,-1.68800898747880e+001,-5.65916224650592e-001

6.77396249890018e+004,-1.68801435888951e+001,-5.73757534619426e-001

6.86852349150199e+004,-1.68801987292960e+001,-5.81705912900906e-001

6.96440450636895e+004,-1.68802553315212e+001,-5.89762759141224e-001

7.06162397032520e+004,-1.68803134318573e+001,-5.97929488942169e-001

7.16020056742374e+004,-1.68803730673555e+001,-6.06207533963001e-001

7.26015324253724e+004,-1.68804342758407e+001,-6.14598342017491e-001

7.36150120499896e+004,-1.68804970959188e+001,-6.23103377173025e-001

7.46426393229441e+004,-1.68805615669853e+001,-6.31724119844488e-001

7.56846117380472e+004,-1.68806277292318e+001,-6.40462066888457e-001

7.67411295460207e+004,-1.68806956236533e+001,-6.49318731690608e-001

7.78123957929823e+004,-1.68807652920540e+001,-6.58295644260426e-001

7.88986163594682e+004,-1.68808367770535e+001,-6.67394351312800e-001

7.99999999999995e+004,-1.68809101220913e+001,-6.76616416355695e-001

8.11167583832018e+004,-1.68809853714313e+001,-6.85963419774083e-001

8.22491061324848e+004,-1.68810625701658e+001,-6.95436958906522e-001

8.33972608672892e+004,-1.68811417642177e+001,-7.05038648129748e-001

8.45614432449099e+004,-1.68812230003434e+001,-7.14770118929612e-001

8.57418770029029e+004,-1.68813063261332e+001,-7.24633019981573e-001

8.69387890020841e+004,-1.68813917900123e+001,-7.34629017219031e-001

8.81524092701283e+004,-1.68814794412391e+001,-7.44759793908480e-001

8.93829710457770e+004,-1.68815693299043e+001,-7.55027050716815e-001

9.06307108236633e+004,-1.68816615069276e+001,-7.65432505780440e-001

9.18958683997622e+004,-1.68817560240535e+001,-7.75977894771561e-001

9.31786869174758e+004,-1.68818529338460e+001,-7.86664970962841e-001

9.44794129143618e+004,-1.68819522896823e+001,-7.97495505293554e-001

9.57982963695136e+004,-1.68820541457440e+001,-8.08471286431289e-001

9.71355907516031e+004,-1.68821585570084e+001,-8.19594120834839e-001

9.84915530675926e+004,-1.68822655792368e+001,-8.30865832817211e-001

9.98664439121282e+004,-1.68823752689622e+001,-8.42288264605714e-001

1.01260527517622e+005,-1.68824876834747e+001,-8.53863276406286e-001

1.02674071805032e+005,-1.68826028808057e+001,-8.65592746464582e-001

1.04107348435354e+005,-1.68827209197094e+001,-8.77478571130313e-001

1.05560632861831e+005,-1.68828418596437e+001,-8.89522664920339e-001

1.07034204382888e+005,-1.68829657607473e+001,-9.01726960586483e-001

1.08528346195813e+005,-1.68830926838167e+001,-9.14093409181812e-001

1.10043345451179e+005,-1.68832226902792e+001,-9.26623980133049e-001

1.11579493308032e+005,-1.68833558421651e+001,-9.39320661314977e-001

1.13137084989847e+005,-1.68834922020766e+001,-9.52185459125806e-001

1.14716419841265e+005,-1.68836318331548e+001,-9.65220398571258e-001

1.16317801385624e+005,-1.68837747990438e+001,-9.78427523350627e-001

1.17941537383287e+005,-1.68839211638527e+001,-9.91808895950667e-001

1.19587939890794e+005,-1.68840709921148e+001,-1.00536659774254e+000

1.21257325320831e+005,-1.68842243487434e+001,-1.01910272909155e+000

1.22950014503040e+005,-1.68843812989862e+001,-1.03301940946904e+000

1.24666332745679e+005,-1.68845419083753e+001,-1.04711877757710e+000

1.26406609898139e+005,-1.68847062426752e+001,-1.06140299148361e+000

1.28171180414339e+005,-1.68848743678275e+001,-1.07587422876538e+000

1.29960383416997e+005,-1.68850463498928e+001,-1.09053468666652e+000

1.31774562762811e+005,-1.68852222549891e+001,-1.10538658226637e+000

1.33614067108538e+005,-1.68854021492270e+001,-1.12043215266733e+000

1.35479249978003e+005,-1.68855860986422e+001,-1.13567365519215e+000

1.37370469830040e+005,-1.68857741691242e+001,-1.15111336760334e+000

1.39288090127379e+005,-1.68859664263423e+001,-1.16675358833670e+000

1.41232479406504e+005,-1.68861629356677e+001,-1.18259663675662e+000

1.43204011348474e+005,-1.68863637620926e+001,-1.19864485343254e+000

1.45203064850745e+005,-1.68865689701461e+001,-1.21490060043725e+000

1.47230024099979e+005,-1.68867786238066e+001,-1.23136626166919e+000

1.49285278645888e+005,-1.68869927864113e+001,-1.24804424320014e+000

1.51369223476094e+005,-1.68872115205617e+001,-1.26493697365135e+000

1.53482259092041e+005,-1.68874348880267e+001,-1.28204690459678e+000

1.55624791585964e+005,-1.68876629496425e+001,-1.29937651099783e+000

1.57797232718936e+005,-1.68878957652085e+001,-1.31692829167152e+000

1.59999999999999e+005,-1.68881333933818e+001,-1.33470476978931e+000

1.62233516766403e+005,-1.68883758915673e+001,-1.35270849341541e+000

1.64498212264969e+005,-1.68886233158065e+001,-1.37094203607930e+000

1.66794521734578e+005,-1.68888757206619e+001,-1.38940799739062e+000

1.69122886489819e+005,-1.68891331591011e+001,-1.40810900369343e+000

1.71483754005805e+005,-1.68893956823767e+001,-1.42704770876269e+000

1.73877578004168e+005,-1.68896633399056e+001,-1.44622679454742e+000

1.76304818540256e+005,-1.68899361791453e+001,-1.46564897195802e+000

1.78765942091554e+005,-1.68902142454696e+001,-1.48531698170306e+000

1.81261421647326e+005,-1.68904975820419e+001,-1.50523359517691e+000

1.83791736799524e+005,-1.68907862296882e+001,-1.52540161539484e+000

1.86357373834951e+005,-1.68910802267690e+001,-1.54582387798670e+000

1.88958825828723e+005,-1.68913796090510e+001,-1.56650325223882e+000

1.91596592739027e+005,-1.68916844095778e+001,-1.58744264219883e+000

1.94271181503206e+005,-1.68919946585418e+001,-1.60864498783012e+000

1.96983106135185e+005,-1.68923103831564e+001,-1.63011326623227e+000

1.99732887824256e+005,-1.68926316075289e+001,-1.65185049291402e+000

2.02521055035243e+005,-1.68929583525349e+001,-1.67385972313342e+000

2.05348143610063e+005,-1.68932906356949e+001,-1.69614405329356e+000

2.08214696870707e+005,-1.68936284710527e+001,-1.71870662240429e+000

2.11121265723661e+005,-1.68939718690569e+001,-1.74155061360556e+000

2.14068408765776e+005,-1.68943208364454e+001,-1.76467925575337e+000

2.17056692391625e+005,-1.68946753761340e+001,-1.78809582506807e+000

2.20086690902357e+005,-1.68950354871086e+001,-1.81180364684795e+000

2.23158986616063e+005,-1.68954011643231e+001,-1.83580609724353e+000

2.26274169979693e+005,-1.68957723986013e+001,-1.86010660509674e+000

2.29432839682530e+005,-1.68961491765463e+001,-1.88470865383868e+000

2.32635602771247e+005,-1.68965314804545e+001,-1.90961578345149e+000

2.35883074766574e+005,-1.68969192882380e+001,-1.93483159248732e+000

2.39175879781588e+005,-1.68973125733532e+001,-1.96035974014715e+000

2.42514650641661e+005,-1.68977113047384e+001,-1.98620394841608e+000

2.45900029006080e+005,-1.68981154467590e+001,-2.01236800425238e+000

2.49332665491357e+005,-1.68985249591623e+001,-2.03885576183019e+000

2.52813219796278e+005,-1.68989397970417e+001,-2.06567114483203e+000

2.56342360828676e+005,-1.68993599108106e+001,-2.09281814878798e+000

2.59920766833993e+005,-1.68997852461870e+001,-2.12030084346034e+000

2.63549125525621e+005,-1.69002157441889e+001,-2.14812337526959e+000

2.67228134217075e+005,-1.69006513411410e+001,-2.17628996975723e+000

2.70958499956006e+005,-1.69010919686932e+001,-2.20480493408358e+000

2.74740939660078e+005,-1.69015375538507e+001,-2.23367265955624e+000

2.78576180254757e+005,-1.69019880190174e+001,-2.26289762418334e+000

2.82464958813007e+005,-1.69024432820507e+001,-2.29248439524993e+000

2.86408022696948e+005,-1.69029032563301e+001,-2.32243763191205e+000

2.90406129701488e+005,-1.69033678508385e+001,-2.35276208780192e+000

2.94460048199957e+005,-1.69038369702567e+001,-2.38346261364247e+000

2.98570557291775e+005,-1.69043105150710e+001,-2.41454415986583e+000

3.02738446952187e+005,-1.69047883816948e+001,-2.44601177922663e+000

3.06964518184081e+005,-1.69052704626029e+001,-2.47787062941220e+000

3.11249583171928e+005,-1.69057566464791e+001,-2.51012597563853e+000

3.15594465437872e+005,-1.69062468183770e+001,-2.54278319322950e+000

3.19999999999997e+005,-1.69067408598944e+001,-2.57584777017283e+000

3.24467033532806e+005,-1.69072386493591e+001,-2.60932530965200e+000

3.28996424529938e+005,-1.69077400620283e+001,-2.64322153254116e+000

3.33589043469155e+005,-1.69082449702997e+001,-2.67754227986645e+000

3.38245772979638e+005,-1.69087532439342e+001,-2.71229351522395e+000

3.42967508011610e+005,-1.69092647502894e+001,-2.74748132715076e+000

3.47755156008335e+005,-1.69097793545650e+001,-2.78311193144614e+000

3.52609637080511e+005,-1.69102969200570e+001,-2.81919167343667e+000

3.57531884183106e+005,-1.69108173084222e+001,-2.85572703018229e+000

3.62522843294651e+005,-1.69113403799514e+001,-2.89272461262053e+000

3.67583473599047e+005,-1.69118659938504e+001,-2.93019116764493e+000

3.72714747669902e+005,-1.69123940085292e+001,-2.96813358011191e+000

3.77917651657445e+005,-1.69129242818970e+001,-3.00655887477933e+000

3.83193185478053e+005,-1.69134566716634e+001,-3.04547421816955e+000

3.88542363006410e+005,-1.69139910356449e+001,-3.08488692035598e+000

3.93966212270369e+005,-1.69145272320746e+001,-3.12480443667358e+000

3.99465775648511e+005,-1.69150651199161e+001,-3.16523436935030e+000

4.05042110070485e+005,-1.69156045591795e+001,-3.20618446905938e+000

4.10696287220124e+005,-1.69161454112386e+001,-3.24766263639248e+000

4.16429393741414e+005,-1.69166875391485e+001,-3.28967692325429e+000

4.22242531447321e+005,-1.69172308079640e+001,-3.33223553417661e+000

4.28136817531551e+005,-1.69177750850549e+001,-3.37534682755866e+000

4.34113384783250e+005,-1.69183202404214e+001,-3.41901931682664e+000

4.40173381804713e+005,-1.69188661470043e+001,-3.46326167152446e+000

4.46317973232124e+005,-1.69194126809934e+001,-3.50808271832804e+000

4.52548339959385e+005,-1.69199597221300e+001,-3.55349144199392e+000

4.58865679365059e+005,-1.69205071540042e+001,-3.59949698624030e+000

4.65271205542494e+005,-1.69210548643469e+001,-3.64610865456577e+000

4.71766149533147e+005,-1.69216027453140e+001,-3.69333591100901e+000

4.78351759563174e+005,-1.69221506937639e+001,-3.74118838085502e+000

4.85029301283321e+005,-1.69226986115260e+001,-3.78967585128901e+000

4.91800058012158e+005,-1.69232464056619e+001,-3.83880827200583e+000

4.98665330982714e+005,-1.69237939887159e+001,-3.88859575577796e+000

5.05626439592555e+005,-1.69243412789573e+001,-3.93904857898767e+000

5.12684721657352e+005,-1.69248882006122e+001,-3.99017718212802e+000

5.19841533667984e+005,-1.69254346840844e+001,-4.04199217027873e+000

5.27098251051240e+005,-1.69259806661666e+001,-4.09450431356294e+000

5.34456268434150e+005,-1.69265260902404e+001,-4.14772454758689e+000

5.41916999912011e+005,-1.69270709064652e+001,-4.20166397387379e+000

