Freq.,VOut,OutRef

1.00000000000000e+004,-1.32045453376747e+000,-1.33384735844960e-001

1.01395947979003e+004,-1.32045449284608e+000,-1.35246714361027e-001

1.02811382665607e+004,-1.32045445077339e+000,-1.37134685001629e-001

1.04246576084112e+004,-1.32045440751720e+000,-1.39049010596332e-001

1.05701804056138e+004,-1.32045436304396e+000,-1.40990059042572e-001

1.07177346253629e+004,-1.32045431731951e+000,-1.42958203370856e-001

1.08673486252606e+004,-1.32045427030869e+000,-1.44953821818781e-001

1.10190511587661e+004,-1.32045422197521e+000,-1.46977297905188e-001

1.11728713807222e+004,-1.32045417228168e+000,-1.49029020502273e-001

1.13288388529580e+004,-1.32045412119010e+000,-1.51109383908229e-001

1.14869835499703e+004,-1.32045406866093e+000,-1.53218787927196e-001

1.16473358646846e+004,-1.32045401465369e+000,-1.55357637943609e-001

1.18099266142953e+004,-1.32045395912676e+000,-1.57526345000423e-001

1.19747870461893e+004,-1.32045390203746e+000,-1.59725325877652e-001

1.21419488439505e+004,-1.32045384334158e+000,-1.61955003174465e-001

1.23114441334492e+004,-1.32045378299397e+000,-1.64215805387530e-001

1.24833054890161e+004,-1.32045372094805e+000,-1.66508166995641e-001

1.26575659397028e+004,-1.32045365715612e+000,-1.68832528540883e-001

1.28342589756290e+004,-1.32045359156888e+000,-1.71189336716613e-001

1.30134185544193e+004,-1.32045352413583e+000,-1.73579044449520e-001

1.31950791077289e+004,-1.32045345480485e+000,-1.76002110990260e-001

1.33792755478611e+004,-1.32045338352252e+000,-1.78459001998753e-001

1.35660432744767e+004,-1.32045331023389e+000,-1.80950189634995e-001

1.37554181813974e+004,-1.32045323488245e+000,-1.83476152649413e-001

1.39474366635040e+004,-1.32045315740991e+000,-1.86037376476075e-001

1.41421356237309e+004,-1.32045307775660e+000,-1.88634353323583e-001

1.43395524801583e+004,-1.32045299586111e+000,-1.91267582271315e-001

1.45397251732031e+004,-1.32045291166023e+000,-1.93937569364853e-001

1.47426921729110e+004,-1.32045282508879e+000,-1.96644827714836e-001

1.49484924863494e+004,-1.32045273608029e+000,-1.99389877590840e-001

1.51571656651040e+004,-1.32045264456564e+000,-2.02173246528503e-001

1.53687518128801e+004,-1.32045255047449e+000,-2.04995469423015e-001

1.55832915932100e+004,-1.32045245373402e+000,-2.07857088638284e-001

1.58008262372675e+004,-1.32045235426959e+000,-2.10758654107376e-001

1.60213975517924e+004,-1.32045225200431e+000,-2.13700723440079e-001

1.62450479271247e+004,-1.32045214685923e+000,-2.16683862028610e-001

1.64718203453514e+004,-1.32045203875316e+000,-2.19708643156978e-001

1.67017583885674e+004,-1.32045192760244e+000,-2.22775648112189e-001

1.69349062472505e+004,-1.32045181332138e+000,-2.25885466292389e-001

1.71713087287550e+004,-1.32045169582147e+000,-2.29038695325277e-001

1.74110112659224e+004,-1.32045157501197e+000,-2.32235941177997e-001

1.76540599258131e+004,-1.32045145079939e+000,-2.35477818276987e-001

1.79005014185594e+004,-1.32045132308777e+000,-2.38764949623710e-001

1.81503831063432e+004,-1.32045119177830e+000,-2.42097966915626e-001

1.84037530124975e+004,-1.32045105676948e+000,-2.45477510667029e-001

1.86606598307361e+004,-1.32045091795683e+000,-2.48904230332224e-001

1.89211529345119e+004,-1.32045077523289e+000,-2.52378784430901e-001

1.91852823865052e+004,-1.32045062848720e+000,-2.55901840673612e-001

1.94530989482457e+004,-1.32045047760625e+000,-2.59474076089647e-001

1.97246540898671e+004,-1.32045032247318e+000,-2.63096177158572e-001

1.99999999999999e+004,-1.32045016296790e+000,-2.66768839941360e-001

2.02791895958005e+004,-1.32044999896688e+000,-2.70492770213474e-001

2.05622765331213e+004,-1.32044983034300e+000,-2.74268683602145e-001

2.08493152168224e+004,-1.32044965696558e+000,-2.78097305721895e-001

2.11403608112276e+004,-1.32044947870042e+000,-2.81979372313611e-001

2.14354692507258e+004,-1.32044929540918e+000,-2.85915629389024e-001

2.17346972505211e+004,-1.32044910694983e+000,-2.89906833370103e-001

2.20381023175322e+004,-1.32044891317616e+000,-2.93953751237371e-001

2.23457427614443e+004,-1.32044871393796e+000,-2.98057160674216e-001

2.26576777059159e+004,-1.32044850908060e+000,-3.02217850219374e-001

2.29739670999406e+004,-1.32044829844496e+000,-3.06436619417042e-001

2.32946717293690e+004,-1.32044808186770e+000,-3.10714278968610e-001

2.36198532285905e+004,-1.32044785918051e+000,-3.15051650891809e-001

2.39495740923785e+004,-1.32044763021053e+000,-3.19449568675200e-001

2.42838976879009e+004,-1.32044739477982e+000,-3.23908877440583e-001

2.46228882668982e+004,-1.32044715270545e+000,-3.28430434104340e-001

2.49666109780322e+004,-1.32044690379913e+000,-3.33015107541856e-001

2.53151318794055e+004,-1.32044664786743e+000,-3.37663778754497e-001

2.56685179512580e+004,-1.32044638471123e+000,-3.42377341038613e-001

2.60268371088386e+004,-1.32044611412569e+000,-3.47156700158277e-001

2.63901582154578e+004,-1.32044583590016e+000,-3.52002774517204e-001

2.67585510957221e+004,-1.32044554981822e+000,-3.56916495334783e-001

2.71320865489533e+004,-1.32044525565686e+000,-3.61898806828452e-001

2.75108363627948e+004,-1.32044495318684e+000,-3.66950666391697e-001

2.78948733270080e+004,-1.32044464217249e+000,-3.72073044777564e-001

2.82842712474618e+004,-1.32044432237125e+000,-3.77266926287343e-001

2.86791049603164e+004,-1.32044399353361e+000,-3.82533308958044e-001

2.90794503464061e+004,-1.32044365540304e+000,-3.87873204753799e-001

2.94853843458219e+004,-1.32044330771549e+000,-3.93287639760824e-001

2.98969849726987e+004,-1.32044295019935e+000,-3.98777654384271e-001

3.03143313302078e+004,-1.32044258257545e+000,-4.04344303546558e-001

3.07375036257601e+004,-1.32044220455621e+000,-4.09988656892866e-001

3.11665831864199e+004,-1.32044181584608e+000,-4.15711798992905e-001

3.16016524745350e+004,-1.32044141614094e+000,-4.21514829550989e-001

3.20427951035848e+004,-1.32044100512792e+000,-4.27398863616723e-001

3.24900958542493e+004,-1.32044058248501e+000,-4.33365031799860e-001

3.29436406907028e+004,-1.32044014788113e+000,-4.39414480484865e-001

3.34035167771346e+004,-1.32043970097556e+000,-4.45548372053323e-001

3.38698124945009e+004,-1.32043924141783e+000,-4.51767885105334e-001

3.43426174575100e+004,-1.32043876884699e+000,-4.58074214688126e-001

3.48220225318448e+004,-1.32043828289226e+000,-4.64468572520707e-001

3.53081198516260e+004,-1.32043778317160e+000,-4.70952187231695e-001

3.58010028371187e+004,-1.32043726929233e+000,-4.77526304590469e-001

3.63007662126863e+004,-1.32043674085015e+000,-4.84192187749460e-001

3.68075060249948e+004,-1.32043619742908e+000,-4.90951117484849e-001

3.73213196614721e+004,-1.32043563860123e+000,-4.97804392441909e-001

3.78423058690237e+004,-1.32043506392604e+000,-5.04753329385708e-001

3.83705647730104e+004,-1.32043447295042e+000,-5.11799263451458e-001

3.89061978964912e+004,-1.32043386520795e+000,-5.18943548402746e-001

3.94493081797342e+004,-1.32043324021873e+000,-5.26187556889516e-001

3.99999999999998e+004,-1.32043259748885e+000,-5.33532680711869e-001

4.05583791916010e+004,-1.32043193650999e+000,-5.40980331087705e-001

4.11245530662425e+004,-1.32043125675903e+000,-5.48531938922103e-001

4.16986304336447e+004,-1.32043055769761e+000,-5.56188955082106e-001

4.22807216224550e+004,-1.32042983877160e+000,-5.63952850675016e-001

4.28709385014515e+004,-1.32042909941076e+000,-5.71825117330474e-001

4.34693945010421e+004,-1.32042833902800e+000,-5.79807267486515e-001

4.40762046350642e+004,-1.32042755701912e+000,-5.87900834678938e-001

4.46914855228886e+004,-1.32042675276229e+000,-5.96107373835459e-001

4.53153554118317e+004,-1.32042592561728e+000,-6.04428461574120e-001

4.59479341998812e+004,-1.32042507492507e+000,-6.12865696505723e-001

4.65893434587380e+004,-1.32042420000738e+000,-6.21420699538477e-001

4.72397064571810e+004,-1.32042330016582e+000,-6.30095114190856e-001

4.78991481847569e+004,-1.32042237468144e+000,-6.38890606905184e-001

4.85677953758016e+004,-1.32042142281412e+000,-6.47808867367156e-001

4.92457765337964e+004,-1.32042044380183e+000,-6.56851608829725e-001

4.99332219560642e+004,-1.32041943686000e+000,-6.66020568441464e-001

5.06302637588109e+004,-1.32041840118087e+000,-6.75317507578851e-001

5.13370359025159e+004,-1.32041733593270e+000,-6.84744212184375e-001

5.20536742176771e+004,-1.32041624025902e+000,-6.94302493108112e-001

5.27803164309155e+004,-1.32041511327798e+000,-7.03994186454446e-001

5.35171021914442e+004,-1.32041395408137e+000,-7.13821153935010e-001

5.42641730979066e+004,-1.32041276173400e+000,-7.23785283223108e-001

5.50216727255895e+004,-1.32041153527286e+000,-7.33888488316424e-001

5.57897466540159e+004,-1.32041027370606e+000,-7.44132709903763e-001

5.65685424949235e+004,-1.32040897601191e+000,-7.54519915736579e-001

5.73582099206328e+004,-1.32040764113841e+000,-7.65052101004517e-001

5.81589006928121e+004,-1.32040626800173e+000,-7.75731288719134e-001

5.89707686916437e+004,-1.32040485548565e+000,-7.86559530099879e-001

5.97939699453972e+004,-1.32040340244031e+000,-7.97538904967095e-001

6.06286626604156e+004,-1.32040190768119e+000,-8.08671522140236e-001

6.14750072515201e+004,-1.32040036998807e+000,-8.19959519841644e-001

6.23331663728396e+004,-1.32039878810382e+000,-8.31405066105122e-001

6.32033049490698e+004,-1.32039716073326e+000,-8.43010359191949e-001

6.40855902071694e+004,-1.32039548654206e+000,-8.54777628009662e-001

6.49801917084985e+004,-1.32039376415522e+000,-8.66709132540947e-001

6.58872813814055e+004,-1.32039199215612e+000,-8.78807164273385e-001

6.68070335542691e+004,-1.32039016908483e+000,-8.91074046640901e-001

6.77396249890018e+004,-1.32038829343703e+000,-9.03512135464972e-001

6.86852349150199e+004,-1.32038636366241e+000,-9.16123819407782e-001

6.96440450636895e+004,-1.32038437816320e+000,-9.28911520428051e-001

7.06162397032520e+004,-1.32038233529273e+000,-9.41877694244354e-001

7.16020056742374e+004,-1.32038023335376e+000,-9.55024830804772e-001

7.26015324253724e+004,-1.32037807059674e+000,-9.68355454764013e-001

7.36150120499896e+004,-1.32037584521849e+000,-9.81872125964457e-001

7.46426393229441e+004,-1.32037355535997e+000,-9.95577439927304e-001

7.56846117380472e+004,-1.32037119910488e+000,-1.00947402834768e+000

7.67411295460207e+004,-1.32036877447752e+000,-1.02356455959880e+000

7.78123957929823e+004,-1.32036627944092e+000,-1.03785173924200e+000

7.88986163594682e+004,-1.32036371189489e+000,-1.05233831054317e+000

7.99999999999995e+004,-1.32036106967387e+000,-1.06702705499852e+000

8.11167583832018e+004,-1.32035835054484e+000,-1.08192079286545e+000

8.22491061324848e+004,-1.32035555220514e+000,-1.09702238370182e+000

8.33972608672892e+004,-1.32035267227992e+000,-1.11233472691349e+000

8.45614432449099e+004,-1.32034970832012e+000,-1.12786076230730e+000

8.57418770029029e+004,-1.32034665779977e+000,-1.14360347065410e+000

8.69387890020841e+004,-1.32034351811352e+000,-1.15956587425825e+000

8.81524092701283e+004,-1.32034028657399e+000,-1.17575103753522e+000

8.93829710457770e+004,-1.32033696040908e+000,-1.19216206759735e+000

9.06307108236633e+004,-1.32033353675898e+000,-1.20880211484931e+000

9.18958683997622e+004,-1.32033001267358e+000,-1.22567437358801e+000

9.31786869174758e+004,-1.32032638510913e+000,-1.24278208261505e+000

9.44794129143618e+004,-1.32032265092537e+000,-1.26012852585512e+000

9.57982963695136e+004,-1.32031880688204e+000,-1.27771703298471e+000

9.71355907516031e+004,-1.32031484963573e+000,-1.29555098006837e+000

9.84915530675926e+004,-1.32031077573641e+000,-1.31363379020388e+000

9.98664439121282e+004,-1.32030658162381e+000,-1.33196893417734e+000

1.01260527517622e+005,-1.32030226362365e+000,-1.35055993112728e+000

1.02674071805032e+005,-1.32029781794397e+000,-1.36941034921750e+000

1.04107348435354e+005,-1.32029324067110e+000,-1.38852380631918e+000

1.05560632861831e+005,-1.32028852776543e+000,-1.40790397070438e+000

1.07034204382888e+005,-1.32028367505753e+000,-1.42755456174605e+000

1.08528346195813e+005,-1.32027867824336e+000,-1.44747935063205e+000

1.10043345451179e+005,-1.32027353288010e+000,-1.46768216108528e+000

1.11579493308032e+005,-1.32026823438129e+000,-1.48816687009575e+000

1.13137084989847e+005,-1.32026277801198e+000,-1.50893740866460e+000

1.14716419841265e+005,-1.32025715888391e+000,-1.52999776255476e+000

1.16317801385624e+005,-1.32025137195010e+000,-1.55135197305638e+000

1.17941537383287e+005,-1.32024541199985e+000,-1.57300413775943e+000

1.19587939890794e+005,-1.32023927365288e+000,-1.59495841134047e+000

1.21257325320831e+005,-1.32023295135398e+000,-1.61721900635782e+000

1.22950014503040e+005,-1.32022643936682e+000,-1.63979019406069e+000

1.24666332745679e+005,-1.32021973176817e+000,-1.66267630520713e+000

1.26406609898139e+005,-1.32021282244143e+000,-1.68588173089574e+000

1.28171180414339e+005,-1.32020570507037e+000,-1.70941092340854e+000

1.29960383416997e+005,-1.32019837313230e+000,-1.73326839706487e+000

1.31774562762811e+005,-1.32019081989126e+000,-1.75745872908992e+000

1.33614067108538e+005,-1.32018303839091e+000,-1.78198656049310e+000

1.35479249978003e+005,-1.32017502144721e+000,-1.80685659696088e+000

1.37370469830040e+005,-1.32016676164098e+000,-1.83207360976082e+000

1.39288090127379e+005,-1.32015825130997e+000,-1.85764243666057e+000

1.41232479406504e+005,-1.32014948254094e+000,-1.88356798285831e+000

1.43204011348474e+005,-1.32014044716139e+000,-1.90985522192814e+000

1.45203064850745e+005,-1.32013113673101e+000,-1.93650919677744e+000

1.47230024099979e+005,-1.32012154253301e+000,-1.96353502061997e+000

1.49285278645888e+005,-1.32011165556503e+000,-1.99093787796108e+000

1.51369223476094e+005,-1.32010146652998e+000,-2.01872302559909e+000

1.53482259092041e+005,-1.32009096582624e+000,-2.04689579364038e+000

1.55624791585964e+005,-1.32008014353809e+000,-2.07546158652894e+000

1.57797232718936e+005,-1.32006898942550e+000,-2.10442588409137e+000

1.59999999999999e+005,-1.32005749291372e+000,-2.13379424259701e+000

1.62233516766403e+005,-1.32004564308275e+000,-2.16357229583348e+000

1.64498212264969e+005,-1.32003342865610e+000,-2.19376575619879e+000

1.66794521734578e+005,-1.32002083798988e+000,-2.22438041580757e+000

1.69122886489819e+005,-1.32000785906088e+000,-2.25542214761565e+000

1.71483754005805e+005,-1.31999447945501e+000,-2.28689690655966e+000

1.73877578004168e+005,-1.31998068635481e+000,-2.31881073071445e+000

1.76304818540256e+005,-1.31996646652731e+000,-2.35116974246639e+000

1.78765942091554e+005,-1.31995180631086e+000,-2.38398014970489e+000

1.81261421647326e+005,-1.31993669160223e+000,-2.41724824703165e+000

1.83791736799524e+005,-1.31992110784302e+000,-2.45098041698688e+000

1.86357373834951e+005,-1.31990504000600e+000,-2.48518313129348e+000

1.88958825828723e+005,-1.31988847258079e+000,-2.51986295212173e+000

1.91596592739027e+005,-1.31987138955965e+000,-2.55502653336946e+000

1.94271181503206e+005,-1.31985377442245e+000,-2.59068062196413e+000

1.96983106135185e+005,-1.31983561012160e+000,-2.62683205918231e+000

1.99732887824256e+005,-1.31981687906665e+000,-2.66348778198958e+000

2.02521055035243e+005,-1.31979756310836e+000,-2.70065482439948e+000

2.05348143610063e+005,-1.31977764352257e+000,-2.73834031885378e+000

2.08214696870707e+005,-1.31975710099365e+000,-2.77655149762202e+000

2.11121265723661e+005,-1.31973591559744e+000,-2.81529569422278e+000

2.14068408765776e+005,-1.31971406678435e+000,-2.85458034486462e+000

2.17056692391625e+005,-1.31969153336149e+000,-2.89441298990992e+000

2.20086690902357e+005,-1.31966829347459e+000,-2.93480127535970e+000

2.23158986616063e+005,-1.31964432458994e+000,-2.97575295435963e+000

2.26274169979693e+005,-1.31961960347541e+000,-3.01727588873001e+000

2.29432839682530e+005,-1.31959410618157e+000,-3.05937805051596e+000

2.32635602771247e+005,-1.31956780802205e+000,-3.10206752356283e+000

2.35883074766574e+005,-1.31954068355363e+000,-3.14535250511400e+000

2.39175879781588e+005,-1.31951270655619e+000,-3.18924130743103e+000

2.42514650641661e+005,-1.31948385001190e+000,-3.23374235943893e+000

2.45900029006080e+005,-1.31945408608429e+000,-3.27886420839548e+000

2.49332665491357e+005,-1.31942338609666e+000,-3.32461552158457e+000

2.52813219796278e+005,-1.31939172051038e+000,-3.37100508803430e+000

2.56342360828676e+005,-1.31935905890248e+000,-3.41804182026044e+000

2.59920766833993e+005,-1.31932536994303e+000,-3.46573475603562e+000

2.63549125525621e+005,-1.31929062137191e+000,-3.51409306018321e+000

2.67228134217075e+005,-1.31925477997542e+000,-3.56312602639808e+000

2.70958499956006e+005,-1.31921781156196e+000,-3.61284307909442e+000

2.74740939660078e+005,-1.31917968093773e+000,-3.66325377527858e+000

2.78576180254757e+005,-1.31914035188175e+000,-3.71436780645044e+000

2.82464958813007e+005,-1.31909978712024e+000,-3.76619500053159e+000

2.86408022696948e+005,-1.31905794830067e+000,-3.81874532382197e+000

2.90406129701488e+005,-1.31901479596542e+000,-3.87202888298336e+000

2.94460048199957e+005,-1.31897028952450e+000,-3.92605592705292e+000

2.98570557291775e+005,-1.31892438722809e+000,-3.98083684948453e+000

3.02738446952187e+005,-1.31887704613823e+000,-4.03638219021983e+000

3.06964518184081e+005,-1.31882822210016e+000,-4.09270263778864e+000

3.11249583171928e+005,-1.31877786971286e+000,-4.14980903143992e+000

3.15594465437872e+005,-1.31872594229890e+000,-4.20771236330222e+000

3.19999999999997e+005,-1.31867239187381e+000,-4.26642378057634e+000

3.24467033532806e+005,-1.31861716911464e+000,-4.32595458775786e+000

3.28996424529938e+005,-1.31856022332761e+000,-4.38631624889215e+000

3.33589043469155e+005,-1.31850150241548e+000,-4.44752038986128e+000

3.38245772979638e+005,-1.31844095284356e+000,-4.50957880070364e+000

3.42967508011610e+005,-1.31837851960533e+000,-4.57250343796616e+000

3.47755156008335e+005,-1.31831414618693e+000,-4.63630642709087e+000

3.52609637080511e+005,-1.31824777453085e+000,-4.70100006483476e+000

3.57531884183106e+005,-1.31817934499879e+000,-4.76659682172454e+000

3.62522843294651e+005,-1.31810879633332e+000,-4.83310934454630e+000

3.67583473599047e+005,-1.31803606561870e+000,-4.90055045887096e+000

3.72714747669902e+005,-1.31796108824059e+000,-4.96893317161568e+000

3.77917651657445e+005,-1.31788379784459e+000,-5.03827067364232e+000

3.83193185478053e+005,-1.31780412629384e+000,-5.10857634239305e+000

3.88542363006410e+005,-1.31772200362506e+000,-5.17986374456440e+000

3.93966212270369e+005,-1.31763735800378e+000,-5.25214663881869e+000

3.99465775648511e+005,-1.31755011567802e+000,-5.32543897853639e+000

4.05042110070485e+005,-1.31746020093065e+000,-5.39975491460772e+000

4.10696287220124e+005,-1.31736753603037e+000,-5.47510879826496e+000

4.16429393741414e+005,-1.31727204118143e+000,-5.55151518395557e+000

4.22242531447321e+005,-1.31717363447162e+000,-5.62898883225895e+000

4.28136817531551e+005,-1.31707223181884e+000,-5.70754471284527e+000

4.34113384783250e+005,-1.31696774691598e+000,-5.78719800747773e+000

4.40173381804713e+005,-1.31686009117449e+000,-5.86796411306009e+000

4.46317973232124e+005,-1.31674917366566e+000,-5.94985864472954e+000

4.52548339959385e+005,-1.31663490106076e+000,-6.03289743899577e+000

4.58865679365059e+005,-1.31651717756898e+000,-6.11709655692731e+000

4.65271205542494e+005,-1.31639590487351e+000,-6.20247228738641e+000

4.71766149533147e+005,-1.31627098206611e+000,-6.28904115031198e+000

4.78351759563174e+005,-1.31614230557915e+000,-6.37681990005401e+000

4.85029301283321e+005,-1.31600976911612e+000,-6.46582552875821e+000

4.91800058012158e+005,-1.31587326357965e+000,-6.55607526980332e+000

4.98665330982714e+005,-1.31573267699773e+000,-6.64758660129116e+000

5.05626439592555e+005,-1.31558789444756e+000,-6.74037724959139e+000

5.12684721657352e+005,-1.31543879797718e+000,-6.83446519294175e+000

5.19841533667984e+005,-1.31528526652490e+000,-6.92986866510425e+000

5.27098251051240e+005,-1.31512717583632e+000,-7.02660615907990e+000

5.34456268434150e+005,-1.31496439837879e+000,-7.12469643088193e+000

5.41916999912011e+005,-1.31479680325382e+000,-7.22415850336941e+000

