Freq.,VOut,OutRef

1.00000000000000e+004,-2.94091494703942e+001,-1.02726239708199e-001

1.01395947979003e+004,-2.94091500392232e+001,-1.04160171698353e-001

1.02811382665607e+004,-2.94091506240282e+001,-1.05614117541491e-001

1.04246576084112e+004,-2.94091512252575e+001,-1.07088356488270e-001

1.05701804056138e+004,-2.94091518433720e+001,-1.08583171683223e-001

1.07177346253629e+004,-2.94091524788450e+001,-1.10098850220075e-001

1.08673486252606e+004,-2.94091531321639e+001,-1.11635683188746e-001

1.10190511587661e+004,-2.94091538038291e+001,-1.13193965741051e-001

1.11728713807222e+004,-2.94091544943552e+001,-1.14773997139828e-001

1.13288388529580e+004,-2.94091552042710e+001,-1.16376080820802e-001

1.14869835499703e+004,-2.94091559341204e+001,-1.18000524446510e-001

1.16473358646846e+004,-2.94091566844627e+001,-1.19647639965659e-001

1.18099266142953e+004,-2.94091574558722e+001,-1.21317743678222e-001

1.19747870461893e+004,-2.94091582489396e+001,-1.23011156287589e-001

1.21419488439505e+004,-2.94091590642724e+001,-1.24728202966427e-001

1.23114441334492e+004,-2.94091599024945e+001,-1.26469213419329e-001

1.24833054890161e+004,-2.94091607642475e+001,-1.28234521944381e-001

1.26575659397028e+004,-2.94091616501914e+001,-1.30024467493403e-001

1.28342589756290e+004,-2.94091625610039e+001,-1.31839393743139e-001

1.30134185544193e+004,-2.94091634973819e+001,-1.33679649157094e-001

1.31950791077289e+004,-2.94091644600419e+001,-1.35545587052005e-001

1.33792755478611e+004,-2.94091654497205e+001,-1.37437565664598e-001

1.35660432744767e+004,-2.94091664671744e+001,-1.39355948222652e-001

1.37554181813974e+004,-2.94091675131819e+001,-1.41301103010097e-001

1.39474366635040e+004,-2.94091685885429e+001,-1.43273403440324e-001

1.41421356237309e+004,-2.94091696940796e+001,-1.45273228126065e-001

1.43395524801583e+004,-2.94091708306369e+001,-1.47300960952000e-001

1.45397251732031e+004,-2.94091719990836e+001,-1.49356991146909e-001

1.47426921729110e+004,-2.94091732003127e+001,-1.51441713356674e-001

1.49484924863494e+004,-2.94091744352419e+001,-1.53555527722468e-001

1.51571656651040e+004,-2.94091757048145e+001,-1.55698839955106e-001

1.53687518128801e+004,-2.94091770100006e+001,-1.57872061408662e-001

1.55832915932100e+004,-2.94091783517965e+001,-1.60075609167481e-001

1.58008262372675e+004,-2.94091797312268e+001,-1.62309906114360e-001

1.60213975517924e+004,-2.94091811493447e+001,-1.64575381018688e-001

1.62450479271247e+004,-2.94091826072323e+001,-1.66872468615361e-001

1.64718203453514e+004,-2.94091841060020e+001,-1.69201609687429e-001

1.67017583885674e+004,-2.94091856467973e+001,-1.71563251147614e-001

1.69349062472505e+004,-2.94091872307936e+001,-1.73957846125187e-001

1.71713087287550e+004,-2.94091888591986e+001,-1.76385854052288e-001

1.74110112659224e+004,-2.94091905332537e+001,-1.78847740750718e-001

1.76540599258131e+004,-2.94091922542351e+001,-1.81343978515954e-001

1.79005014185594e+004,-2.94091940234541e+001,-1.83875046213424e-001

1.81503831063432e+004,-2.94091958422586e+001,-1.86441429363023e-001

1.84037530124975e+004,-2.94091977120338e+001,-1.89043620234626e-001

1.86606598307361e+004,-2.94091996342037e+001,-1.91682117938427e-001

1.89211529345119e+004,-2.94092016102312e+001,-1.94357428523173e-001

1.91852823865052e+004,-2.94092036416203e+001,-1.97070065066473e-001

1.94530989482457e+004,-2.94092057299165e+001,-1.99820547774322e-001

1.97246540898671e+004,-2.94092078767080e+001,-2.02609404081007e-001

1.99999999999999e+004,-2.94092100836274e+001,-2.05437168743070e-001

2.02791895958005e+004,-2.94092123523519e+001,-2.08304383947988e-001

2.05622765331213e+004,-2.94092146846059e+001,-2.11211599406672e-001

2.08493152168224e+004,-2.94092170821607e+001,-2.14159372466050e-001

2.11403608112276e+004,-2.94092195468371e+001,-2.17148268207418e-001

2.14354692507258e+004,-2.94092220805060e+001,-2.20178859555762e-001

2.17346972505211e+004,-2.94092246850904e+001,-2.23251727384784e-001

2.20381023175322e+004,-2.94092273625657e+001,-2.26367460630353e-001

2.23457427614443e+004,-2.94092301149622e+001,-2.29526656397071e-001

2.26576777059159e+004,-2.94092329443665e+001,-2.32729920069265e-001

2.29739670999406e+004,-2.94092358529222e+001,-2.35977865430015e-001

2.32946717293690e+004,-2.94092388428323e+001,-2.39271114769100e-001

2.36198532285905e+004,-2.94092419163604e+001,-2.42610299004668e-001

2.39495740923785e+004,-2.94092450758322e+001,-2.45996057799663e-001

2.42838976879009e+004,-2.94092483236378e+001,-2.49429039677712e-001

2.46228882668982e+004,-2.94092516622326e+001,-2.52909902151114e-001

2.49666109780322e+004,-2.94092550941395e+001,-2.56439311837050e-001

2.53151318794055e+004,-2.94092586219511e+001,-2.60017944584069e-001

2.56685179512580e+004,-2.94092622483305e+001,-2.63646485600043e-001

2.60268371088386e+004,-2.94092659760143e+001,-2.67325629575283e-001

2.63901582154578e+004,-2.94092698078138e+001,-2.71056080816047e-001

2.67585510957221e+004,-2.94092737466174e+001,-2.74838553371576e-001

2.71320865489533e+004,-2.94092777953925e+001,-2.78673771169452e-001

2.75108363627948e+004,-2.94092819571876e+001,-2.82562468146659e-001

2.78948733270080e+004,-2.94092862351345e+001,-2.86505388388626e-001

2.82842712474618e+004,-2.94092906324503e+001,-2.90503286265495e-001

2.86791049603164e+004,-2.94092951524402e+001,-2.94556926569803e-001

2.90794503464061e+004,-2.94092997984990e+001,-2.98667084660993e-001

2.94853843458219e+004,-2.94093045741142e+001,-3.02834546605317e-001

2.98969849726987e+004,-2.94093094828681e+001,-3.07060109322249e-001

3.03143313302078e+004,-2.94093145284404e+001,-3.11344580729234e-001

3.07375036257601e+004,-2.94093197146104e+001,-3.15688779894097e-001

3.11665831864199e+004,-2.94093250452601e+001,-3.20093537181022e-001

3.16016524745350e+004,-2.94093305243767e+001,-3.24559694403346e-001

3.20427951035848e+004,-2.94093361560552e+001,-3.29088104979961e-001

3.24900958542493e+004,-2.94093419445014e+001,-3.33679634089163e-001

3.29436406907028e+004,-2.94093478940343e+001,-3.38335158829075e-001

3.34035167771346e+004,-2.94093540090898e+001,-3.43055568372982e-001

3.38698124945009e+004,-2.94093602942232e+001,-3.47841764136640e-001

3.43426174575100e+004,-2.94093667541121e+001,-3.52694659937946e-001

3.48220225318448e+004,-2.94093733935603e+001,-3.57615182164020e-001

3.53081198516260e+004,-2.94093802174998e+001,-3.62604269941335e-001

3.58010028371187e+004,-2.94093872309953e+001,-3.67662875302589e-001

3.63007662126863e+004,-2.94093944392471e+001,-3.72791963358857e-001

3.68075060249948e+004,-2.94094018475941e+001,-3.77992512477149e-001

3.73213196614721e+004,-2.94094094615180e+001,-3.83265514451593e-001

3.78423058690237e+004,-2.94094172866463e+001,-3.88611974686374e-001

3.83705647730104e+004,-2.94094253287564e+001,-3.94032912373346e-001

3.89061978964912e+004,-2.94094335937791e+001,-3.99529360675454e-001

3.94493081797342e+004,-2.94094420878026e+001,-4.05102366910998e-001

3.99999999999998e+004,-2.94094508170763e+001,-4.10752992742026e-001

4.05583791916010e+004,-2.94094597880145e+001,-4.16482314361410e-001

4.11245530662425e+004,-2.94094690072010e+001,-4.22291422687134e-001

4.16986304336447e+004,-2.94094784813929e+001,-4.28181423551935e-001

4.22807216224550e+004,-2.94094882175248e+001,-4.34153437903819e-001

4.28709385014515e+004,-2.94094982227136e+001,-4.40208601999401e-001

4.34693945010421e+004,-2.94095085042620e+001,-4.46348067608820e-001

4.40762046350642e+004,-2.94095190696640e+001,-4.52573002214708e-001

4.46914855228886e+004,-2.94095299266086e+001,-4.58884589220693e-001

4.53153554118317e+004,-2.94095410829851e+001,-4.65284028155518e-001

4.59479341998812e+004,-2.94095525468876e+001,-4.71772534884820e-001

4.65893434587380e+004,-2.94095643266196e+001,-4.78351341823109e-001

4.72397064571810e+004,-2.94095764306992e+001,-4.85021698147995e-001

4.78991481847569e+004,-2.94095888678644e+001,-4.91784870015706e-001

4.85677953758016e+004,-2.94096016470772e+001,-4.98642140782736e-001

4.92457765337964e+004,-2.94096147775299e+001,-5.05594811226827e-001

4.99332219560642e+004,-2.94096282686497e+001,-5.12644199770011e-001

5.06302637588109e+004,-2.94096421301042e+001,-5.19791642705767e-001

5.13370359025159e+004,-2.94096563718069e+001,-5.27038494429061e-001

5.20536742176771e+004,-2.94096710039226e+001,-5.34386127666308e-001

5.27803164309155e+004,-2.94096860368730e+001,-5.41835933711844e-001

5.35171021914442e+004,-2.94097014813426e+001,-5.49389322661379e-001

5.42641730979066e+004,-2.94097173482841e+001,-5.57047723653199e-001

5.50216727255895e+004,-2.94097336489244e+001,-5.64812585109880e-001

5.57897466540159e+004,-2.94097503947709e+001,-5.72685374980881e-001

5.65685424949235e+004,-2.94097675976166e+001,-5.80667580990640e-001

5.73582099206328e+004,-2.94097852695471e+001,-5.88760710888529e-001

5.81589006928121e+004,-2.94098034229458e+001,-5.96966292699216e-001

5.89707686916437e+004,-2.94098220705011e+001,-6.05285874977012e-001

5.97939699453972e+004,-2.94098412252118e+001,-6.13721027065943e-001

6.06286626604156e+004,-2.94098609003937e+001,-6.22273339356090e-001

6.14750072515201e+004,-2.94098811096862e+001,-6.30944423548467e-001

6.23331663728396e+004,-2.94099018670584e+001,-6.39735912918916e-001

6.32033049490698e+004,-2.94099231868156e+001,-6.48649462585949e-001

6.40855902071694e+004,-2.94099450836061e+001,-6.57686749783339e-001

6.49801917084985e+004,-2.94099675724272e+001,-6.66849474130991e-001

6.58872813814055e+004,-2.94099906686323e+001,-6.76139357912449e-001

6.68070335542691e+004,-2.94100143879372e+001,-6.85558146352502e-001

6.77396249890018e+004,-2.94100387464269e+001,-6.95107607900234e-001

6.86852349150199e+004,-2.94100637605619e+001,-7.04789534513124e-001

6.96440450636895e+004,-2.94100894471854e+001,-7.14605741943645e-001

7.06162397032520e+004,-2.94101158235290e+001,-7.24558070031076e-001

7.16020056742374e+004,-2.94101429072204e+001,-7.34648382992579e-001

7.26015324253724e+004,-2.94101707162895e+001,-7.44878569719959e-001

7.36150120499896e+004,-2.94101992691744e+001,-7.55250544080582e-001

7.46426393229441e+004,-2.94102285847290e+001,-7.65766245215663e-001

7.56846117380472e+004,-2.94102586822289e+001,-7.76427637848411e-001

7.67411295460207e+004,-2.94102895813775e+001,-7.87236712591151e-001

7.78123957929823e+004,-2.94103213023129e+001,-7.98195486256933e-001

7.88986163594682e+004,-2.94103538656143e+001,-8.09306002172204e-001

7.99999999999995e+004,-2.94103872923073e+001,-8.20570330496884e-001

8.11167583832018e+004,-2.94104216038707e+001,-8.31990568544156e-001

8.22491061324848e+004,-2.94104568222424e+001,-8.43568841103441e-001

8.33972608672892e+004,-2.94104929698247e+001,-8.55307300771043e-001

8.45614432449099e+004,-2.94105300694906e+001,-8.67208128278019e-001

8.57418770029029e+004,-2.94105681445884e+001,-8.79273532827527e-001

8.69387890020841e+004,-2.94106072189483e+001,-8.91505752430358e-001

8.81524092701283e+004,-2.94106473168860e+001,-9.03907054249429e-001

8.93829710457770e+004,-2.94106884632087e+001,-9.16479734944380e-001

9.06307108236633e+004,-2.94107306832192e+001,-9.29226121020073e-001

9.18958683997622e+004,-2.94107740027206e+001,-9.42148569182678e-001

9.31786869174758e+004,-2.94108184480198e+001,-9.55249466695869e-001

9.44794129143618e+004,-2.94108640459325e+001,-9.68531231741661e-001

9.57982963695136e+004,-2.94109108237852e+001,-9.81996313789528e-001

9.71355907516031e+004,-2.94109588094197e+001,-9.95647193965347e-001

9.84915530675926e+004,-2.94110080311951e+001,-1.00948638542615e+000

9.98664439121282e+004,-2.94110585179908e+001,-1.02351643374224e+000

1.01260527517622e+005,-2.94111102992080e+001,-1.03773991728206e+000

1.02674071805032e+005,-2.94111634047718e+001,-1.05215944760070e+000

1.04107348435354e+005,-2.94112178651322e+001,-1.06677766983811e+000

1.05560632861831e+005,-2.94112737112649e+001,-1.08159726311860e+000

1.07034204382888e+005,-2.94113309746715e+001,-1.09662094095837e+000

1.08528346195813e+005,-2.94113896873792e+001,-1.11185145167891e+000

1.10043345451179e+005,-2.94114498819402e+001,-1.12729157882587e+000

1.11579493308032e+005,-2.94115115914302e+001,-1.14294414159517e+000

1.13137084989847e+005,-2.94115748494464e+001,-1.15881199526457e+000

1.14716419841265e+005,-2.94116396901054e+001,-1.17489803163449e+000

1.16317801385624e+005,-2.94117061480395e+001,-1.19120517947490e+000

1.17941537383287e+005,-2.94117742583933e+001,-1.20773640497923e+000

1.19587939890794e+005,-2.94118440568194e+001,-1.22449471222707e+000

1.21257325320831e+005,-2.94119155794729e+001,-1.24148314365604e+000

1.22950014503040e+005,-2.94119888630057e+001,-1.25870478054194e+000

1.24666332745679e+005,-2.94120639445605e+001,-1.27616274348604e+000

1.26406609898139e+005,-2.94121408617627e+001,-1.29386019291511e+000

1.28171180414339e+005,-2.94122196527132e+001,-1.31180032959071e+000

1.29960383416997e+005,-2.94123003559791e+001,-1.32998639512639e+000

1.31774562762811e+005,-2.94123830105848e+001,-1.34842167251902e+000

1.33614067108538e+005,-2.94124676560010e+001,-1.36710948669014e+000

1.35479249978003e+005,-2.94125543321342e+001,-1.38605320503874e+000

1.37370469830040e+005,-2.94126430793148e+001,-1.40525623800782e+000

1.39288090127379e+005,-2.94127339382844e+001,-1.42472203966277e+000

1.41232479406504e+005,-2.94128269501821e+001,-1.44445410828422e+000

1.43204011348474e+005,-2.94129221565311e+001,-1.46445598697382e+000

1.45203064850745e+005,-2.94130195992229e+001,-1.48473126427727e+000

1.47230024099979e+005,-2.94131193205027e+001,-1.50528357481834e+000

1.49285278645888e+005,-2.94132213629516e+001,-1.52611659995476e+000

1.51369223476094e+005,-2.94133257694709e+001,-1.54723406844533e+000

1.53482259092041e+005,-2.94134325832637e+001,-1.56863975713713e+000

1.55624791585964e+005,-2.94135418478160e+001,-1.59033749167191e+000

1.57797232718936e+005,-2.94136536068786e+001,-1.61233114720710e+000

1.59999999999999e+005,-2.94137679044471e+001,-1.63462464916033e+000

1.62233516766403e+005,-2.94138847847417e+001,-1.65722197397195e+000

1.64498212264969e+005,-2.94140042921865e+001,-1.68012714988954e+000

1.66794521734578e+005,-2.94141264713892e+001,-1.70334425777167e+000

1.69122886489819e+005,-2.94142513671192e+001,-1.72687743191734e+000

1.71483754005805e+005,-2.94143790242861e+001,-1.75073086091611e+000

1.73877578004168e+005,-2.94145094879183e+001,-1.77490878852205e+000

1.76304818540256e+005,-2.94146428031412e+001,-1.79941551455270e+000

1.78765942091554e+005,-2.94147790151552e+001,-1.82425539581366e+000

1.81261421647326e+005,-2.94149181692141e+001,-1.84943284704749e+000

1.83791736799524e+005,-2.94150603106039e+001,-1.87495234191045e+000

1.86357373834951e+005,-2.94152054846216e+001,-1.90081841397645e+000

1.88958825828723e+005,-2.94153537365548e+001,-1.92703565776675e+000

1.91596592739027e+005,-2.94155051116615e+001,-1.95360872981098e+000

1.94271181503206e+005,-2.94156596551509e+001,-1.98054234973544e+000

1.96983106135185e+005,-2.94158174121656e+001,-2.00784130138053e+000

1.99732887824256e+005,-2.94159784277640e+001,-2.03551043394952e+000

2.02521055035243e+005,-2.94161427469043e+001,-2.06355466318659e+000

2.05348143610063e+005,-2.94163104144303e+001,-2.09197897258614e+000

2.08214696870707e+005,-2.94164814750581e+001,-2.12078841463415e+000

2.11121265723661e+005,-2.94166559733651e+001,-2.14998811207971e+000

2.14068408765776e+005,-2.94168339537806e+001,-2.17958325923888e+000

2.17056692391625e+005,-2.94170154605792e+001,-2.20957912333040e+000

2.20086690902357e+005,-2.94172005378755e+001,-2.23998104584469e+000

2.23158986616063e+005,-2.94173892296223e+001,-2.27079444394173e+000

2.26274169979693e+005,-2.94175815796113e+001,-2.30202481188556e+000

2.29432839682530e+005,-2.94177776314767e+001,-2.33367772250574e+000

2.32635602771247e+005,-2.94179774287019e+001,-2.36575882869505e+000

2.35883074766574e+005,-2.94181810146298e+001,-2.39827386493554e+000

2.39175879781588e+005,-2.94183884324770e+001,-2.43122864885677e+000

2.42514650641661e+005,-2.94185997253511e+001,-2.46462908282441e+000

2.45900029006080e+005,-2.94188149362728e+001,-2.49848115556040e+000

2.49332665491357e+005,-2.94190341082021e+001,-2.53279094378880e+000

2.52813219796278e+005,-2.94192572840684e+001,-2.56756461391580e+000

2.56342360828676e+005,-2.94194845068062e+001,-2.60280842373182e+000

2.59920766833993e+005,-2.94197158193950e+001,-2.63852872414470e+000

2.63549125525621e+005,-2.94199512649047e+001,-2.67473196093802e+000

2.67228134217075e+005,-2.94201908865456e+001,-2.71142467655245e+000

2.70958499956006e+005,-2.94204347277247e+001,-2.74861351189325e+000

2.74740939660078e+005,-2.94206828321071e+001,-2.78630520815877e+000

2.78576180254757e+005,-2.94209352436826e+001,-2.82450660869097e+000

2.82464958813007e+005,-2.94211920068398e+001,-2.86322466084456e+000

2.86408022696948e+005,-2.94214531664439e+001,-2.90246641787650e+000

2.90406129701488e+005,-2.94217187679227e+001,-2.94223904084989e+000

2.94460048199957e+005,-2.94219888573573e+001,-2.98254980055549e+000

2.98570557291775e+005,-2.94222634815805e+001,-3.02340607944444e+000

3.02738446952187e+005,-2.94225426882796e+001,-3.06481537357609e+000

3.06964518184081e+005,-2.94228265261076e+001,-3.10678529457290e+000

3.11249583171928e+005,-2.94231150447994e+001,-3.14932357158665e+000

3.15594465437872e+005,-2.94234082952950e+001,-3.19243805327002e+000

3.19999999999997e+005,-2.94237063298690e+001,-3.23613670975455e+000

3.24467033532806e+005,-2.94240092022664e+001,-3.28042763463221e+000

3.28996424529938e+005,-2.94243169678448e+001,-3.32531904693710e+000

3.33589043469155e+005,-2.94246296837229e+001,-3.37081929313076e+000

3.38245772979638e+005,-2.94249474089345e+001,-3.41693684908352e+000

3.42967508011610e+005,-2.94252702045901e+001,-3.46368032205446e+000

3.47755156008335e+005,-2.94255981340426e+001,-3.51105845266671e+000

3.52609637080511e+005,-2.94259312630600e+001,-3.55908011687814e+000

3.57531884183106e+005,-2.94262696600036e+001,-3.60775432794339e+000

3.62522843294651e+005,-2.94266133960109e+001,-3.65709023836980e+000

3.67583473599047e+005,-2.94269625451852e+001,-3.70709714186311e+000

3.72714747669902e+005,-2.94273171847887e+001,-3.75778447526321e+000

3.77917651657445e+005,-2.94276773954420e+001,-3.80916182046852e+000

3.83193185478053e+005,-2.94280432613269e+001,-3.86123890634996e+000

3.88542363006410e+005,-2.94284148703951e+001,-3.91402561065048e+000

3.93966212270369e+005,-2.94287923145797e+001,-3.96753196187381e+000

3.99465775648511e+005,-2.94291756900120e+001,-4.02176814115835e+000

4.05042110070485e+005,-2.94295650972408e+001,-4.07674448413833e+000

4.10696287220124e+005,-2.94299606414566e+001,-4.13247148279193e+000

4.16429393741414e+005,-2.94303624327181e+001,-4.18895978727481e+000

4.22242531447321e+005,-2.94307705861821e+001,-4.24622020774181e+000

4.28136817531551e+005,-2.94311852223362e+001,-4.30426371615501e+000

4.34113384783250e+005,-2.94316064672341e+001,-4.36310144807904e+000

4.40173381804713e+005,-2.94320344527335e+001,-4.42274470446690e+000

4.46317973232124e+005,-2.94324693167362e+001,-4.48320495343193e+000

4.52548339959385e+005,-2.94329112034295e+001,-4.54449383201194e+000

4.58865679365059e+005,-2.94333602635308e+001,-4.60662314792391e+000

4.65271205542494e+005,-2.94338166545326e+001,-4.66960488131074e+000

4.71766149533147e+005,-2.94342805409495e+001,-4.73345118648115e+000

4.78351759563174e+005,-2.94347520945668e+001,-4.79817439364540e+000

4.85029301283321e+005,-2.94352314946905e+001,-4.86378701064604e+000

4.91800058012158e+005,-2.94357189283973e+001,-4.93030172468777e+000

4.98665330982714e+005,-2.94362145907878e+001,-4.99773140406511e+000

5.05626439592555e+005,-2.94367186852387e+001,-5.06608909989247e+000

5.12684721657352e+005,-2.94372314236576e+001,-5.13538804783605e+000

5.19841533667984e+005,-2.94377530267377e+001,-5.20564166985067e+000

5.27098251051240e+005,-2.94382837242148e+001,-5.27686357592253e+000

5.34456268434150e+005,-2.94388237551239e+001,-5.34906756581936e+000

5.41916999912011e+005,-2.94393733680584e+001,-5.42226763085102e+000

