Freq.,VOut,OutRef

1.00000000000000e+004,-2.07933695940949e+001,-1.57313186304609e-001

1.01395947979003e+004,-2.07933707743723e+001,-1.59509037640309e-001

1.02811382665607e+004,-2.07933719877972e+001,-1.61735535175038e-001

1.04246576084112e+004,-2.07933732352995e+001,-1.63993106428911e-001

1.05701804056138e+004,-2.07933745178352e+001,-1.66282184876235e-001

1.07177346253629e+004,-2.07933758363868e+001,-1.68603210032128e-001

1.08673486252606e+004,-2.07933771919645e+001,-1.70956627531420e-001

1.10190511587661e+004,-2.07933785856072e+001,-1.73342889214982e-001

1.11728713807222e+004,-2.07933800183819e+001,-1.75762453222106e-001

1.13288388529580e+004,-2.07933814913865e+001,-1.78215784065774e-001

1.14869835499703e+004,-2.07933830057487e+001,-1.80703352734329e-001

1.16473358646846e+004,-2.07933845626282e+001,-1.83225636770266e-001

1.18099266142953e+004,-2.07933861632172e+001,-1.85783120366723e-001

1.19747870461893e+004,-2.07933878087412e+001,-1.88376294457965e-001

1.21419488439505e+004,-2.07933895004597e+001,-1.91005656813998e-001

1.23114441334492e+004,-2.07933912396675e+001,-1.93671712134571e-001

1.24833054890161e+004,-2.07933930276958e+001,-1.96374972143684e-001

1.26575659397028e+004,-2.07933948659127e+001,-1.99115955688675e-001

1.28342589756290e+004,-2.07933967557249e+001,-2.01895188837360e-001

1.30134185544193e+004,-2.07933986985779e+001,-2.04713204979989e-001

1.31950791077289e+004,-2.07934006959578e+001,-2.07570544929048e-001

1.33792755478611e+004,-2.07934027493925e+001,-2.10467757019528e-001

1.35660432744767e+004,-2.07934048604519e+001,-2.13405397219530e-001

1.37554181813974e+004,-2.07934070307503e+001,-2.16384029228015e-001

1.39474366635040e+004,-2.07934092619469e+001,-2.19404224586320e-001

1.41421356237309e+004,-2.07934115557470e+001,-2.22466562786024e-001

1.43395524801583e+004,-2.07934139139034e+001,-2.25571631378633e-001

1.45397251732031e+004,-2.07934163382180e+001,-2.28720026083984e-001

1.47426921729110e+004,-2.07934188305431e+001,-2.31912350906739e-001

1.49484924863494e+004,-2.07934213927822e+001,-2.35149218248253e-001

1.51571656651040e+004,-2.07934240268922e+001,-2.38431249024148e-001

1.53687518128801e+004,-2.07934267348841e+001,-2.41759072780424e-001

1.55832915932100e+004,-2.07934295188255e+001,-2.45133327812301e-001

1.58008262372675e+004,-2.07934323808410e+001,-2.48554661285846e-001

1.60213975517924e+004,-2.07934353231146e+001,-2.52023729358527e-001

1.62450479271247e+004,-2.07934383478911e+001,-2.55541197304094e-001

1.64718203453514e+004,-2.07934414574778e+001,-2.59107739637784e-001

1.67017583885674e+004,-2.07934446542461e+001,-2.62724040243150e-001

1.69349062472505e+004,-2.07934479406331e+001,-2.66390792502886e-001

1.71713087287550e+004,-2.07934513191440e+001,-2.70108699425057e-001

1.74110112659224e+004,-2.07934547923535e+001,-2.73878473778120e-001

1.76540599258131e+004,-2.07934583629075e+001,-2.77700838226823e-001

1.79005014185594e+004,-2.07934620335259e+001,-2.81576525463774e-001

1.81503831063432e+004,-2.07934658070039e+001,-2.85506278348149e-001

1.84037530124975e+004,-2.07934696862139e+001,-2.89490850049348e-001

1.86606598307361e+004,-2.07934736741084e+001,-2.93531004181520e-001

1.89211529345119e+004,-2.07934777737218e+001,-2.97627514951437e-001

1.91852823865052e+004,-2.07934819881724e+001,-3.01781167301405e-001

1.94530989482457e+004,-2.07934863206648e+001,-3.05992757057647e-001

1.97246540898671e+004,-2.07934907744924e+001,-3.10263091077868e-001

1.99999999999999e+004,-2.07934953530400e+001,-3.14592987401020e-001

2.02791895958005e+004,-2.07935000597858e+001,-3.18983275403606e-001

2.05622765331213e+004,-2.07935048983044e+001,-3.23434795950339e-001

2.08493152168224e+004,-2.07935098722688e+001,-3.27948401554184e-001

2.11403608112276e+004,-2.07935149854541e+001,-3.32524956531376e-001

2.14354692507258e+004,-2.07935202417391e+001,-3.37165337166957e-001

2.17346972505211e+004,-2.07935256451102e+001,-3.41870431873373e-001

2.20381023175322e+004,-2.07935311996632e+001,-3.46641141358694e-001

2.23457427614443e+004,-2.07935369096073e+001,-3.51478378791219e-001

2.26576777059159e+004,-2.07935427792673e+001,-3.56383069971252e-001

2.29739670999406e+004,-2.07935488130876e+001,-3.61356153500011e-001

2.32946717293690e+004,-2.07935550156345e+001,-3.66398580955368e-001

2.36198532285905e+004,-2.07935613916002e+001,-3.71511317066132e-001

2.39495740923785e+004,-2.07935679458057e+001,-3.76695339891477e-001

2.42838976879009e+004,-2.07935746832045e+001,-3.81951641001475e-001

2.46228882668982e+004,-2.07935816088865e+001,-3.87281225656647e-001

2.49666109780322e+004,-2.07935887280807e+001,-3.92685112997364e-001

2.53151318794055e+004,-2.07935960461597e+001,-3.98164336228784e-001

2.56685179512580e+004,-2.07936035686434e+001,-4.03719942810548e-001

2.60268371088386e+004,-2.07936113012028e+001,-4.09352994648394e-001

2.63901582154578e+004,-2.07936192496641e+001,-4.15064568290496e-001

2.67585510957221e+004,-2.07936274200126e+001,-4.20855755122370e-001

2.71320865489533e+004,-2.07936358183974e+001,-4.26727661566372e-001

2.75108363627948e+004,-2.07936444511353e+001,-4.32681409284646e-001

2.78948733270080e+004,-2.07936533247152e+001,-4.38718135381922e-001

2.82842712474618e+004,-2.07936624458031e+001,-4.44838992614334e-001

2.86791049603164e+004,-2.07936718212464e+001,-4.51045149594595e-001

2.90794503464061e+004,-2.07936814580787e+001,-4.57337791009954e-001

2.94853843458219e+004,-2.07936913635246e+001,-4.63718117830333e-001

2.98969849726987e+004,-2.07937015450052e+001,-4.70187347529219e-001

3.03143313302078e+004,-2.07937120101425e+001,-4.76746714302512e-001

3.07375036257601e+004,-2.07937227667653e+001,-4.83397469289865e-001

3.11665831864199e+004,-2.07937338229140e+001,-4.90140880800307e-001

3.16016524745350e+004,-2.07937451868466e+001,-4.96978234539668e-001

3.20427951035848e+004,-2.07937568670440e+001,-5.03910833840247e-001

3.24900958542493e+004,-2.07937688722159e+001,-5.10939999895137e-001

3.29436406907028e+004,-2.07937812113066e+001,-5.18067071993109e-001

3.34035167771346e+004,-2.07937938935012e+001,-5.25293407756119e-001

3.38698124945009e+004,-2.07938069282315e+001,-5.32620383382989e-001

3.43426174575100e+004,-2.07938203251826e+001,-5.40049393890637e-001

3.48220225318448e+004,-2.07938340942990e+001,-5.47581853363368e-001

3.53081198516260e+004,-2.07938482457917e+001,-5.55219195200160e-001

3.58010028371187e+004,-2.07938627901444e+001,-5.62962872369694e-001

3.63007662126863e+004,-2.07938777381208e+001,-5.70814357663207e-001

3.68075060249948e+004,-2.07938931007713e+001,-5.78775143954704e-001

3.73213196614721e+004,-2.07939088894405e+001,-5.86846744460914e-001

3.78423058690237e+004,-2.07939251157743e+001,-5.95030693006230e-001

3.83705647730104e+004,-2.07939417917277e+001,-6.03328544287936e-001

3.89061978964912e+004,-2.07939589295720e+001,-6.11741874148399e-001

3.94493081797342e+004,-2.07939765419033e+001,-6.20272279845614e-001

3.99999999999998e+004,-2.07939946416498e+001,-6.28921380330421e-001

4.05583791916010e+004,-2.07940132420801e+001,-6.37690816525715e-001

4.11245530662425e+004,-2.07940323568121e+001,-6.46582251605351e-001

4.16986304336447e+004,-2.07940519998207e+001,-6.55597371281740e-001

4.22807216224550e+004,-2.07940721854468e+001,-6.64737884093269e-001

4.28709385014515e+004,-2.07940929284062e+001,-6.74005521692343e-001

4.34693945010421e+004,-2.07941142437983e+001,-6.83402039142784e-001

4.40762046350642e+004,-2.07941361471156e+001,-6.92929215213102e-001

4.46914855228886e+004,-2.07941586542526e+001,-7.02588852679193e-001

4.53153554118317e+004,-2.07941817815158e+001,-7.12382778623963e-001

4.59479341998812e+004,-2.07942055456329e+001,-7.22312844746709e-001

4.65893434587380e+004,-2.07942299637627e+001,-7.32380927669455e-001

4.72397064571810e+004,-2.07942550535055e+001,-7.42588929249129e-001

4.78991481847569e+004,-2.07942808329125e+001,-7.52938776894244e-001

4.85677953758016e+004,-2.07943073204972e+001,-7.63432423879187e-001

4.92457765337964e+004,-2.07943345352447e+001,-7.74071849670656e-001

4.99332219560642e+004,-2.07943624966232e+001,-7.84859060246587e-001

5.06302637588109e+004,-2.07943912245948e+001,-7.95796088425903e-001

5.13370359025159e+004,-2.07944207396260e+001,-8.06884994199056e-001

5.20536742176771e+004,-2.07944510626989e+001,-8.18127865060308e-001

5.27803164309155e+004,-2.07944822153231e+001,-8.29526816343662e-001

5.35171021914442e+004,-2.07945142195467e+001,-8.41083991562881e-001

5.42641730979066e+004,-2.07945470979676e+001,-8.52801562754748e-001

5.50216727255895e+004,-2.07945808737460e+001,-8.64681730822682e-001

5.57897466540159e+004,-2.07946155706153e+001,-8.76726725887392e-001

5.65685424949235e+004,-2.07946512128954e+001,-8.88938807634724e-001

5.73582099206328e+004,-2.07946878255034e+001,-9.01320265675216e-001

5.81589006928121e+004,-2.07947254339670e+001,-9.13873419897077e-001

5.89707686916437e+004,-2.07947640644360e+001,-9.26600620830508e-001

5.97939699453972e+004,-2.07948037436955e+001,-9.39504250008559e-001

6.06286626604156e+004,-2.07948444991780e+001,-9.52586720334709e-001

6.14750072515201e+004,-2.07948863589762e+001,-9.65850476452907e-001

6.23331663728396e+004,-2.07949293518558e+001,-9.79297995120228e-001

6.32033049490698e+004,-2.07949735072679e+001,-9.92931785581726e-001

6.40855902071694e+004,-2.07950188553625e+001,-1.00675438994968e+000

6.49801917084985e+004,-2.07950654270010e+001,-1.02076838358569e+000

6.58872813814055e+004,-2.07951132537689e+001,-1.03497637548439e+000

6.68070335542691e+004,-2.07951623679894e+001,-1.04938100866205e+000

6.77396249890018e+004,-2.07952128027355e+001,-1.06398496054716e+000

6.86852349150199e+004,-2.07952645918436e+001,-1.07879094337367e+000

6.96440450636895e+004,-2.07953177699264e+001,-1.09380170457812e+000

7.06162397032520e+004,-2.07953723723849e+001,-1.10902002720004e+000

7.16020056742374e+004,-2.07954284354222e+001,-1.12444873028472e+000

7.26015324253724e+004,-2.07954859960555e+001,-1.14009066928814e+000

7.36150120499896e+004,-2.07955450921290e+001,-1.15594873648730e+000

7.46426393229441e+004,-2.07956057623261e+001,-1.17202586139301e+000

7.56846117380472e+004,-2.07956680461819e+001,-1.18832501116393e+000

7.67411295460207e+004,-2.07957319840951e+001,-1.20484919102664e+000

7.78123957929823e+004,-2.07957976173400e+001,-1.22160144469584e+000

7.88986163594682e+004,-2.07958649880780e+001,-1.23858485480266e+000

7.99999999999995e+004,-2.07959341393692e+001,-1.25580254332044e+000

8.11167583832018e+004,-2.07960051151833e+001,-1.27325767199841e+000

8.22491061324848e+004,-2.07960779604105e+001,-1.29095344279698e+000

8.33972608672892e+004,-2.07961527208716e+001,-1.30889309832728e+000

8.45614432449099e+004,-2.07962294433284e+001,-1.32707992229414e+000

8.57418770029029e+004,-2.07963081754932e+001,-1.34551723994200e+000

8.69387890020841e+004,-2.07963889660376e+001,-1.36420841850757e+000

8.81524092701283e+004,-2.07964718646013e+001,-1.38315686767278e+000

8.93829710457770e+004,-2.07965569218004e+001,-1.40236604002505e+000

9.06307108236633e+004,-2.07966441892346e+001,-1.42183943151920e+000

9.18958683997622e+004,-2.07967337194940e+001,-1.44158058194698e+000

9.31786869174758e+004,-2.07968255661656e+001,-1.46159307540936e+000

9.44794129143618e+004,-2.07969197838385e+001,-1.48188054079303e+000

9.57982963695136e+004,-2.07970164281086e+001,-1.50244665225379e+000

9.71355907516031e+004,-2.07971155555829e+001,-1.52329512970446e+000

9.84915530675926e+004,-2.07972172238821e+001,-1.54442973930899e+000

9.98664439121282e+004,-2.07973214916430e+001,-1.56585429398155e+000

1.01260527517622e+005,-2.07974284185197e+001,-1.58757265389238e+000

1.02674071805032e+005,-2.07975380651836e+001,-1.60958872698062e+000

1.04107348435354e+005,-2.07976504933229e+001,-1.63190646947311e+000

1.05560632861831e+005,-2.07977657656404e+001,-1.65452988641172e+000

1.07034204382888e+005,-2.07978839458505e+001,-1.67746303218620e+000

1.08528346195813e+005,-2.07980050986747e+001,-1.70071001107899e+000

1.10043345451179e+005,-2.07981292898365e+001,-1.72427497781345e+000

1.11579493308032e+005,-2.07982565860539e+001,-1.74816213811666e+000

1.13137084989847e+005,-2.07983870550316e+001,-1.77237574928690e+000

1.14716419841265e+005,-2.07985207654513e+001,-1.79692012077459e+000

1.16317801385624e+005,-2.07986577869602e+001,-1.82179961477366e+000

1.17941537383287e+005,-2.07987981901591e+001,-1.84701864682229e+000

1.19587939890794e+005,-2.07989420465875e+001,-1.87258168641749e+000

1.21257325320831e+005,-2.07990894287083e+001,-1.89849325764243e+000

1.22950014503040e+005,-2.07992404098900e+001,-1.92475793980668e+000

1.24666332745679e+005,-2.07993950643880e+001,-1.95138036809997e+000

1.26406609898139e+005,-2.07995534673234e+001,-1.97836523426376e+000

1.28171180414339e+005,-2.07997156946608e+001,-2.00571728727525e+000

1.29960383416997e+005,-2.07998818231836e+001,-2.03344133405080e+000

1.31774562762811e+005,-2.08000519304677e+001,-2.06154224016686e+000

1.33614067108538e+005,-2.08002260948541e+001,-2.09002493059756e+000

1.35479249978003e+005,-2.08004043954185e+001,-2.11889439047538e+000

1.37370469830040e+005,-2.08005869119397e+001,-2.14815566586981e+000

1.39288090127379e+005,-2.08007737248661e+001,-2.17781386459033e+000

1.41232479406504e+005,-2.08009649152799e+001,-2.20787415700978e+000

1.43204011348474e+005,-2.08011605648608e+001,-2.23834177691467e+000

1.45203064850745e+005,-2.08013607558454e+001,-2.26922202237961e+000

1.47230024099979e+005,-2.08015655709875e+001,-2.30052025666886e+000

1.49285278645888e+005,-2.08017750935147e+001,-2.33224190916565e+000

1.51369223476094e+005,-2.08019894070841e+001,-2.36439247633099e+000

1.53482259092041e+005,-2.08022085957365e+001,-2.39697752269317e+000

1.55624791585964e+005,-2.08024327438481e+001,-2.43000268187000e+000

1.57797232718936e+005,-2.08026619360816e+001,-2.46347365762315e+000

1.59999999999999e+005,-2.08028962573358e+001,-2.49739622494833e+000

1.62233516766403e+005,-2.08031357926927e+001,-2.53177623120289e+000

1.64498212264969e+005,-2.08033806273651e+001,-2.56661959726757e+000

1.66794521734578e+005,-2.08036308466417e+001,-2.60193231875265e+000

1.69122886489819e+005,-2.08038865358321e+001,-2.63772046723979e+000

1.71483754005805e+005,-2.08041477802104e+001,-2.67399019156989e+000

1.73877578004168e+005,-2.08044146649589e+001,-2.71074771917147e+000

1.76304818540256e+005,-2.08046872751104e+001,-2.74799935743734e+000

1.78765942091554e+005,-2.08049656954913e+001,-2.78575149514434e+000

1.81261421647326e+005,-2.08052500106638e+001,-2.82401060392331e+000

1.83791736799524e+005,-2.08055403048693e+001,-2.86278323977707e+000

1.86357373834951e+005,-2.08058366619709e+001,-2.90207604464919e+000

1.88958825828723e+005,-2.08061391653982e+001,-2.94189574804487e+000

1.91596592739027e+005,-2.08064478980919e+001,-2.98224916870324e+000

1.94271181503206e+005,-2.08067629424508e+001,-3.02314321632565e+000

1.96983106135185e+005,-2.08070843802792e+001,-3.06458489335722e+000

1.99732887824256e+005,-2.08074122927374e+001,-3.10658129682584e+000

2.02521055035243e+005,-2.08077467602944e+001,-3.14913962023669e+000

2.05348143610063e+005,-2.08080878626824e+001,-3.19226715552487e+000

2.08214696870707e+005,-2.08084356788555e+001,-3.23597129506666e+000

2.11121265723661e+005,-2.08087902869514e+001,-3.28025953374856e+000

2.14068408765776e+005,-2.08091517642568e+001,-3.32513947109611e+000

2.17056692391625e+005,-2.08095201871774e+001,-3.37061881346139e+000

2.20086690902357e+005,-2.08098956312125e+001,-3.41670537627089e+000

2.23158986616063e+005,-2.08102781709350e+001,-3.46340708633103e+000

2.26274169979693e+005,-2.08106678799763e+001,-3.51073198419445e+000

2.29432839682530e+005,-2.08110648310183e+001,-3.55868822658390e+000

2.32635602771247e+005,-2.08114690957906e+001,-3.60728408887370e+000

2.35883074766574e+005,-2.08118807450766e+001,-3.65652796762933e+000

2.39175879781588e+005,-2.08122998487243e+001,-3.70642838320334e+000

2.42514650641661e+005,-2.08127264756676e+001,-3.75699398238544e+000

2.45900029006080e+005,-2.08131606939542e+001,-3.80823354110656e+000

2.49332665491357e+005,-2.08136025707830e+001,-3.86015596719543e+000

2.52813219796278e+005,-2.08140521725502e+001,-3.91277030318475e+000

2.56342360828676e+005,-2.08145095649058e+001,-3.96608572916674e+000

2.59920766833993e+005,-2.08149748128190e+001,-4.02011156569377e+000

2.63549125525621e+005,-2.08154479806550e+001,-4.07485727672378e+000

2.67228134217075e+005,-2.08159291322618e+001,-4.13033247260603e+000

2.70958499956006e+005,-2.08164183310687e+001,-4.18654691310626e+000

2.74740939660078e+005,-2.08169156401959e+001,-4.24351051046715e+000

2.78576180254757e+005,-2.08174211225760e+001,-4.30123333250165e+000

2.82464958813007e+005,-2.08179348410875e+001,-4.35972560571413e+000

2.86408022696948e+005,-2.08184568587004e+001,-4.41899771845084e+000

2.90406129701488e+005,-2.08189872386345e+001,-4.47906022406853e+000

2.94460048199957e+005,-2.08195260445306e+001,-4.53992384412636e+000

2.98570557291775e+005,-2.08200733406336e+001,-4.60159947158897e+000

3.02738446952187e+005,-2.08206291919895e+001,-4.66409817404415e+000

3.06964518184081e+005,-2.08211936646551e+001,-4.72743119692660e+000

3.11249583171928e+005,-2.08217668259199e+001,-4.79160996674472e+000

3.15594465437872e+005,-2.08223487445426e+001,-4.85664609430918e+000

3.19999999999997e+005,-2.08229394909987e+001,-4.92255137795528e+000

3.24467033532806e+005,-2.08235391377424e+001,-4.98933780675837e+000

3.28996424529938e+005,-2.08241477594804e+001,-5.05701756373736e+000

3.33589043469155e+005,-2.08247654334583e+001,-5.12560302904305e+000

3.38245772979638e+005,-2.08253922397596e+001,-5.19510678312600e+000

3.42967508011610e+005,-2.08260282616167e+001,-5.26554160988183e+000

3.47755156008335e+005,-2.08266735857329e+001,-5.33692049977207e+000

3.52609637080511e+005,-2.08273283026171e+001,-5.40925665291285e+000

3.57531884183106e+005,-2.08279925069283e+001,-5.48256348213317e+000

3.62522843294651e+005,-2.08286662978313e+001,-5.55685461599555e+000

3.67583473599047e+005,-2.08293497793631e+001,-5.63214390178100e+000

3.72714747669902e+005,-2.08300430608075e+001,-5.70844540843130e+000

3.77917651657445e+005,-2.08307462570807e+001,-5.78577342944978e+000

3.83193185478053e+005,-2.08314594891244e+001,-5.86414248575628e+000

3.88542363006410e+005,-2.08321828843079e+001,-5.94356732849718e+000

3.93966212270369e+005,-2.08329165768370e+001,-6.02406294180640e+000

3.99465775648511e+005,-2.08336607081710e+001,-6.10564454551863e+000

4.05042110070485e+005,-2.08344154274457e+001,-6.18832759783191e+000

4.10696287220124e+005,-2.08351808919022e+001,-6.27212779792191e+000

4.16429393741414e+005,-2.08359572673215e+001,-6.35706108850395e+000

4.22242531447321e+005,-2.08367447284642e+001,-6.44314365834750e+000

4.28136817531551e+005,-2.08375434595135e+001,-6.53039194473900e+000

4.34113384783250e+005,-2.08383536545235e+001,-6.61882263589705e+000

4.40173381804713e+005,-2.08391755178689e+001,-6.70845267334040e+000

4.46317973232124e+005,-2.08400092646995e+001,-6.79929925420790e+000

4.52548339959385e+005,-2.08408551213952e+001,-6.89137983353574e+000

4.58865679365059e+005,-2.08417133260238e+001,-6.98471212649075e+000

4.65271205542494e+005,-2.08425841288001e+001,-7.07931411056265e+000

4.71766149533147e+005,-2.08434677925457e+001,-7.17520402771904e+000

4.78351759563174e+005,-2.08443645931497e+001,-7.27240038652339e+000

4.85029301283321e+005,-2.08452748200296e+001,-7.37092196422013e+000

4.91800058012158e+005,-2.08461987765926e+001,-7.47078780879020e+000

4.98665330982714e+005,-2.08471367806963e+001,-7.57201724097792e+000

5.05626439592555e+005,-2.08480891651092e+001,-7.67462985629567e+000

5.12684721657352e+005,-2.08490562779708e+001,-7.77864552700465e+000

5.19841533667984e+005,-2.08500384832512e+001,-7.88408440408153e+000

5.27098251051240e+005,-2.08510361612097e+001,-7.99096691916820e+000

5.34456268434150e+005,-2.08520497088532e+001,-8.09931378651147e+000

5.41916999912011e+005,-2.08530795403933e+001,-8.20914600489522e+000

