Freq.,VOut,OutRef

1.00000000000000e+004,-2.25322551599921e+001,-1.87630655106011e-001

1.01395947979003e+004,-2.25322566860560e+001,-1.90249686075399e-001

1.02811382665607e+004,-2.25322582549810e+001,-1.92905269064510e-001

1.04246576084112e+004,-2.25322598679694e+001,-1.95597913971114e-001

1.05701804056138e+004,-2.25322615262577e+001,-1.98328137792620e-001

1.07177346253629e+004,-2.25322632311167e+001,-2.01096464729450e-001

1.08673486252606e+004,-2.25322649838529e+001,-2.03903426282154e-001

1.10190511587661e+004,-2.25322667858091e+001,-2.06749561357170e-001

1.11728713807222e+004,-2.25322686383660e+001,-2.09635416362299e-001

1.13288388529580e+004,-2.25322705429429e+001,-2.12561545315946e-001

1.14869835499703e+004,-2.25322725009984e+001,-2.15528509953611e-001

1.16473358646846e+004,-2.25322745140326e+001,-2.18536879828253e-001

1.18099266142953e+004,-2.25322765835869e+001,-2.21587232426612e-001

1.19747870461893e+004,-2.25322787112464e+001,-2.24680153271625e-001

1.21419488439505e+004,-2.25322808986398e+001,-2.27816236041091e-001

1.23114441334492e+004,-2.25322831474421e+001,-2.30996082673893e-001

1.24833054890161e+004,-2.25322854593744e+001,-2.34220303488913e-001

1.26575659397028e+004,-2.25322878362068e+001,-2.37489517297183e-001

1.28342589756290e+004,-2.25322902797579e+001,-2.40804351524239e-001

1.30134185544193e+004,-2.25322927918977e+001,-2.44165442324368e-001

1.31950791077289e+004,-2.25322953745484e+001,-2.47573434703549e-001

1.33792755478611e+004,-2.25322980296856e+001,-2.51028982643011e-001

1.35660432744767e+004,-2.25323007593403e+001,-2.54532749220470e-001

1.37554181813974e+004,-2.25323035656002e+001,-2.58085406738387e-001

1.39474366635040e+004,-2.25323064506113e+001,-2.61687636848267e-001

1.41421356237309e+004,-2.25323094165793e+001,-2.65340130683241e-001

1.43395524801583e+004,-2.25323124657716e+001,-2.69043588987465e-001

1.45397251732031e+004,-2.25323156005189e+001,-2.72798722247551e-001

1.47426921729110e+004,-2.25323188232169e+001,-2.76606250827785e-001

1.49484924863494e+004,-2.25323221363277e+001,-2.80466905108842e-001

1.51571656651040e+004,-2.25323255423827e+001,-2.84381425620057e-001

1.53687518128801e+004,-2.25323290439834e+001,-2.88350563185763e-001

1.55832915932100e+004,-2.25323326438038e+001,-2.92375079062676e-001

1.58008262372675e+004,-2.25323363445929e+001,-2.96455745083322e-001

1.60213975517924e+004,-2.25323401491754e+001,-3.00593343807529e-001

1.62450479271247e+004,-2.25323440604555e+001,-3.04788668660520e-001

1.64718203453514e+004,-2.25323480814178e+001,-3.09042524090899e-001

1.67017583885674e+004,-2.25323522151299e+001,-3.13355725717918e-001

1.69349062472505e+004,-2.25323564647449e+001,-3.17729100485226e-001

1.71713087287550e+004,-2.25323608335036e+001,-3.22163486817890e-001

1.74110112659224e+004,-2.25323653247369e+001,-3.26659734778347e-001

1.76540599258131e+004,-2.25323699418681e+001,-3.31218706226998e-001

1.79005014185594e+004,-2.25323746884159e+001,-3.35841274984236e-001

1.81503831063432e+004,-2.25323795679966e+001,-3.40528326993497e-001

1.84037530124975e+004,-2.25323845843268e+001,-3.45280760488783e-001

1.86606598307361e+004,-2.25323897412266e+001,-3.50099486160665e-001

1.89211529345119e+004,-2.25323950426217e+001,-3.54985427329764e-001

1.91852823865052e+004,-2.25324004925468e+001,-3.59939520117995e-001

1.94530989482457e+004,-2.25324060951487e+001,-3.64962713621332e-001

1.97246540898671e+004,-2.25324118546890e+001,-3.70055970091368e-001

1.99999999999999e+004,-2.25324177755471e+001,-3.75220265113865e-001

2.02791895958005e+004,-2.25324238622241e+001,-3.80456587787025e-001

2.05622765331213e+004,-2.25324301193454e+001,-3.85765940910415e-001

2.08493152168224e+004,-2.25324365516647e+001,-3.91149341169335e-001

2.11403608112276e+004,-2.25324431640667e+001,-3.96607819325346e-001

2.14354692507258e+004,-2.25324499615714e+001,-4.02142420406535e-001

2.17346972505211e+004,-2.25324569493377e+001,-4.07754203901097e-001

2.20381023175322e+004,-2.25324641326666e+001,-4.13444243956929e-001

2.23457427614443e+004,-2.25324715170057e+001,-4.19213629576929e-001

2.26576777059159e+004,-2.25324791079527e+001,-4.25063464823737e-001

2.29739670999406e+004,-2.25324869112597e+001,-4.30994869022359e-001

2.32946717293690e+004,-2.25324949328375e+001,-4.37008976966439e-001

2.36198532285905e+004,-2.25325031787594e+001,-4.43106939130440e-001

2.39495740923785e+004,-2.25325116552662e+001,-4.49289921877991e-001

2.42838976879009e+004,-2.25325203687702e+001,-4.55559107680464e-001

2.46228882668982e+004,-2.25325293258599e+001,-4.61915695331471e-001

2.49666109780322e+004,-2.25325385333051e+001,-4.68360900168363e-001

2.53151318794055e+004,-2.25325479980613e+001,-4.74895954297109e-001

2.56685179512580e+004,-2.25325577272749e+001,-4.81522106814102e-001

2.60268371088386e+004,-2.25325677282883e+001,-4.88240624037764e-001

2.63901582154578e+004,-2.25325780086452e+001,-4.95052789739422e-001

2.67585510957221e+004,-2.25325885760956e+001,-5.01959905377637e-001

2.71320865489533e+004,-2.25325994386017e+001,-5.08963290335141e-001

2.75108363627948e+004,-2.25326106043434e+001,-5.16064282159529e-001

2.78948733270080e+004,-2.25326220817242e+001,-5.23264236804389e-001

2.82842712474618e+004,-2.25326338793766e+001,-5.30564528879798e-001

2.86791049603164e+004,-2.25326460061690e+001,-5.37966551896373e-001

2.90794503464061e+004,-2.25326584712111e+001,-5.45471718520743e-001

2.94853843458219e+004,-2.25326712838609e+001,-5.53081460829360e-001

2.98969849726987e+004,-2.25326844537307e+001,-5.60797230566499e-001

3.03143313302078e+004,-2.25326979906945e+001,-5.68620499405952e-001

3.07375036257601e+004,-2.25327119048935e+001,-5.76552759217632e-001

3.11665831864199e+004,-2.25327262067448e+001,-5.84595522330226e-001

3.16016524745350e+004,-2.25327409069475e+001,-5.92750321806583e-001

3.20427951035848e+004,-2.25327560164900e+001,-6.01018711714890e-001

3.24900958542493e+004,-2.25327715466582e+001,-6.09402267407740e-001

3.29436406907028e+004,-2.25327875090425e+001,-6.17902585800299e-001

3.34035167771346e+004,-2.25328039155461e+001,-6.26521285656733e-001

3.38698124945009e+004,-2.25328207783931e+001,-6.35260007873171e-001

3.43426174575100e+004,-2.25328381101360e+001,-6.44120415773390e-001

3.48220225318448e+004,-2.25328559236654e+001,-6.53104195396228e-001

3.53081198516260e+004,-2.25328742322174e+001,-6.62213055797067e-001

3.58010028371187e+004,-2.25328930493833e+001,-6.71448729346092e-001

3.63007662126863e+004,-2.25329123891179e+001,-6.80812972031215e-001

3.68075060249948e+004,-2.25329322657493e+001,-6.90307563766854e-001

3.73213196614721e+004,-2.25329526939882e+001,-6.99934308702328e-001

3.78423058690237e+004,-2.25329736889370e+001,-7.09695035537901e-001

3.83705647730104e+004,-2.25329952661007e+001,-7.19591597838831e-001

3.89061978964912e+004,-2.25330174413956e+001,-7.29625874359738e-001

3.94493081797342e+004,-2.25330402311609e+001,-7.39799769364781e-001

3.99999999999998e+004,-2.25330636521682e+001,-7.50115212958594e-001

4.05583791916010e+004,-2.25330877216327e+001,-7.60574161415235e-001

4.11245530662425e+004,-2.25331124572237e+001,-7.71178597514133e-001

4.16986304336447e+004,-2.25331378770766e+001,-7.81930530876600e-001

4.22807216224550e+004,-2.25331639998032e+001,-7.92831998308392e-001

4.28709385014515e+004,-2.25331908445040e+001,-8.03885064145106e-001

4.34693945010421e+004,-2.25332184307798e+001,-8.15091820600036e-001

4.40762046350642e+004,-2.25332467787438e+001,-8.26454388116451e-001

4.46914855228886e+004,-2.25332759090339e+001,-8.37974915723833e-001

4.53153554118317e+004,-2.25333058428251e+001,-8.49655581396325e-001

4.59479341998812e+004,-2.25333366018426e+001,-8.61498592416061e-001

4.65893434587380e+004,-2.25333682083743e+001,-8.73506185739852e-001

4.72397064571810e+004,-2.25334006852843e+001,-8.85680628368152e-001

4.78991481847569e+004,-2.25334340560266e+001,-8.98024217719064e-001

4.85677953758016e+004,-2.25334683446582e+001,-9.10539282005326e-001

4.92457765337964e+004,-2.25335035758534e+001,-9.23228180615308e-001

4.99332219560642e+004,-2.25335397749181e+001,-9.36093304495782e-001

5.06302637588109e+004,-2.25335769678038e+001,-9.49137076541357e-001

5.13370359025159e+004,-2.25336151811224e+001,-9.62361951984401e-001

5.20536742176771e+004,-2.25336544421613e+001,-9.75770418789940e-001

5.27803164309155e+004,-2.25336947788980e+001,-9.89364998054649e-001

5.35171021914442e+004,-2.25337362200153e+001,-1.00314824440866e+000

5.42641730979066e+004,-2.25337787949176e+001,-1.01712274641959e+000

5.50216727255895e+004,-2.25338225337458e+001,-1.03129112700256e+000

5.57897466540159e+004,-2.25338674673935e+001,-1.04565604383245e+000

5.65685424949235e+004,-2.25339136275233e+001,-1.06022018975979e+000

5.73582099206328e+004,-2.25339610465826e+001,-1.07498629322959e+000

5.81589006928121e+004,-2.25340097578207e+001,-1.08995711870485e+000

5.89707686916437e+004,-2.25340597953051e+001,-1.10513546709220e+000

5.97939699453972e+004,-2.25341111939384e+001,-1.12052417617211e+000

6.06286626604156e+004,-2.25341639894755e+001,-1.13612612103221e+000

6.14750072515201e+004,-2.25342182185403e+001,-1.15194421450363e+000

6.23331663728396e+004,-2.25342739186436e+001,-1.16798140760145e+000

6.32033049490698e+004,-2.25343311282002e+001,-1.18424068996849e+000

6.40855902071694e+004,-2.25343898865464e+001,-1.20072509032075e+000

6.49801917084985e+004,-2.25344502339578e+001,-1.21743767689985e+000

6.58872813814055e+004,-2.25345122116670e+001,-1.23438155792666e+000

6.68070335542691e+004,-2.25345758618814e+001,-1.25155988205673e+000

6.77396249890018e+004,-2.25346412278010e+001,-1.26897583884339e+000

6.86852349150199e+004,-2.25347083536365e+001,-1.28663265919973e+000

6.96440450636895e+004,-2.25347772846271e+001,-1.30453361586775e+000

7.06162397032520e+004,-2.25348480670582e+001,-1.32268202388934e+000

7.16020056742374e+004,-2.25349207482798e+001,-1.34108124107964e+000

7.26015324253724e+004,-2.25349953767239e+001,-1.35973466850602e+000

7.36150120499896e+004,-2.25350720019226e+001,-1.37864575097003e+000

7.46426393229441e+004,-2.25351506745256e+001,-1.39781797749003e+000

7.56846117380472e+004,-2.25352314463178e+001,-1.41725488179367e+000

7.67411295460207e+004,-2.25353143702367e+001,-1.43696004280676e+000

7.78123957929823e+004,-2.25353995003898e+001,-1.45693708515121e+000

7.88986163594682e+004,-2.25354868920712e+001,-1.47718967964389e+000

7.99999999999995e+004,-2.25355766017788e+001,-1.49772154380037e+000

8.11167583832018e+004,-2.25356686872308e+001,-1.51853644234211e+000

8.22491061324848e+004,-2.25357632073815e+001,-1.53963818770802e+000

8.33972608672892e+004,-2.25358602224373e+001,-1.56103064056947e+000

8.45614432449099e+004,-2.25359597938723e+001,-1.58271771035006e+000

8.57418770029029e+004,-2.25360619844429e+001,-1.60470335575027e+000

8.69387890020841e+004,-2.25361668582029e+001,-1.62699158527360e+000

8.81524092701283e+004,-2.25362744805168e+001,-1.64958645776180e+000

8.93829710457770e+004,-2.25363849180737e+001,-1.67249208293005e+000

9.06307108236633e+004,-2.25364982389000e+001,-1.69571262191225e+000

9.18958683997622e+004,-2.25366145123715e+001,-1.71925228780529e+000

9.31786869174758e+004,-2.25367338092248e+001,-1.74311534622538e+000

9.44794129143618e+004,-2.25368562015680e+001,-1.76730611586352e+000

9.57982963695136e+004,-2.25369817628907e+001,-1.79182896905188e+000

9.71355907516031e+004,-2.25371105680728e+001,-1.81668833233347e+000

9.84915530675926e+004,-2.25372426933926e+001,-1.84188868703917e+000

9.98664439121282e+004,-2.25373782165339e+001,-1.86743456987127e+000

1.01260527517622e+005,-2.25375172165921e+001,-1.89333057349478e+000

1.02674071805032e+005,-2.25376597740789e+001,-1.91958134713491e+000

1.04107348435354e+005,-2.25378059709265e+001,-1.94619159718389e+000

1.05560632861831e+005,-2.25379558904898e+001,-1.97316608781535e+000

1.07034204382888e+005,-2.25381096175479e+001,-2.00050964160838e+000

1.08528346195813e+005,-2.25382672383037e+001,-2.02822714017992e+000

1.10043345451179e+005,-2.25384288403832e+001,-2.05632352482750e+000

1.11579493308032e+005,-2.25385945128319e+001,-2.08480379718331e+000

1.13137084989847e+005,-2.25387643461107e+001,-2.11367301987825e+000

1.14716419841265e+005,-2.25389384320899e+001,-2.14293631721809e+000

1.16317801385624e+005,-2.25391168640419e+001,-2.17259887587301e+000

1.17941537383287e+005,-2.25392997366312e+001,-2.20266594557988e+000

1.19587939890794e+005,-2.25394871459044e+001,-2.23314283985789e+000

1.21257325320831e+005,-2.25396791892766e+001,-2.26403493674039e+000

1.22950014503040e+005,-2.25398759655172e+001,-2.29534767952250e+000

1.24666332745679e+005,-2.25400775747332e+001,-2.32708657752351e+000

1.26406609898139e+005,-2.25402841183511e+001,-2.35925720687005e+000

1.28171180414339e+005,-2.25404956990964e+001,-2.39186521129555e+000

1.29960383416997e+005,-2.25407124209713e+001,-2.42491630296078e+000

1.31774562762811e+005,-2.25409343892302e+001,-2.45841626329510e+000

1.33614067108538e+005,-2.25411617103536e+001,-2.49237094386009e+000

1.35479249978003e+005,-2.25413944920199e+001,-2.52678626723526e+000

1.37370469830040e+005,-2.25416328430743e+001,-2.56166822793119e+000

1.39288090127379e+005,-2.25418768734969e+001,-2.59702289332518e+000

1.41232479406504e+005,-2.25421266943679e+001,-2.63285640462738e+000

1.43204011348474e+005,-2.25423824178312e+001,-2.66917497787385e+000

1.45203064850745e+005,-2.25426441570557e+001,-2.70598490494967e+000

1.47230024099979e+005,-2.25429120261951e+001,-2.74329255464576e+000

1.49285278645888e+005,-2.25431861403450e+001,-2.78110437374652e+000

1.51369223476094e+005,-2.25434666154994e+001,-2.81942688815407e+000

1.53482259092041e+005,-2.25437535685039e+001,-2.85826670404849e+000

1.55624791585964e+005,-2.25440471170087e+001,-2.89763050908542e+000

1.57797232718936e+005,-2.25443473794190e+001,-2.93752507363483e+000

1.59999999999999e+005,-2.25446544748443e+001,-2.97795725206064e+000

1.62233516766403e+005,-2.25449685230465e+001,-3.01893398404276e+000

1.64498212264969e+005,-2.25452896443867e+001,-3.06046229594598e+000

1.66794521734578e+005,-2.25456179597707e+001,-3.10254930223363e+000

1.69122886489819e+005,-2.25459535905944e+001,-3.14520220693073e+000

1.71483754005805e+005,-2.25462966586879e+001,-3.18842830513780e+000

1.73877578004168e+005,-2.25466472862592e+001,-3.23223498459444e+000

1.76304818540256e+005,-2.25470055958385e+001,-3.27662972729978e+000

1.78765942091554e+005,-2.25473717102216e+001,-3.32162011118499e+000

1.81261421647326e+005,-2.25477457524145e+001,-3.36721381184446e+000

1.83791736799524e+005,-2.25481278455779e+001,-3.41341860432580e+000

1.86357373834951e+005,-2.25485181129737e+001,-3.46024236497830e+000

1.88958825828723e+005,-2.25489166779115e+001,-3.50769307336468e+000

1.91596592739027e+005,-2.25493236636982e+001,-3.55577881423417e+000

1.94271181503206e+005,-2.25497391935888e+001,-3.60450777956097e+000

1.96983106135185e+005,-2.25501633907398e+001,-3.65388827064751e+000

1.99732887824256e+005,-2.25505963781659e+001,-3.70392870029361e+000

2.02521055035243e+005,-2.25510382786992e+001,-3.75463759503490e+000

2.05348143610063e+005,-2.25514892149535e+001,-3.80602359744813e+000

2.08214696870707e+005,-2.25519493092914e+001,-3.85809546852533e+000

2.11121265723661e+005,-2.25524186837974e+001,-3.91086209011810e+000

2.14068408765776e+005,-2.25528974602555e+001,-3.96433246745181e+000

2.17056692391625e+005,-2.25533857601329e+001,-4.01851573171027e+000

2.20086690902357e+005,-2.25538837045702e+001,-4.07342114268865e+000

2.23158986616063e+005,-2.25543914143777e+001,-4.12905809151881e+000

2.26274169979693e+005,-2.25549090100405e+001,-4.18543610346296e+000

2.29432839682530e+005,-2.25554366117299e+001,-4.24256484077566e+000

2.32635602771247e+005,-2.25559743393248e+001,-4.30045410563515e+000

2.35883074766574e+005,-2.25565223124416e+001,-4.35911384314095e+000

2.39175879781588e+005,-2.25570806504735e+001,-4.41855414437692e+000

2.42514650641661e+005,-2.25576494726407e+001,-4.47878524954000e+000

2.45900029006080e+005,-2.25582288980513e+001,-4.53981755112883e+000

2.49332665491357e+005,-2.25588190457725e+001,-4.60166159719546e+000

2.52813219796278e+005,-2.25594200349158e+001,-4.66432809465278e+000

2.56342360828676e+005,-2.25600319847327e+001,-4.72782791263954e+000

2.59920766833993e+005,-2.25606550147241e+001,-4.79217208593621e+000

2.63549125525621e+005,-2.25612892447636e+001,-4.85737181843258e+000

2.67228134217075e+005,-2.25619347952340e+001,-4.92343848663993e+000

2.70958499956006e+005,-2.25625917871785e+001,-4.99038364324742e+000

2.74740939660078e+005,-2.25632603424669e+001,-5.05821902071785e+000

2.78576180254757e+005,-2.25639405839765e+001,-5.12695653491814e+000

2.82464958813007e+005,-2.25646326357888e+001,-5.19660828878181e+000

2.86408022696948e+005,-2.25653366234023e+001,-5.26718657599856e+000

2.90406129701488e+005,-2.25660526739611e+001,-5.33870388472546e+000

2.94460048199957e+005,-2.25667809164997e+001,-5.41117290131734e+000

2.98570557291775e+005,-2.25675214822051e+001,-5.48460651407028e+000

3.02738446952187e+005,-2.25682745046947e+001,-5.55901781697353e+000

3.06964518184081e+005,-2.25690401203115e+001,-5.63442011346439e+000

3.11249583171928e+005,-2.25698184684365e+001,-5.71082692018329e+000

3.15594465437872e+005,-2.25706096918171e+001,-5.78825197072109e+000

3.19999999999997e+005,-2.25714139369132e+001,-5.86670921935613e+000

3.24467033532806e+005,-2.25722313542592e+001,-5.94621284477502e+000

3.28996424529938e+005,-2.25730620988432e+001,-6.02677725377118e+000

3.33589043469155e+005,-2.25739063305029e+001,-6.10841708491901e+000

3.38245772979638e+005,-2.25747642143358e+001,-6.19114721221665e+000

3.42967508011610e+005,-2.25756359211280e+001,-6.27498274869280e+000

3.47755156008335e+005,-2.25765216277960e+001,-6.35993904997532e+000

3.52609637080511e+005,-2.25774215178453e+001,-6.44603171781450e+000

3.57531884183106e+005,-2.25783357818423e+001,-6.53327660355865e+000

3.62522843294651e+005,-2.25792646179019e+001,-6.62168981157830e+000

3.67583473599047e+005,-2.25802082321875e+001,-6.71128770263463e+000

3.72714747669902e+005,-2.25811668394246e+001,-6.80208689718866e+000

3.77917651657445e+005,-2.25821406634275e+001,-6.89410427865004e+000

3.83193185478053e+005,-2.25831299376371e+001,-6.98735699656002e+000

3.88542363006410e+005,-2.25841349056706e+001,-7.08186246970863e+000

3.93966212270369e+005,-2.25851558218821e+001,-7.17763838918256e+000

3.99465775648511e+005,-2.25861929519325e+001,-7.27470272134284e+000

4.05042110070485e+005,-2.25872465733696e+001,-7.37307371073114e+000

4.10696287220124e+005,-2.25883169762168e+001,-7.47276988290200e+000

4.16429393741414e+005,-2.25894044635694e+001,-7.57381004718382e+000

4.22242531447321e+005,-2.25905093521989e+001,-7.67621329936414e+000

4.28136817531551e+005,-2.25916319731637e+001,-7.77999902430334e+000

4.34113384783250e+005,-2.25927726724260e+001,-7.88518689847421e+000

4.40173381804713e+005,-2.25939318114746e+001,-7.99179689242957e+000

4.46317973232124e+005,-2.25951097679520e+001,-8.09984927319945e+000

4.52548339959385e+005,-2.25963069362863e+001,-8.20936460661772e+000

4.58865679365059e+005,-2.25975237283270e+001,-8.32036375958248e+000

4.65271205542494e+005,-2.25987605739835e+001,-8.43286790224854e+000

4.71766149533147e+005,-2.26000179218674e+001,-8.54689851015779e+000

4.78351759563174e+005,-2.26012962399367e+001,-8.66247736630841e+000

4.85029301283321e+005,-2.26025960161420e+001,-8.77962656316517e+000

4.91800058012158e+005,-2.26039177590748e+001,-8.89836850461458e+000

4.98665330982714e+005,-2.26052619986175e+001,-9.01872590786748e+000

5.05626439592555e+005,-2.26066292865938e+001,-9.14072180531246e+000

5.12684721657352e+005,-2.26080201974213e+001,-9.26437954632255e+000

5.19841533667984e+005,-2.26094353287646e+001,-9.38972279901996e+000

5.27098251051240e+005,-2.26108753021891e+001,-9.51677555200059e+000

5.34456268434150e+005,-2.26123407638163e+001,-9.64556211602279e+000

5.41916999912011e+005,-2.26138323849798e+001,-9.77610712566269e+000

