Freq.,VOut,OutRef

1.00000000000000e+004,-1.57060831130253e+001,-1.07688260579575e-001

1.01395947979003e+004,-1.57060846810159e+001,-1.09191275870250e-001

1.02811382665607e+004,-1.57060862930319e+001,-1.10715261578202e-001

1.04246576084112e+004,-1.57060879503081e+001,-1.12260509974663e-001

1.05701804056138e+004,-1.57060896541133e+001,-1.13827317396063e-001

1.07177346253629e+004,-1.57060914057522e+001,-1.15415984293451e-001

1.08673486252606e+004,-1.57060932065656e+001,-1.17026815289359e-001

1.10190511587661e+004,-1.57060950579322e+001,-1.18660119237273e-001

1.11728713807222e+004,-1.57060969612689e+001,-1.20316209280247e-001

1.13288388529580e+004,-1.57060989180321e+001,-1.21995402908188e-001

1.14869835499703e+004,-1.57061009297191e+001,-1.23698022017511e-001

1.16473358646846e+004,-1.57061029978694e+001,-1.25424392969907e-001

1.18099266142953e+004,-1.57061051240646e+001,-1.27174846660594e-001

1.19747870461893e+004,-1.57061073099311e+001,-1.28949718571236e-001

1.21419488439505e+004,-1.57061095571408e+001,-1.30749348837488e-001

1.23114441334492e+004,-1.57061118674116e+001,-1.32574082315563e-001

1.24833054890161e+004,-1.57061142425103e+001,-1.34424268638580e-001

1.26575659397028e+004,-1.57061166842518e+001,-1.36300262291938e-001

1.28342589756290e+004,-1.57061191945027e+001,-1.38202422670639e-001

1.30134185544193e+004,-1.57061217751813e+001,-1.40131114151330e-001

1.31950791077289e+004,-1.57061244282593e+001,-1.42086706159676e-001

1.33792755478611e+004,-1.57061271557631e+001,-1.44069573239852e-001

1.35660432744767e+004,-1.57061299597763e+001,-1.46080095120156e-001

1.37554181813974e+004,-1.57061328424396e+001,-1.48118656791450e-001

1.39474366635040e+004,-1.57061358059544e+001,-1.50185648567974e-001

1.41421356237309e+004,-1.57061388525824e+001,-1.52281466172322e-001

1.43395524801583e+004,-1.57061419846490e+001,-1.54406510797707e-001

1.45397251732031e+004,-1.57061452045437e+001,-1.56561189190262e-001

1.47426921729110e+004,-1.57061485147233e+001,-1.58745913718042e-001

1.49484924863494e+004,-1.57061519177120e+001,-1.60961102454819e-001

1.51571656651040e+004,-1.57061554161050e+001,-1.63207179249075e-001

1.53687518128801e+004,-1.57061590125691e+001,-1.65484573808934e-001

1.55832915932100e+004,-1.57061627098455e+001,-1.67793721777530e-001

1.58008262372675e+004,-1.57061665107514e+001,-1.70135064814384e-001

1.60213975517924e+004,-1.57061704181824e+001,-1.72509050677673e-001

1.62450479271247e+004,-1.57061744351140e+001,-1.74916133306208e-001

1.64718203453514e+004,-1.57061785646053e+001,-1.77356772898735e-001

1.67017583885674e+004,-1.57061828097992e+001,-1.79831436004773e-001

1.69349062472505e+004,-1.57061871739262e+001,-1.82340595607577e-001

1.71713087287550e+004,-1.57061916603067e+001,-1.84884731205921e-001

1.74110112659224e+004,-1.57061962723522e+001,-1.87464328910698e-001

1.76540599258131e+004,-1.57062010135697e+001,-1.90079881523923e-001

1.79005014185594e+004,-1.57062058875625e+001,-1.92731888636827e-001

1.81503831063432e+004,-1.57062108980344e+001,-1.95420856712484e-001

1.84037530124975e+004,-1.57062160487909e+001,-1.98147299185899e-001

1.86606598307361e+004,-1.57062213437429e+001,-2.00911736552159e-001

1.89211529345119e+004,-1.57062267869097e+001,-2.03714696460774e-001

1.91852823865052e+004,-1.57062323824217e+001,-2.06556713809772e-001

1.94530989482457e+004,-1.57062381345226e+001,-2.09438330847998e-001

1.97246540898671e+004,-1.57062440475742e+001,-2.12360097264677e-001

1.99999999999999e+004,-1.57062501260575e+001,-2.15322570295912e-001

2.02791895958005e+004,-1.57062563745783e+001,-2.18326314815507e-001

2.05622765331213e+004,-1.57062627978679e+001,-2.21371903447135e-001

2.08493152168224e+004,-1.57062694007891e+001,-2.24459916654492e-001

2.11403608112276e+004,-1.57062761883377e+001,-2.27590942855108e-001

2.14354692507258e+004,-1.57062831656473e+001,-2.30765578517696e-001

2.17346972505211e+004,-1.57062903379924e+001,-2.33984428272542e-001

2.20381023175322e+004,-1.57062977107925e+001,-2.37248105015591e-001

2.23457427614443e+004,-1.57063052896159e+001,-2.40557230016226e-001

2.26576777059159e+004,-1.57063130801832e+001,-2.43912433030678e-001

2.29739670999406e+004,-1.57063210883722e+001,-2.47314352408848e-001

2.32946717293690e+004,-1.57063293202220e+001,-2.50763635204924e-001

2.36198532285905e+004,-1.57063377819361e+001,-2.54260937296994e-001

2.39495740923785e+004,-1.57063464798884e+001,-2.57806923493082e-001

2.42838976879009e+004,-1.57063554206266e+001,-2.61402267652529e-001

2.46228882668982e+004,-1.57063646108775e+001,-2.65047652800156e-001

2.49666109780322e+004,-1.57063740575510e+001,-2.68743771245483e-001

2.53151318794055e+004,-1.57063837677459e+001,-2.72491324699214e-001

2.56685179512580e+004,-1.57063937487536e+001,-2.76291024399200e-001

2.60268371088386e+004,-1.57064040080646e+001,-2.80143591225800e-001

2.63901582154578e+004,-1.57064145533726e+001,-2.84049755828591e-001

2.67585510957221e+004,-1.57064253925804e+001,-2.88010258750055e-001

2.71320865489533e+004,-1.57064365338052e+001,-2.92025850550115e-001

2.75108363627948e+004,-1.57064479853840e+001,-2.96097291934075e-001

2.78948733270080e+004,-1.57064597558798e+001,-3.00225353878466e-001

2.82842712474618e+004,-1.57064718540872e+001,-3.04410817762234e-001

2.86791049603164e+004,-1.57064842890379e+001,-3.08654475496429e-001

2.90794503464061e+004,-1.57064970700081e+001,-3.12957129654372e-001

2.94853843458219e+004,-1.57065102065231e+001,-3.17319593608386e-001

2.98969849726987e+004,-1.57065237083653e+001,-3.21742691658015e-001

3.03143313302078e+004,-1.57065375855799e+001,-3.26227259170247e-001

3.07375036257601e+004,-1.57065518484817e+001,-3.30774142713199e-001

3.11665831864199e+004,-1.57065665076622e+001,-3.35384200194584e-001

3.16016524745350e+004,-1.57065815739965e+001,-3.40058301000886e-001

3.20427951035848e+004,-1.57065970586504e+001,-3.44797326135986e-001

3.24900958542493e+004,-1.57066129730880e+001,-3.49602168363019e-001

3.29436406907028e+004,-1.57066293290789e+001,-3.54473732347004e-001

3.34035167771346e+004,-1.57066461387062e+001,-3.59412934797297e-001

3.38698124945009e+004,-1.57066634143737e+001,-3.64420704613292e-001

3.43426174575100e+004,-1.57066811688149e+001,-3.69497983026543e-001

3.48220225318448e+004,-1.57066994151003e+001,-3.74645723752286e-001

3.53081198516260e+004,-1.57067181666459e+001,-3.79864893133738e-001

3.58010028371187e+004,-1.57067374372223e+001,-3.85156470290179e-001

3.63007662126863e+004,-1.57067572409622e+001,-3.90521447270564e-001

3.68075060249948e+004,-1.57067775923707e+001,-3.95960829198106e-001

3.73213196614721e+004,-1.57067985063332e+001,-4.01475634427507e-001

3.78423058690237e+004,-1.57068199981248e+001,-4.07066894694651e-001

3.83705647730104e+004,-1.57068420834205e+001,-4.12735655268894e-001

3.89061978964912e+004,-1.57068647783034e+001,-4.18482975111052e-001

3.94493081797342e+004,-1.57068880992759e+001,-4.24309927023256e-001

3.99999999999998e+004,-1.57069120632680e+001,-4.30217597810373e-001

4.05583791916010e+004,-1.57069366876493e+001,-4.36207088430948e-001

4.11245530662425e+004,-1.57069619902373e+001,-4.42279514159424e-001

4.16986304336447e+004,-1.57069879893094e+001,-4.48436004741026e-001

4.22807216224550e+004,-1.57070147036128e+001,-4.54677704550691e-001

4.28709385014515e+004,-1.57070421523751e+001,-4.61005772754329e-001

4.34693945010421e+004,-1.57070703553162e+001,-4.67421383464813e-001

4.40762046350642e+004,-1.57070993326580e+001,-4.73925725906748e-001

4.46914855228886e+004,-1.57071291051376e+001,-4.80520004571379e-001

4.53153554118317e+004,-1.57071596940167e+001,-4.87205439384659e-001

4.59479341998812e+004,-1.57071911210950e+001,-4.93983265861844e-001

4.65893434587380e+004,-1.57072234087211e+001,-5.00854735273542e-001

4.72397064571810e+004,-1.57072565798046e+001,-5.07821114805732e-001

4.78991481847569e+004,-1.57072906578284e+001,-5.14883687722000e-001

4.85677953758016e+004,-1.57073256668608e+001,-5.22043753525676e-001

4.92457765337964e+004,-1.57073616315678e+001,-5.29302628123571e-001

4.99332219560642e+004,-1.57073985772262e+001,-5.36661643984496e-001

5.06302637588109e+004,-1.57074365297356e+001,-5.44122150304810e-001

5.13370359025159e+004,-1.57074755156316e+001,-5.51685513167883e-001

5.20536742176771e+004,-1.57075155620984e+001,-5.59353115707988e-001

5.27803164309155e+004,-1.57075566969823e+001,-5.67126358268440e-001

5.35171021914442e+004,-1.57075989488043e+001,-5.75006658565667e-001

5.42641730979066e+004,-1.57076423467736e+001,-5.82995451847715e-001

5.50216727255895e+004,-1.57076869208007e+001,-5.91094191054653e-001

5.57897466540159e+004,-1.57077327015107e+001,-5.99304346977546e-001

5.65685424949235e+004,-1.57077797202568e+001,-6.07627408418142e-001

5.73582099206328e+004,-1.57078280091337e+001,-6.16064882343964e-001

5.81589006928121e+004,-1.57078776009910e+001,-6.24618294048063e-001

5.89707686916437e+004,-1.57079285294463e+001,-6.33289187303765e-001

5.97939699453972e+004,-1.57079808288990e+001,-6.42079124518732e-001

6.06286626604156e+004,-1.57080345345437e+001,-6.50989686889074e-001

6.14750072515201e+004,-1.57080896823829e+001,-6.60022474553098e-001

6.23331663728396e+004,-1.57081463092407e+001,-6.69179106741271e-001

6.32033049490698e+004,-1.57082044527761e+001,-6.78461221925117e-001

6.40855902071694e+004,-1.57082641514953e+001,-6.87870477967563e-001

6.49801917084985e+004,-1.57083254447652e+001,-6.97408552268606e-001

6.58872813814055e+004,-1.57083883728256e+001,-7.07077141910339e-001

6.68070335542691e+004,-1.57084529768019e+001,-7.16877963799287e-001

6.77396249890018e+004,-1.57085192987168e+001,-7.26812754811575e-001

6.86852349150199e+004,-1.57085873815031e+001,-7.36883271927565e-001

6.96440450636895e+004,-1.57086572690145e+001,-7.47091292373605e-001

7.06162397032520e+004,-1.57087290060371e+001,-7.57438613755259e-001

7.16020056742374e+004,-1.57088026383002e+001,-7.67927054193233e-001

7.26015324253724e+004,-1.57088782124870e+001,-7.78558452452406e-001

7.36150120499896e+004,-1.57089557762445e+001,-7.89334668071636e-001

7.46426393229441e+004,-1.57090353781923e+001,-8.00257581492543e-001

7.56846117380472e+004,-1.57091170679327e+001,-8.11329094181407e-001

7.67411295460207e+004,-1.57092008960580e+001,-8.22551128753238e-001

7.78123957929823e+004,-1.57092869141583e+001,-8.33925629092908e-001

7.88986163594682e+004,-1.57093751748287e+001,-8.45454560469189e-001

7.99999999999995e+004,-1.57094657316755e+001,-8.57139909652818e-001

8.11167583832018e+004,-1.57095586393209e+001,-8.68983685029044e-001

8.22491061324848e+004,-1.57096539534080e+001,-8.80987916706960e-001

8.33972608672892e+004,-1.57097517306040e+001,-8.93154656629236e-001

8.45614432449099e+004,-1.57098520286028e+001,-9.05485978676345e-001

8.57418770029029e+004,-1.57099549061262e+001,-9.17983978771719e-001

8.69387890020841e+004,-1.57100604229243e+001,-9.30650774981574e-001

8.81524092701283e+004,-1.57101686397739e+001,-9.43488507617403e-001

8.93829710457770e+004,-1.57102796184773e+001,-9.56499339329311e-001

9.06307108236633e+004,-1.57103934218573e+001,-9.69685455206670e-001

9.18958683997622e+004,-1.57105101137527e+001,-9.83049062868427e-001

9.31786869174758e+004,-1.57106297590116e+001,-9.96592392556924e-001

9.44794129143618e+004,-1.57107524234827e+001,-1.01031769723141e+000

9.57982963695136e+004,-1.57108781740056e+001,-1.02422725265631e+000

9.71355907516031e+004,-1.57110070783984e+001,-1.03832335749261e+000

9.84915530675926e+004,-1.57111392054442e+001,-1.05260833338703e+000

9.98664439121282e+004,-1.57112746248756e+001,-1.06708452506048e+000

1.01260527517622e+005,-1.57114134073560e+001,-1.08175430040048e+000

1.02674071805032e+005,-1.57115556244604e+001,-1.09662005054869e+000

1.04107348435354e+005,-1.57117013486524e+001,-1.11168418999549e+000

1.05560632861831e+005,-1.57118506532598e+001,-1.12694915667150e+000

1.07034204382888e+005,-1.57120036124473e+001,-1.14241741204412e+000

1.08528346195813e+005,-1.57121603011865e+001,-1.15809144121594e+000

1.10043345451179e+005,-1.57123207952236e+001,-1.17397375302634e+000

1.11579493308032e+005,-1.57124851710440e+001,-1.19006688015851e+000

1.13137084989847e+005,-1.57126535058342e+001,-1.20637337924819e+000

1.14716419841265e+005,-1.57128258774406e+001,-1.22289583100242e+000

1.16317801385624e+005,-1.57130023643250e+001,-1.23963684032116e+000

1.17941537383287e+005,-1.57131830455177e+001,-1.25659903642650e+000

1.19587939890794e+005,-1.57133680005661e+001,-1.27378507300378e+000

1.21257325320831e+005,-1.57135573094809e+001,-1.29119762834660e+000

1.22950014503040e+005,-1.57137510526787e+001,-1.30883940551591e+000

1.24666332745679e+005,-1.57139493109204e+001,-1.32671313250987e+000

1.26406609898139e+005,-1.57141521652469e+001,-1.34482156244491e+000

1.28171180414339e+005,-1.57143596969101e+001,-1.36316747375311e+000

1.29960383416997e+005,-1.57145719873012e+001,-1.38175367039152e+000

1.31774562762811e+005,-1.57147891178739e+001,-1.40058298207194e+000

1.33614067108538e+005,-1.57150111700646e+001,-1.41965826450645e+000

1.35479249978003e+005,-1.57152382252089e+001,-1.43898239967115e+000

1.37370469830040e+005,-1.57154703644525e+001,-1.45855829609537e+000

1.39288090127379e+005,-1.57157076686600e+001,-1.47838888916866e+000

1.41232479406504e+005,-1.57159502183183e+001,-1.49847714147698e+000

1.43204011348474e+005,-1.57161980934366e+001,-1.51882604316098e+000

1.45203064850745e+005,-1.57164513734418e+001,-1.53943861230574e+000

1.47230024099979e+005,-1.57167101370704e+001,-1.56031789535787e+000

1.49285278645888e+005,-1.57169744622558e+001,-1.58146696757731e+000

1.51369223476094e+005,-1.57172444260122e+001,-1.60288893351938e+000

1.53482259092041e+005,-1.57175201043139e+001,-1.62458692755712e+000

1.55624791585964e+005,-1.57178015719713e+001,-1.64656411443786e+000

1.57797232718936e+005,-1.57180889025028e+001,-1.66882368988217e+000

1.59999999999999e+005,-1.57183821680029e+001,-1.69136888122483e+000

1.62233516766403e+005,-1.57186814390075e+001,-1.71420294809932e+000

1.64498212264969e+005,-1.57189867843548e+001,-1.73732918316978e+000

1.66794521734578e+005,-1.57192982710439e+001,-1.76075091291264e+000

1.69122886489819e+005,-1.57196159640896e+001,-1.78447149844714e+000

1.71483754005805e+005,-1.57199399263750e+001,-1.80849433642125e+000

1.73877578004168e+005,-1.57202702185015e+001,-1.83282285995217e+000

1.76304818540256e+005,-1.57206068986355e+001,-1.85746053962521e+000

1.78765942091554e+005,-1.57209500223553e+001,-1.88241088455036e+000

1.81261421647326e+005,-1.57212996424937e+001,-1.90767744348420e+000

1.83791736799524e+005,-1.57216558089810e+001,-1.93326380601136e+000

1.86357373834951e+005,-1.57220185686867e+001,-1.95917360379700e+000

1.88958825828723e+005,-1.57223879652598e+001,-1.98541051190161e+000

1.91596592739027e+005,-1.57227640389703e+001,-2.01197825016938e+000

1.94271181503206e+005,-1.57231468265497e+001,-2.03888058468501e+000

1.96983106135185e+005,-1.57235363610327e+001,-2.06612132930468e+000

1.99732887824256e+005,-1.57239326716006e+001,-2.09370434726064e+000

2.02521055035243e+005,-1.57243357834256e+001,-2.12163355283982e+000

2.05348143610063e+005,-1.57247457175180e+001,-2.14991291314085e+000

2.08214696870707e+005,-1.57251624905760e+001,-2.17854644990550e+000

2.11121265723661e+005,-1.57255861148389e+001,-2.20753824143114e+000

2.14068408765776e+005,-1.57260165979443e+001,-2.23689242455723e+000

2.17056692391625e+005,-1.57264539427901e+001,-2.26661319673422e+000

2.20086690902357e+005,-1.57268981474015e+001,-2.29670481816836e+000

2.23158986616063e+005,-1.57273492048043e+001,-2.32717161404510e+000

2.26274169979693e+005,-1.57278071029040e+001,-2.35801797683014e+000

2.29432839682530e+005,-1.57282718243729e+001,-2.38924836864726e+000

2.32635602771247e+005,-1.57287433465447e+001,-2.42086732373101e+000

2.35883074766574e+005,-1.57292216413175e+001,-2.45287945095374e+000

2.39175879781588e+005,-1.57297066750662e+001,-2.48528943642629e+000

2.42514650641661e+005,-1.57301984085648e+001,-2.51810204616581e+000

2.45900029006080e+005,-1.57306967969188e+001,-2.55132212883499e+000

2.49332665491357e+005,-1.57312017895091e+001,-2.58495461854426e+000

2.52813219796278e+005,-1.57317133299476e+001,-2.61900453771703e+000

2.56342360828676e+005,-1.57322313560448e+001,-2.65347700001334e+000

2.59920766833993e+005,-1.57327557997908e+001,-2.68837721330917e+000

2.63549125525621e+005,-1.57332865873491e+001,-2.72371048272692e+000

2.67228134217075e+005,-1.57338236390652e+001,-2.75948221371322e+000

2.70958499956006e+005,-1.57343668694888e+001,-2.79569791515832e+000

2.74740939660078e+005,-1.57349161874114e+001,-2.83236320255401e+000

2.78576180254757e+005,-1.57354714959187e+001,-2.86948380118475e+000

2.82464958813007e+005,-1.57360326924593e+001,-2.90706554934400e+000

2.86408022696948e+005,-1.57365996689285e+001,-2.94511440157425e+000

2.90406129701488e+005,-1.57371723117684e+001,-2.98363643192286e+000

2.94460048199957e+005,-1.57377505020848e+001,-3.02263783720712e+000

2.98570557291775e+005,-1.57383341157798e+001,-3.06212494028444e+000

3.02738446952187e+005,-1.57389230237013e+001,-3.10210419331949e+000

3.06964518184081e+005,-1.57395170918088e+001,-3.14258218104386e+000

3.11249583171928e+005,-1.57401161813553e+001,-3.18356562400125e+000

3.15594465437872e+005,-1.57407201490859e+001,-3.22506138177016e+000

3.19999999999997e+005,-1.57413288474520e+001,-3.26707645616117e+000

3.24467033532806e+005,-1.57419421248411e+001,-3.30961799438051e+000

3.28996424529938e+005,-1.57425598258222e+001,-3.35269329215211e+000

3.33589043469155e+005,-1.57431817914058e+001,-3.39630979679708e+000

3.38245772979638e+005,-1.57438078593187e+001,-3.44047511025841e+000

3.42967508011610e+005,-1.57444378642920e+001,-3.48519699207129e+000

3.47755156008335e+005,-1.57450716383626e+001,-3.53048336226873e+000

3.52609637080511e+005,-1.57457090111872e+001,-3.57634230422190e+000

3.57531884183106e+005,-1.57463498103678e+001,-3.62278206740385e+000

3.62522843294651e+005,-1.57469938617883e+001,-3.66981107008194e+000

3.67583473599047e+005,-1.57476409899610e+001,-3.71743790192316e+000

3.72714747669902e+005,-1.57482910183819e+001,-3.76567132652014e+000

3.77917651657445e+005,-1.57489437698949e+001,-3.81452028382428e+000

3.83193185478053e+005,-1.57495990670622e+001,-3.86399389249174e+000

3.88542363006410e+005,-1.57502567325411e+001,-3.91410145213405e+000

3.93966212270369e+005,-1.57509165894664e+001,-3.96485244547501e+000

3.99465775648511e+005,-1.57515784618360e+001,-4.01625654041052e+000

4.05042110070485e+005,-1.57522421748994e+001,-4.06832359197052e+000

4.10696287220124e+005,-1.57529075555484e+001,-4.12106364418652e+000

4.16429393741414e+005,-1.57535744327079e+001,-4.17448693185794e+000

4.22242531447321e+005,-1.57542426377266e+001,-4.22860388222580e+000

4.28136817531551e+005,-1.57549120047660e+001,-4.28342511654887e+000

4.34113384783250e+005,-1.57555823711861e+001,-4.33896145158788e+000

4.40173381804713e+005,-1.57562535779288e+001,-4.39522390099895e+000

4.46317973232124e+005,-1.57569254698948e+001,-4.45222367663884e+000

4.52548339959385e+005,-1.57575978963160e+001,-4.50997218978554e+000

4.58865679365059e+005,-1.57582707111208e+001,-4.56848105227882e+000

4.65271205542494e+005,-1.57589437732913e+001,-4.62776207758280e+000

4.71766149533147e+005,-1.57596169472129e+001,-4.68782728177832e+000

4.78351759563174e+005,-1.57602901030139e+001,-4.74868888448760e+000

4.85029301283321e+005,-1.57609631168950e+001,-4.81035930973743e+000

4.91800058012158e+005,-1.57616358714488e+001,-4.87285118676609e+000

4.98665330982714e+005,-1.57623082559670e+001,-4.93617735078226e+000

5.05626439592555e+005,-1.57629801667361e+001,-5.00035084367792e+000

5.12684721657352e+005,-1.57636515073210e+001,-5.06538491470563e+000

5.19841533667984e+005,-1.57643221888351e+001,-5.13129302112474e+000

5.27098251051240e+005,-1.57649921301980e+001,-5.19808882882384e+000

5.34456268434150e+005,-1.57656612583784e+001,-5.26578621292599e+000

5.41916999912011e+005,-1.57663295086256e+001,-5.33439925838329e+000

