Freq.,VOut,OutRef

1.00000000000000e+004,-8.88830135002062e+000,-3.87117932010419e-002

1.01395947979003e+004,-8.88830199934232e+000,-3.92520790604700e-002

1.02811382665607e+004,-8.88830266689455e+000,-3.97999023354501e-002

1.04246576084112e+004,-8.88830335318857e+000,-4.03553680446374e-002

1.05701804056138e+004,-8.88830405874981e+000,-4.09185826649063e-002

1.07177346253629e+004,-8.88830478411798e+000,-4.14896541531118e-002

1.08673486252606e+004,-8.88830552984878e+000,-4.20686919590001e-002

1.10190511587661e+004,-8.88830629651257e+000,-4.26558070554833e-002

1.11728713807222e+004,-8.88830708469655e+000,-4.32511119489043e-002

1.13288388529580e+004,-8.88830789500336e+000,-4.38547207122097e-002

1.14869835499703e+004,-8.88830872805296e+000,-4.44667489968459e-002

1.16473358646846e+004,-8.88830958448244e+000,-4.50873140582626e-002

1.18099266142953e+004,-8.88831046494708e+000,-4.57165347746364e-002

1.19747870461893e+004,-8.88831137012015e+000,-4.63545316733521e-002

1.21419488439505e+004,-8.88831230069391e+000,-4.70014269500022e-002

1.23114441334492e+004,-8.88831325737934e+000,-4.76573444970289e-002

1.24833054890161e+004,-8.88831424090774e+000,-4.83224099188467e-002

1.26575659397028e+004,-8.88831525203129e+000,-4.89967505561035e-002

1.28342589756290e+004,-8.88831629152218e+000,-4.96804955179679e-002

1.30134185544193e+004,-8.88831736017465e+000,-5.03737756966030e-002

1.31950791077289e+004,-8.88831845880465e+000,-5.10767237983412e-002

1.33792755478611e+004,-8.88831958825166e+000,-5.17894743598231e-002

1.35660432744767e+004,-8.88832074937795e+000,-5.25121637814154e-002

1.37554181813974e+004,-8.88832194307003e+000,-5.32449303476651e-002

1.39474366635040e+004,-8.88832317023861e+000,-5.39879142580583e-002

1.41421356237309e+004,-8.88832443182075e+000,-5.47412576417939e-002

1.43395524801583e+004,-8.88832572877877e+000,-5.55051045966931e-002

1.45397251732031e+004,-8.88832706210156e+000,-5.62796012118773e-002

1.47426921729110e+004,-8.88832843280664e+000,-5.70648955856781e-002

1.49484924863494e+004,-8.88832984193842e+000,-5.78611378687698e-002

1.51571656651040e+004,-8.88833129057156e+000,-5.86684802758823e-002

1.53687518128801e+004,-8.88833277980974e+000,-5.94870771258780e-002

1.55832915932100e+004,-8.88833431078761e+000,-6.03170848629288e-002

1.58008262372675e+004,-8.88833588467196e+000,-6.11586620834793e-002

1.60213975517924e+004,-8.88833750266036e+000,-6.20119695785877e-002

1.62450479271247e+004,-8.88833916598517e+000,-6.28771703440759e-002

1.64718203453514e+004,-8.88834087591233e+000,-6.37544296227290e-002

1.67017583885674e+004,-8.88834263374260e+000,-6.46439149336242e-002

1.69349062472505e+004,-8.88834444081352e+000,-6.55457960945661e-002

1.71713087287550e+004,-8.88834629849880e+000,-6.64602452639682e-002

1.74110112659224e+004,-8.88834820821114e+000,-6.73874369608649e-002

1.76540599258131e+004,-8.88835017140143e+000,-6.83275481065913e-002

1.79005014185594e+004,-8.88835218956161e+000,-6.92807580462950e-002

1.81503831063432e+004,-8.88835426422394e+000,-7.02472485929197e-002

1.84037530124975e+004,-8.88835639696356e+000,-7.12272040496518e-002

1.86606598307361e+004,-8.88835858939933e+000,-7.22208112451763e-002

1.89211529345119e+004,-8.88836084319428e+000,-7.32282595729629e-002

1.91852823865052e+004,-8.88836316005795e+000,-7.42497410156996e-002

1.94530989482457e+004,-8.88836554174662e+000,-7.52854501874878e-002

1.97246540898671e+004,-8.88836799006497e+000,-7.63355843652702e-002

1.99999999999999e+004,-8.88837050686748e+000,-7.74003435233377e-002

2.02791895958005e+004,-8.88837309406002e+000,-7.84799303668134e-002

2.05622765331213e+004,-8.88837575360057e+000,-7.95745503719704e-002

2.08493152168224e+004,-8.88837848750110e+000,-8.06844118187136e-002

2.11403608112276e+004,-8.88838129782888e+000,-8.18097258287513e-002

2.14354692507258e+004,-8.88838418670803e+000,-8.29507064013106e-002

2.17346972505211e+004,-8.88838715632079e+000,-8.41075704525805e-002

2.20381023175322e+004,-8.88839020890957e+000,-8.52805378500982e-002

2.23457427614443e+004,-8.88839334677815e+000,-8.64698314532831e-002

2.26576777059159e+004,-8.88839657229334e+000,-8.76756771520936e-002

2.29739670999406e+004,-8.88839988788658e+000,-8.88983039063315e-002

2.32946717293690e+004,-8.88840329605671e+000,-9.01379437782414e-002

2.36198532285905e+004,-8.88840679936966e+000,-9.13948319854974e-002

2.39495740923785e+004,-8.88841040046242e+000,-9.26692069278354e-002

2.42838976879009e+004,-8.88841410204342e+000,-9.39613102361235e-002

2.46228882668982e+004,-8.88841790689510e+000,-9.52713868107336e-002

2.49666109780322e+004,-8.88842181787613e+000,-9.65996848591084e-002

2.53151318794055e+004,-8.88842583792203e+000,-9.79464559473733e-002

2.56685179512580e+004,-8.88842997004892e+000,-9.93119550320059e-002

2.60268371088386e+004,-8.88843421735494e+000,-1.00696440505770e-001

2.63901582154578e+004,-8.88843858302181e+000,-1.02100174244732e-001

2.67585510957221e+004,-8.88844307031793e+000,-1.03523421646149e-001

2.71320865489533e+004,-8.88844768260014e+000,-1.04966451674529e-001

2.75108363627948e+004,-8.88845242331610e+000,-1.06429536905627e-001

2.78948733270080e+004,-8.88845729600640e+000,-1.07912953573406e-001

2.82842712474618e+004,-8.88846230430774e+000,-1.09416981608447e-001

2.86791049603164e+004,-8.88846745195464e+000,-1.10941904689178e-001

2.90794503464061e+004,-8.88847274278201e+000,-1.12488010286397e-001

2.94853843458219e+004,-8.88847818072831e+000,-1.14055589706390e-001

2.98969849726987e+004,-8.88848376983789e+000,-1.15644938138660e-001

3.03143313302078e+004,-8.88848951426277e+000,-1.17256354708639e-001

3.07375036257601e+004,-8.88849541826732e+000,-1.18890142512581e-001

3.11665831864199e+004,-8.88850148622934e+000,-1.20546608676589e-001

3.16016524745350e+004,-8.88850772264398e+000,-1.22226064396666e-001

3.20427951035848e+004,-8.88851413212599e+000,-1.23928824992074e-001

3.24900958542493e+004,-8.88852071941339e+000,-1.25655209949893e-001

3.29436406907028e+004,-8.88852748937014e+000,-1.27405542975157e-001

3.34035167771346e+004,-8.88853444698908e+000,-1.29180152042384e-001

3.38698124945009e+004,-8.88854159739597e+000,-1.30979369438980e-001

3.43426174575100e+004,-8.88854894585150e+000,-1.32803531823504e-001

3.48220225318448e+004,-8.88855649775613e+000,-1.34652980264719e-001

3.53081198516260e+004,-8.88856425865237e+000,-1.36528060300705e-001

3.58010028371187e+004,-8.88857223422870e+000,-1.38429121985769e-001

3.63007662126863e+004,-8.88858043032275e+000,-1.40356519943114e-001

3.68075060249948e+004,-8.88858885292558e+000,-1.42310613411606e-001

3.73213196614721e+004,-8.88859750818503e+000,-1.44291766299626e-001

3.78423058690237e+004,-8.88860640240912e+000,-1.46300347238091e-001

3.83705647730104e+004,-8.88861554207039e+000,-1.48336729629020e-001

3.89061978964912e+004,-8.88862493381002e+000,-1.50401291695798e-001

3.94493081797342e+004,-8.88863458444064e+000,-1.52494416541838e-001

3.99999999999998e+004,-8.88864450095194e+000,-1.54616492193370e-001

4.05583791916010e+004,-8.88865469051344e+000,-1.56767911659126e-001

4.11245530662425e+004,-8.88866516047931e+000,-1.58949072979566e-001

4.16986304336447e+004,-8.88867591839292e+000,-1.61160379275781e-001

4.22807216224550e+004,-8.88868697199055e+000,-1.63402238807123e-001

4.28709385014515e+004,-8.88869832920568e+000,-1.65675065022420e-001

4.34693945010421e+004,-8.88870999817420e+000,-1.67979276609419e-001

4.40762046350642e+004,-8.88872198723872e+000,-1.70315297547035e-001

4.46914855228886e+004,-8.88873430495236e+000,-1.72683557162961e-001

4.53153554118317e+004,-8.88874696008453e+000,-1.75084490178773e-001

4.59479341998812e+004,-8.88875996162486e+000,-1.77518536767240e-001

4.65893434587380e+004,-8.88877331878842e+000,-1.79986142601022e-001

4.72397064571810e+004,-8.88878704102008e+000,-1.82487758907476e-001

4.78991481847569e+004,-8.88880113800006e+000,-1.85023842516863e-001

4.85677953758016e+004,-8.88881561964844e+000,-1.87594855915079e-001

4.92457765337964e+004,-8.88883049613020e+000,-1.90201267296141e-001

4.99332219560642e+004,-8.88884577786028e+000,-1.92843550611920e-001

5.06302637588109e+004,-8.88886147550888e+000,-1.95522185621458e-001

5.13370359025159e+004,-8.88887760000641e+000,-1.98237657943119e-001

5.20536742176771e+004,-8.88889416254859e+000,-2.00990459103362e-001

5.27803164309155e+004,-8.88891117460169e+000,-2.03781086588339e-001

5.35171021914442e+004,-8.88892864790816e+000,-2.06610043887837e-001

5.42641730979066e+004,-8.88894659449140e+000,-2.09477840548699e-001

5.50216727255895e+004,-8.88896502666095e+000,-2.12384992222276e-001

5.57897466540159e+004,-8.88898395701868e+000,-2.15332020706771e-001

5.65685424949235e+004,-8.88900339846274e+000,-2.18319454002319e-001

5.73582099206328e+004,-8.88902336419415e+000,-2.21347826348809e-001

5.81589006928121e+004,-8.88904386772139e+000,-2.24417678276308e-001

5.89707686916437e+004,-8.88906492286569e+000,-2.27529556649232e-001

5.97939699453972e+004,-8.88908654376632e+000,-2.30684014710307e-001

6.06286626604156e+004,-8.88910874488658e+000,-2.33881612118984e-001

6.14750072515201e+004,-8.88913154101751e+000,-2.37122915002781e-001

6.23331663728396e+004,-8.88915494728437e+000,-2.40408495990940e-001

6.32033049490698e+004,-8.88917897915106e+000,-2.43738934257998e-001

6.40855902071694e+004,-8.88920365242519e+000,-2.47114815563500e-001

6.49801917084985e+004,-8.88922898326337e+000,-2.50536732288646e-001

6.58872813814055e+004,-8.88925498817530e+000,-2.54005283477242e-001

6.68070335542691e+004,-8.88928168402930e+000,-2.57521074867512e-001

6.77396249890018e+004,-8.88930908805647e+000,-2.61084718930456e-001

6.86852349150199e+004,-8.88933721785510e+000,-2.64696834903396e-001

6.96440450636895e+004,-8.88936609139530e+000,-2.68358048821141e-001

7.06162397032520e+004,-8.88939572702276e+000,-2.72068993549945e-001

7.16020056742374e+004,-8.88942614346291e+000,-2.75830308816161e-001

7.26015324253724e+004,-8.88945735982468e+000,-2.79642641235626e-001

7.36150120499896e+004,-8.88948939560389e+000,-2.83506644341351e-001

7.46426393229441e+004,-8.88952227068669e+000,-2.87422978609889e-001

7.56846117380472e+004,-8.88955600535253e+000,-2.91392311485175e-001

7.67411295460207e+004,-8.88959062027675e+000,-2.95415317403945e-001

7.78123957929823e+004,-8.88962613653291e+000,-2.99492677817489e-001

7.88986163594682e+004,-8.88966257559546e+000,-3.03625081209013e-001

7.99999999999995e+004,-8.88969995934091e+000,-3.07813223116713e-001

8.11167583832018e+004,-8.88973831004908e+000,-3.12057806150991e-001

8.22491061324848e+004,-8.88977765040472e+000,-3.16359540007386e-001

8.33972608672892e+004,-8.88981800349730e+000,-3.20719141484804e-001

8.45614432449099e+004,-8.88985939282126e+000,-3.25137334498854e-001

8.57418770029029e+004,-8.88990184227588e+000,-3.29614850090405e-001

8.69387890020841e+004,-8.88994537616352e+000,-3.34152426441466e-001

8.81524092701283e+004,-8.88999001918893e+000,-3.38750808878783e-001

8.93829710457770e+004,-8.89003579645669e+000,-3.43410749885002e-001

9.06307108236633e+004,-8.89008273346823e+000,-3.48133009105495e-001

9.18958683997622e+004,-8.89013085611854e+000,-3.52918353353602e-001

9.31786869174758e+004,-8.89018019069236e+000,-3.57767556612572e-001

9.44794129143618e+004,-8.89023076385857e+000,-3.62681400043877e-001

9.57982963695136e+004,-8.89028260266533e+000,-3.67660671983497e-001

9.71355907516031e+004,-8.89033573453270e+000,-3.72706167950766e-001

9.84915530675926e+004,-8.89039018724634e+000,-3.77818690641170e-001

9.98664439121282e+004,-8.89044598894830e+000,-3.82999049933911e-001

1.01260527517622e+005,-8.89050316812832e+000,-3.88248062888153e-001

1.02674071805032e+005,-8.89056175361360e+000,-3.93566553743308e-001

1.04107348435354e+005,-8.89062177455751e+000,-3.98955353919714e-001

1.05560632861831e+005,-8.89068326042725e+000,-4.04415302018005e-001

1.07034204382888e+005,-8.89074624099080e+000,-4.09947243818161e-001

1.08528346195813e+005,-8.89081074630175e+000,-4.15552032283910e-001

1.10043345451179e+005,-8.89087680668406e+000,-4.21230527560049e-001

1.11579493308032e+005,-8.89094445271511e+000,-4.26983596977511e-001

1.13137084989847e+005,-8.89101371520664e+000,-4.32812115059653e-001

1.14716419841265e+005,-8.89108462518583e+000,-4.38716963525339e-001

1.16317801385624e+005,-8.89115721387389e+000,-4.44699031299846e-001

1.17941537383287e+005,-8.89123151266380e+000,-4.50759214523006e-001

1.19587939890794e+005,-8.89130755309593e+000,-4.56898416566447e-001

1.21257325320831e+005,-8.89138536683313e+000,-4.63117548047304e-001

1.22950014503040e+005,-8.89146498563320e+000,-4.69417526852247e-001

1.24666332745679e+005,-8.89154644132053e+000,-4.75799278160170e-001

1.26406609898139e+005,-8.89162976575550e+000,-4.82263734475643e-001

1.28171180414339e+005,-8.89171499080303e+000,-4.88811835659579e-001

1.29960383416997e+005,-8.89180214829850e+000,-4.95444528974270e-001

1.31774562762811e+005,-8.89189127001264e+000,-5.02162769129068e-001

1.33614067108538e+005,-8.89198238761387e+000,-5.08967518337760e-001

1.35479249978003e+005,-8.89207553263024e+000,-5.15859746376135e-001

1.37370469830040e+005,-8.89217073640772e+000,-5.22840430658517e-001

1.39288090127379e+005,-8.89226803006838e+000,-5.29910556312958e-001

1.41232479406504e+005,-8.89236744446518e+000,-5.37071116275880e-001

1.43204011348474e+005,-8.89246901013668e+000,-5.44323111386667e-001

1.45203064850745e+005,-8.89257275725791e+000,-5.51667550505034e-001

1.47230024099979e+005,-8.89267871559102e+000,-5.59105450631725e-001

1.49285278645888e+005,-8.89278691443345e+000,-5.66637837045051e-001

1.51369223476094e+005,-8.89289738256401e+000,-5.74265743453426e-001

1.53482259092041e+005,-8.89301014818739e+000,-5.81990212161154e-001

1.55624791585964e+005,-8.89312523887758e+000,-5.89812294245601e-001

1.57797232718936e+005,-8.89324268151792e+000,-5.97733049760635e-001

1.59999999999999e+005,-8.89336250224129e+000,-6.05753547946900e-001

1.62233516766403e+005,-8.89348472636746e+000,-6.13874867466679e-001

1.64498212264969e+005,-8.89360937833924e+000,-6.22098096657519e-001

1.66794521734578e+005,-8.89373648165713e+000,-6.30424333803155e-001

1.69122886489819e+005,-8.89386605881257e+000,-6.38854687429449e-001

1.71483754005805e+005,-8.89399813121953e+000,-6.47390276620276e-001

1.73877578004168e+005,-8.89413271914559e+000,-6.56032231355399e-001

1.76304818540256e+005,-8.89426984164100e+000,-6.64781692875181e-001

1.78765942091554e+005,-8.89440951646743e+000,-6.73639814068126e-001

1.81261421647326e+005,-8.89455176002532e+000,-6.82607759885807e-001

1.83791736799524e+005,-8.89469658728097e+000,-6.91686707782380e-001

1.86357373834951e+005,-8.89484401169281e+000,-7.00877848183019e-001

1.88958825828723e+005,-8.89499404513719e+000,-7.10182384980470e-001

1.91596592739027e+005,-8.89514669783398e+000,-7.19601536061097e-001

1.94271181503206e+005,-8.89530197827242e+000,-7.29136533858460e-001

1.96983106135185e+005,-8.89545989313637e+000,-7.38788625941767e-001

1.99732887824256e+005,-8.89562044723099e+000,-7.48559075628956e-001

2.02521055035243e+005,-8.89578364340869e+000,-7.58449162638660e-001

2.05348143610063e+005,-8.89594948249741e+000,-7.68460183765449e-001

2.08214696870707e+005,-8.89611796322819e+000,-7.78593453598291e-001

2.11121265723661e+005,-8.89628908216558e+000,-7.88850305260210e-001

2.14068408765776e+005,-8.89646283363866e+000,-7.99232091188811e-001

2.17056692391625e+005,-8.89663920967407e+000,-8.09740183946421e-001

2.20086690902357e+005,-8.89681819993118e+000,-8.20375977063839e-001

2.23158986616063e+005,-8.89699979163975e+000,-8.31140885914479e-001

2.26274169979693e+005,-8.89718396953930e+000,-8.42036348627701e-001

2.29432839682530e+005,-8.89737071582288e+000,-8.53063827024690e-001

2.32635602771247e+005,-8.89756001008256e+000,-8.64224807593627e-001

2.35883074766574e+005,-8.89775182925916e+000,-8.75520802492647e-001

2.39175879781588e+005,-8.89794614759535e+000,-8.86953350583621e-001

2.42514650641661e+005,-8.89814293659305e+000,-8.98524018494673e-001

2.45900029006080e+005,-8.89834216497482e+000,-9.10234401712221e-001

2.49332665491357e+005,-8.89854379864974e+000,-9.22086125700032e-001

2.52813219796278e+005,-8.89874780068460e+000,-9.34080847041893e-001

2.56342360828676e+005,-8.89895413127936e+000,-9.46220254612703e-001

2.59920766833993e+005,-8.89916274774862e+000,-9.58506070768496e-001

2.63549125525621e+005,-8.89937360450811e+000,-9.70940052560633e-001

2.67228134217075e+005,-8.89958665306707e+000,-9.83523992967565e-001

2.70958499956006e+005,-8.89980184202677e+000,-9.96259722143953e-001

2.74740939660078e+005,-8.90001911708488e+000,-1.00914910868630e+000

2.78576180254757e+005,-8.90023842104582e+000,-1.02219406091167e+000

2.82464958813007e+005,-8.90045969383850e+000,-1.03539652814412e+000

2.86408022696948e+005,-8.90068287253952e+000,-1.04875850201377e+000

2.90406129701488e+005,-8.90090789140342e+000,-1.06228201776027e+000

2.94460048199957e+005,-8.90113468189996e+000,-1.07596915553724e+000

2.98570557291775e+005,-8.90136317275749e+000,-1.08982204172089e+000

3.02738446952187e+005,-8.90159329001343e+000,-1.10384285021547e+000

3.06964518184081e+005,-8.90182495707149e+000,-1.11803380375302e+000

3.11249583171928e+005,-8.90205809476555e+000,-1.13239717518662e+000

3.15594465437872e+005,-8.90229262142993e+000,-1.14693528877420e+000

3.19999999999997e+005,-8.90252845297653e+000,-1.16165052144754e+000

3.24467033532806e+005,-8.90276550297777e+000,-1.17654530406962e+000

3.28996424529938e+005,-8.90300368275678e+000,-1.19162212266664e+000

3.33589043469155e+005,-8.90324290148218e+000,-1.20688351964813e+000

3.38245772979638e+005,-8.90348306626975e+000,-1.22233209499679e+000

3.42967508011610e+005,-8.90372408228925e+000,-1.23797050743447e+000

3.47755156008335e+005,-8.90396585287628e+000,-1.25380147556216e+000

3.52609637080511e+005,-8.90420827964934e+000,-1.26982777896572e+000

3.57531884183106e+005,-8.90445126263137e+000,-1.28605225929231e+000

3.62522843294651e+005,-8.90469470037523e+000,-1.30247782129105e+000

3.67583473599047e+005,-8.90493849009374e+000,-1.31910743381602e+000

3.72714747669902e+005,-8.90518252779202e+000,-1.33594413079485e+000

3.77917651657445e+005,-8.90542670840387e+000,-1.35299101215385e+000

3.83193185478053e+005,-8.90567092593006e+000,-1.37025124470629e+000

3.88542363006410e+005,-8.90591507357870e+000,-1.38772806299671e+000

3.93966212270369e+005,-8.90615904390766e+000,-1.40542477010291e+000

3.99465775648511e+005,-8.90640272896739e+000,-1.42334473839744e+000

4.05042110070485e+005,-8.90664602044505e+000,-1.44149141026230e+000

4.10696287220124e+005,-8.90688880980827e+000,-1.45986829876253e+000

4.16429393741414e+005,-8.90713098844869e+000,-1.47847898827563e+000

4.22242531447321e+005,-8.90737244782444e+000,-1.49732713508021e+000

4.28136817531551e+005,-8.90761307960183e+000,-1.51641646789587e+000

4.34113384783250e+005,-8.90785277579423e+000,-1.53575078838972e+000

4.40173381804713e+005,-8.90809142889933e+000,-1.55533397163667e+000

4.46317973232124e+005,-8.90832893203335e+000,-1.57516996654170e+000

4.52548339959385e+005,-8.90856517906188e+000,-1.59526279622491e+000

4.58865679365059e+005,-8.90880006472725e+000,-1.61561655836904e+000

4.65271205542494e+005,-8.90903348477121e+000,-1.63623542553506e+000

4.71766149533147e+005,-8.90926533605405e+000,-1.65712364544021e+000

4.78351759563174e+005,-8.90949551666768e+000,-1.67828554121248e+000

4.85029301283321e+005,-8.90972392604417e+000,-1.69972551161207e+000

4.91800058012158e+005,-8.90995046505887e+000,-1.72144803122747e+000

4.98665330982714e+005,-8.91017503612671e+000,-1.74345765065353e+000

5.05626439592555e+005,-8.91039754329342e+000,-1.76575899664304e+000

5.12684721657352e+005,-8.91061789231959e+000,-1.78835677224550e+000

5.19841533667984e+005,-8.91083599075861e+000,-1.81125575692841e+000

5.27098251051240e+005,-8.91105174802727e+000,-1.83446080669100e+000

5.34456268434150e+005,-8.91126507547028e+000,-1.85797685416323e+000

5.41916999912011e+005,-8.91147588641673e+000,-1.88180890870558e+000

