Freq.,VOut,OutRef

1.00000000000000e+004,-1.41413890684778e+001,-1.60303825392124e-001

1.01395947979003e+004,-1.41413899369648e+001,-1.62541446266182e-001

1.02811382665607e+004,-1.41413908298380e+001,-1.64810297345747e-001

1.04246576084112e+004,-1.41413917477813e+001,-1.67110814340986e-001

1.05701804056138e+004,-1.41413926914978e+001,-1.69443439035043e-001

1.07177346253629e+004,-1.41413936617101e+001,-1.71808619365009e-001

1.08673486252606e+004,-1.41413946591613e+001,-1.74206809511848e-001

1.10190511587661e+004,-1.41413956846147e+001,-1.76638469985372e-001

1.11728713807222e+004,-1.41413967388554e+001,-1.79104067709603e-001

1.13288388529580e+004,-1.41413978226904e+001,-1.81604076113889e-001

1.14869835499703e+004,-1.41413989369492e+001,-1.84138975223800e-001

1.16473358646846e+004,-1.41414000824844e+001,-1.86709251752467e-001

1.18099266142953e+004,-1.41414012601724e+001,-1.89315399190932e-001

1.19747870461893e+004,-1.41414024709142e+001,-1.91957917905570e-001

1.21419488439505e+004,-1.41414037156358e+001,-1.94637315231310e-001

1.23114441334492e+004,-1.41414049952893e+001,-1.97354105568339e-001

1.24833054890161e+004,-1.41414063108533e+001,-2.00108810480356e-001

1.26575659397028e+004,-1.41414076633335e+001,-2.02901958793807e-001

1.28342589756290e+004,-1.41414090537639e+001,-2.05734086700593e-001

1.30134185544193e+004,-1.41414104832072e+001,-2.08605737855360e-001

1.31950791077289e+004,-1.41414119527558e+001,-2.11517463482884e-001

1.33792755478611e+004,-1.41414134635326e+001,-2.14469822482299e-001

1.35660432744767e+004,-1.41414150166917e+001,-2.17463381531731e-001

1.37554181813974e+004,-1.41414166134195e+001,-2.20498715197367e-001

1.39474366635040e+004,-1.41414182549353e+001,-2.23576406041283e-001

1.41421356237309e+004,-1.41414199424926e+001,-2.26697044733920e-001

1.43395524801583e+004,-1.41414216773795e+001,-2.29861230164879e-001

1.45397251732031e+004,-1.41414234609202e+001,-2.33069569557610e-001

1.47426921729110e+004,-1.41414252944758e+001,-2.36322678581592e-001

1.49484924863494e+004,-1.41414271794449e+001,-2.39621181474230e-001

1.51571656651040e+004,-1.41414291172654e+001,-2.42965711155592e-001

1.53687518128801e+004,-1.41414311094152e+001,-2.46356909346633e-001

1.55832915932100e+004,-1.41414331574129e+001,-2.49795426696630e-001

1.58008262372675e+004,-1.41414352628198e+001,-2.53281922900785e-001

1.60213975517924e+004,-1.41414374272401e+001,-2.56817066827958e-001

1.62450479271247e+004,-1.41414396523230e+001,-2.60401536646594e-001

1.64718203453514e+004,-1.41414419397632e+001,-2.64036019951940e-001

1.67017583885674e+004,-1.41414442913025e+001,-2.67721213897382e-001

1.69349062472505e+004,-1.41414467087311e+001,-2.71457825326484e-001

1.71713087287550e+004,-1.41414491938888e+001,-2.75246570903575e-001

1.74110112659224e+004,-1.41414517486664e+001,-2.79088177254045e-001

1.76540599258131e+004,-1.41414543750071e+001,-2.82983381095393e-001

1.79005014185594e+004,-1.41414570749080e+001,-2.86932929380863e-001

1.81503831063432e+004,-1.41414598504214e+001,-2.90937579438468e-001

1.84037530124975e+004,-1.41414627036565e+001,-2.94998099112945e-001

1.86606598307361e+004,-1.41414656367808e+001,-2.99115266911270e-001

1.89211529345119e+004,-1.41414686520218e+001,-3.03289872148931e-001

1.91852823865052e+004,-1.41414717516684e+001,-3.07522715098788e-001

1.94530989482457e+004,-1.41414749380730e+001,-3.11814607139418e-001

1.97246540898671e+004,-1.41414782136528e+001,-3.16166370909796e-001

1.99999999999999e+004,-1.41414815808917e+001,-3.20578840464127e-001

2.02791895958005e+004,-1.41414850423421e+001,-3.25052861425682e-001

2.05622765331213e+004,-1.41414886006270e+001,-3.29589291145834e-001

2.08493152168224e+004,-1.41414922584416e+001,-3.34188998866023e-001

2.11403608112276e+004,-1.41414960185549e+001,-3.38852865881013e-001

2.14354692507258e+004,-1.41414998838128e+001,-3.43581785701144e-001

2.17346972505211e+004,-1.41415038571389e+001,-3.48376664220530e-001

2.20381023175322e+004,-1.41415079415376e+001,-3.53238419887288e-001

2.23457427614443e+004,-1.41415121400956e+001,-3.58167983873222e-001

2.26576777059159e+004,-1.41415164559844e+001,-3.63166300248366e-001

2.29739670999406e+004,-1.41415208924624e+001,-3.68234326156713e-001

2.32946717293690e+004,-1.41415254528777e+001,-3.73373031993895e-001

2.36198532285905e+004,-1.41415301406697e+001,-3.78583401589057e-001

2.39495740923785e+004,-1.41415349593722e+001,-3.83866432385290e-001

2.42838976879009e+004,-1.41415399126157e+001,-3.89223135626482e-001

2.46228882668982e+004,-1.41415450041297e+001,-3.94654536545093e-001

2.49666109780322e+004,-1.41415502377458e+001,-4.00161674551166e-001

2.53151318794055e+004,-1.41415556174001e+001,-4.05745603424448e-001

2.56685179512580e+004,-1.41415611471362e+001,-4.11407391509290e-001

2.60268371088386e+004,-1.41415668311075e+001,-4.17148121914470e-001

2.63901582154578e+004,-1.41415726735807e+001,-4.22968892708224e-001

2.67585510957221e+004,-1.41415786789384e+001,-4.28870817126084e-001

2.71320865489533e+004,-1.41415848516825e+001,-4.34855023771119e-001

2.75108363627948e+004,-1.41415911964368e+001,-4.40922656823955e-001

2.78948733270080e+004,-1.41415977179507e+001,-4.47074876252156e-001

2.82842712474618e+004,-1.41416044211021e+001,-4.53312858023125e-001

2.86791049603164e+004,-1.41416113109009e+001,-4.59637794320416e-001

2.90794503464061e+004,-1.41416183924925e+001,-4.66050893758573e-001

2.94853843458219e+004,-1.41416256711610e+001,-4.72553381610052e-001

2.98969849726987e+004,-1.41416331523334e+001,-4.79146500021012e-001

3.03143313302078e+004,-1.41416408415823e+001,-4.85831508244458e-001

3.07375036257601e+004,-1.41416487446307e+001,-4.92609682865131e-001

3.11665831864199e+004,-1.41416568673551e+001,-4.99482318033631e-001

3.16016524745350e+004,-1.41416652157896e+001,-5.06450725700260e-001

3.20427951035848e+004,-1.41416737961302e+001,-5.13516235852729e-001

3.24900958542493e+004,-1.41416826147385e+001,-5.20680196755968e-001

3.29436406907028e+004,-1.41416916781461e+001,-5.27943975197533e-001

3.34035167771346e+004,-1.41417009930589e+001,-5.35308956732534e-001

3.38698124945009e+004,-1.41417105663616e+001,-5.42776545931283e-001

3.43426174575100e+004,-1.41417204051217e+001,-5.50348166636208e-001

3.48220225318448e+004,-1.41417305165944e+001,-5.58025262213029e-001

3.53081198516260e+004,-1.41417409082273e+001,-5.65809295810497e-001

3.58010028371187e+004,-1.41417515876653e+001,-5.73701750620683e-001

3.63007662126863e+004,-1.41417625627550e+001,-5.81704130146862e-001

3.68075060249948e+004,-1.41417738415500e+001,-5.89817958466451e-001

3.73213196614721e+004,-1.41417854323157e+001,-5.98044780505192e-001

3.78423058690237e+004,-1.41417973435350e+001,-6.06386162309124e-001

3.83705647730104e+004,-1.41418095839129e+001,-6.14843691321958e-001

3.89061978964912e+004,-1.41418221623822e+001,-6.23418976665190e-001

3.94493081797342e+004,-1.41418350881090e+001,-6.32113649422764e-001

3.99999999999998e+004,-1.41418483704980e+001,-6.40929362925313e-001

4.05583791916010e+004,-1.41418620191987e+001,-6.49867793040354e-001

4.11245530662425e+004,-1.41418760441105e+001,-6.58930638468045e-001

4.16986304336447e+004,-1.41418904553892e+001,-6.68119621034080e-001

4.22807216224550e+004,-1.41419052634523e+001,-6.77436485991774e-001

4.28709385014515e+004,-1.41419204789859e+001,-6.86883002323352e-001

4.34693945010421e+004,-1.41419361129503e+001,-6.96460963046744e-001

4.40762046350642e+004,-1.41419521765864e+001,-7.06172185525414e-001

4.46914855228886e+004,-1.41419686814220e+001,-7.16018511782811e-001

4.53153554118317e+004,-1.41419856392788e+001,-7.26001808814821e-001

4.59479341998812e+004,-1.41420030622784e+001,-7.36123968913054e-001

4.65893434587380e+004,-1.41420209628491e+001,-7.46386909987140e-001

4.72397064571810e+004,-1.41420393537329e+001,-7.56792575890567e-001

4.78991481847569e+004,-1.41420582479920e+001,-7.67342936751315e-001

4.85677953758016e+004,-1.41420776590164e+001,-7.78039989305463e-001

4.92457765337964e+004,-1.41420976005301e+001,-7.88885757232935e-001

4.99332219560642e+004,-1.41421180865989e+001,-7.99882291499799e-001

5.06302637588109e+004,-1.41421391316373e+001,-8.11031670700605e-001

5.13370359025159e+004,-1.41421607504158e+001,-8.22336001406558e-001

5.20536742176771e+004,-1.41421829580685e+001,-8.33797418516223e-001

5.27803164309155e+004,-1.41422057701001e+001,-8.45418085609791e-001

5.35171021914442e+004,-1.41422292023938e+001,-8.57200195307499e-001

5.42641730979066e+004,-1.41422532712186e+001,-8.69145969630353e-001

5.50216727255895e+004,-1.41422779932370e+001,-8.81257660366520e-001

5.57897466540159e+004,-1.41423033855127e+001,-8.93537549437972e-001

5.65685424949235e+004,-1.41423294655182e+001,-9.05987949274634e-001

5.73582099206328e+004,-1.41423562511425e+001,-9.18611203189754e-001

5.81589006928121e+004,-1.41423837606989e+001,-9.31409685757526e-001

5.89707686916437e+004,-1.41424120129328e+001,-9.44385803198901e-001

5.97939699453972e+004,-1.41424410270293e+001,-9.57541993766351e-001

6.06286626604156e+004,-1.41424708226215e+001,-9.70880728133653e-001

6.14750072515201e+004,-1.41425014197972e+001,-9.84404509792421e-001

6.23331663728396e+004,-1.41425328391079e+001,-9.98115875445767e-001

6.32033049490698e+004,-1.41425651015754e+001,-1.01201739541409e+000

6.40855902071694e+004,-1.41425982287001e+001,-1.02611167403565e+000

6.49801917084985e+004,-1.41426322424685e+001,-1.04040135007817e+000

6.58872813814055e+004,-1.41426671653603e+001,-1.05488909714990e+000

6.68070335542691e+004,-1.41427030203564e+001,-1.06957762411575e+000

6.77396249890018e+004,-1.41427398309457e+001,-1.08446967551799e+000

6.86852349150199e+004,-1.41427776211325e+001,-1.09956803199855e+000

6.96440450636895e+004,-1.41428164154436e+001,-1.11487551072815e+000

7.06162397032520e+004,-1.41428562389351e+001,-1.13039496583629e+000

7.16020056742374e+004,-1.41428971171988e+001,-1.14612928884713e+000

7.26015324253724e+004,-1.41429390763694e+001,-1.16208140911765e+000

7.36150120499896e+004,-1.41429821431301e+001,-1.17825429428268e+000

7.46426393229441e+004,-1.41430263447189e+001,-1.19465095070052e+000

7.56846117380472e+004,-1.41430717089340e+001,-1.21127442390465e+000

7.67411295460207e+004,-1.41431182641402e+001,-1.22812779905842e+000

7.78123957929823e+004,-1.41431660392727e+001,-1.24521420141521e+000

7.88986163594682e+004,-1.41432150638429e+001,-1.26253679678215e+000

7.99999999999995e+004,-1.41432653679423e+001,-1.28009879198769e+000

8.11167583832018e+004,-1.41433169822468e+001,-1.29790343535358e+000

8.22491061324848e+004,-1.41433699380197e+001,-1.31595401717378e+000

8.33972608672892e+004,-1.41434242671154e+001,-1.33425387019357e+000

8.45614432449099e+004,-1.41434800019814e+001,-1.35280637009640e+000

8.57418770029029e+004,-1.41435371756609e+001,-1.37161493599617e+000

8.69387890020841e+004,-1.41435958217935e+001,-1.39068303093132e+000

8.81524092701283e+004,-1.41436559746167e+001,-1.41001416236711e+000

8.93829710457770e+004,-1.41437176689655e+001,-1.42961188270025e+000

9.06307108236633e+004,-1.41437809402720e+001,-1.44947978977268e+000

9.18958683997622e+004,-1.41438458245646e+001,-1.46962152738645e+000

9.31786869174758e+004,-1.41439123584650e+001,-1.49004078582834e+000

9.44794129143618e+004,-1.41439805791858e+001,-1.51074130239708e+000

9.57982963695136e+004,-1.41440505245271e+001,-1.53172686193914e+000

9.71355907516031e+004,-1.41441222328709e+001,-1.55300129738993e+000

9.84915530675926e+004,-1.41441957431760e+001,-1.57456849032225e+000

9.98664439121282e+004,-1.41442710949712e+001,-1.59643237150043e+000

1.01260527517622e+005,-1.41443483283475e+001,-1.61859692144242e+000

1.02674071805032e+005,-1.41444274839492e+001,-1.64106617099067e+000

1.04107348435354e+005,-1.41445086029637e+001,-1.66384420188834e+000

1.05560632861831e+005,-1.41445917271108e+001,-1.68693514736577e+000

1.07034204382888e+005,-1.41446768986291e+001,-1.71034319273540e+000

1.08528346195813e+005,-1.41447641602632e+001,-1.73407257599462e+000

1.10043345451179e+005,-1.41448535552477e+001,-1.75812758843834e+000

1.11579493308032e+005,-1.41449451272910e+001,-1.78251257528361e+000

1.13137084989847e+005,-1.41450389205568e+001,-1.80723193630043e+000

1.14716419841265e+005,-1.41451349796445e+001,-1.83229012645934e+000

1.16317801385624e+005,-1.41452333495678e+001,-1.85769165658402e+000

1.17941537383287e+005,-1.41453340757320e+001,-1.88344109402180e+000

1.19587939890794e+005,-1.41454372039092e+001,-1.90954306332270e+000

1.21257325320831e+005,-1.41455427802119e+001,-1.93600224693470e+000

1.22950014503040e+005,-1.41456508510649e+001,-1.96282338591045e+000

1.24666332745679e+005,-1.41457614631754e+001,-1.99001128063184e+000

1.26406609898139e+005,-1.41458746635011e+001,-2.01757079154760e+000

1.28171180414339e+005,-1.41459904992163e+001,-2.04550683992709e+000

1.29960383416997e+005,-1.41461090176765e+001,-2.07382440863483e+000

1.31774562762811e+005,-1.41462302663803e+001,-2.10252854291724e+000

1.33614067108538e+005,-1.41463542929301e+001,-2.13162435121461e+000

1.35479249978003e+005,-1.41464811449901e+001,-2.16111700598695e+000

1.37370469830040e+005,-1.41466108702425e+001,-2.19101174456593e+000

1.39288090127379e+005,-1.41467435163419e+001,-2.22131387002508e+000

1.41232479406504e+005,-1.41468791308670e+001,-2.25202875207347e+000

1.43204011348474e+005,-1.41470177612707e+001,-2.28316182797596e+000

1.45203064850745e+005,-1.41471594548280e+001,-2.31471860349420e+000

1.47230024099979e+005,-1.41473042585817e+001,-2.34670465385816e+000

1.49285278645888e+005,-1.41474522192861e+001,-2.37912562476199e+000

1.51369223476094e+005,-1.41476033833491e+001,-2.41198723338961e+000

1.53482259092041e+005,-1.41477577967710e+001,-2.44529526947049e+000

1.55624791585964e+005,-1.41479155050832e+001,-2.47905559636660e+000

1.57797232718936e+005,-1.41480765532834e+001,-2.51327415219024e+000

1.59999999999999e+005,-1.41482409857697e+001,-2.54795695095807e+000

1.62233516766403e+005,-1.41484088462728e+001,-2.58311008377733e+000

1.64498212264969e+005,-1.41485801777865e+001,-2.61873972007140e+000

1.66794521734578e+005,-1.41487550224969e+001,-2.65485210883978e+000

1.69122886489819e+005,-1.41489334217089e+001,-2.69145357996059e+000

1.71483754005805e+005,-1.41491154157735e+001,-2.72855054553055e+000

1.73877578004168e+005,-1.41493010440115e+001,-2.76614950124753e+000

1.76304818540256e+005,-1.41494903446378e+001,-2.80425702783775e+000

1.78765942091554e+005,-1.41496833546839e+001,-2.84287979252444e+000

1.81261421647326e+005,-1.41498801099202e+001,-2.88202455054489e+000

1.83791736799524e+005,-1.41500806447770e+001,-2.92169814671178e+000

1.86357373834951e+005,-1.41502849922658e+001,-2.96190751702559e+000

1.88958825828723e+005,-1.41504931839003e+001,-3.00265969033278e+000

1.91596592739027e+005,-1.41507052496168e+001,-3.04396179003839e+000

1.94271181503206e+005,-1.41509212176961e+001,-3.08582103586580e+000

1.96983106135185e+005,-1.41511411146849e+001,-3.12824474567236e+000

1.99732887824256e+005,-1.41513649653184e+001,-3.17124033731687e+000

2.02521055035243e+005,-1.41515927924440e+001,-3.21481533058158e+000

2.05348143610063e+005,-1.41518246169468e+001,-3.25897734914906e+000

2.08214696870707e+005,-1.41520604576757e+001,-3.30373412263509e+000

2.11121265723661e+005,-1.41523003313727e+001,-3.34909348867743e+000

2.14068408765776e+005,-1.41525442526040e+001,-3.39506339508100e+000

2.17056692391625e+005,-1.41527922336936e+001,-3.44165190202084e+000

2.20086690902357e+005,-1.41530442846604e+001,-3.48886718430150e+000

2.23158986616063e+005,-1.41533004131581e+001,-3.53671753367417e+000

2.26274169979693e+005,-1.41535606244191e+001,-3.58521136121061e+000

2.29432839682530e+005,-1.41538249212027e+001,-3.63435719973410e+000

2.32635602771247e+005,-1.41540933037474e+001,-3.68416370630655e+000

2.35883074766574e+005,-1.41543657697280e+001,-3.73463966477303e+000

2.39175879781588e+005,-1.41546423142179e+001,-3.78579398835949e+000

2.42514650641661e+005,-1.41549229296572e+001,-3.83763572232714e+000

2.45900029006080e+005,-1.41552076058261e+001,-3.89017404667806e+000

2.49332665491357e+005,-1.41554963298250e+001,-3.94341827891447e+000

2.52813219796278e+005,-1.41557890860611e+001,-3.99737787684942e+000

2.56342360828676e+005,-1.41560858562415e+001,-4.05206244146444e+000

2.59920766833993e+005,-1.41563866193739e+001,-4.10748171981738e+000

2.63549125525621e+005,-1.41566913517746e+001,-4.16364560799464e+000

2.67228134217075e+005,-1.41570000270847e+001,-4.22056415410671e+000

2.70958499956006e+005,-1.41573126162932e+001,-4.27824756132729e+000

2.74740939660078e+005,-1.41576290877700e+001,-4.33670619096983e+000

2.78576180254757e+005,-1.41579494073058e+001,-4.39595056560106e+000

2.82464958813007e+005,-1.41582735381623e+001,-4.45599137218994e+000

2.86408022696948e+005,-1.41586014411297e+001,-4.51683946528675e+000

2.90406129701488e+005,-1.41589330745943e+001,-4.57850587023258e+000

2.94460048199957e+005,-1.41592683946149e+001,-4.64100178639247e+000

2.98570557291775e+005,-1.41596073550080e+001,-4.70433859041399e+000

3.02738446952187e+005,-1.41599499074430e+001,-4.76852783950339e+000

3.06964518184081e+005,-1.41602960015458e+001,-4.83358127472056e+000

3.11249583171928e+005,-1.41606455850122e+001,-4.89951082428631e+000

3.15594465437872e+005,-1.41609986037303e+001,-4.96632860690077e+000

3.19999999999997e+005,-1.41613550019115e+001,-5.03404693506964e+000

3.24467033532806e+005,-1.41617147222312e+001,-5.10267831843443e+000

3.28996424529938e+005,-1.41620777059774e+001,-5.17223546710509e+000

3.33589043469155e+005,-1.41624438932082e+001,-5.24273129498932e+000

3.38245772979638e+005,-1.41628132229178e+001,-5.31417892312040e+000

3.42967508011610e+005,-1.41631856332095e+001,-5.38659168297533e+000

3.47755156008335e+005,-1.41635610614778e+001,-5.45998311978475e+000

3.52609637080511e+005,-1.41639394445960e+001,-5.53436699583122e+000

3.57531884183106e+005,-1.41643207191126e+001,-5.60975729373183e+000

3.62522843294651e+005,-1.41647048214524e+001,-5.68616821970539e+000

3.67583473599047e+005,-1.41650916881248e+001,-5.76361420682114e+000

3.72714747669902e+005,-1.41654812559369e+001,-5.84210991822724e+000

3.77917651657445e+005,-1.41658734622126e+001,-5.92167025035855e+000

3.83193185478053e+005,-1.41662682450151e+001,-6.00231033612046e+000

3.88542363006410e+005,-1.41666655433737e+001,-6.08404554805097e+000

3.93966212270369e+005,-1.41670652975153e+001,-6.16689150145707e+000

3.99465775648511e+005,-1.41674674490964e+001,-6.25086405752795e+000

4.05042110070485e+005,-1.41678719414400e+001,-6.33597932642214e+000

4.10696287220124e+005,-1.41682787197720e+001,-6.42225367033155e+000

4.16429393741414e+005,-1.41686877314606e+001,-6.50970370652073e+000

4.22242531447321e+005,-1.41690989262551e+001,-6.59834631034291e+000

4.28136817531551e+005,-1.41695122565250e+001,-6.68819861823457e+000

4.34113384783250e+005,-1.41699276774992e+001,-6.77927803068863e+000

4.40173381804713e+005,-1.41703451475032e+001,-6.87160221520849e+000

4.46317973232124e+005,-1.41707646281955e+001,-6.96518910924494e+000

4.52548339959385e+005,-1.41711860848013e+001,-7.06005692311782e+000

4.58865679365059e+005,-1.41716094863442e+001,-7.15622414292509e+000

4.65271205542494e+005,-1.41720348058742e+001,-7.25370953344152e+000

4.71766149533147e+005,-1.41724620206931e+001,-7.35253214101053e+000

4.78351759563174e+005,-1.41728911125747e+001,-7.45271129643094e+000

4.85029301283321e+005,-1.41733220679822e+001,-7.55426661784408e+000

4.91800058012158e+005,-1.41737548782802e+001,-7.65721801362244e+000

4.98665330982714e+005,-1.41741895399416e+001,-7.76158568526484e+000

5.05626439592555e+005,-1.41746260547497e+001,-7.86739013030050e+000

5.12684721657352e+005,-1.41750644299955e+001,-7.97465214520871e+000

5.19841533667984e+005,-1.41755046786677e+001,-8.08339282835355e+000

5.27098251051240e+005,-1.41759468196388e+001,-8.19363358294220e+000

5.34456268434150e+005,-1.41763908778444e+001,-8.30539612000780e+000

5.41916999912011e+005,-1.41768368844564e+001,-8.41870246142264e+000

