Freq.,VOut,OutRef

1.00000000000000e+004,-2.52978439634542e+001,-5.12876692960728e-001

1.01395947979003e+004,-2.52978495767910e+001,-5.20035710592177e-001

1.02811382665607e+004,-2.52978553478483e+001,-5.27294644264546e-001

1.04246576084112e+004,-2.52978612810552e+001,-5.34654887898897e-001

1.05701804056138e+004,-2.52978673809647e+001,-5.42117854841146e-001

1.07177346253629e+004,-2.52978736522574e+001,-5.49684978127763e-001

1.08673486252606e+004,-2.52978800997457e+001,-5.57357710760505e-001

1.10190511587661e+004,-2.52978867283765e+001,-5.65137525982642e-001

1.11728713807222e+004,-2.52978935432354e+001,-5.73025917562808e-001

1.13288388529580e+004,-2.52979005495509e+001,-5.81024400074835e-001

1.14869835499703e+004,-2.52979077526977e+001,-5.89134509190089e-001

1.16473358646846e+004,-2.52979151582013e+001,-5.97357801968624e-001

1.18099266142953e+004,-2.52979227717424e+001,-6.05695857155598e-001

1.19747870461893e+004,-2.52979305991603e+001,-6.14150275482768e-001

1.21419488439505e+004,-2.52979386464585e+001,-6.22722679971414e-001

1.23114441334492e+004,-2.52979469198084e+001,-6.31414716243814e-001

1.24833054890161e+004,-2.52979554255544e+001,-6.40228052834069e-001

1.26575659397028e+004,-2.52979641702189e+001,-6.49164381505672e-001

1.28342589756290e+004,-2.52979731605066e+001,-6.58225417574266e-001

1.30134185544193e+004,-2.52979824033104e+001,-6.67412900233720e-001

1.31950791077289e+004,-2.52979919057161e+001,-6.76728592884201e-001

1.33792755478611e+004,-2.52980016750077e+001,-6.86174283471313e-001

1.35660432744767e+004,-2.52980117186736e+001,-6.95751784821243e-001

1.37554181813974e+004,-2.52980220444117e+001,-7.05462934988277e-001

1.39474366635040e+004,-2.52980326601354e+001,-7.15309597601177e-001

1.41421356237309e+004,-2.52980435739796e+001,-7.25293662218548e-001

1.43395524801583e+004,-2.52980547943070e+001,-7.35417044685650e-001

1.45397251732031e+004,-2.52980663297143e+001,-7.45681687498932e-001

1.47426921729110e+004,-2.52980781890386e+001,-7.56089560173296e-001

1.49484924863494e+004,-2.52980903813645e+001,-7.66642659615283e-001

1.51571656651040e+004,-2.52981029160307e+001,-7.77343010500797e-001

1.53687518128801e+004,-2.52981158026370e+001,-7.88192665659870e-001

1.55832915932100e+004,-2.52981290510518e+001,-7.99193706461644e-001

1.58008262372675e+004,-2.52981426714194e+001,-8.10348243212475e-001

1.60213975517924e+004,-2.52981566741678e+001,-8.21658415551139e-001

1.62450479271247e+004,-2.52981710700164e+001,-8.33126392854986e-001

1.64718203453514e+004,-2.52981858699845e+001,-8.44754374647840e-001

1.67017583885674e+004,-2.52982010853989e+001,-8.56544591017285e-001

1.69349062472505e+004,-2.52982167279033e+001,-8.68499303033915e-001

1.71713087287550e+004,-2.52982328094665e+001,-8.80620803178225e-001

1.74110112659224e+004,-2.52982493423916e+001,-8.92911415772252e-001

1.76540599258131e+004,-2.52982663393253e+001,-9.05373497417619e-001

1.79005014185594e+004,-2.52982838132676e+001,-9.18009437438577e-001

1.81503831063432e+004,-2.52983017775812e+001,-9.30821658332218e-001

1.84037530124975e+004,-2.52983202460018e+001,-9.43812616224123e-001

1.86606598307361e+004,-2.52983392326484e+001,-9.56984801328846e-001

1.89211529345119e+004,-2.52983587520340e+001,-9.70340738417547e-001

1.91852823865052e+004,-2.52983788190765e+001,-9.83882987292931e-001

1.94530989482457e+004,-2.52983994491094e+001,-9.97614143269352e-001

1.97246540898671e+004,-2.52984206578942e+001,-1.01153683765720e+000

1.99999999999999e+004,-2.52984424616314e+001,-1.02565373825810e+000

2.02791895958005e+004,-2.52984648769733e+001,-1.03996754986187e+000

2.05622765331213e+004,-2.52984879210358e+001,-1.05448101475456e+000

2.08493152168224e+004,-2.52985116114117e+001,-1.06919691322955e+000

2.11403608112276e+004,-2.52985359661838e+001,-1.08411806410721e+000

2.14354692507258e+004,-2.52985610039381e+001,-1.09924732526000e+000

2.17346972505211e+004,-2.52985867437782e+001,-1.11458759414614e+000

2.20381023175322e+004,-2.52986132053388e+001,-1.13014180834918e+000

2.23457427614443e+004,-2.52986404088011e+001,-1.14591294612384e+000

2.26576777059159e+004,-2.52986683749074e+001,-1.16190402695067e+000

2.29739670999406e+004,-2.52986971249764e+001,-1.17811811209751e+000

2.32946717293690e+004,-2.52987266809196e+001,-1.19455830518501e+000

2.36198532285905e+004,-2.52987570652570e+001,-1.21122775276490e+000

2.39495740923785e+004,-2.52987883011340e+001,-1.22812964490201e+000

2.42838976879009e+004,-2.52988204123387e+001,-1.24526721576357e+000

2.46228882668982e+004,-2.52988534233192e+001,-1.26264374421751e+000

2.49666109780322e+004,-2.52988873592022e+001,-1.28026255443862e+000

2.53151318794055e+004,-2.52989222458108e+001,-1.29812701652135e+000

2.56685179512580e+004,-2.52989581096841e+001,-1.31624054709985e+000

2.60268371088386e+004,-2.52989949780967e+001,-1.33460660997732e+000

2.63901582154578e+004,-2.52990328790787e+001,-1.35322871676308e+000

2.67585510957221e+004,-2.52990718414362e+001,-1.37211042751611e+000

2.71320865489533e+004,-2.52991118947725e+001,-1.39125535139937e+000

2.75108363627948e+004,-2.52991530695101e+001,-1.41066714733852e+000

2.78948733270080e+004,-2.52991953969124e+001,-1.43034952469338e+000

2.82842712474618e+004,-2.52992389091071e+001,-1.45030624393324e+000

2.86791049603164e+004,-2.52992836391094e+001,-1.47054111732344e+000

2.90794503464061e+004,-2.52993296208461e+001,-1.49105800962012e+000

2.94853843458219e+004,-2.52993768891803e+001,-1.51186083877241e+000

2.98969849726987e+004,-2.52994254799369e+001,-1.53295357663346e+000

3.03143313302078e+004,-2.52994754299282e+001,-1.55434024968130e+000

3.07375036257601e+004,-2.52995267769811e+001,-1.57602493974609e+000

3.11665831864199e+004,-2.52995795599640e+001,-1.59801178474949e+000

3.16016524745350e+004,-2.52996338188154e+001,-1.62030497944996e+000

3.20427951035848e+004,-2.52996895945720e+001,-1.64290877619836e+000

3.24900958542493e+004,-2.52997469293989e+001,-1.66582748570229e+000

3.29436406907028e+004,-2.52998058666193e+001,-1.68906547779974e+000

3.34035167771346e+004,-2.52998664507461e+001,-1.71262718224159e+000

3.38698124945009e+004,-2.52999287275135e+001,-1.73651708948361e+000

3.43426174575100e+004,-2.52999927439094e+001,-1.76073975148761e+000

3.48220225318448e+004,-2.53000585482095e+001,-1.78529978253200e+000

3.53081198516260e+004,-2.53001261900110e+001,-1.81020186003103e+000

3.58010028371187e+004,-2.53001957202683e+001,-1.83545072536517e+000

3.63007662126863e+004,-2.53002671913285e+001,-1.86105118471896e+000

3.68075060249948e+004,-2.53003406569691e+001,-1.88700810993094e+000

3.73213196614721e+004,-2.53004161724354e+001,-1.91332643934966e+000

3.78423058690237e+004,-2.53004937944792e+001,-1.94001117870390e+000

3.83705647730104e+004,-2.53005735813991e+001,-1.96706740197806e+000

3.89061978964912e+004,-2.53006555930808e+001,-1.99450025230091e+000

3.94493081797342e+004,-2.53007398910394e+001,-2.02231494284196e+000

3.99999999999998e+004,-2.53008265384615e+001,-2.05051675771912e+000

4.05583791916010e+004,-2.53009156002497e+001,-2.07911105291510e+000

4.11245530662425e+004,-2.53010071430668e+001,-2.10810325720496e+000

4.16986304336447e+004,-2.53011012353825e+001,-2.13749887309253e+000

4.22807216224550e+004,-2.53011979475199e+001,-2.16730347775739e+000

4.28709385014515e+004,-2.53012973517042e+001,-2.19752272401278e+000

4.34693945010421e+004,-2.53013995221113e+001,-2.22816234127172e+000

4.40762046350642e+004,-2.53015045349193e+001,-2.25922813652443e+000

4.46914855228886e+004,-2.53016124683592e+001,-2.29072599532675e+000

4.53153554118317e+004,-2.53017234027685e+001,-2.32266188279660e+000

4.59479341998812e+004,-2.53018374206450e+001,-2.35504184462238e+000

4.65893434587380e+004,-2.53019546067023e+001,-2.38787200808128e+000

4.72397064571810e+004,-2.53020750479264e+001,-2.42115858306654e+000

4.78991481847569e+004,-2.53021988336336e+001,-2.45490786312716e+000

4.85677953758016e+004,-2.53023260555299e+001,-2.48912622651588e+000

4.92457765337964e+004,-2.53024568077715e+001,-2.52382013724832e+000

4.99332219560642e+004,-2.53025911870266e+001,-2.55899614617261e+000

5.06302637588109e+004,-2.53027292925392e+001,-2.59466089204812e+000

5.13370359025159e+004,-2.53028712261933e+001,-2.63082110263605e+000

5.20536742176771e+004,-2.53030170925791e+001,-2.66748359579892e+000

5.27803164309155e+004,-2.53031669990611e+001,-2.70465528061074e+000

5.35171021914442e+004,-2.53033210558464e+001,-2.74234315847759e+000

5.42641730979066e+004,-2.53034793760559e+001,-2.78055432426793e+000

5.50216727255895e+004,-2.53036420757956e+001,-2.81929596745398e+000

5.57897466540159e+004,-2.53038092742308e+001,-2.85857537326160e+000

5.65685424949235e+004,-2.53039810936607e+001,-2.89839992383250e+000

5.73582099206328e+004,-2.53041576595950e+001,-2.93877709939436e+000

5.81589006928121e+004,-2.53043391008325e+001,-2.97971447944232e+000

5.89707686916437e+004,-2.53045255495401e+001,-3.02121974393046e+000

5.97939699453972e+004,-2.53047171413348e+001,-3.06330067447258e+000

6.06286626604156e+004,-2.53049140153664e+001,-3.10596515555358e+000

6.14750072515201e+004,-2.53051163144017e+001,-3.14922117575000e+000

6.23331663728396e+004,-2.53053241849114e+001,-3.19307682896176e+000

6.32033049490698e+004,-2.53055377771573e+001,-3.23754031565193e+000

6.40855902071694e+004,-2.53057572452822e+001,-3.28261994409809e+000

6.49801917084985e+004,-2.53059827474006e+001,-3.32832413165176e+000

6.58872813814055e+004,-2.53062144456921e+001,-3.37466140600864e+000

6.68070335542691e+004,-2.53064525064955e+001,-3.42164040648884e+000

6.77396249890018e+004,-2.53066971004051e+001,-3.46926988532482e+000

6.86852349150199e+004,-2.53069484023687e+001,-3.51755870896111e+000

6.96440450636895e+004,-2.53072065917869e+001,-3.56651585936187e+000

7.06162397032520e+004,-2.53074718526145e+001,-3.61615043532964e+000

7.16020056742374e+004,-2.53077443734637e+001,-3.66647165383124e+000

7.26015324253724e+004,-2.53080243477085e+001,-3.71748885133544e+000

7.36150120499896e+004,-2.53083119735907e+001,-3.76921148515880e+000

7.46426393229441e+004,-2.53086074543289e+001,-3.82164913482097e+000

7.56846117380472e+004,-2.53089109982270e+001,-3.87481150340917e+000

7.67411295460207e+004,-2.53092228187866e+001,-3.92870841895359e+000

7.78123957929823e+004,-2.53095431348194e+001,-3.98334983580939e+000

7.88986163594682e+004,-2.53098721705621e+001,-4.03874583605074e+000

7.99999999999995e+004,-2.53102101557925e+001,-4.09490663087366e+000

8.11167583832018e+004,-2.53105573259478e+001,-4.15184256200622e+000

8.22491061324848e+004,-2.53109139222440e+001,-4.20956410313169e+000

8.33972608672892e+004,-2.53112801917963e+001,-4.26808186131903e+000

8.45614432449099e+004,-2.53116563877431e+001,-4.32740657846284e+000

8.57418770029029e+004,-2.53120427693689e+001,-4.38754913273518e+000

8.69387890020841e+004,-2.53124396022306e+001,-4.44852054004492e+000

8.81524092701283e+004,-2.53128471582848e+001,-4.51033195550884e+000

8.93829710457770e+004,-2.53132657160159e+001,-4.57299467493182e+000

9.06307108236633e+004,-2.53136955605667e+001,-4.63652013629844e+000

9.18958683997622e+004,-2.53141369838695e+001,-4.70091992127494e+000

9.31786869174758e+004,-2.53145902847791e+001,-4.76620575672117e+000

9.44794129143618e+004,-2.53150557692066e+001,-4.83238951621501e+000

9.57982963695136e+004,-2.53155337502552e+001,-4.89948322158794e+000

9.71355907516031e+004,-2.53160245483568e+001,-4.96749904447193e+000

9.84915530675926e+004,-2.53165284914093e+001,-5.03644930785946e+000

9.98664439121282e+004,-2.53170459149166e+001,-5.10634648767503e+000

1.01260527517622e+005,-2.53175771621280e+001,-5.17720321436149e+000

1.02674071805032e+005,-2.53181225841800e+001,-5.24903227447848e+000

1.04107348435354e+005,-2.53186825402381e+001,-5.32184661231617e+000

1.05560632861831e+005,-2.53192573976410e+001,-5.39565933152315e+000

1.07034204382888e+005,-2.53198475320441e+001,-5.47048369675060e+000

1.08528346195813e+005,-2.53204533275655e+001,-5.54633313531250e+000

1.10043345451179e+005,-2.53210751769319e+001,-5.62322123886218e+000

1.11579493308032e+005,-2.53217134816260e+001,-5.70116176508785e+000

1.13137084989847e+005,-2.53223686520344e+001,-5.78016863942662e+000

1.14716419841265e+005,-2.53230411075965e+001,-5.86025595679758e+000

1.16317801385624e+005,-2.53237312769545e+001,-5.94143798335659e+000

1.17941537383287e+005,-2.53244395981037e+001,-6.02372915827268e+000

1.19587939890794e+005,-2.53251665185441e+001,-6.10714409552715e+000

1.21257325320831e+005,-2.53259124954325e+001,-6.19169758573779e+000

1.22950014503040e+005,-2.53266779957359e+001,-6.27740459800759e+000

1.24666332745679e+005,-2.53274634963850e+001,-6.36428028180188e+000

1.26406609898139e+005,-2.53282694844295e+001,-6.45233996885193e+000

1.28171180414339e+005,-2.53290964571936e+001,-6.54159917509109e+000

1.29960383416997e+005,-2.53299449224328e+001,-6.63207360261994e+000

1.31774562762811e+005,-2.53308153984918e+001,-6.72377914170646e+000

1.33614067108538e+005,-2.53317084144637e+001,-6.81673187282080e+000

1.35479249978003e+005,-2.53326245103496e+001,-6.91094806870572e+000

1.37370469830040e+005,-2.53335642372207e+001,-7.00644419648789e+000

1.39288090127379e+005,-2.53345281573809e+001,-7.10323691982726e+000

1.41232479406504e+005,-2.53355168445319e+001,-7.20134310111114e+000

1.43204011348474e+005,-2.53365308839391e+001,-7.30077980369226e+000

1.45203064850745e+005,-2.53375708726005e+001,-7.40156429417275e+000

1.47230024099979e+005,-2.53386374194171e+001,-7.50371404473873e+000

1.49285278645888e+005,-2.53397311453659e+001,-7.60724673554501e+000

1.51369223476094e+005,-2.53408526836760e+001,-7.71218025715328e+000

1.53482259092041e+005,-2.53420026800073e+001,-7.81853271302606e+000

1.55624791585964e+005,-2.53431817926329e+001,-7.92632242207911e+000

1.57797232718936e+005,-2.53443906926246e+001,-8.03556792129353e+000

1.59999999999999e+005,-2.53456300640434e+001,-8.14628796839048e+000

1.62233516766403e+005,-2.53469006041338e+001,-8.25850154457079e+000

1.64498212264969e+005,-2.53482030235236e+001,-8.37222785732182e+000

1.66794521734578e+005,-2.53495380464288e+001,-8.48748634329332e+000

1.69122886489819e+005,-2.53509064108649e+001,-8.60429667124454e+000

1.71483754005805e+005,-2.53523088688644e+001,-8.72267874506554e+000

1.73877578004168e+005,-2.53537461867018e+001,-8.84265270687295e+000

1.76304818540256e+005,-2.53552191451270e+001,-8.96423894018325e+000

1.78765942091554e+005,-2.53567285396059e+001,-9.08745807316608e+000

1.81261421647326e+005,-2.53582751805717e+001,-9.21233098197616e+000

1.83791736799524e+005,-2.53598598936858e+001,-9.33887879416942e+000

1.86357373834951e+005,-2.53614835201094e+001,-9.46712289220037e+000

1.88958825828723e+005,-2.53631469167871e+001,-9.59708491700515e+000

1.91596592739027e+005,-2.53648509567435e+001,-9.72878677166806e+000

1.94271181503206e+005,-2.53665965293926e+001,-9.86225062517497e+000

1.96983106135185e+005,-2.53683845408632e+001,-9.99749891625102e+000

1.99732887824256e+005,-2.53702159143384e+001,-1.01345543572842e+001

2.02521055035243e+005,-2.53720915904132e+001,-1.02734399383342e+001

2.05348143610063e+005,-2.53740125274688e+001,-1.04141789312245e+001

2.08214696870707e+005,-2.53759797020667e+001,-1.05567948937177e+001

2.11121265723661e+005,-2.53779941093626e+001,-1.07013116737723e+001

2.14068408765776e+005,-2.53800567635416e+001,-1.08477534138771e+001

2.17056692391625e+005,-2.53821686982757e+001,-1.09961445554634e+001

2.20086690902357e+005,-2.53843309672057e+001,-1.11465098433895e+001

2.23158986616063e+005,-2.53865446444475e+001,-1.12988743304940e+001

2.26274169979693e+005,-2.53888108251247e+001,-1.14532633822163e+001

2.29432839682530e+005,-2.53911306259292e+001,-1.16097026812757e+001

2.32635602771247e+005,-2.53935051857104e+001,-1.17682182324066e+001

2.35883074766574e+005,-2.53959356660941e+001,-1.19288363671419e+001

2.39175879781588e+005,-2.53984232521331e+001,-1.20915837486404e+001

2.42514650641661e+005,-2.54009691529907e+001,-1.22564873765478e+001

2.45900029006080e+005,-2.54035746026573e+001,-1.24235745918862e+001

2.49332665491357e+005,-2.54062408607023e+001,-1.25928730819621e+001

2.52813219796278e+005,-2.54089692130628e+001,-1.27644108852834e+001

2.56342360828676e+005,-2.54117609728678e+001,-1.29382163964776e+001

2.59920766833993e+005,-2.54146174813032e+001,-1.31143183711976e+001

2.63549125525621e+005,-2.54175401085141e+001,-1.32927459310067e+001

2.67228134217075e+005,-2.54205302545480e+001,-1.34735285682300e+001

2.70958499956006e+005,-2.54235893503400e+001,-1.36566961507582e+001

2.74740939660078e+005,-2.54267188587384e+001,-1.38422789267942e+001

2.78576180254757e+005,-2.54299202755746e+001,-1.40303075295254e+001

2.82464958813007e+005,-2.54331951307745e+001,-1.42208129817104e+001

2.86408022696948e+005,-2.54365449895156e+001,-1.44138267001620e+001

2.90406129701488e+005,-2.54399714534266e+001,-1.46093805001160e+001

2.94460048199957e+005,-2.54434761618323e+001,-1.48075065994649e+001

2.98570557291775e+005,-2.54470607930431e+001,-1.50082376228447e+001

3.02738446952187e+005,-2.54507270656890e+001,-1.52116066055562e+001

3.06964518184081e+005,-2.54544767400980e+001,-1.54176469973042e+001

3.11249583171928e+005,-2.54583116197194e+001,-1.56263926657376e+001

3.15594465437872e+005,-2.54622335525905e+001,-1.58378778997743e+001

3.19999999999997e+005,-2.54662444328469e+001,-1.60521374126916e+001

3.24467033532806e+005,-2.54703462022760e+001,-1.62692063449661e+001

3.28996424529938e+005,-2.54745408519123e+001,-1.64891202668436e+001

3.33589043469155e+005,-2.54788304236735e+001,-1.67119151806247e+001

3.38245772979638e+005,-2.54832170120369e+001,-1.69376275226445e+001

3.42967508011610e+005,-2.54877027657543e+001,-1.71662941649326e+001

3.47755156008335e+005,-2.54922898896046e+001,-1.73979524165335e+001

3.52609637080511e+005,-2.54969806461818e+001,-1.76326400244719e+001

3.57531884183106e+005,-2.55017773577168e+001,-1.78703951743466e+001

3.62522843294651e+005,-2.55066824079326e+001,-1.81112564905352e+001

3.67583473599047e+005,-2.55116982439280e+001,-1.83552630359949e+001

3.72714747669902e+005,-2.55168273780912e+001,-1.86024543116435e+001

3.77917651657445e+005,-2.55220723900382e+001,-1.88528702553063e+001

3.83193185478053e+005,-2.55274359285749e+001,-1.91065512402138e+001

3.88542363006410e+005,-2.55329207136806e+001,-1.93635380730373e+001

3.93966212270369e+005,-2.55385295385096e+001,-1.96238719914483e+001

3.99465775648511e+005,-2.55442652714088e+001,-1.98875946611901e+001

4.05042110070485e+005,-2.55501308579476e+001,-2.01547481726505e+001

4.10696287220124e+005,-2.55561293229589e+001,-2.04253750369227e+001

4.16429393741414e+005,-2.55622637725858e+001,-2.06995181813461e+001

4.22242531447321e+005,-2.55685373963330e+001,-2.09772209445173e+001

4.28136817531551e+005,-2.55749534691191e+001,-2.12585270707607e+001

4.34113384783250e+005,-2.55815153533254e+001,-2.15434807040547e+001

4.40173381804713e+005,-2.55882265008402e+001,-2.18321263814015e+001

4.46317973232124e+005,-2.55950904550932e+001,-2.21245090256396e+001

4.52548339959385e+005,-2.56021108530773e+001,-2.24206739376886e+001

4.58865679365059e+005,-2.56092914273551e+001,-2.27206667882256e+001

4.65271205542494e+005,-2.56166360080450e+001,-2.30245336087863e+001

4.71766149533147e+005,-2.56241485247852e+001,-2.33323207822902e+001

4.78351759563174e+005,-2.56318330086705e+001,-2.36440750329856e+001

4.85029301283321e+005,-2.56396935941593e+001,-2.39598434158140e+001

4.91800058012158e+005,-2.56477345209464e+001,-2.42796733051923e+001

4.98665330982714e+005,-2.56559601357991e+001,-2.46036123832140e+001

5.05626439592555e+005,-2.56643748943512e+001,-2.49317086272672e+001

5.12684721657352e+005,-2.56729833628532e+001,-2.52640102970752e+001

5.19841533667984e+005,-2.56817902198730e+001,-2.56005659211558e+001

5.27098251051240e+005,-2.56908002579450e+001,-2.59414242827085e+001

5.34456268434150e+005,-2.57000183851625e+001,-2.62866344049263e+001

5.41916999912011e+005,-2.57094496267111e+001,-2.66362455357430e+001

