Freq.,VOut,OutRef

1.00000000000000e+004,-4.36515523590409e+000,-1.57159237192040e-002

1.01395947979003e+004,-4.36515607287374e+000,-1.59351688288092e-002

1.02811382665607e+004,-4.36515693334309e+000,-1.61574685008519e-002

1.04246576084112e+004,-4.36515781796991e+000,-1.63828651292346e-002

1.05701804056138e+004,-4.36515872743322e+000,-1.66114016699839e-002

1.07177346253629e+004,-4.36515966242758e+000,-1.68431216901195e-002

1.08673486252606e+004,-4.36516062366965e+000,-1.70780693357713e-002

1.10190511587661e+004,-4.36516161189502e+000,-1.73162893640948e-002

1.11728713807222e+004,-4.36516262785949e+000,-1.75578271472124e-002

1.13288388529580e+004,-4.36516367234077e+000,-1.78027286713708e-002

1.14869835499703e+004,-4.36516474613860e+000,-1.80510405493320e-002

1.16473358646846e+004,-4.36516585007334e+000,-1.83028100416138e-002

1.18099266142953e+004,-4.36516698498973e+000,-1.85580850436102e-002

1.19747870461893e+004,-4.36516815175648e+000,-1.88169141012363e-002

1.21419488439505e+004,-4.36516935126421e+000,-1.90793464372212e-002

1.23114441334492e+004,-4.36517058443106e+000,-1.93454319268804e-002

1.24833054890161e+004,-4.36517185219950e+000,-1.96152211327505e-002

1.26575659397028e+004,-4.36517315553868e+000,-1.98887653018354e-002

1.28342589756290e+004,-4.36517449544436e+000,-2.01661163807237e-002

1.30134185544193e+004,-4.36517587293983e+000,-2.04473270217581e-002

1.31950791077289e+004,-4.36517728907799e+000,-2.07324505854303e-002

1.33792755478611e+004,-4.36517874493997e+000,-2.10215411617093e-002

1.35660432744767e+004,-4.36518024163749e+000,-2.13146535706186e-002

1.37554181813974e+004,-4.36518178031363e+000,-2.16118433712621e-002

1.39474366635040e+004,-4.36518336214271e+000,-2.19131668769722e-002

1.41421356237309e+004,-4.36518498833199e+000,-2.22186811605377e-002

1.43395524801583e+004,-4.36518666012255e+000,-2.25284440631025e-002

1.45397251732031e+004,-4.36518837878911e+000,-2.28425142116459e-002

1.47426921729110e+004,-4.36519014564230e+000,-2.31609510190497e-002

1.49484924863494e+004,-4.36519196203036e+000,-2.34838146899897e-002

1.51571656651040e+004,-4.36519382933798e+000,-2.38111662449600e-002

1.53687518128801e+004,-4.36519574898681e+000,-2.41430675332436e-002

1.55832915932100e+004,-4.36519772244169e+000,-2.44795812092526e-002

1.58008262372675e+004,-4.36519975120435e+000,-2.48207707910579e-002

1.60213975517924e+004,-4.36520183682105e+000,-2.51667006277016e-002

1.62450479271247e+004,-4.36520398087855e+000,-2.55174359440740e-002

1.64718203453514e+004,-4.36520618500954e+000,-2.58730428220332e-002

1.67017583885674e+004,-4.36520845089157e+000,-2.62335882271469e-002

1.69349062472505e+004,-4.36521078024806e+000,-2.65991400203130e-002

1.71713087287550e+004,-4.36521317485048e+000,-2.69697669614070e-002

1.74110112659224e+004,-4.36521563651942e+000,-2.73455387232992e-002

1.76540599258131e+004,-4.36521816712643e+000,-2.77265258972660e-002

1.79005014185594e+004,-4.36522076859353e+000,-2.81128000180418e-002

1.81503831063432e+004,-4.36522344289687e+000,-2.85044335586196e-002

1.84037530124975e+004,-4.36522619206801e+000,-2.89014999419923e-002

1.86606598307361e+004,-4.36522901819244e+000,-2.93040735731357e-002

1.89211529345119e+004,-4.36523192341527e+000,-2.97122298211557e-002

1.91852823865052e+004,-4.36523490993994e+000,-3.01260450501361e-002

1.94530989482457e+004,-4.36523798003066e+000,-3.05455966238556e-002

1.97246540898671e+004,-4.36524113601416e+000,-3.09709629173371e-002

1.99999999999999e+004,-4.36524438028205e+000,-3.14022233231439e-002

2.02791895958005e+004,-4.36524771529069e+000,-3.18394582744899e-002

2.05622765331213e+004,-4.36525114356441e+000,-3.22827492479612e-002

2.08493152168224e+004,-4.36525466769731e+000,-3.27321787742040e-002

2.11403608112276e+004,-4.36525829035495e+000,-3.31878304507393e-002

2.14354692507258e+004,-4.36526201427609e+000,-3.36497889550133e-002

2.17346972505211e+004,-4.36526584227351e+000,-3.41181400619625e-002

2.20381023175322e+004,-4.36526977723959e+000,-3.45929706337288e-002

2.23457427614443e+004,-4.36527382214313e+000,-3.50743686639695e-002

2.26576777059159e+004,-4.36527798003672e+000,-3.55624232562110e-002

2.29739670999406e+004,-4.36528225405540e+000,-3.60572246565214e-002

2.32946717293690e+004,-4.36528664742057e+000,-3.65588642556077e-002

2.36198532285905e+004,-4.36529116344089e+000,-3.70674346083851e-002

2.39495740923785e+004,-4.36529580551653e+000,-3.75830294322944e-002

2.42838976879009e+004,-4.36530057713928e+000,-3.81057436346976e-002

2.46228882668982e+004,-4.36530548189766e+000,-3.86356733054996e-002

2.49666109780322e+004,-4.36531052347626e+000,-3.91729157504037e-002

2.53151318794055e+004,-4.36531570566162e+000,-3.97175694786618e-002

2.56685179512580e+004,-4.36532103234209e+000,-4.02697342345050e-002

2.60268371088386e+004,-4.36532650751254e+000,-4.08295109926437e-002

2.63901582154578e+004,-4.36533213527592e+000,-4.13970019787955e-002

2.67585510957221e+004,-4.36533791984674e+000,-4.19723106754007e-002

2.71320865489533e+004,-4.36534386555375e+000,-4.25555418333892e-002

2.75108363627948e+004,-4.36534997684231e+000,-4.31468014872708e-002

2.78948733270080e+004,-4.36535625827810e+000,-4.37461969610685e-002

2.82842712474618e+004,-4.36536271455138e+000,-4.43538368700402e-002

2.86791049603164e+004,-4.36536935047759e+000,-4.49698311490578e-002

2.90794503464061e+004,-4.36537617100195e+000,-4.55942910522245e-002

2.94853843458219e+004,-4.36538318120376e+000,-4.62273291569609e-002

2.98969849726987e+004,-4.36539038629792e+000,-4.68690593855274e-002

3.03143313302078e+004,-4.36539779164001e+000,-4.75195970042491e-002

3.07375036257601e+004,-4.36540540272929e+000,-4.81790586350590e-002

3.11665831864199e+004,-4.36541322521114e+000,-4.88475622729932e-002

3.16016524745350e+004,-4.36542126488327e+000,-4.95252272778376e-002

3.20427951035848e+004,-4.36542952769691e+000,-5.02121743991973e-002

3.24900958542493e+004,-4.36543801976328e+000,-5.09085257679361e-002

3.29436406907028e+004,-4.36544674735532e+000,-5.16144049177225e-002

3.34035167771346e+004,-4.36545571691276e+000,-5.23299367848740e-002

3.38698124945009e+004,-4.36546493504676e+000,-5.30552477127092e-002

3.43426174575100e+004,-4.36547440854304e+000,-5.37904654648606e-002

3.48220225318448e+004,-4.36548414436666e+000,-5.45357192274452e-002

3.53081198516260e+004,-4.36549414966662e+000,-5.52911396126072e-002

3.58010028371187e+004,-4.36550443178083e+000,-5.60568586619883e-002

3.63007662126863e+004,-4.36551499823917e+000,-5.68330098591265e-002

3.68075060249948e+004,-4.36552585677006e+000,-5.76197281216501e-002

3.73213196614721e+004,-4.36553701530334e+000,-5.84171498166115e-002

3.78423058690237e+004,-4.36554848197719e+000,-5.92254127494255e-002

3.83705647730104e+004,-4.36556026514130e+000,-6.00446561772806e-002

3.89061978964912e+004,-4.36557237336285e+000,-6.08750208044810e-002

3.94493081797342e+004,-4.36558481543054e+000,-6.17166487899139e-002

3.99999999999998e+004,-4.36559760036262e+000,-6.25696837283682e-002

4.05583791916010e+004,-4.36561073740856e+000,-6.34342706736340e-002

4.11245530662425e+004,-4.36562423605693e+000,-6.43105561201654e-002

4.16986304336447e+004,-4.36563810603993e+000,-6.51986880065685e-002

4.22807216224550e+004,-4.36565235734004e+000,-6.60988157052278e-002

4.28709385014515e+004,-4.36566700019365e+000,-6.70110900315358e-002

4.34693945010421e+004,-4.36568204509887e+000,-6.79356632242841e-002

4.40762046350642e+004,-4.36569750282091e+000,-6.88726889419801e-002

4.46914855228886e+004,-4.36571338439740e+000,-6.98223222602555e-002

4.53153554118317e+004,-4.36572970114456e+000,-7.07847196607500e-002

4.59479341998812e+004,-4.36574646466371e+000,-7.17600390204329e-002

4.65893434587380e+004,-4.36576368684772e+000,-7.27484395961585e-002

4.72397064571810e+004,-4.36578137988628e+000,-7.37500820212461e-002

4.78991481847569e+004,-4.36579955627355e+000,-7.47651282807299e-002

4.85677953758016e+004,-4.36581822881314e+000,-7.57937417077606e-002

4.92457765337964e+004,-4.36583741062576e+000,-7.68360869573037e-002

4.99332219560642e+004,-4.36585711515580e+000,-7.78923299899989e-002

5.06302637588109e+004,-4.36587735617696e+000,-7.89626380566341e-002

5.13370359025159e+004,-4.36589814779930e+000,-8.00471796758814e-002

5.20536742176771e+004,-4.36591950447680e+000,-8.11461246054520e-002

5.27803164309155e+004,-4.36594144101331e+000,-8.22596438227204e-002

5.35171021914442e+004,-4.36596397256946e+000,-8.33879094970379e-002

5.42641730979066e+004,-4.36598711466970e+000,-8.45310949612393e-002

5.50216727255895e+004,-4.36601088320945e+000,-8.56893746782794e-002

5.57897466540159e+004,-4.36603529446155e+000,-8.68629242128196e-002

5.65685424949235e+004,-4.36606036508268e+000,-8.80519201993188e-002

5.73582099206328e+004,-4.36608611212168e+000,-8.92565402970010e-002

5.81589006928121e+004,-4.36611255302583e+000,-9.04769631545805e-002

5.89707686916437e+004,-4.36613970564695e+000,-9.17133683754312e-002

5.97939699453972e+004,-4.36616758824895e+000,-9.29659364682185e-002

6.06286626604156e+004,-4.36619621951596e+000,-9.42348487951784e-002

6.14750072515201e+004,-4.36622561855629e+000,-9.55202875401761e-002

6.23331663728396e+004,-4.36625580491179e+000,-9.68224356414447e-002

6.32033049490698e+004,-4.36628679856307e+000,-9.81414767481195e-002

6.40855902071694e+004,-4.36631861993688e+000,-9.94775951585238e-002

6.49801917084985e+004,-4.36635128991158e+000,-1.00830975767651e-001

6.58872813814055e+004,-4.36638482982497e+000,-1.02201803995788e-001

6.68070335542691e+004,-4.36641926147927e+000,-1.03590265732174e-001

6.77396249890018e+004,-4.36645460714768e+000,-1.04996547264480e-001

6.86852349150199e+004,-4.36649088958050e+000,-1.06420835206063e-001

6.96440450636895e+004,-4.36652813201032e+000,-1.07863316425697e-001

7.06162397032520e+004,-4.36656635815812e+000,-1.09324177967035e-001

7.16020056742374e+004,-4.36660559223835e+000,-1.10803606968830e-001

7.26015324253724e+004,-4.36664585896378e+000,-1.12301790583449e-001

7.36150120499896e+004,-4.36668718355037e+000,-1.13818915887778e-001

7.46426393229441e+004,-4.36672959172233e+000,-1.15355169790047e-001

7.56846117380472e+004,-4.36677310971457e+000,-1.16910738945370e-001

7.67411295460207e+004,-4.36681776427883e+000,-1.18485809643373e-001

7.78123957929823e+004,-4.36686358268530e+000,-1.20080567718830e-001

7.88986163594682e+004,-4.36691059272562e+000,-1.21695198445910e-001

7.99999999999995e+004,-4.36695882271693e+000,-1.23329886420076e-001

8.11167583832018e+004,-4.36700830150247e+000,-1.24984815455069e-001

8.22491061324848e+004,-4.36705905845281e+000,-1.26660168469196e-001

8.33972608672892e+004,-4.36711112346888e+000,-1.28356127351532e-001

8.45614432449099e+004,-4.36716452697998e+000,-1.30072872854861e-001

8.57418770029029e+004,-4.36721929994551e+000,-1.31810584455217e-001

8.69387890020841e+004,-4.36727547385236e+000,-1.33569440232320e-001

8.81524092701283e+004,-4.36733308071450e+000,-1.35349616726889e-001

8.93829710457770e+004,-4.36739215307088e+000,-1.37151288800586e-001

9.06307108236633e+004,-4.36745272398064e+000,-1.38974629505277e-001

9.18958683997622e+004,-4.36751482702119e+000,-1.40819809923751e-001

9.31786869174758e+004,-4.36757849628173e+000,-1.42686999030748e-001

9.44794129143618e+004,-4.36764376635839e+000,-1.44576363534565e-001

9.57982963695136e+004,-4.36771067234725e+000,-1.46488067722834e-001

9.71355907516031e+004,-4.36777924983613e+000,-1.48422273305680e-001

9.84915530675926e+004,-4.36784953489698e+000,-1.50379139244796e-001

9.98664439121282e+004,-4.36792156407411e+000,-1.52358821600030e-001

1.01260527517622e+005,-4.36799537437404e+000,-1.54361473354169e-001

1.02674071805032e+005,-4.36807100325301e+000,-1.56387244242581e-001

1.04107348435354e+005,-4.36814848860357e+000,-1.58436280578017e-001

1.05560632861831e+005,-4.36822786873843e+000,-1.60508725081648e-001

1.07034204382888e+005,-4.36830918237508e+000,-1.62604716699211e-001

1.08528346195813e+005,-4.36839246861703e+000,-1.64724390426542e-001

1.10043345451179e+005,-4.36847776693488e+000,-1.66867877125816e-001

1.11579493308032e+005,-4.36856511714540e+000,-1.69035303343148e-001

1.13137084989847e+005,-4.36865455938798e+000,-1.71226791131953e-001

1.14716419841265e+005,-4.36874613410101e+000,-1.73442457865458e-001

1.16317801385624e+005,-4.36883988199574e+000,-1.75682416054594e-001

1.17941537383287e+005,-4.36893584402785e+000,-1.77946773168578e-001

1.19587939890794e+005,-4.36903406136785e+000,-1.80235631453264e-001

1.21257325320831e+005,-4.36913457537004e+000,-1.82549087747675e-001

1.22950014503040e+005,-4.36923742753776e+000,-1.84887233312708e-001

1.24666332745679e+005,-4.36934265948821e+000,-1.87250153653878e-001

1.26406609898139e+005,-4.36945031291499e+000,-1.89637928347598e-001

1.28171180414339e+005,-4.36956042954781e+000,-1.92050630876252e-001

1.29960383416997e+005,-4.36967305111089e+000,-1.94488328462953e-001

1.31774562762811e+005,-4.36978821927790e+000,-1.96951081918308e-001

1.33614067108538e+005,-4.36990597562703e+000,-1.99438945479842e-001

1.35479249978003e+005,-4.37002636159100e+000,-2.01951966674588e-001

1.37370469830040e+005,-4.37014941840673e+000,-2.04490186178528e-001

1.39288090127379e+005,-4.37027518706206e+000,-2.07053637686059e-001

1.41232479406504e+005,-4.37040370824004e+000,-2.09642347793220e-001

1.43204011348474e+005,-4.37053502226133e+000,-2.12256335884181e-001

1.45203064850745e+005,-4.37066916902366e+000,-2.14895614036232e-001

1.47230024099979e+005,-4.37080618793989e+000,-2.17560186929268e-001

1.49285278645888e+005,-4.37094611787251e+000,-2.20250051776760e-001

1.51369223476094e+005,-4.37108899706692e+000,-2.22965198264089e-001

1.53482259092041e+005,-4.37123486308192e+000,-2.25705608506211e-001

1.55624791585964e+005,-4.37138375271836e+000,-2.28471257017545e-001

1.57797232718936e+005,-4.37153570194495e+000,-2.31262110705340e-001

1.59999999999999e+005,-4.37169074582314e+000,-2.34078128873346e-001

1.62233516766403e+005,-4.37184891842814e+000,-2.36919263256201e-001

1.64498212264969e+005,-4.37201025276991e+000,-2.39785458062805e-001

1.66794521734578e+005,-4.37217478071093e+000,-2.42676650050724e-001

1.69122886489819e+005,-4.37234253288281e+000,-2.45592768618912e-001

1.71483754005805e+005,-4.37251353860140e+000,-2.48533735923716e-001

1.73877578004168e+005,-4.37268782577915e+000,-2.51499467029276e-001

1.76304818540256e+005,-4.37286542083851e+000,-2.54489870068125e-001

1.78765942091554e+005,-4.37304634862076e+000,-2.57504846449420e-001

1.81261421647326e+005,-4.37323063229708e+000,-2.60544291078171e-001

1.83791736799524e+005,-4.37341829327669e+000,-2.63608092614076e-001

1.86357373834951e+005,-4.37360935111523e+000,-2.66696133756878e-001

1.88958825828723e+005,-4.37380382342132e+000,-2.69808291571646e-001

1.91596592739027e+005,-4.37400172576567e+000,-2.72944437828734e-001

1.94271181503206e+005,-4.37420307158674e+000,-2.76104439399907e-001

1.96983106135185e+005,-4.37440787209909e+000,-2.79288158671270e-001

1.99732887824256e+005,-4.37461613620150e+000,-2.82495453998111e-001

2.02521055035243e+005,-4.37482787038594e+000,-2.85726180192908e-001

2.05348143610063e+005,-4.37504307864701e+000,-2.88980189054614e-001

2.08214696870707e+005,-4.37526176239372e+000,-2.92257329926928e-001

2.11121265723661e+005,-4.37548392036267e+000,-2.95557450296560e-001

2.14068408765776e+005,-4.37570954853285e+000,-2.98880396430203e-001

2.17056692391625e+005,-4.37593864004321e+000,-3.02226014044034e-001

2.20086690902357e+005,-4.37617118511259e+000,-3.05594149015763e-001

2.23158986616063e+005,-4.37640717096314e+000,-3.08984648126900e-001

2.26274169979693e+005,-4.37664658174711e+000,-3.12397359843030e-001

2.29432839682530e+005,-4.37688939847648e+000,-3.15832135135056e-001

2.32635602771247e+005,-4.37713559895807e+000,-3.19288828326711e-001

2.35883074766574e+005,-4.37738515773201e+000,-3.22767297982979e-001

2.39175879781588e+005,-4.37763804601588e+000,-3.26267407825514e-001

2.42514650641661e+005,-4.37789423165300e+000,-3.29789027688005e-001

2.45900029006080e+005,-4.37815367906753e+000,-3.33332034491870e-001

2.49332665491357e+005,-4.37841634922456e+000,-3.36896313257458e-001

2.52813219796278e+005,-4.37868219959629e+000,-3.40481758143237e-001

2.56342360828676e+005,-4.37895118413578e+000,-3.44088273502060e-001

2.59920766833993e+005,-4.37922325325616e+000,-3.47715774971343e-001

2.63549125525621e+005,-4.37949835381814e+000,-3.51364190574527e-001

2.67228134217075e+005,-4.37977642912391e+000,-3.55033461848132e-001

2.70958499956006e+005,-4.38005741891994e+000,-3.58723544978215e-001

2.74740939660078e+005,-4.38034125940647e+000,-3.62434411954180e-001

2.78576180254757e+005,-4.38062788325555e+000,-3.66166051732610e-001

2.82464958813007e+005,-4.38091721963760e+000,-3.69918471405714e-001

2.86408022696948e+005,-4.38120919425639e+000,-3.73691697373946e-001

2.90406129701488e+005,-4.38150372939177e+000,-3.77485776523505e-001

2.94460048199957e+005,-4.38180074395214e+000,-3.81300777395834e-001

2.98570557291775e+005,-4.38210015353513e+000,-3.85136791352486e-001

3.02738446952187e+005,-4.38240187049666e+000,-3.88993933733816e-001

3.06964518184081e+005,-4.38270580402926e+000,-3.92872345000494e-001

3.11249583171928e+005,-4.38301186024879e+000,-3.96772191858804e-001

3.15594465437872e+005,-4.38331994228959e+000,-4.00693668368861e-001

3.19999999999997e+005,-4.38362995040830e+000,-4.04636997024330e-001

3.24467033532806e+005,-4.38394178209601e+000,-4.08602429807063e-001

3.28996424529938e+005,-4.38425533219753e+000,-4.12590249214129e-001

3.33589043469155e+005,-4.38457049304005e+000,-4.16600769242675e-001

3.38245772979638e+005,-4.38488715456799e+000,-4.20634336342745e-001

3.42967508011610e+005,-4.38520520448541e+000,-4.24691330329614e-001

3.47755156008335e+005,-4.38552452840543e+000,-4.28772165247991e-001

3.52609637080511e+005,-4.38584501000590e+000,-4.32877290192939e-001

3.57531884183106e+005,-4.38616653119095e+000,-4.37007190079523e-001

3.62522843294651e+005,-4.38648897225847e+000,-4.41162386358442e-001

3.67583473599047e+005,-4.38681221207225e+000,-4.45343437679844e-001

3.72714747669902e+005,-4.38713612823883e+000,-4.49550940496983e-001

3.77917651657445e+005,-4.38746059728784e+000,-4.53785529617370e-001

3.83193185478053e+005,-4.38778549485679e+000,-4.58047878682690e-001

3.88542363006410e+005,-4.38811069587760e+000,-4.62338700597256e-001

3.93966212270369e+005,-4.38843607476603e+000,-4.66658747886312e-001

3.99465775648511e+005,-4.38876150561249e+000,-4.71008812994075e-001

4.05042110070485e+005,-4.38908686237349e+000,-4.75389728516553e-001

4.10696287220124e+005,-4.38941201906461e+000,-4.79802367366405e-001

4.16429393741414e+005,-4.38973684995135e+000,-4.84247642879461e-001

4.22242531447321e+005,-4.39006122974111e+000,-4.88726508848563e-001

4.28136817531551e+005,-4.39038503377219e+000,-4.93239959499375e-001

4.34113384783250e+005,-4.39070813820138e+000,-4.97789029400348e-001

4.40173381804713e+005,-4.39103042018808e+000,-5.02374793314898e-001

4.46317973232124e+005,-4.39135175807653e+000,-5.06998365983127e-001

4.52548339959385e+005,-4.39167203157239e+000,-5.11660901857374e-001

4.58865679365059e+005,-4.39199112191616e+000,-5.16363594771625e-001

4.65271205542494e+005,-4.39230891205099e+000,-5.21107677560047e-001

4.71766149533147e+005,-4.39262528678564e+000,-5.25894421621130e-001

4.78351759563174e+005,-4.39294013295036e+000,-5.30725136436801e-001

4.85029301283321e+005,-4.39325333954793e+000,-5.35601169037382e-001

4.91800058012158e+005,-4.39356479789682e+000,-5.40523903427877e-001

4.98665330982714e+005,-4.39387440176732e+000,-5.45494759974450e-001

5.05626439592555e+005,-4.39418204751098e+000,-5.50515194746623e-001

5.12684721657352e+005,-4.39448763418107e+000,-5.55586698834272e-001

5.19841533667984e+005,-4.39479106364620e+000,-5.60710797626752e-001

5.27098251051240e+005,-4.39509224069486e+000,-5.65889050069254e-001

5.34456268434150e+005,-4.39539107313214e+000,-5.71123047892512e-001

5.41916999912011e+005,-4.39568747186712e+000,-5.76414414827287e-001

