Freq.,VOut,OutRef

1.00000000000000e+004,-4.08479036709017e+001,-3.32819010535086e-001

1.01395947979003e+004,-4.08479070446069e+001,-3.37464648712684e-001

1.02811382665607e+004,-4.08479105130885e+001,-3.42175123067515e-001

1.04246576084112e+004,-4.08479140790069e+001,-3.46951338064031e-001

1.05701804056138e+004,-4.08479177450971e+001,-3.51794210766347e-001

1.07177346253629e+004,-4.08479215141708e+001,-3.56704671011967e-001

1.08673486252606e+004,-4.08479253891183e+001,-3.61683661591112e-001

1.10190511587661e+004,-4.08479293729113e+001,-3.66732138424858e-001

1.11728713807222e+004,-4.08479334686043e+001,-3.71851070747992e-001

1.13288388529580e+004,-4.08479376793377e+001,-3.77041441292471e-001

1.14869835499703e+004,-4.08479420083397e+001,-3.82304246476341e-001

1.16473358646846e+004,-4.08479464589289e+001,-3.87640496591490e-001

1.18099266142953e+004,-4.08479510345169e+001,-3.93051215997543e-001

1.19747870461893e+004,-4.08479557386108e+001,-3.98537443314416e-001

1.21419488439505e+004,-4.08479605748159e+001,-4.04100231622522e-001

1.23114441334492e+004,-4.08479655468386e+001,-4.09740648660109e-001

1.24833054890161e+004,-4.08479706584886e+001,-4.15459777029998e-001

1.26575659397028e+004,-4.08479759136828e+001,-4.21258714400341e-001

1.28342589756290e+004,-4.08479813164474e+001,-4.27138573716881e-001

1.30134185544193e+004,-4.08479868709212e+001,-4.33100483413711e-001

1.31950791077289e+004,-4.08479925813589e+001,-4.39145587624947e-001

1.33792755478611e+004,-4.08479984521344e+001,-4.45275046404819e-001

1.35660432744767e+004,-4.08480044877435e+001,-4.51490035946671e-001

1.37554181813974e+004,-4.08480106928082e+001,-4.57791748803751e-001

1.39474366635040e+004,-4.08480170720795e+001,-4.64181394119061e-001

1.41421356237309e+004,-4.08480236304412e+001,-4.70660197852397e-001

1.43395524801583e+004,-4.08480303729138e+001,-4.77229403010676e-001

1.45397251732031e+004,-4.08480373046579e+001,-4.83890269886874e-001

1.47426921729110e+004,-4.08480444309785e+001,-4.90644076296125e-001

1.49484924863494e+004,-4.08480517573286e+001,-4.97492117818310e-001

1.51571656651040e+004,-4.08480592893139e+001,-5.04435708040310e-001

1.53687518128801e+004,-4.08480670326961e+001,-5.11476178810295e-001

1.55832915932100e+004,-4.08480749933986e+001,-5.18614880480709e-001

1.58008262372675e+004,-4.08480831775093e+001,-5.25853182172606e-001

1.60213975517924e+004,-4.08480915912867e+001,-5.33192472024551e-001

1.62450479271247e+004,-4.08481002411636e+001,-5.40634157462271e-001

1.64718203453514e+004,-4.08481091337524e+001,-5.48179665459408e-001

1.67017583885674e+004,-4.08481182758500e+001,-5.55830442806764e-001

1.69349062472505e+004,-4.08481276744429e+001,-5.63587956386206e-001

1.71713087287550e+004,-4.08481373367124e+001,-5.71453693445337e-001

1.74110112659224e+004,-4.08481472700398e+001,-5.79429161878481e-001

1.76540599258131e+004,-4.08481574820124e+001,-5.87515890507868e-001

1.79005014185594e+004,-4.08481679804288e+001,-5.95715429373023e-001

1.81503831063432e+004,-4.08481787733049e+001,-6.04029350020003e-001

1.84037530124975e+004,-4.08481898688798e+001,-6.12459245797391e-001

1.86606598307361e+004,-4.08482012756219e+001,-6.21006732154048e-001

1.89211529345119e+004,-4.08482130022356e+001,-6.29673446941942e-001

1.91852823865052e+004,-4.08482250576673e+001,-6.38461050723275e-001

1.94530989482457e+004,-4.08482374511125e+001,-6.47371227079538e-001

1.97246540898671e+004,-4.08482501920221e+001,-6.56405682928671e-001

1.99999999999999e+004,-4.08482632901100e+001,-6.65566148841327e-001

2.02791895958005e+004,-4.08482767553601e+001,-6.74854379364801e-001

2.05622765331213e+004,-4.08482905980337e+001,-6.84272153350105e-001

2.08493152168224e+004,-4.08483048286770e+001,-6.93821274283950e-001

2.11403608112276e+004,-4.08483194581293e+001,-7.03503570622343e-001

2.14354692507258e+004,-4.08483344975304e+001,-7.13320896134128e-001

2.17346972505211e+004,-4.08483499583296e+001,-7.23275130241872e-001

2.20381023175322e+004,-4.08483658522934e+001,-7.33368178372536e-001

2.23457427614443e+004,-4.08483821915149e+001,-7.43601972310093e-001

2.26576777059159e+004,-4.08483989884221e+001,-7.53978470555010e-001

2.29739670999406e+004,-4.08484162557874e+001,-7.64499658683866e-001

2.32946717293690e+004,-4.08484340067370e+001,-7.75167549719354e-001

2.36198532285905e+004,-4.08484522547602e+001,-7.85984184499560e-001

2.39495740923785e+004,-4.08484710137199e+001,-7.96951632056186e-001

2.42838976879009e+004,-4.08484902978623e+001,-8.08071989994993e-001

2.46228882668982e+004,-4.08485101218271e+001,-8.19347384882591e-001

2.49666109780322e+004,-4.08485305006589e+001,-8.30779972635978e-001

2.53151318794055e+004,-4.08485514498177e+001,-8.42371938919750e-001

2.56685179512580e+004,-4.08485729851903e+001,-8.54125499546853e-001

2.60268371088386e+004,-4.08485951231016e+001,-8.66042900882612e-001

2.63901582154578e+004,-4.08486178803270e+001,-8.78126420257746e-001

2.67585510957221e+004,-4.08486412741039e+001,-8.90378366384123e-001

2.71320865489533e+004,-4.08486653221448e+001,-9.02801079773868e-001

2.75108363627948e+004,-4.08486900426495e+001,-9.15396933168327e-001

2.78948733270080e+004,-4.08487154543189e+001,-9.28168331967244e-001

2.82842712474618e+004,-4.08487415763677e+001,-9.41117714667581e-001

2.86791049603164e+004,-4.08487684285389e+001,-9.54247553303460e-001

2.90794503464061e+004,-4.08487960311176e+001,-9.67560353896471e-001

2.94853843458219e+004,-4.08488244049455e+001,-9.81058656905750e-001

2.98969849726987e+004,-4.08488535714360e+001,-9.94745037688051e-001

3.03143313302078e+004,-4.08488835525893e+001,-1.00862210696123e+000

3.07375036257601e+004,-4.08489143710080e+001,-1.02269251127367e+000

3.11665831864199e+004,-4.08489460499133e+001,-1.03695893347958e+000

3.16016524745350e+004,-4.08489786131615e+001,-1.05142409321837e+000

3.20427951035848e+004,-4.08490120852605e+001,-1.06609074740261e+000

3.24900958542493e+004,-4.08490464913875e+001,-1.08096169070944e+000

3.29436406907028e+004,-4.08490818574064e+001,-1.09603975607747e+000

3.34035167771346e+004,-4.08491182098862e+001,-1.11132781521168e+000

3.38698124945009e+004,-4.08491555761192e+001,-1.12682877909126e+000

3.43426174575100e+004,-4.08491939841405e+001,-1.14254559848617e+000

3.48220225318448e+004,-4.08492334627471e+001,-1.15848126447810e+000

3.53081198516260e+004,-4.08492740415182e+001,-1.17463880898558e+000

3.58010028371187e+004,-4.08493157508353e+001,-1.19102130529997e+000

3.63007662126863e+004,-4.08493586219035e+001,-1.20763186862175e+000

3.68075060249948e+004,-4.08494026867729e+001,-1.22447365660711e+000

3.73213196614721e+004,-4.08494479783602e+001,-1.24154986991758e+000

3.78423058690237e+004,-4.08494945304716e+001,-1.25886375277904e+000

3.83705647730104e+004,-4.08495423778256e+001,-1.27641859354276e+000

3.89061978964912e+004,-4.08495915560765e+001,-1.29421772525652e+000

3.94493081797342e+004,-4.08496421018388e+001,-1.31226452623835e+000

3.99999999999998e+004,-4.08496940527115e+001,-1.33056242065942e+000

4.05583791916010e+004,-4.08497474473035e+001,-1.34911487913161e+000

4.11245530662425e+004,-4.08498023252591e+001,-1.36792541930134e+000

4.16986304336447e+004,-4.08498587272849e+001,-1.38699760644970e+000

4.22807216224550e+004,-4.08499166951765e+001,-1.40633505409916e+000

4.28709385014515e+004,-4.08499762718458e+001,-1.42594142462584e+000

4.34693945010421e+004,-4.08500375013496e+001,-1.44582042987927e+000

4.40762046350642e+004,-4.08501004289184e+001,-1.46597583180732e+000

4.46914855228886e+004,-4.08501651009854e+001,-1.48641144308780e+000

4.53153554118317e+004,-4.08502315652169e+001,-1.50713112776599e+000

4.59479341998812e+004,-4.08502998705433e+001,-1.52813880189912e+000

4.65893434587380e+004,-4.08503700671896e+001,-1.54943843420697e+000

4.72397064571810e+004,-4.08504422067086e+001,-1.57103404672830e+000

4.78991481847569e+004,-4.08505163420123e+001,-1.59292971548409e+000

4.85677953758016e+004,-4.08505925274065e+001,-1.61512957114685e+000

4.92457765337964e+004,-4.08506708186240e+001,-1.63763779971662e+000

4.99332219560642e+004,-4.08507512728598e+001,-1.66045864320178e+000

5.06302637588109e+004,-4.08508339488062e+001,-1.68359640030868e+000

5.13370359025159e+004,-4.08509189066894e+001,-1.70705542713534e+000

5.20536742176771e+004,-4.08510062083058e+001,-1.73084013787234e+000

5.27803164309155e+004,-4.08510959170599e+001,-1.75495500550948e+000

5.35171021914442e+004,-4.08511880980026e+001,-1.77940456254925e+000

5.42641730979066e+004,-4.08512828178698e+001,-1.80419340172667e+000

5.50216727255895e+004,-4.08513801451227e+001,-1.82932617673378e+000

5.57897466540159e+004,-4.08514801499874e+001,-1.85480760295270e+000

5.65685424949235e+004,-4.08515829044970e+001,-1.88064245819208e+000

5.73582099206328e+004,-4.08516884825326e+001,-1.90683558343225e+000

5.81589006928121e+004,-4.08517969598663e+001,-1.93339188357541e+000

5.89707686916437e+004,-4.08519084142046e+001,-1.96031632820096e+000

5.97939699453972e+004,-4.08520229252320e+001,-1.98761395232761e+000

6.06286626604156e+004,-4.08521405746559e+001,-2.01528985718359e+000

6.14750072515201e+004,-4.08522614462526e+001,-2.04334921097830e+000

6.23331663728396e+004,-4.08523856259123e+001,-2.07179724968436e+000

6.32033049490698e+004,-4.08525132016869e+001,-2.10063927782380e+000

6.40855902071694e+004,-4.08526442638371e+001,-2.12988066925888e+000

6.49801917084985e+004,-4.08527789048805e+001,-2.15952686799185e+000

6.58872813814055e+004,-4.08529172196411e+001,-2.18958338896736e+000

6.68070335542691e+004,-4.08530593052977e+001,-2.22005581888352e+000

6.77396249890018e+004,-4.08532052614353e+001,-2.25094981700695e+000

6.86852349150199e+004,-4.08533551900949e+001,-2.28227111599462e+000

6.96440450636895e+004,-4.08535091958254e+001,-2.31402552272132e+000

7.06162397032520e+004,-4.08536673857357e+001,-2.34621891911230e+000

7.16020056742374e+004,-4.08538298695467e+001,-2.37885726298324e+000

7.26015324253724e+004,-4.08539967596450e+001,-2.41194658888459e+000

7.36150120499896e+004,-4.08541681711362e+001,-2.44549300895311e+000

7.46426393229441e+004,-4.08543442218994e+001,-2.47950271376713e+000

7.56846117380472e+004,-4.08545250326412e+001,-2.51398197321127e+000

7.67411295460207e+004,-4.08547107269514e+001,-2.54893713734310e+000

7.78123957929823e+004,-4.08549014313582e+001,-2.58437463726918e+000

7.88986163594682e+004,-4.08550972753842e+001,-2.62030098602499e+000

7.99999999999995e+004,-4.08552983916022e+001,-2.65672277946205e+000

8.11167583832018e+004,-4.08555049156924e+001,-2.69364669714183e+000

8.22491061324848e+004,-4.08557169864986e+001,-2.73107950323325e+000

8.33972608672892e+004,-4.08559347460855e+001,-2.76902804742085e+000

8.45614432449099e+004,-4.08561583397960e+001,-2.80749926581593e+000

8.57418770029029e+004,-4.08563879163084e+001,-2.84650018187635e+000

8.69387890020841e+004,-4.08566236276937e+001,-2.88603790733312e+000

8.81524092701283e+004,-4.08568656294735e+001,-2.92611964312269e+000

8.93829710457770e+004,-4.08571140806774e+001,-2.96675268032931e+000

9.06307108236633e+004,-4.08573691439000e+001,-3.00794440113203e+000

9.18958683997622e+004,-4.08576309853587e+001,-3.04970227976211e+000

9.31786869174758e+004,-4.08578997749507e+001,-3.09203388346620e+000

9.44794129143618e+004,-4.08581756863099e+001,-3.13494687348105e+000

9.57982963695136e+004,-4.08584588968636e+001,-3.17844900601339e+000

9.71355907516031e+004,-4.08587495878887e+001,-3.22254813323318e+000

9.84915530675926e+004,-4.08590479445675e+001,-3.26725220427323e+000

9.98664439121282e+004,-4.08593541560433e+001,-3.31256926624079e+000

1.01260527517622e+005,-4.08596684154753e+001,-3.35850746523953e+000

1.02674071805032e+005,-4.08599909200925e+001,-3.40507504740310e+000

1.04107348435354e+005,-4.08603218712477e+001,-3.45228035993985e+000

1.05560632861831e+005,-4.08606614744701e+001,-3.50013185219048e+000

1.07034204382888e+005,-4.08610099395174e+001,-3.54863807670006e+000

1.08528346195813e+005,-4.08613674804270e+001,-3.59780769030250e+000

1.10043345451179e+005,-4.08617343155664e+001,-3.64764945522016e+000

1.11579493308032e+005,-4.08621106676822e+001,-3.69817224018075e+000

1.13137084989847e+005,-4.08624967639487e+001,-3.74938502154874e+000

1.14716419841265e+005,-4.08628928360149e+001,-3.80129688447622e+000

1.16317801385624e+005,-4.08632991200501e+001,-3.85391702407159e+000

1.17941537383287e+005,-4.08637158567894e+001,-3.90725474658798e+000

1.19587939890794e+005,-4.08641432915767e+001,-3.96131947063343e+000

1.21257325320831e+005,-4.08645816744071e+001,-4.01612072840266e+000

1.22950014503040e+005,-4.08650312599679e+001,-4.07166816693324e+000

1.24666332745679e+005,-4.08654923076778e+001,-4.12797154938578e+000

1.26406609898139e+005,-4.08659650817257e+001,-4.18504075635160e+000

1.28171180414339e+005,-4.08664498511071e+001,-4.24288578718760e+000

1.29960383416997e+005,-4.08669468896595e+001,-4.30151676138142e+000

1.31774562762811e+005,-4.08674564760964e+001,-4.36094391994805e+000

1.33614067108538e+005,-4.08679788940403e+001,-4.42117762685804e+000

1.35479249978003e+005,-4.08685144320538e+001,-4.48222837050328e+000

1.37370469830040e+005,-4.08690633836694e+001,-4.54410676519713e+000

1.39288090127379e+005,-4.08696260474186e+001,-4.60682355271452e+000

1.41232479406504e+005,-4.08702027268597e+001,-4.67038960387313e+000

1.43204011348474e+005,-4.08707937306036e+001,-4.73481592015661e+000

1.45203064850745e+005,-4.08713993723403e+001,-4.80011363538397e+000

1.47230024099979e+005,-4.08720199708628e+001,-4.86629401742579e+000

1.49285278645888e+005,-4.08726558500916e+001,-4.93336846997037e+000

1.51369223476094e+005,-4.08733073390981e+001,-5.00134853434071e+000

1.53482259092041e+005,-4.08739747721276e+001,-5.07024589136851e+000

1.55624791585964e+005,-4.08746584886222e+001,-5.14007236332215e+000

1.57797232718936e+005,-4.08753588332444e+001,-5.21083991589534e+000

1.59999999999999e+005,-4.08760761558997e+001,-5.28256066025766e+000

1.62233516766403e+005,-4.08768108117616e+001,-5.35524685516874e+000

1.64498212264969e+005,-4.08775631612958e+001,-5.42891090915949e+000

1.66794521734578e+005,-4.08783335702875e+001,-5.50356538278228e+000

1.69122886489819e+005,-4.08791224098687e+001,-5.57922299093349e+000

1.71483754005805e+005,-4.08799300565488e+001,-5.65589660524929e+000

1.73877578004168e+005,-4.08807568922474e+001,-5.73359925657879e+000

1.76304818540256e+005,-4.08816033043301e+001,-5.81234413753512e+000

1.78765942091554e+005,-4.08824696856477e+001,-5.89214460512924e+000

1.81261421647326e+005,-4.08833564345797e+001,-5.97301418348579e+000

1.83791736799524e+005,-4.08842639550825e+001,-6.05496656664431e+000

1.86357373834951e+005,-4.08851926567429e+001,-6.13801562144971e+000

1.88958825828723e+005,-4.08861429548373e+001,-6.22217539052981e+000

1.91596592739027e+005,-4.08871152703978e+001,-6.30746009536530e+000

1.94271181503206e+005,-4.08881100302855e+001,-6.39388413945169e+000

1.96983106135185e+005,-4.08891276672721e+001,-6.48146211155564e+000

1.99732887824256e+005,-4.08901686201301e+001,-6.57020878906524e+000

2.02521055035243e+005,-4.08912333337329e+001,-6.66013914143751e+000

2.05348143610063e+005,-4.08923222591659e+001,-6.75126833374087e+000

2.08214696870707e+005,-4.08934358538479e+001,-6.84361173029530e+000

2.11121265723661e+005,-4.08945745816661e+001,-6.93718489841013e+000

2.14068408765776e+005,-4.08957389131240e+001,-7.03200361221666e+000

2.17056692391625e+005,-4.08969293255032e+001,-7.12808385659838e+000

2.20086690902357e+005,-4.08981463030410e+001,-7.22544183121597e+000

2.23158986616063e+005,-4.08993903371238e+001,-7.32409395462581e+000

2.26274169979693e+005,-4.09006619264984e+001,-7.42405686849081e+000

2.29432839682530e+005,-4.09019615775009e+001,-7.52534744188247e+000

2.32635602771247e+005,-4.09032898043054e+001,-7.62798277566889e+000

2.35883074766574e+005,-4.09046471291933e+001,-7.73198020698834e+000

2.39175879781588e+005,-4.09060340828432e+001,-7.83735731380499e+000

2.42514650641661e+005,-4.09074512046441e+001,-7.94413191954076e+000

2.45900029006080e+005,-4.09088990430323e+001,-8.05232209778217e+000

2.49332665491357e+005,-4.09103781558515e+001,-8.16194617705445e+000

2.52813219796278e+005,-4.09118891107403e+001,-8.27302274565981e+000

2.56342360828676e+005,-4.09134324855445e+001,-8.38557065657368e+000

2.59920766833993e+005,-4.09150088687582e+001,-8.49960903239275e+000

2.63549125525621e+005,-4.09166188599922e+001,-8.61515727032775e+000

2.67228134217075e+005,-4.09182630704730e+001,-8.73223504723522e+000

2.70958499956006e+005,-4.09199421235701e+001,-8.85086232467940e+000

2.74740939660078e+005,-4.09216566553561e+001,-8.97105935401741e+000

2.78576180254757e+005,-4.09234073151971e+001,-9.09284668149946e+000

2.82464958813007e+005,-4.09251947663758e+001,-9.21624515337476e+000

2.86408022696948e+005,-4.09270196867476e+001,-9.34127592099454e+000

2.90406129701488e+005,-4.09288827694303e+001,-9.46796044590278e+000

2.94460048199957e+005,-4.09307847235271e+001,-9.59632050490585e+000

2.98570557291775e+005,-4.09327262748849e+001,-9.72637819510906e+000

3.02738446952187e+005,-4.09347081668858e+001,-9.85815593891230e+000

3.06964518184081e+005,-4.09367311612752e+001,-9.99167648895280e+000

3.11249583171928e+005,-4.09387960390236e+001,-1.01269629329858e+001

3.15594465437872e+005,-4.09409036012239e+001,-1.02640386986906e+001

3.19999999999997e+005,-4.09430546700239e+001,-1.04029275583931e+001

3.24467033532806e+005,-4.09452500895936e+001,-1.05436536336938e+001

3.28996424529938e+005,-4.09474907271270e+001,-1.06862413999886e+001

3.33589043469155e+005,-4.09497774738788e+001,-1.08307156908745e+001

3.38245772979638e+005,-4.09521112462348e+001,-1.09771017024270e+001

3.42967508011610e+005,-4.09544929868158e+001,-1.11254249973402e+001

3.47755156008335e+005,-4.09569236656150e+001,-1.12757115089189e+001

3.52609637080511e+005,-4.09594042811669e+001,-1.14279875449122e+001

3.57531884183106e+005,-4.09619358617490e+001,-1.15822797911790e+001

3.62522843294651e+005,-4.09645194666131e+001,-1.17386153151756e+001

3.67583473599047e+005,-4.09671561872475e+001,-1.18970215692566e+001

3.72714747669902e+005,-4.09698471486677e+001,-1.20575263937790e+001

3.77917651657445e+005,-4.09725935107355e+001,-1.22201580200030e+001

3.83193185478053e+005,-4.09753964695045e+001,-1.23849450727793e+001

3.88542363006410e+005,-4.09782572585922e+001,-1.25519165730156e+001

3.93966212270369e+005,-4.09811771505760e+001,-1.27211019399171e+001

3.99465775648511e+005,-4.09841574584133e+001,-1.28925309929910e+001

4.05042110070485e+005,-4.09871995368834e+001,-1.30662339538114e+001

4.10696287220124e+005,-4.09903047840505e+001,-1.32422414475376e+001

4.16429393741414e+005,-4.09934746427469e+001,-1.34205845041800e+001

4.22242531447321e+005,-4.09967106020739e+001,-1.36012945596107e+001

4.28136817531551e+005,-4.10000141989203e+001,-1.37844034563120e+001

4.34113384783250e+005,-4.10033870194965e+001,-1.39699434438608e+001

4.40173381804713e+005,-4.10068307008837e+001,-1.41579471791444e+001

4.46317973232124e+005,-4.10103469325953e+001,-1.43484477263058e+001

4.52548339959385e+005,-4.10139374581517e+001,-1.45414785564138e+001

4.58865679365059e+005,-4.10176040766648e+001,-1.47370735468583e+001

4.65271205542494e+005,-4.10213486444330e+001,-1.49352669804672e+001

4.71766149533147e+005,-4.10251730765438e+001,-1.51360935443435e+001

4.78351759563174e+005,-4.10290793484844e+001,-1.53395883284221e+001

4.85029301283321e+005,-4.10330694977580e+001,-1.55457868237442e+001

4.91800058012158e+005,-4.10371456255061e+001,-1.57547249204489e+001

4.98665330982714e+005,-4.10413098981339e+001,-1.59664389054813e+001

5.05626439592555e+005,-4.10455645489395e+001,-1.61809654600170e+001

5.12684721657352e+005,-4.10499118797457e+001,-1.63983416566007e+001

5.19841533667984e+005,-4.10543542625323e+001,-1.66186049560006e+001

5.27098251051240e+005,-4.10588941410704e+001,-1.68417932037754e+001

5.34456268434150e+005,-4.10635340325546e+001,-1.70679446265563e+001

5.41916999912011e+005,-4.10682765292361e+001,-1.72970978280406e+001

