Freq.,VOut,OutRef

1.00000000000000e+004,-9.29547128400576e+000,-1.20379151584457e-001

1.01395947979003e+004,-9.29547183164817e+000,-1.22059474732860e-001

1.02811382665607e+004,-9.29547239466327e+000,-1.23763249769960e-001

1.04246576084112e+004,-9.29547297348183e+000,-1.25490803879406e-001

1.05701804056138e+004,-9.29547356854673e+000,-1.27242468803526e-001

1.07177346253629e+004,-9.29547418031292e+000,-1.29018580909274e-001

1.08673486252606e+004,-9.29547480924873e+000,-1.30819481245372e-001

1.10190511587661e+004,-9.29547545583499e+000,-1.32645515616482e-001

1.11728713807222e+004,-9.29547612056609e+000,-1.34497034643419e-001

1.13288388529580e+004,-9.29547680395029e+000,-1.36374393831534e-001

1.14869835499703e+004,-9.29547750651010e+000,-1.38277953637475e-001

1.16473358646846e+004,-9.29547822878233e+000,-1.40208079540773e-001

1.18099266142953e+004,-9.29547897131920e+000,-1.42165142108526e-001

1.19747870461893e+004,-9.29547973468803e+000,-1.44149517071131e-001

1.21419488439505e+004,-9.29548051947170e+000,-1.46161585392556e-001

1.23114441334492e+004,-9.29548132626994e+000,-1.48201733339214e-001

1.24833054890161e+004,-9.29548215569887e+000,-1.50270352556962e-001

1.26575659397028e+004,-9.29548300839156e+000,-1.52367840147256e-001

1.28342589756290e+004,-9.29548388499919e+000,-1.54494598736734e-001

1.30134185544193e+004,-9.29548478619084e+000,-1.56651036558694e-001

1.31950791077289e+004,-9.29548571265392e+000,-1.58837567531370e-001

1.33792755478611e+004,-9.29548666509544e+000,-1.61054611331749e-001

1.35660432744767e+004,-9.29548764424177e+000,-1.63302593479783e-001

1.37554181813974e+004,-9.29548865083977e+000,-1.65581945415711e-001

1.39474366635040e+004,-9.29548968565671e+000,-1.67893104586073e-001

1.41421356237309e+004,-9.29549074948135e+000,-1.70236514523645e-001

1.43395524801583e+004,-9.29549184312471e+000,-1.72612624929776e-001

1.45397251732031e+004,-9.29549296741956e+000,-1.75021891767756e-001

1.47426921729110e+004,-9.29549412322254e+000,-1.77464777338470e-001

1.49484924863494e+004,-9.29549531141354e+000,-1.79941750377059e-001

1.51571656651040e+004,-9.29549653289735e+000,-1.82453286135049e-001

1.53687518128801e+004,-9.29549778860323e+000,-1.84999866476969e-001

1.55832915932100e+004,-9.29549907948690e+000,-1.87581979963629e-001

1.58008262372675e+004,-9.29550040653006e+000,-1.90200121952134e-001

1.60213975517924e+004,-9.29550177074197e+000,-1.92854794683880e-001

1.62450479271247e+004,-9.29550317315933e+000,-1.95546507384971e-001

1.64718203453514e+004,-9.29550461484806e+000,-1.98275776356629e-001

1.67017583885674e+004,-9.29550609690318e+000,-2.01043125077082e-001

1.69349062472505e+004,-9.29550762045034e+000,-2.03849084297261e-001

1.71713087287550e+004,-9.29550918664615e+000,-2.06694192142988e-001

1.74110112659224e+004,-9.29551079667899e+000,-2.09578994217834e-001

1.76540599258131e+004,-9.29551245177055e+000,-2.12504043699823e-001

1.79005014185594e+004,-9.29551415317532e+000,-2.15469901456372e-001

1.81503831063432e+004,-9.29551590218365e+000,-2.18477136135608e-001

1.84037530124975e+004,-9.29551770012034e+000,-2.21526324287649e-001

1.86606598307361e+004,-9.29551954834725e+000,-2.24618050463777e-001

1.89211529345119e+004,-9.29552144826383e+000,-2.27752907328221e-001

1.91852823865052e+004,-9.29552340130764e+000,-2.30931495772803e-001

1.94530989482457e+004,-9.29552540895617e+000,-2.34154425024834e-001

1.97246540898671e+004,-9.29552747272730e+000,-2.37422312765879e-001

1.99999999999999e+004,-9.29552959418066e+000,-2.40735785244366e-001

2.02791895958005e+004,-9.29553177491867e+000,-2.44095477395162e-001

2.05622765331213e+004,-9.29553401658773e+000,-2.47502032956329e-001

2.08493152168224e+004,-9.29553632087960e+000,-2.50956104590103e-001

2.11403608112276e+004,-9.29553868953186e+000,-2.54458354008243e-001

2.14354692507258e+004,-9.29554112433024e+000,-2.58009452089216e-001

2.17346972505211e+004,-9.29554362710889e+000,-2.61610079009729e-001

2.20381023175322e+004,-9.29554619975242e+000,-2.65260924366865e-001

2.23457427614443e+004,-9.29554884419654e+000,-2.68962687310949e-001

2.26576777059159e+004,-9.29555156243012e+000,-2.72716076671427e-001

2.29739670999406e+004,-9.29555435649595e+000,-2.76521811092050e-001

2.32946717293690e+004,-9.29555722849293e+000,-2.80380619161045e-001

2.36198532285905e+004,-9.29556018057642e+000,-2.84293239551958e-001

2.39495740923785e+004,-9.29556321496099e+000,-2.88260421153663e-001

2.42838976879009e+004,-9.29556633392118e+000,-2.92282923213921e-001

2.46228882668982e+004,-9.29556953979306e+000,-2.96361515479956e-001

2.49666109780322e+004,-9.29557283497612e+000,-3.00496978338961e-001

2.53151318794055e+004,-9.29557622193486e+000,-3.04690102962919e-001

2.56685179512580e+004,-9.29557970320062e+000,-3.08941691453604e-001

2.60268371088386e+004,-9.29558328137296e+000,-3.13252556992741e-001

2.63901582154578e+004,-9.29558695912146e+000,-3.17623523991530e-001

2.67585510957221e+004,-9.29559073918800e+000,-3.22055428239175e-001

2.71320865489533e+004,-9.29559462438795e+000,-3.26549117060985e-001

2.75108363627948e+004,-9.29559861761259e+000,-3.31105449469928e-001

2.78948733270080e+004,-9.29560272183096e+000,-3.35725296325682e-001

2.82842712474618e+004,-9.29560694009142e+000,-3.40409540495289e-001

2.86791049603164e+004,-9.29561127552416e+000,-3.45159077012812e-001

2.90794503464061e+004,-9.29561573134305e+000,-3.49974813243282e-001

2.94853843458219e+004,-9.29562031084779e+000,-3.54857669048196e-001

2.98969849726987e+004,-9.29562501742620e+000,-3.59808576952038e-001

3.03143313302078e+004,-9.29562985455609e+000,-3.64828482314437e-001

3.07375036257601e+004,-9.29563482580782e+000,-3.69918343498689e-001

3.11665831864199e+004,-9.29563993484650e+000,-3.75079132047423e-001

3.16016524745350e+004,-9.29564518543440e+000,-3.80311832857368e-001

3.20427951035848e+004,-9.29565058143318e+000,-3.85617444358284e-001

3.24900958542493e+004,-9.29565612680656e+000,-3.90996978691963e-001

3.29436406907028e+004,-9.29566182562260e+000,-3.96451461895667e-001

3.34035167771346e+004,-9.29566768205639e+000,-4.01981934085283e-001

3.38698124945009e+004,-9.29567370039265e+000,-4.07589449643108e-001

3.43426174575100e+004,-9.29567988502838e+000,-4.13275077405677e-001

3.48220225318448e+004,-9.29568624047537e+000,-4.19039900855618e-001

3.53081198516260e+004,-9.29569277136325e+000,-4.24885018314955e-001

3.58010028371187e+004,-9.29569948244210e+000,-4.30811543140019e-001

3.63007662126863e+004,-9.29570637858524e+000,-4.36820603920495e-001

3.68075060249948e+004,-9.29571346479234e+000,-4.42913344678377e-001

3.73213196614721e+004,-9.29572074619232e+000,-4.49090925070581e-001

3.78423058690237e+004,-9.29572822804591e+000,-4.55354520596458e-001

3.83705647730104e+004,-9.29573591574975e+000,-4.61705322799075e-001

3.89061978964912e+004,-9.29574381483820e+000,-4.68144539481661e-001

3.94493081797342e+004,-9.29575193098750e+000,-4.74673394914212e-001

3.99999999999998e+004,-9.29576027001849e+000,-4.81293130050124e-001

4.05583791916010e+004,-9.29576883789985e+000,-4.88005002743607e-001

4.11245530662425e+004,-9.29577764075171e+000,-4.94810287966132e-001

4.16986304336447e+004,-9.29578668484875e+000,-5.01710278029547e-001

4.22807216224550e+004,-9.29579597662337e+000,-5.08706282811944e-001

4.28709385014515e+004,-9.29580552266976e+000,-5.15799629979000e-001

4.34693945010421e+004,-9.29581532974682e+000,-5.22991665217615e-001

4.40762046350642e+004,-9.29582540478183e+000,-5.30283752465140e-001

4.46914855228886e+004,-9.29583575487384e+000,-5.37677274144574e-001

4.53153554118317e+004,-9.29584638729781e+000,-5.45173631397448e-001

4.59479341998812e+004,-9.29585730950763e+000,-5.52774244326507e-001

4.65893434587380e+004,-9.29586852913987e+000,-5.60480552236151e-001

4.72397064571810e+004,-9.29588005401796e+000,-5.68294013872832e-001

4.78991481847569e+004,-9.29589189215511e+000,-5.76216107677626e-001

4.85677953758016e+004,-9.29590405175886e+000,-5.84248332028580e-001

4.92457765337964e+004,-9.29591654123423e+000,-5.92392205496538e-001

4.99332219560642e+004,-9.29592936918763e+000,-6.00649267098357e-001

5.06302637588109e+004,-9.29594254443084e+000,-6.09021076551985e-001

5.13370359025159e+004,-9.29595607598463e+000,-6.17509214536650e-001

5.20536742176771e+004,-9.29596997308260e+000,-6.26115282954428e-001

5.27803164309155e+004,-9.29598424517495e+000,-6.34840905194584e-001

5.35171021914442e+004,-9.29599890193226e+000,-6.43687726400164e-001

5.42641730979066e+004,-9.29601395324932e+000,-6.52657413737407e-001

5.50216727255895e+004,-9.29602940924873e+000,-6.61751656668311e-001

5.57897466540159e+004,-9.29604528028471e+000,-6.70972167225563e-001

5.65685424949235e+004,-9.29606157694691e+000,-6.80320680288169e-001

5.73582099206328e+004,-9.29607831006404e+000,-6.89798953862027e-001

5.81589006928121e+004,-9.29609549070707e+000,-6.99408769364636e-001

5.89707686916437e+004,-9.29611313019327e+000,-7.09151931907124e-001

5.97939699453972e+004,-9.29613124008946e+000,-7.19030270583720e-001

6.06286626604156e+004,-9.29614983221544e+000,-7.29045638761941e-001

6.14750072515201e+004,-9.29616891864742e+000,-7.39199914374542e-001

6.23331663728396e+004,-9.29618851172080e+000,-7.49495000218347e-001

6.32033049490698e+004,-9.29620862403392e+000,-7.59932824248780e-001

6.40855902071694e+004,-9.29622926845046e+000,-7.70515339884232e-001

6.49801917084985e+004,-9.29625045810279e+000,-7.81244526306909e-001

6.58872813814055e+004,-9.29627220639419e+000,-7.92122388772259e-001

6.68070335542691e+004,-9.29629452700172e+000,-8.03150958916392e-001

6.77396249890018e+004,-9.29631743387861e+000,-8.14332295067585e-001

6.86852349150199e+004,-9.29634094125589e+000,-8.25668482564402e-001

6.96440450636895e+004,-9.29636506364514e+000,-8.37161634068277e-001

7.06162397032520e+004,-9.29638981583969e+000,-8.48813889887015e-001

7.16020056742374e+004,-9.29641521291632e+000,-8.60627418296957e-001

7.26015324253724e+004,-9.29644127023623e+000,-8.72604415869896e-001

7.36150120499896e+004,-9.29646800344622e+000,-8.84747107800479e-001

7.46426393229441e+004,-9.29649542847928e+000,-8.97057748238488e-001

7.56846117380472e+004,-9.29652356155481e+000,-9.09538620623585e-001

7.67411295460207e+004,-9.29655241917859e+000,-9.22192038023266e-001

7.78123957929823e+004,-9.29658201814225e+000,-9.35020343473513e-001

7.88986163594682e+004,-9.29661237552270e+000,-9.48025910321504e-001

7.99999999999995e+004,-9.29664350868047e+000,-9.61211142574534e-001

8.11167583832018e+004,-9.29667543525836e+000,-9.74578475248167e-001

8.22491061324848e+004,-9.29670817317898e+000,-9.88130374721202e-001

8.33972608672892e+004,-9.29674174064213e+000,-1.00186933909096e+000

8.45614432449099e+004,-9.29677615612159e+000,-1.01579789853469e+000

8.57418770029029e+004,-9.29681143836106e+000,-1.02991861567277e+000

8.69387890020841e+004,-9.29684760636986e+000,-1.04423408593637e+000

8.81524092701283e+004,-9.29688467941801e+000,-1.05874693793649e+000

8.93829710457770e+004,-9.29692267703002e+000,-1.07345983384231e+000

9.06307108236633e+004,-9.29696161897860e+000,-1.08837546975740e+000

9.18958683997622e+004,-9.29700152527762e+000,-1.10349657610280e+000

9.31786869174758e+004,-9.29704241617362e+000,-1.11882591800547e+000

9.44794129143618e+004,-9.29708431213729e+000,-1.13436629568883e+000

9.57982963695136e+004,-9.29712723385364e+000,-1.15012054486854e+000

9.71355907516031e+004,-9.29717120221119e+000,-1.16609153715452e+000

9.84915530675926e+004,-9.29721623829044e+000,-1.18228218045613e+000

9.98664439121282e+004,-9.29726236335121e+000,-1.19869541939358e+000

1.01260527517622e+005,-9.29730959881906e+000,-1.21533423571304e+000

1.02674071805032e+005,-9.29735796627034e+000,-1.23220164871114e+000

1.04107348435354e+005,-9.29740748741649e+000,-1.24930071566005e+000

1.05560632861831e+005,-9.29745818408662e+000,-1.26663453224513e+000

1.07034204382888e+005,-9.29751007820958e+000,-1.28420623300259e+000

1.08528346195813e+005,-9.29756319179409e+000,-1.30201899176834e+000

1.10043345451179e+005,-9.29761754690782e+000,-1.32007602213319e+000

1.11579493308032e+005,-9.29767316565513e+000,-1.33838057790445e+000

1.13137084989847e+005,-9.29773007015322e+000,-1.35693595357736e+000

1.14716419841265e+005,-9.29778828250725e+000,-1.37574548481087e+000

1.16317801385624e+005,-9.29784782478304e+000,-1.39481254891891e+000

1.17941537383287e+005,-9.29790871897916e+000,-1.41414056536442e+000

1.19587939890794e+005,-9.29797098699691e+000,-1.43373299626655e+000

1.21257325320831e+005,-9.29803465060879e+000,-1.45359334691667e+000

1.22950014503040e+005,-9.29809973142490e+000,-1.47372516630754e+000

1.24666332745679e+005,-9.29816625085842e+000,-1.49413204766940e+000

1.26406609898139e+005,-9.29823423008805e+000,-1.51481762902423e+000

1.28171180414339e+005,-9.29830369001998e+000,-1.53578559374604e+000

1.29960383416997e+005,-9.29837465124704e+000,-1.55703967113843e+000

1.31774562762811e+005,-9.29844713400620e+000,-1.57858363702608e+000

1.33614067108538e+005,-9.29852115813416e+000,-1.60042131435921e+000

1.35479249978003e+005,-9.29859674302116e+000,-1.62255657383386e+000

1.37370469830040e+005,-9.29867390756228e+000,-1.64499333452909e+000

1.39288090127379e+005,-9.29875267010734e+000,-1.66773556456041e+000

1.41232479406504e+005,-9.29883304840818e+000,-1.69078728175184e+000

1.43204011348474e+005,-9.29891505956437e+000,-1.71415255432486e+000

1.45203064850745e+005,-9.29899871996655e+000,-1.73783550160901e+000

1.47230024099979e+005,-9.29908404523761e+000,-1.76184029477235e+000

1.49285278645888e+005,-9.29917105017223e+000,-1.78617115757146e+000

1.51369223476094e+005,-9.29925974867403e+000,-1.81083236712632e+000

1.53482259092041e+005,-9.29935015369054e+000,-1.83582825471742e+000

1.55624791585964e+005,-9.29944227714667e+000,-1.86116320660643e+000

1.57797232718936e+005,-9.29953612987545e+000,-1.88684166488371e+000

1.59999999999999e+005,-9.29963172154745e+000,-1.91286812834145e+000

1.62233516766403e+005,-9.29972906059789e+000,-1.93924715337373e+000

1.64498212264969e+005,-9.29982815415216e+000,-1.96598335490544e+000

1.66794521734578e+005,-9.29992900794902e+000,-1.99308140735199e+000

1.69122886489819e+005,-9.30003162626277e+000,-2.02054604560681e+000

1.71483754005805e+005,-9.30013601182305e+000,-2.04838206606437e+000

1.73877578004168e+005,-9.30024216573358e+000,-2.07659432767170e+000

1.76304818540256e+005,-9.30035008738902e+000,-2.10518775301735e+000

1.78765942091554e+005,-9.30045977439087e+000,-2.13416732945314e+000

1.81261421647326e+005,-9.30057122246165e+000,-2.16353811025234e+000

1.83791736799524e+005,-9.30068442535827e+000,-2.19330521580534e+000

1.86357373834951e+005,-9.30079937478430e+000,-2.22347383485214e+000

1.88958825828723e+005,-9.30091606030129e+000,-2.25404922575504e+000

1.91596592739027e+005,-9.30103446923971e+000,-2.28503671780879e+000

1.94271181503206e+005,-9.30115458660889e+000,-2.31644171259466e+000

1.96983106135185e+005,-9.30127639500722e+000,-2.34826968537237e+000

1.99732887824256e+005,-9.30139987453137e+000,-2.38052618651805e+000

2.02521055035243e+005,-9.30152500268660e+000,-2.41321684300045e+000

2.05348143610063e+005,-9.30165175429639e+000,-2.44634735990526e+000

2.08214696870707e+005,-9.30178010141307e+000,-2.47992352200061e+000

2.11121265723661e+005,-9.30191001322887e+000,-2.51395119534779e+000

2.14068408765776e+005,-9.30204145598819e+000,-2.54843632895707e+000

2.17056692391625e+005,-9.30217439290058e+000,-2.58338495648933e+000

2.20086690902357e+005,-9.30230878405560e+000,-2.61880319800179e+000

2.23158986616063e+005,-9.30244458633899e+000,-2.65469726174005e+000

2.26274169979693e+005,-9.30258175335097e+000,-2.69107344597521e+000

2.29432839682530e+005,-9.30272023532642e+000,-2.72793814088762e+000

2.32635602771247e+005,-9.30285997905769e+000,-2.76529783049338e+000

2.35883074766574e+005,-9.30300092782014e+000,-2.80315909461762e+000

2.39175879781588e+005,-9.30314302130026e+000,-2.84152861091130e+000

2.42514650641661e+005,-9.30328619552732e+000,-2.88041315691134e+000

2.45900029006080e+005,-9.30343038280816e+000,-2.91981961214402e+000

2.49332665491357e+005,-9.30357551166586e+000,-2.95975496027015e+000

2.52813219796278e+005,-9.30372150678204e+000,-3.00022629127175e+000

2.56342360828676e+005,-9.30386828894362e+000,-3.04124080367696e+000

2.59920766833993e+005,-9.30401577499349e+000,-3.08280580682589e+000

2.63549125525621e+005,-9.30416387778600e+000,-3.12492872317188e+000

2.67228134217075e+005,-9.30431250614711e+000,-3.16761709061890e+000

2.70958499956006e+005,-9.30446156483931e+000,-3.21087856489315e+000

2.74740939660078e+005,-9.30461095453154e+000,-3.25472092194758e+000

2.78576180254757e+005,-9.30476057177459e+000,-3.29915206039477e+000

2.82464958813007e+005,-9.30491030898131e+000,-3.34418000397157e+000

2.86408022696948e+005,-9.30506005441252e+000,-3.38981290402698e+000

2.90406129701488e+005,-9.30520969216825e+000,-3.43605904203675e+000

2.94460048199957e+005,-9.30535910218420e+000,-3.48292683214000e+000

2.98570557291775e+005,-9.30550816023430e+000,-3.53042482369381e+000

3.02738446952187e+005,-9.30565673793788e+000,-3.57856170384852e+000

3.06964518184081e+005,-9.30580470277293e+000,-3.62734630013676e+000

3.11249583171928e+005,-9.30595191809437e+000,-3.67678758307588e+000

3.15594465437872e+005,-9.30609824315775e+000,-3.72689466878165e+000

3.19999999999997e+005,-9.30624353314775e+000,-3.77767682159013e+000

3.24467033532806e+005,-9.30638763921198e+000,-3.82914345668588e+000

3.28996424529938e+005,-9.30653040849910e+000,-3.88130414273597e+000

3.33589043469155e+005,-9.30667168420213e+000,-3.93416860452151e+000

3.38245772979638e+005,-9.30681130560486e+000,-3.98774672557580e+000

3.42967508011610e+005,-9.30694910813358e+000,-4.04204855081362e+000

3.47755156008335e+005,-9.30708492341154e+000,-4.09708428916105e+000

3.52609637080511e+005,-9.30721857931677e+000,-4.15286431617828e+000

3.57531884183106e+005,-9.30734990004339e+000,-4.20939917667480e+000

3.62522843294651e+005,-9.30747870616487e+000,-4.26669958731597e+000

3.67583473599047e+005,-9.30760481469954e+000,-4.32477643922068e+000

3.72714747669902e+005,-9.30772803917811e+000,-4.38364080054623e+000

3.77917651657445e+005,-9.30784818971183e+000,-4.44330391906264e+000

3.83193185478053e+005,-9.30796507306186e+000,-4.50377722471407e+000

3.88542363006410e+005,-9.30807849270856e+000,-4.56507233216638e+000

3.93966212270369e+005,-9.30818824892068e+000,-4.62720104334263e+000

3.99465775648511e+005,-9.30829413882359e+000,-4.69017534994419e+000

4.05042110070485e+005,-9.30839595646632e+000,-4.75400743595875e+000

4.10696287220124e+005,-9.30849349288663e+000,-4.81870968015647e+000

4.16429393741414e+005,-9.30858653617363e+000,-4.88429465857363e+000

4.22242531447321e+005,-9.30867487152764e+000,-4.95077514698436e+000

4.28136817531551e+005,-9.30875828131628e+000,-5.01816412336511e+000

4.34113384783250e+005,-9.30883654512692e+000,-5.08647477034687e+000

4.40173381804713e+005,-9.30890943981415e+000,-5.15572047766442e+000

4.46317973232124e+005,-9.30897673954257e+000,-5.22591484459802e+000

4.52548339959385e+005,-9.30903821582373e+000,-5.29707168241388e+000

4.58865679365059e+005,-9.30909363754734e+000,-5.36920501680278e+000

4.65271205542494e+005,-9.30914277100566e+000,-5.44232909032216e+000

4.71766149533147e+005,-9.30918537991121e+000,-5.51645836484203e+000

4.78351759563174e+005,-9.30922122540661e+000,-5.59160752399932e+000

4.85029301283321e+005,-9.30925006606735e+000,-5.66779147566215e+000

4.91800058012158e+005,-9.30927165789569e+000,-5.74502535440882e+000

4.98665330982714e+005,-9.30928575430642e+000,-5.82332452402390e+000

5.05626439592555e+005,-9.30929210610349e+000,-5.90270458001570e+000

5.12684721657352e+005,-9.30929046144766e+000,-5.98318135215766e+000

5.19841533667984e+005,-9.30928056581469e+000,-6.06477090705810e+000

5.27098251051240e+005,-9.30926216194337e+000,-6.14748955076344e+000

5.34456268434150e+005,-9.30923498977446e+000,-6.23135383139495e+000

5.41916999912011e+005,-9.30919878637864e+000,-6.31638054182788e+000

