Freq.,VOut,OutRef

1.00000000000000e+004,-9.16486809274309e-001,-1.51086653082751e-001

1.01395947979003e+004,-9.16486755815123e-001,-1.53195744520763e-001

1.02811382665607e+004,-9.16486700852960e-001,-1.55334277793184e-001

1.04246576084112e+004,-9.16486644345667e-001,-1.57502663893100e-001

1.05701804056138e+004,-9.16486586249643e-001,-1.59701319551730e-001

1.07177346253629e+004,-9.16486526520319e-001,-1.61930667316640e-001

1.08673486252606e+004,-9.16486465111739e-001,-1.64191135634833e-001

1.10190511587661e+004,-9.16486401976681e-001,-1.66483158933453e-001

1.11728713807222e+004,-9.16486337066634e-001,-1.68807177704596e-001

1.13288388529580e+004,-9.16486270331665e-001,-1.71163638589044e-001

1.14869835499703e+004,-9.16486201720633e-001,-1.73552994462053e-001

1.16473358646846e+004,-9.16486131180489e-001,-1.75975704523181e-001

1.18099266142953e+004,-9.16486058657225e-001,-1.78432234378889e-001

1.19747870461893e+004,-9.16485984094994e-001,-1.80923056137882e-001

1.21419488439505e+004,-9.16485907436516e-001,-1.83448648497352e-001

1.23114441334492e+004,-9.16485828622738e-001,-1.86009496839284e-001

1.24833054890161e+004,-9.16485747593282e-001,-1.88606093318294e-001

1.26575659397028e+004,-9.16485664285646e-001,-1.91238936962133e-001

1.28342589756290e+004,-9.16485578635850e-001,-1.93908533763262e-001

1.30134185544193e+004,-9.16485490578152e-001,-1.96615396777419e-001

1.31950791077289e+004,-9.16485400044657e-001,-1.99360046223681e-001

1.33792755478611e+004,-9.16485306965937e-001,-2.02143009581431e-001

1.35660432744767e+004,-9.16485211270315e-001,-2.04964821695107e-001

1.37554181813974e+004,-9.16485112884256e-001,-2.07826024874294e-001

1.39474366635040e+004,-9.16485011732120e-001,-2.10727168999519e-001

1.41421356237309e+004,-9.16484907736235e-001,-2.13668811626429e-001

1.43395524801583e+004,-9.16484800816408e-001,-2.16651518096195e-001

1.45397251732031e+004,-9.16484690890579e-001,-2.19675861639556e-001

1.47426921729110e+004,-9.16484577874359e-001,-2.22742423489581e-001

1.49484924863494e+004,-9.16484461680532e-001,-2.25851792995742e-001

1.51571656651040e+004,-9.16484342220098e-001,-2.29004567730416e-001

1.53687518128801e+004,-9.16484219401038e-001,-2.32201353611304e-001

1.55832915932100e+004,-9.16484093129009e-001,-2.35442765012695e-001

1.58008262372675e+004,-9.16483963306801e-001,-2.38729424886563e-001

1.60213975517924e+004,-9.16483829834659e-001,-2.42061964880235e-001

1.62450479271247e+004,-9.16483692609999e-001,-2.45441025458288e-001

1.64718203453514e+004,-9.16483551527348e-001,-2.48867256026698e-001

1.67017583885674e+004,-9.16483406478054e-001,-2.52341315057099e-001

1.69349062472505e+004,-9.16483257350758e-001,-2.55863870212283e-001

1.71713087287550e+004,-9.16483104030825e-001,-2.59435598475217e-001

1.74110112659224e+004,-9.16482946400268e-001,-2.63057186280993e-001

1.76540599258131e+004,-9.16482784337900e-001,-2.66729329645781e-001

1.79005014185594e+004,-9.16482617719247e-001,-2.70452734301099e-001

1.81503831063432e+004,-9.16482446415976e-001,-2.74228115832972e-001

1.84037530124975e+004,-9.16482270296640e-001,-2.78056199813530e-001

1.86606598307361e+004,-9.16482089225604e-001,-2.81937721946431e-001

1.89211529345119e+004,-9.16481903063727e-001,-2.85873428203996e-001

1.91852823865052e+004,-9.16481711667841e-001,-2.89864074972618e-001

1.94530989482457e+004,-9.16481514890886e-001,-2.93910429196830e-001

1.97246540898671e+004,-9.16481312581506e-001,-2.98013268528584e-001

1.99999999999999e+004,-9.16481104584119e-001,-3.02173381475042e-001

2.02791895958005e+004,-9.16480890738836e-001,-3.06391567550917e-001

2.05622765331213e+004,-9.16480670881157e-001,-3.10668637431981e-001

2.08493152168224e+004,-9.16480444842119e-001,-3.15005413110441e-001

2.11403608112276e+004,-9.16480212447899e-001,-3.19402728053594e-001

2.14354692507258e+004,-9.16479973519721e-001,-3.23861427364265e-001

2.17346972505211e+004,-9.16479727874044e-001,-3.28382367941225e-001

2.20381023175322e+004,-9.16479475321855e-001,-3.32966418646836e-001

2.23457427614443e+004,-9.16479215668991e-001,-3.37614460472087e-001

2.26576777059159e+004,-9.16478948715783e-001,-3.42327386706444e-001

2.29739670999406e+004,-9.16478674257011e-001,-3.47106103108997e-001

2.32946717293690e+004,-9.16478392081655e-001,-3.51951528083451e-001

2.36198532285905e+004,-9.16478101972557e-001,-3.56864592855418e-001

2.39495740923785e+004,-9.16477803706866e-001,-3.61846241647885e-001

2.42838976879009e+004,-9.16477497055132e-001,-3.66897431866796e-001

2.46228882668982e+004,-9.16477181781586e-001,-3.72019134282694e-001

2.49666109780322e+004,-9.16476857643738e-001,-3.77212333218532e-001

2.53151318794055e+004,-9.16476524392367e-001,-3.82478026737396e-001

2.56685179512580e+004,-9.16476181771222e-001,-3.87817226835921e-001

2.60268371088386e+004,-9.16475829516929e-001,-3.93230959636926e-001

2.63901582154578e+004,-9.16475467358434e-001,-3.98720265589996e-001

2.67585510957221e+004,-9.16475095017377e-001,-4.04286199667334e-001

2.71320865489533e+004,-9.16474712207349e-001,-4.09929831569163e-001

2.75108363627948e+004,-9.16474318634050e-001,-4.15652245928698e-001

2.78948733270080e+004,-9.16473913994745e-001,-4.21454542520702e-001

2.82842712474618e+004,-9.16473497978353e-001,-4.27337836472154e-001

2.86791049603164e+004,-9.16473070264847e-001,-4.33303258478155e-001

2.90794503464061e+004,-9.16472630525406e-001,-4.39351955017146e-001

2.94853843458219e+004,-9.16472178421801e-001,-4.45485088573320e-001

2.98969849726987e+004,-9.16471713606341e-001,-4.51703837858987e-001

3.03143313302078e+004,-9.16471235721598e-001,-4.58009398040844e-001

3.07375036257601e+004,-9.16470744400080e-001,-4.64402980970563e-001

3.11665831864199e+004,-9.16470239263886e-001,-4.70885815417821e-001

3.16016524745350e+004,-9.16469719924596e-001,-4.77459147304688e-001

3.20427951035848e+004,-9.16469185982697e-001,-4.84124239948050e-001

3.24900958542493e+004,-9.16468637027585e-001,-4.90882374299950e-001

3.29436406907028e+004,-9.16468072637145e-001,-4.97734849194282e-001

3.34035167771346e+004,-9.16467492377265e-001,-5.04682981597732e-001

3.38698124945009e+004,-9.16466895801627e-001,-5.11728106861802e-001

3.43426174575100e+004,-9.16466282451442e-001,-5.18871578979647e-001

3.48220225318448e+004,-9.16465651854953e-001,-5.26114770846206e-001

3.53081198516260e+004,-9.16465003527158e-001,-5.33459074523212e-001

3.58010028371187e+004,-9.16464336969362e-001,-5.40905901505222e-001

3.63007662126863e+004,-9.16463651668919e-001,-5.48456682991611e-001

3.68075060249948e+004,-9.16462947098729e-001,-5.56112870162169e-001

3.73213196614721e+004,-9.16462222716896e-001,-5.63875934455061e-001

3.78423058690237e+004,-9.16461477966122e-001,-5.71747367851225e-001

3.83705647730104e+004,-9.16460712273671e-001,-5.79728683159051e-001

3.89061978964912e+004,-9.16459925050498e-001,-5.87821414307201e-001

3.94493081797342e+004,-9.16459115691083e-001,-5.96027116638308e-001

3.99999999999998e+004,-9.16458283572850e-001,-6.04347367208224e-001

4.05583791916010e+004,-9.16457428055714e-001,-6.12783765089384e-001

4.11245530662425e+004,-9.16456548481545e-001,-6.21337931678209e-001

4.16986304336447e+004,-9.16455644173671e-001,-6.30011511006775e-001

4.22807216224550e+004,-9.16454714436586e-001,-6.38806170057903e-001

4.28709385014515e+004,-9.16453758554911e-001,-6.47723599088024e-001

4.34693945010421e+004,-9.16452775793297e-001,-6.56765511949416e-001

4.40762046350642e+004,-9.16451765395792e-001,-6.65933646421031e-001

4.46914855228886e+004,-9.16450726584942e-001,-6.75229764543284e-001

4.53153554118317e+004,-9.16449658561570e-001,-6.84655652955561e-001

4.59479341998812e+004,-9.16448560504016e-001,-6.94213123239246e-001

4.65893434587380e+004,-9.16447431567469e-001,-7.03904012268094e-001

4.72397064571810e+004,-9.16446270883302e-001,-7.13730182559488e-001

4.78991481847569e+004,-9.16445077558551e-001,-7.23693522633441e-001

4.85677953758016e+004,-9.16443850674872e-001,-7.33795947376198e-001

4.92457765337964e+004,-9.16442589288405e-001,-7.44039398406270e-001

4.99332219560642e+004,-9.16441292428475e-001,-7.54425844450455e-001

5.06302637588109e+004,-9.16439959097249e-001,-7.64957281719946e-001

5.13370359025159e+004,-9.16438588268681e-001,-7.75635734296217e-001

5.20536742176771e+004,-9.16437178887875e-001,-7.86463254519067e-001

5.27803164309155e+004,-9.16435729870389e-001,-7.97441923380946e-001

5.35171021914442e+004,-9.16434240101017e-001,-8.08573850928126e-001

5.42641730979066e+004,-9.16432708433291e-001,-8.19861176665836e-001

5.50216727255895e+004,-9.16431133688431e-001,-8.31306069969784e-001

5.57897466540159e+004,-9.16429514654564e-001,-8.42910730502712e-001

5.65685424949235e+004,-9.16427850085513e-001,-8.54677388638851e-001

5.73582099206328e+004,-9.16426138700239e-001,-8.66608305890881e-001

5.81589006928121e+004,-9.16424379181489e-001,-8.78705775346588e-001

5.89707686916437e+004,-9.16422570174907e-001,-8.90972122108853e-001

5.97939699453972e+004,-9.16420710288092e-001,-9.03409703743161e-001

6.06286626604156e+004,-9.16418798089387e-001,-9.16020910730355e-001

6.14750072515201e+004,-9.16416832106822e-001,-9.28808166927561e-001

6.23331663728396e+004,-9.16414810826972e-001,-9.41773930033248e-001

6.32033049490698e+004,-9.16412732693889e-001,-9.54920692059912e-001

6.40855902071694e+004,-9.16410596107608e-001,-9.68250979814707e-001

6.49801917084985e+004,-9.16408399423243e-001,-9.81767355383885e-001

6.58872813814055e+004,-9.16406140949625e-001,-9.95472416625795e-001

6.68070335542691e+004,-9.16403818947790e-001,-1.00936879767205e+000

6.77396249890018e+004,-9.16401431629950e-001,-1.02345916943188e+000

6.86852349150199e+004,-9.16398977157824e-001,-1.03774624010813e+000

6.96440450636895e+004,-9.16396453641499e-001,-1.05223275571623e+000

7.06162397032520e+004,-9.16393859137718e-001,-1.06692150061394e+000

7.16020056742374e+004,-9.16391191648489e-001,-1.08181529803636e+000

7.26015324253724e+004,-9.16388449119535e-001,-1.09691701063870e+000

7.36150120499896e+004,-9.16385629438766e-001,-1.11222954104801e+000

7.46426393229441e+004,-9.16382730434460e-001,-1.12775583242039e+000

7.56846117380472e+004,-9.16379749873825e-001,-1.14349886900785e+000

7.67411295460207e+004,-9.16376685461127e-001,-1.15946167673272e+000

7.78123957929823e+004,-9.16373534835910e-001,-1.17564732376913e+000

7.88986163594682e+004,-9.16370295571216e-001,-1.19205892113437e+000

7.99999999999995e+004,-9.16366965171652e-001,-1.20869962328663e+000

8.11167583832018e+004,-9.16363541071587e-001,-1.22557262873191e+000

8.22491061324848e+004,-9.16360020633014e-001,-1.24268118064027e+000

8.33972608672892e+004,-9.16356401143623e-001,-1.26002856746956e+000

8.45614432449099e+004,-9.16352679814594e-001,-1.27761812359831e+000

8.57418770029029e+004,-9.16348853778492e-001,-1.29545322996750e+000

8.69387890020841e+004,-9.16344920087193e-001,-1.31353731473079e+000

8.81524092701283e+004,-9.16340875709300e-001,-1.33187385391503e+000

8.93829710457770e+004,-9.16336717528022e-001,-1.35046637208917e+000

9.06307108236633e+004,-9.16332442338747e-001,-1.36931844304230e+000

9.18958683997622e+004,-9.16328046846360e-001,-1.38843369047251e+000

9.31786869174758e+004,-9.16323527663113e-001,-1.40781578868293e+000

9.44794129143618e+004,-9.16318881305422e-001,-1.42746846329111e+000

9.57982963695136e+004,-9.16314104191651e-001,-1.44739549194483e+000

9.71355907516031e+004,-9.16309192639238e-001,-1.46760070504925e+000

9.84915530675926e+004,-9.16304142861572e-001,-1.48808798650649e+000

9.98664439121282e+004,-9.16298950965401e-001,-1.50886127446134e+000

1.01260527517622e+005,-9.16293612947652e-001,-1.52992456206051e+000

1.02674071805032e+005,-9.16288124692318e-001,-1.55128189822197e+000

1.04107348435354e+005,-9.16282481967317e-001,-1.57293738841409e+000

1.05560632861831e+005,-9.16276680421264e-001,-1.59489519544714e+000

1.07034204382888e+005,-9.16270715579933e-001,-1.61715954027477e+000

1.08528346195813e+005,-9.16264582842935e-001,-1.63973470280715e+000

1.10043345451179e+005,-9.16258277480217e-001,-1.66262502273543e+000

1.11579493308032e+005,-9.16251794628072e-001,-1.68583490036861e+000

1.13137084989847e+005,-9.16245129285817e-001,-1.70936879748012e+000

1.14716419841265e+005,-9.16238276311528e-001,-1.73323123816895e+000

1.16317801385624e+005,-9.16231230418388e-001,-1.75742680973032e+000

1.17941537383287e+005,-9.16223986170282e-001,-1.78196016354108e+000

1.19587939890794e+005,-9.16216537977782e-001,-1.80683601595557e+000

1.21257325320831e+005,-9.16208880093782e-001,-1.83205914921440e+000

1.22950014503040e+005,-9.16201006609004e-001,-1.85763441236728e+000

1.24666332745679e+005,-9.16192911447496e-001,-1.88356672220764e+000

1.26406609898139e+005,-9.16184588361816e-001,-1.90986106422025e+000

1.28171180414339e+005,-9.16176030928289e-001,-1.93652249354370e+000

1.29960383416997e+005,-9.16167232542042e-001,-1.96355613594405e+000

1.31774562762811e+005,-9.16158186411724e-001,-1.99096718880520e+000

1.33614067108538e+005,-9.16148885554513e-001,-2.01876092212971e+000

1.35479249978003e+005,-9.16139322790530e-001,-2.04694267955694e+000

1.37370469830040e+005,-9.16129490737280e-001,-2.07551787939365e+000

1.39288090127379e+005,-9.16119381804036e-001,-2.10449201565962e+000

1.41232479406504e+005,-9.16108988185887e-001,-2.13387065914818e+000

1.43204011348474e+005,-9.16098301857771e-001,-2.16365945850145e+000

1.45203064850745e+005,-9.16087314568203e-001,-2.19386414130088e+000

1.47230024099979e+005,-9.16076017832912e-001,-2.22449051517336e+000

1.49285278645888e+005,-9.16064402928336e-001,-2.25554446891260e+000

1.51369223476094e+005,-9.16052460884818e-001,-2.28703197361610e+000

1.53482259092041e+005,-9.16040182479655e-001,-2.31895908384007e+000

1.55624791585964e+005,-9.16027558230154e-001,-2.35133193876700e+000

1.57797232718936e+005,-9.16014578386041e-001,-2.38415676339386e+000

1.59999999999999e+005,-9.16001232922150e-001,-2.41743986973432e+000

1.62233516766403e+005,-9.15987511530694e-001,-2.45118765803881e+000

1.64498212264969e+005,-9.15973403613050e-001,-2.48540661803247e+000

1.66794521734578e+005,-9.15958898271948e-001,-2.52010333016953e+000

1.69122886489819e+005,-9.15943984302830e-001,-2.55528446690613e+000

1.71483754005805e+005,-9.15928650185344e-001,-2.59095679399129e+000

1.73877578004168e+005,-9.15912884074477e-001,-2.62712717177538e+000

1.76304818540256e+005,-9.15896673791246e-001,-2.66380255653862e+000

1.78765942091554e+005,-9.15880006813669e-001,-2.70099000183663e+000

1.81261421647326e+005,-9.15862870266889e-001,-2.73869665986639e+000

1.83791736799524e+005,-9.15845250913371e-001,-2.77692978285131e+000

1.86357373834951e+005,-9.15827135142638e-001,-2.81569672444581e+000

1.88958825828723e+005,-9.15808508961056e-001,-2.85500494115974e+000

1.91596592739027e+005,-9.15789357980910e-001,-2.89486199380319e+000

1.94271181503206e+005,-9.15769667409430e-001,-2.93527554895253e+000

1.96983106135185e+005,-9.15749422037487e-001,-2.97625338043591e+000

1.99732887824256e+005,-9.15728606227900e-001,-3.01780337084123e+000

2.02521055035243e+005,-9.15707203903632e-001,-3.05993351304501e+000

2.05348143610063e+005,-9.15685198535265e-001,-3.10265191176308e+000

2.08214696870707e+005,-9.15662573128560e-001,-3.14596678512362e+000

2.11121265723661e+005,-9.15639310211422e-001,-3.18988646626212e+000

2.14068408765776e+005,-9.15615391820622e-001,-3.23441940494008e+000

2.17056692391625e+005,-9.15590799488047e-001,-3.27957416918568e+000

2.20086690902357e+005,-9.15565514226692e-001,-3.32535944695904e+000

2.23158986616063e+005,-9.15539516516205e-001,-3.37178404784019e+000

2.26274169979693e+005,-9.15512786288056e-001,-3.41885690474227e+000

2.29432839682530e+005,-9.15485302910266e-001,-3.46658707564853e+000

2.32635602771247e+005,-9.15457045171815e-001,-3.51498374537457e+000

2.35883074766574e+005,-9.15427991266497e-001,-3.56405622735567e+000

2.39175879781588e+005,-9.15398118776437e-001,-3.61381396546000e+000

2.42514650641661e+005,-9.15367404655128e-001,-3.66426653582768e+000

2.45900029006080e+005,-9.15335825210040e-001,-3.71542364873624e+000

2.49332665491357e+005,-9.15303356084665e-001,-3.76729515049315e+000

2.52813219796278e+005,-9.15269972240118e-001,-3.81989102535535e+000

2.56342360828676e+005,-9.15235647936377e-001,-3.87322139747658e+000

2.59920766833993e+005,-9.15200356712756e-001,-3.92729653288268e+000

2.63549125525621e+005,-9.15164071368128e-001,-3.98212684147556e+000

2.67228134217075e+005,-9.15126763940335e-001,-4.03772287906570e+000

2.70958499956006e+005,-9.15088405685306e-001,-4.09409534943441e+000

2.74740939660078e+005,-9.15048967055428e-001,-4.15125510642612e+000

2.78576180254757e+005,-9.15008417677431e-001,-4.20921315606976e+000

2.82464958813007e+005,-9.14966726329572e-001,-4.26798065873300e+000

2.86408022696948e+005,-9.14923860918343e-001,-4.32756893130533e+000

2.90406129701488e+005,-9.14879788454496e-001,-4.38798944941455e+000

2.94460048199957e+005,-9.14834475028399e-001,-4.44925384967447e+000

2.98570557291775e+005,-9.14787885784654e-001,-4.51137393196635e+000

3.02738446952187e+005,-9.14739984896221e-001,-4.57436166175229e+000

3.06964518184081e+005,-9.14690735537828e-001,-4.63822917242286e+000

3.11249583171928e+005,-9.14640099858320e-001,-4.70298876767994e+000

3.15594465437872e+005,-9.14588038952832e-001,-4.76865292395217e+000

3.19999999999997e+005,-9.14534512833675e-001,-4.83523429284840e+000

3.24467033532806e+005,-9.14479480400863e-001,-4.90274570364461e+000

3.28996424529938e+005,-9.14422899411683e-001,-4.97120016580857e+000

3.33589043469155e+005,-9.14364726449207e-001,-5.04061087156203e+000

3.38245772979638e+005,-9.14304916890473e-001,-5.11099119847896e+000

3.42967508011610e+005,-9.14243424873381e-001,-5.18235471212336e+000

3.47755156008335e+005,-9.14180203263022e-001,-5.25471516872529e+000

3.52609637080511e+005,-9.14115203616695e-001,-5.32808651789688e+000

3.57531884183106e+005,-9.14048376148565e-001,-5.40248290538772e+000

3.62522843294651e+005,-9.13979669692801e-001,-5.47791867588220e+000

3.67583473599047e+005,-9.13909031666237e-001,-5.55440837583643e+000

3.72714747669902e+005,-9.13836408029580e-001,-5.63196675635964e+000

3.77917651657445e+005,-9.13761743248032e-001,-5.71060877613632e+000

3.83193185478053e+005,-9.13684980250479e-001,-5.79034960439318e+000

3.88542363006410e+005,-9.13606060387909e-001,-5.87120462390978e+000

3.93966212270369e+005,-9.13524923390531e-001,-5.95318943407423e+000

3.99465775648511e+005,-9.13441507323927e-001,-6.03631985398479e+000

4.05042110070485e+005,-9.13355748543766e-001,-6.12061192559790e+000

4.10696287220124e+005,-9.13267581649743e-001,-6.20608191692353e+000

4.16429393741414e+005,-9.13176939438019e-001,-6.29274632526828e+000

4.22242531447321e+005,-9.13083752852379e-001,-6.38062188052817e+000

4.28136817531551e+005,-9.12987950934439e-001,-6.46972554853031e+000

4.34113384783250e+005,-9.12889460772104e-001,-6.56007453442598e+000

4.40173381804713e+005,-9.12788207447089e-001,-6.65168628613440e+000

4.46317973232124e+005,-9.12684113980923e-001,-6.74457849783952e+000

4.52548339959385e+005,-9.12577101279380e-001,-6.83876911354000e+000

4.58865679365059e+005,-9.12467088075856e-001,-6.93427633065296e+000

4.65271205542494e+005,-9.12353990873005e-001,-7.03111860367341e+000

4.71766149533147e+005,-9.12237723882834e-001,-7.12931464788986e+000

4.78351759563174e+005,-9.12118198965629e-001,-7.22888344315641e+000

4.85029301283321e+005,-9.11995325566826e-001,-7.32984423772388e+000

4.91800058012158e+005,-9.11869010652724e-001,-7.43221655212967e+000

4.98665330982714e+005,-9.11739158644320e-001,-7.53602018314786e+000

5.05626439592555e+005,-9.11605671349448e-001,-7.64127520780130e+000

5.12684721657352e+005,-9.11468447893508e-001,-7.74800198743470e+000

5.19841533667984e+005,-9.11327384648121e-001,-7.85622117185356e+000

5.27098251051240e+005,-9.11182375158104e-001,-7.96595370352607e+000

5.34456268434150e+005,-9.11033310066752e-001,-8.07722082185155e+000

5.41916999912011e+005,-9.10880077039209e-001,-8.19004406749670e+000

