Freq.,VOut,OutRef

1.00000000000000e+004,-2.40479365098847e+001,-5.73180667616604e-001

1.01395947979003e+004,-2.40479428945923e+001,-5.81181459103509e-001

1.02811382665607e+004,-2.40479494587025e+001,-5.89293915731086e-001

1.04246576084112e+004,-2.40479562072535e+001,-5.97519595364945e-001

1.05701804056138e+004,-2.40479631454250e+001,-6.05860077577012e-001

1.07177346253629e+004,-2.40479702785415e+001,-6.14316963950975e-001

1.08673486252606e+004,-2.40479776120776e+001,-6.22891878382363e-001

1.10190511587661e+004,-2.40479851516607e+001,-6.31586467393206e-001

1.11728713807222e+004,-2.40479929030766e+001,-6.40402400443259e-001

1.13288388529580e+004,-2.40480008722729e+001,-6.49341370249438e-001

1.14869835499703e+004,-2.40480090653644e+001,-6.58405093107340e-001

1.16473358646846e+004,-2.40480174886370e+001,-6.67595309218962e-001

1.18099266142953e+004,-2.40480261485530e+001,-6.76913783024920e-001

1.19747870461893e+004,-2.40480350517558e+001,-6.86362303538975e-001

1.21419488439505e+004,-2.40480442050752e+001,-6.95942684690048e-001

1.23114441334492e+004,-2.40480536155321e+001,-7.05656765666756e-001

1.24833054890161e+004,-2.40480632903447e+001,-7.15506411266606e-001

1.26575659397028e+004,-2.40480732369329e+001,-7.25493512253399e-001

1.28342589756290e+004,-2.40480834629248e+001,-7.35619985714618e-001

1.30134185544193e+004,-2.40480939761626e+001,-7.45887775425187e-001

1.31950791077289e+004,-2.40481047847074e+001,-7.56298852220882e-001

1.33792755478611e+004,-2.40481158968470e+001,-7.66855214367916e-001

1.35660432744767e+004,-2.40481273211007e+001,-7.77558887946269e-001

1.37554181813974e+004,-2.40481390662267e+001,-7.88411927232735e-001

1.39474366635040e+004,-2.40481511412287e+001,-7.99416415090839e-001

1.41421356237309e+004,-2.40481635553622e+001,-8.10574463367114e-001

1.43395524801583e+004,-2.40481763181417e+001,-8.21888213291833e-001

1.45397251732031e+004,-2.40481894393488e+001,-8.33359835882846e-001

1.47426921729110e+004,-2.40482029290381e+001,-8.44991532360009e-001

1.49484924863494e+004,-2.40482167975461e+001,-8.56785534560462e-001

1.51571656651040e+004,-2.40482310554984e+001,-8.68744105363177e-001

1.53687518128801e+004,-2.40482457138183e+001,-8.80869539114057e-001

1.55832915932100e+004,-2.40482607837343e+001,-8.93164162064319e-001

1.58008262372675e+004,-2.40482762767891e+001,-9.05630332808168e-001

1.60213975517924e+004,-2.40482922048484e+001,-9.18270442729238e-001

1.62450479271247e+004,-2.40483085801098e+001,-9.31086916452712e-001

1.64718203453514e+004,-2.40483254151119e+001,-9.44082212303818e-001

1.67017583885674e+004,-2.40483427227440e+001,-9.57258822770601e-001

1.69349062472505e+004,-2.40483605162555e+001,-9.70619274976940e-001

1.71713087287550e+004,-2.40483788092663e+001,-9.84166131157589e-001

1.74110112659224e+004,-2.40483976157769e+001,-9.97901989140722e-001

1.76540599258131e+004,-2.40484169501792e+001,-1.01182948283864e+000

1.79005014185594e+004,-2.40484368272668e+001,-1.02595128274478e+000

1.81503831063432e+004,-2.40484572622467e+001,-1.04027009643427e+000

1.84037530124975e+004,-2.40484782707507e+001,-1.05478866907477e+000

1.86606598307361e+004,-2.40484998688469e+001,-1.06950978394252e+000

1.89211529345119e+004,-2.40485220730521e+001,-1.08443626294425e+000

1.91852823865052e+004,-2.40485449003440e+001,-1.09957096714978e+000

1.94530989482457e+004,-2.40485683681742e+001,-1.11491679732544e+000

1.97246540898671e+004,-2.40485924944811e+001,-1.13047669448132e+000

1.99999999999999e+004,-2.40486172977034e+001,-1.14625364042035e+000

2.02791895958005e+004,-2.40486427967942e+001,-1.16225065829866e+000

2.05622765331213e+004,-2.40486690112349e+001,-1.17847081318912e+000

2.08493152168224e+004,-2.40486959610501e+001,-1.19491721265702e+000

2.11403608112276e+004,-2.40487236668223e+001,-1.21159300733906e+000

2.14354692507258e+004,-2.40487521497074e+001,-1.22850139153274e+000

2.17346972505211e+004,-2.40487814314507e+001,-1.24564560379192e+000

2.20381023175322e+004,-2.40488115344033e+001,-1.26302892753055e+000

2.23457427614443e+004,-2.40488424815380e+001,-1.28065469163501e+000

2.26576777059159e+004,-2.40488742964675e+001,-1.29852627108299e+000

2.29739670999406e+004,-2.40489070034611e+001,-1.31664708757176e+000

2.32946717293690e+004,-2.40489406274634e+001,-1.33502061015308e+000

2.36198532285905e+004,-2.40489751941127e+001,-1.35365035587781e+000

2.39495740923785e+004,-2.40490107297600e+001,-1.37253989044805e+000

2.42838976879009e+004,-2.40490472614885e+001,-1.39169282887707e+000

2.46228882668982e+004,-2.40490848171340e+001,-1.41111283615948e+000

2.49666109780322e+004,-2.40491234253051e+001,-1.43080362794829e+000

2.53151318794055e+004,-2.40491631154050e+001,-1.45076897124032e+000

2.56685179512580e+004,-2.40492039176528e+001,-1.47101268507231e+000

2.60268371088386e+004,-2.40492458631059e+001,-1.49153864122422e+000

2.63901582154578e+004,-2.40492889836831e+001,-1.51235076493223e+000

2.67585510957221e+004,-2.40493333121881e+001,-1.53345303560904e+000

2.71320865489533e+004,-2.40493788823336e+001,-1.55484948757674e+000

2.75108363627948e+004,-2.40494257287662e+001,-1.57654421080446e+000

2.78948733270080e+004,-2.40494738870919e+001,-1.59854135165879e+000

2.82842712474618e+004,-2.40495233939019e+001,-1.62084511366238e+000

2.86791049603164e+004,-2.40495742868001e+001,-1.64345975826032e+000

2.90794503464061e+004,-2.40496266044301e+001,-1.66638960559923e+000

2.94853843458219e+004,-2.40496803865035e+001,-1.68963903531251e+000

2.98969849726987e+004,-2.40497356738293e+001,-1.71321248731819e+000

3.03143313302078e+004,-2.40497925083431e+001,-1.73711446262489e+000

3.07375036257601e+004,-2.40498509331381e+001,-1.76134952414778e+000

3.11665831864199e+004,-2.40499109924963e+001,-1.78592229753471e+000

3.16016524745350e+004,-2.40499727319205e+001,-1.81083747200233e+000

3.20427951035848e+004,-2.40500361981674e+001,-1.83609980118212e+000

3.24900958542493e+004,-2.40501014392815e+001,-1.86171410397689e+000

3.29436406907028e+004,-2.40501685046298e+001,-1.88768526542738e+000

3.34035167771346e+004,-2.40502374449372e+001,-1.91401823758840e+000

3.38698124945009e+004,-2.40503083123232e+001,-1.94071804041738e+000

3.43426174575100e+004,-2.40503811603394e+001,-1.96778976267066e+000

3.48220225318448e+004,-2.40504560440078e+001,-1.99523856281247e+000

3.53081198516260e+004,-2.40505330198602e+001,-2.02306966993340e+000

3.58010028371187e+004,-2.40506121459784e+001,-2.05128838468048e+000

3.63007662126863e+004,-2.40506934820362e+001,-2.07990008019676e+000

3.68075060249948e+004,-2.40507770893412e+001,-2.10891020307260e+000

3.73213196614721e+004,-2.40508630308784e+001,-2.13832427430781e+000

3.78423058690237e+004,-2.40509513713556e+001,-2.16814789028340e+000

3.83705647730104e+004,-2.40510421772479e+001,-2.19838672374759e+000

3.89061978964912e+004,-2.40511355168455e+001,-2.22904652480865e+000

3.94493081797342e+004,-2.40512314603014e+001,-2.26013312194124e+000

3.99999999999998e+004,-2.40513300796806e+001,-2.29165242300453e+000

4.05583791916010e+004,-2.40514314490106e+001,-2.32361041627043e+000

4.11245530662425e+004,-2.40515356443331e+001,-2.35601317146166e+000

4.16986304336447e+004,-2.40516427437568e+001,-2.38886684080471e+000

4.22807216224550e+004,-2.40517528275118e+001,-2.42217766009083e+000

4.28709385014515e+004,-2.40518659780050e+001,-2.45595194975023e+000

4.34693945010421e+004,-2.40519822798769e+001,-2.49019611593728e+000

4.40762046350642e+004,-2.40521018200603e+001,-2.52491665162654e+000

4.46914855228886e+004,-2.40522246878392e+001,-2.56012013772122e+000

4.53153554118317e+004,-2.40523509749106e+001,-2.59581324417316e+000

4.59479341998812e+004,-2.40524807754466e+001,-2.63200273111258e+000

4.65893434587380e+004,-2.40526141861583e+001,-2.66869544999269e+000

4.72397064571810e+004,-2.40527513063616e+001,-2.70589834474208e+000

4.78991481847569e+004,-2.40528922380439e+001,-2.74361845293235e+000

4.85677953758016e+004,-2.40530370859328e+001,-2.78186290695424e+000

4.92457765337964e+004,-2.40531859575664e+001,-2.82063893520691e+000

4.99332219560642e+004,-2.40533389633647e+001,-2.85995386329998e+000

5.06302637588109e+004,-2.40534962167030e+001,-2.89981511526404e+000

5.13370359025159e+004,-2.40536578339877e+001,-2.94023021477533e+000

5.20536742176771e+004,-2.40538239347316e+001,-2.98120678639244e+000

5.27803164309155e+004,-2.40539946416339e+001,-3.02275255680154e+000

5.35171021914442e+004,-2.40541700806592e+001,-3.06487535607648e+000

5.42641730979066e+004,-2.40543503811202e+001,-3.10758311894850e+000

5.50216727255895e+004,-2.40545356757607e+001,-3.15088388608850e+000

5.57897466540159e+004,-2.40547261008421e+001,-3.19478580539990e+000

5.65685424949235e+004,-2.40549217962301e+001,-3.23929713332390e+000

5.73582099206328e+004,-2.40551229054841e+001,-3.28442623615574e+000

5.81589006928121e+004,-2.40553295759484e+001,-3.33018159137234e+000

5.89707686916437e+004,-2.40555419588455e+001,-3.37657178897094e+000

5.97939699453972e+004,-2.40557602093708e+001,-3.42360553282033e+000

6.06286626604156e+004,-2.40559844867895e+001,-3.47129164202213e+000

6.14750072515201e+004,-2.40562149545360e+001,-3.51963905228348e+000

6.23331663728396e+004,-2.40564517803144e+001,-3.56865681730149e+000

6.32033049490698e+004,-2.40566951362016e+001,-3.61835411015876e+000

6.40855902071694e+004,-2.40569451987524e+001,-3.66874022472852e+000

6.49801917084985e+004,-2.40572021491066e+001,-3.71982457709353e+000

6.58872813814055e+004,-2.40574661730978e+001,-3.77161670697337e+000

6.68070335542691e+004,-2.40577374613651e+001,-3.82412627916347e+000

6.77396249890018e+004,-2.40580162094661e+001,-3.87736308498568e+000

6.86852349150199e+004,-2.40583026179925e+001,-3.93133704374945e+000

6.96440450636895e+004,-2.40585968926877e+001,-3.98605820422193e+000

7.06162397032520e+004,-2.40588992445664e+001,-4.04153674611148e+000

7.16020056742374e+004,-2.40592098900367e+001,-4.09778298155994e+000

7.26015324253724e+004,-2.40595290510239e+001,-4.15480735664621e+000

7.36150120499896e+004,-2.40598569550969e+001,-4.21262045289960e+000

7.46426393229441e+004,-2.40601938355964e+001,-4.27123298882477e+000

7.56846117380472e+004,-2.40605399317659e+001,-4.33065582143597e+000

7.67411295460207e+004,-2.40608954888837e+001,-4.39089994780261e+000

7.78123957929823e+004,-2.40612607583987e+001,-4.45197650660455e+000

7.88986163594682e+004,-2.40616359980668e+001,-4.51389677969807e+000

7.99999999999995e+004,-2.40620214720904e+001,-4.57667219369166e+000

8.11167583832018e+004,-2.40624174512600e+001,-4.64031432153312e+000

8.22491061324848e+004,-2.40628242130977e+001,-4.70483488410636e+000

8.33972608672892e+004,-2.40632420420031e+001,-4.77024575183808e+000

8.45614432449099e+004,-2.40636712294009e+001,-4.83655894631652e+000

8.57418770029029e+004,-2.40641120738913e+001,-4.90378664191850e+000

8.69387890020841e+004,-2.40645648814021e+001,-4.97194116744914e+000

8.81524092701283e+004,-2.40650299653428e+001,-5.04103500779087e+000

8.93829710457770e+004,-2.40655076467613e+001,-5.11108080556349e+000

9.06307108236633e+004,-2.40659982545023e+001,-5.18209136279581e+000

9.18958683997622e+004,-2.40665021253674e+001,-5.25407964260715e+000

9.31786869174758e+004,-2.40670196042784e+001,-5.32705877090145e+000

9.44794129143618e+004,-2.40675510444413e+001,-5.40104203807177e+000

9.57982963695136e+004,-2.40680968075130e+001,-5.47604290071763e+000

9.71355907516031e+004,-2.40686572637700e+001,-5.55207498337329e+000

9.84915530675926e+004,-2.40692327922788e+001,-5.62915208024890e+000

9.98664439121282e+004,-2.40698237810684e+001,-5.70728815698449e+000

1.01260527517622e+005,-2.40704306273045e+001,-5.78649735241700e+000

1.02674071805032e+005,-2.40710537374657e+001,-5.86679398036077e+000

1.04107348435354e+005,-2.40716935275219e+001,-5.94819253140167e+000

1.05560632861831e+005,-2.40723504231137e+001,-6.03070767470693e+000

1.07034204382888e+005,-2.40730248597346e+001,-6.11435425984923e+000

1.08528346195813e+005,-2.40737172829140e+001,-6.19914731864613e+000

1.10043345451179e+005,-2.40744281484033e+001,-6.28510206701716e+000

1.11579493308032e+005,-2.40751579223621e+001,-6.37223390685758e+000

1.13137084989847e+005,-2.40759070815478e+001,-6.46055842792973e+000

1.14716419841265e+005,-2.40766761135057e+001,-6.55009140977354e+000

1.16317801385624e+005,-2.40774655167618e+001,-6.64084882363729e+000

1.17941537383287e+005,-2.40782758010166e+001,-6.73284683442787e+000

1.19587939890794e+005,-2.40791074873412e+001,-6.82610180268460e+000

1.21257325320831e+005,-2.40799611083754e+001,-6.92063028657367e+000

1.22950014503040e+005,-2.40808372085265e+001,-7.01644904390894e+000

1.24666332745679e+005,-2.40817363441716e+001,-7.11357503419655e+000

1.26406609898139e+005,-2.40826590838605e+001,-7.21202542070594e+000

1.28171180414339e+005,-2.40836060085212e+001,-7.31181757257054e+000

1.29960383416997e+005,-2.40845777116672e+001,-7.41296906691589e+000

1.31774562762811e+005,-2.40855747996075e+001,-7.51549769101937e+000

1.33614067108538e+005,-2.40865978916578e+001,-7.61942144450355e+000

1.35479249978003e+005,-2.40876476203553e+001,-7.72475854156118e+000

1.37370469830040e+005,-2.40887246316749e+001,-7.83152741321856e+000

1.39288090127379e+005,-2.40898295852486e+001,-7.93974670963418e+000

1.41232479406504e+005,-2.40909631545879e+001,-8.04943530243881e+000

1.43204011348474e+005,-2.40921260273087e+001,-8.16061228711480e+000

1.45203064850745e+005,-2.40933189053597e+001,-8.27329698541977e+000

1.47230024099979e+005,-2.40945425052544e+001,-8.38750894785442e+000

1.49285278645888e+005,-2.40957975583066e+001,-8.50326795617798e+000

1.51369223476094e+005,-2.40970848108699e+001,-8.62059402597208e+000

1.53482259092041e+005,-2.40984050245820e+001,-8.73950740925563e+000

1.55624791585964e+005,-2.40997589766131e+001,-8.86002859715233e+000

1.57797232718936e+005,-2.41011474599200e+001,-8.98217832261432e+000

1.59999999999999e+005,-2.41025712835049e+001,-9.10597756319996e+000

1.62233516766403e+005,-2.41040312726814e+001,-9.23144754391401e+000

1.64498212264969e+005,-2.41055282693456e+001,-9.35860974010499e+000

1.66794521734578e+005,-2.41070631322550e+001,-9.48748588042740e+000

1.69122886489819e+005,-2.41086367373151e+001,-9.61809794986718e+000

1.71483754005805e+005,-2.41102499778732e+001,-9.75046819283337e+000

1.73877578004168e+005,-2.41119037650221e+001,-9.88461911631683e+000

1.76304818540256e+005,-2.41135990279125e+001,-1.00205734931183e+001

1.78765942091554e+005,-2.41153367140758e+001,-1.01583543651463e+001

1.81261421647326e+005,-2.41171177897581e+001,-1.02979850467860e+001

1.83791736799524e+005,-2.41189432402654e+001,-1.04394891283412e+001

1.86357373834951e+005,-2.41208140703224e+001,-1.05828904795469e+001

1.88958825828723e+005,-2.41227313044432e+001,-1.07282132531577e+001

1.91596592739027e+005,-2.41246959873182e+001,-1.08754818886074e+001

1.94271181503206e+005,-2.41267091842151e+001,-1.10247211157423e+001

1.96983106135185e+005,-2.41287719813969e+001,-1.11759559586278e+001

1.99732887824256e+005,-2.41308854865569e+001,-1.13292117394260e+001

2.02521055035243e+005,-2.41330508292730e+001,-1.14845140823438e+001

2.05348143610063e+005,-2.41352691614805e+001,-1.16418889176502e+001

2.08214696870707e+005,-2.41375416579668e+001,-1.18013624857613e+001

2.11121265723661e+005,-2.41398695168871e+001,-1.19629613413879e+001

2.14068408765776e+005,-2.41422539603037e+001,-1.21267123577455e+001

2.17056692391625e+005,-2.41446962347498e+001,-1.22926427308221e+001

2.20086690902357e+005,-2.41471976118183e+001,-1.24607799836995e+001

2.23158986616063e+005,-2.41497593887780e+001,-1.26311519709230e+001

2.26274169979693e+005,-2.41523828892174e+001,-1.28037868829164e+001

2.29432839682530e+005,-2.41550694637181e+001,-1.29787132504330e+001

2.32635602771247e+005,-2.41578204905588e+001,-1.31559599490400e+001

2.35883074766574e+005,-2.41606373764504e+001,-1.33355562036253e+001

2.39175879781588e+005,-2.41635215573056e+001,-1.35175315929224e+001

2.42514650641661e+005,-2.41664744990410e+001,-1.37019160540427e+001

2.45900029006080e+005,-2.41694976984156e+001,-1.38887398870061e+001

2.49332665491357e+005,-2.41725926839058e+001,-1.40780337592613e+001

2.52813219796278e+005,-2.41757610166175e+001,-1.42698287101846e+001

2.56342360828676e+005,-2.41790042912376e+001,-1.44641561555447e+001

2.59920766833993e+005,-2.41823241370240e+001,-1.46610478919251e+001

2.63549125525621e+005,-2.41857222188371e+001,-1.48605361010855e+001

2.67228134217075e+005,-2.41892002382126e+001,-1.50626533542559e+001

2.70958499956006e+005,-2.41927599344754e+001,-1.52674326163438e+001

2.74740939660078e+005,-2.41964030858977e+001,-1.54749072500430e+001

2.78576180254757e+005,-2.42001315108993e+001,-1.56851110198271e+001

2.82464958813007e+005,-2.42039470692917e+001,-1.58980780958131e+001

2.86408022696948e+005,-2.42078516635671e+001,-1.61138430574776e+001

2.90406129701488e+005,-2.42118472402306e+001,-1.63324408972108e+001

2.94460048199957e+005,-2.42159357911778e+001,-1.65539070236872e+001

2.98570557291775e+005,-2.42201193551156e+001,-1.67782772650385e+001

3.02738446952187e+005,-2.42244000190277e+001,-1.70055878718105e+001

3.06964518184081e+005,-2.42287799196839e+001,-1.72358755196824e+001

3.11249583171928e+005,-2.42332612451920e+001,-1.74691773119330e+001

3.15594465437872e+005,-2.42378462365928e+001,-1.77055307816335e+001

3.19999999999997e+005,-2.42425371894966e+001,-1.79449738935471e+001

3.24467033532806e+005,-2.42473364557597e+001,-1.81875450457176e+001

3.28996424529938e+005,-2.42522464452016e+001,-1.84332830707265e+001

3.33589043469155e+005,-2.42572696273595e+001,-1.86822272366000e+001

3.38245772979638e+005,-2.42624085332792e+001,-1.89344172473464e+001

3.42967508011610e+005,-2.42676657573417e+001,-1.91898932431053e+001

3.47755156008335e+005,-2.42730439591221e+001,-1.94486957998903e+001

3.52609637080511e+005,-2.42785458652801e+001,-1.97108659289050e+001

3.57531884183106e+005,-2.42841742714786e+001,-1.99764450754171e+001

3.62522843294651e+005,-2.42899320443293e+001,-2.02454751171702e+001

3.67583473599047e+005,-2.42958221233617e+001,-2.05179983623188e+001

3.72714747669902e+005,-2.43018475230136e+001,-2.07940575468677e+001

3.77917651657445e+005,-2.43080113346393e+001,-2.10736958316018e+001

3.83193185478053e+005,-2.43143167285337e+001,-2.13569567984902e+001

3.88542363006410e+005,-2.43207669559679e+001,-2.16438844465509e+001

3.93966212270369e+005,-2.43273653512339e+001,-2.19345231871607e+001

3.99465775648511e+005,-2.43341153336944e+001,-2.22289178388007e+001

4.05042110070485e+005,-2.43410204098341e+001,-2.25271136212220e+001

4.10696287220124e+005,-2.43480841753098e+001,-2.28291561490233e+001

4.16429393741414e+005,-2.43553103169937e+001,-2.31350914246290e+001

4.22242531447321e+005,-2.43627026150079e+001,-2.34449658306590e+001

4.28136817531551e+005,-2.43702649447442e+001,-2.37588261216830e+001

4.34113384783250e+005,-2.43780012788670e+001,-2.40767194153500e+001

4.40173381804713e+005,-2.43859156892935e+001,-2.43986931828909e+001

4.46317973232124e+005,-2.43940123491477e+001,-2.47247952389854e+001

4.52548339959385e+005,-2.44022955346838e+001,-2.50550737309919e+001

4.58865679365059e+005,-2.44107696271743e+001,-2.53895771275366e+001

4.65271205542494e+005,-2.44194391147586e+001,-2.57283542064611e+001

4.71766149533147e+005,-2.44283085942473e+001,-2.60714540421271e+001

4.78351759563174e+005,-2.44373827728776e+001,-2.64189259920795e+001

4.85029301283321e+005,-2.44466664700159e+001,-2.67708196830687e+001

4.91800058012158e+005,-2.44561646188011e+001,-2.71271849964378e+001

4.98665330982714e+005,-2.44658822677264e+001,-2.74880720528739e+001

5.05626439592555e+005,-2.44758245821525e+001,-2.78535311965339e+001

5.12684721657352e+005,-2.44859968457488e+001,-2.82236129785468e+001

5.19841533667984e+005,-2.44964044618570e+001,-2.85983681399035e+001

5.27098251051240e+005,-2.45070529547735e+001,-2.89778475937399e+001

5.34456268434150e+005,-2.45179479709433e+001,-2.93621024070244e+001

5.41916999912011e+005,-2.45290952800639e+001,-2.97511837816613e+001

