Freq.,VOut,OutRef

1.00000000000000e+004,-2.29074231819698e+001,-2.18993262057350e-001

1.01395947979003e+004,-2.29074252957281e+001,-2.22050020504580e-001

1.02811382665607e+004,-2.29074274688527e+001,-2.25149438102824e-001

1.04246576084112e+004,-2.29074297030095e+001,-2.28292109858486e-001

1.05701804056138e+004,-2.29074319999104e+001,-2.31478639065465e-001

1.07177346253629e+004,-2.29074343613161e+001,-2.34709637414487e-001

1.08673486252606e+004,-2.29074367890356e+001,-2.37985725115485e-001

1.10190511587661e+004,-2.29074392849294e+001,-2.41307531010827e-001

1.11728713807222e+004,-2.29074418509094e+001,-2.44675692697349e-001

1.13288388529580e+004,-2.29074444889413e+001,-2.48090856646516e-001

1.14869835499703e+004,-2.29074472010460e+001,-2.51553678327209e-001

1.16473358646846e+004,-2.29074499893004e+001,-2.55064822331077e-001

1.18099266142953e+004,-2.29074528558400e+001,-2.58624962497678e-001

1.19747870461893e+004,-2.29074558028598e+001,-2.62234782042287e-001

1.21419488439505e+004,-2.29074588326159e+001,-2.65894973687840e-001

1.23114441334492e+004,-2.29074619474282e+001,-2.69606239791126e-001

1.24833054890161e+004,-2.29074651496807e+001,-2.73369292483039e-001

1.26575659397028e+004,-2.29074684418245e+001,-2.77184853796210e-001

1.28342589756290e+004,-2.29074718263788e+001,-2.81053655808558e-001

1.30134185544193e+004,-2.29074753059338e+001,-2.84976440775649e-001

1.31950791077289e+004,-2.29074788831513e+001,-2.88953961276318e-001

1.33792755478611e+004,-2.29074825607678e+001,-2.92986980352800e-001

1.35660432744767e+004,-2.29074863415966e+001,-2.97076271652521e-001

1.37554181813974e+004,-2.29074902285287e+001,-3.01222619580356e-001

1.39474366635040e+004,-2.29074942245366e+001,-3.05426819440463e-001

1.41421356237309e+004,-2.29074983326752e+001,-3.09689677591904e-001

1.43395524801583e+004,-2.29075025560849e+001,-3.14012011596294e-001

1.45397251732031e+004,-2.29075068979936e+001,-3.18394650375029e-001

1.47426921729110e+004,-2.29075113617192e+001,-3.22838434364607e-001

1.49484924863494e+004,-2.29075159506724e+001,-3.27344215674045e-001

1.51571656651040e+004,-2.29075206683587e+001,-3.31912858246783e-001

1.53687518128801e+004,-2.29075255183813e+001,-3.36545238023411e-001

1.55832915932100e+004,-2.29075305044437e+001,-3.41242243105950e-001

1.58008262372675e+004,-2.29075356303530e+001,-3.46004773922579e-001

1.60213975517924e+004,-2.29075409000217e+001,-3.50833743402628e-001

1.62450479271247e+004,-2.29075463174719e+001,-3.55730077140411e-001

1.64718203453514e+004,-2.29075518868370e+001,-3.60694713576327e-001

1.67017583885674e+004,-2.29075576123659e+001,-3.65728604166839e-001

1.69349062472505e+004,-2.29075634984254e+001,-3.70832713567362e-001

1.71713087287550e+004,-2.29075695495040e+001,-3.76008019808540e-001

1.74110112659224e+004,-2.29075757702147e+001,-3.81255514484031e-001

1.76540599258131e+004,-2.29075821652989e+001,-3.86576202931923e-001

1.79005014185594e+004,-2.29075887396296e+001,-3.91971104424822e-001

1.81503831063432e+004,-2.29075954982152e+001,-3.97441252360159e-001

1.84037530124975e+004,-2.29076024462031e+001,-4.02987694451196e-001

1.86606598307361e+004,-2.29076095888837e+001,-4.08611492923979e-001

1.89211529345119e+004,-2.29076169316941e+001,-4.14313724714614e-001

1.91852823865052e+004,-2.29076244802221e+001,-4.20095481670119e-001

1.94530989482457e+004,-2.29076322402105e+001,-4.25957870750667e-001

1.97246540898671e+004,-2.29076402175613e+001,-4.31902014235131e-001

1.99999999999999e+004,-2.29076484183397e+001,-4.37929049931673e-001

2.02791895958005e+004,-2.29076568487793e+001,-4.44040131384680e-001

2.05622765331213e+004,-2.29076655152857e+001,-4.50236428091443e-001

2.08493152168224e+004,-2.29076744244423e+001,-4.56519125717237e-001

2.11403608112276e+004,-2.29076835830140e+001,-4.62889426315653e-001

2.14354692507258e+004,-2.29076929979529e+001,-4.69348548549657e-001

2.17346972505211e+004,-2.29077026764032e+001,-4.75897727915158e-001

2.20381023175322e+004,-2.29077126257063e+001,-4.82538216971621e-001

2.23457427614443e+004,-2.29077228534063e+001,-4.89271285568668e-001

2.26576777059159e+004,-2.29077333672552e+001,-4.96098221083856e-001

2.29739670999406e+004,-2.29077441752190e+001,-5.03020328654311e-001

2.32946717293690e+004,-2.29077552854829e+001,-5.10038931419918e-001

2.36198532285905e+004,-2.29077667064577e+001,-5.17155370763360e-001

2.39495740923785e+004,-2.29077784467855e+001,-5.24371006555628e-001

2.42838976879009e+004,-2.29077905153461e+001,-5.31687217405108e-001

2.46228882668982e+004,-2.29078029212637e+001,-5.39105400907641e-001

2.49666109780322e+004,-2.29078156739129e+001,-5.46626973901723e-001

2.53151318794055e+004,-2.29078287829257e+001,-5.54253372726388e-001

2.56685179512580e+004,-2.29078422581980e+001,-5.61986053482084e-001

2.60268371088386e+004,-2.29078561098977e+001,-5.69826492292045e-001

2.63901582154578e+004,-2.29078703484706e+001,-5.77776185572893e-001

2.67585510957221e+004,-2.29078849846488e+001,-5.85836650302589e-001

2.71320865489533e+004,-2.29079000294579e+001,-5.94009424294523e-001

2.75108363627948e+004,-2.29079154942248e+001,-6.02296066474333e-001

2.78948733270080e+004,-2.29079313905858e+001,-6.10698157160196e-001

2.82842712474618e+004,-2.29079477304946e+001,-6.19217298346542e-001

2.86791049603164e+004,-2.29079645262310e+001,-6.27855113989213e-001

2.90794503464061e+004,-2.29079817904094e+001,-6.36613250296560e-001

2.94853843458219e+004,-2.29079995359872e+001,-6.45493376025012e-001

2.98969849726987e+004,-2.29080177762744e+001,-6.54497182771773e-001

3.03143313302078e+004,-2.29080365249426e+001,-6.63626385278364e-001

3.07375036257601e+004,-2.29080557960341e+001,-6.72882721733679e-001

3.11665831864199e+004,-2.29080756039724e+001,-6.82267954080109e-001

3.16016524745350e+004,-2.29080959635712e+001,-6.91783868325930e-001

3.20427951035848e+004,-2.29081168900454e+001,-7.01432274859198e-001

3.24900958542493e+004,-2.29081383990208e+001,-7.11215008763409e-001

3.29436406907028e+004,-2.29081605065452e+001,-7.21133930142224e-001

3.34035167771346e+004,-2.29081832290989e+001,-7.31190924442404e-001

3.38698124945009e+004,-2.29082065836064e+001,-7.41387902781552e-001

3.43426174575100e+004,-2.29082305874471e+001,-7.51726802282100e-001

3.48220225318448e+004,-2.29082552584675e+001,-7.62209586405858e-001

3.53081198516260e+004,-2.29082806149930e+001,-7.72838245292711e-001

3.58010028371187e+004,-2.29083066758397e+001,-7.83614796105524e-001

3.63007662126863e+004,-2.29083334603275e+001,-7.94541283373514e-001

3.68075060249948e+004,-2.29083609882922e+001,-8.05619779346313e-001

3.73213196614721e+004,-2.29083892800992e+001,-8.16852384343638e-001

3.78423058690237e+004,-2.29084183566562e+001,-8.28241227116744e-001

3.83705647730104e+004,-2.29084482394272e+001,-8.39788465205963e-001

3.89061978964912e+004,-2.29084789504460e+001,-8.51496285308309e-001

3.94493081797342e+004,-2.29085105123307e+001,-8.63366903644087e-001

3.99999999999998e+004,-2.29085429482982e+001,-8.75402566330889e-001

4.05583791916010e+004,-2.29085762821788e+001,-8.87605549756612e-001

4.11245530662425e+004,-2.29086105384312e+001,-8.99978160961948e-001

4.16986304336447e+004,-2.29086457421583e+001,-9.12522738021774e-001

4.22807216224550e+004,-2.29086819191224e+001,-9.25241650432427e-001

4.28709385014515e+004,-2.29087190957616e+001,-9.38137299502508e-001

4.34693945010421e+004,-2.29087572992061e+001,-9.51212118744996e-001

4.40762046350642e+004,-2.29087965572945e+001,-9.64468574279051e-001

4.46914855228886e+004,-2.29088368985912e+001,-9.77909165227667e-001

4.53153554118317e+004,-2.29088783524034e+001,-9.91536424123377e-001

4.59479341998812e+004,-2.29089209487987e+001,-1.00535291731894e+000

4.65893434587380e+004,-2.29089647186234e+001,-1.01936124539700e+000

4.72397064571810e+004,-2.29090096935201e+001,-1.03356404358745e+000

4.78991481847569e+004,-2.29090559059470e+001,-1.04796398218529e+000

4.85677953758016e+004,-2.29091033891961e+001,-1.06256376697612e+000

4.92457765337964e+004,-2.29091521774129e+001,-1.07736613965881e+000

4.99332219560642e+004,-2.29092023056155e+001,-1.09237387827894e+000

5.06302637588109e+004,-2.29092538097149e+001,-1.10758979765903e+000

5.13370359025159e+004,-2.29093067265347e+001,-1.12301674983786e+000

5.20536742176771e+004,-2.29093610938320e+001,-1.13865762450846e+000

5.27803164309155e+004,-2.29094169503176e+001,-1.15451534946316e+000

5.35171021914442e+004,-2.29094743356773e+001,-1.17059289104032e+000

5.42641730979066e+004,-2.29095332905937e+001,-1.18689325457239e+000

5.50216727255895e+004,-2.29095938567669e+001,-1.20341948484340e+000

5.57897466540159e+004,-2.29096560769373e+001,-1.22017466654133e+000

5.65685424949235e+004,-2.29097199949071e+001,-1.23716192472151e+000

5.73582099206328e+004,-2.29097856555633e+001,-1.25438442526680e+000

5.81589006928121e+004,-2.29098531048998e+001,-1.27184537535676e+000

5.89707686916437e+004,-2.29099223900410e+001,-1.28954802393403e+000

5.97939699453972e+004,-2.29099935592643e+001,-1.30749566217957e+000

6.06286626604156e+004,-2.29100666620239e+001,-1.32569162398628e+000

6.14750072515201e+004,-2.29101417489743e+001,-1.34413928643762e+000

6.23331663728396e+004,-2.29102188719939e+001,-1.36284207028949e+000

6.32033049490698e+004,-2.29102980842091e+001,-1.38180344045501e+000

6.40855902071694e+004,-2.29103794400184e+001,-1.40102690649062e+000

6.49801917084985e+004,-2.29104629951164e+001,-1.42051602308655e+000

6.58872813814055e+004,-2.29105488065183e+001,-1.44027439056079e+000

6.68070335542691e+004,-2.29106369325845e+001,-1.46030565535278e+000

6.77396249890018e+004,-2.29107274330444e+001,-1.48061351052453e+000

6.86852349150199e+004,-2.29108203690216e+001,-1.50120169625973e+000

6.96440450636895e+004,-2.29109158030582e+001,-1.52207400036852e+000

7.06162397032520e+004,-2.29110137991394e+001,-1.54323425879426e+000

7.16020056742374e+004,-2.29111144227175e+001,-1.56468635612393e+000

7.26015324253724e+004,-2.29112177407369e+001,-1.58643422609801e+000

7.36150120499896e+004,-2.29113238216580e+001,-1.60848185212805e+000

7.46426393229441e+004,-2.29114327354813e+001,-1.63083326781239e+000

7.56846117380472e+004,-2.29115445537716e+001,-1.65349255745791e+000

7.67411295460207e+004,-2.29116593496814e+001,-1.67646385660204e+000

7.78123957929823e+004,-2.29117771979743e+001,-1.69975135253958e+000

7.88986163594682e+004,-2.29118981750484e+001,-1.72335928485143e+000

7.99999999999995e+004,-2.29120223589589e+001,-1.74729194593609e+000

8.11167583832018e+004,-2.29121498294400e+001,-1.77155368154488e+000

8.22491061324848e+004,-2.29122806679275e+001,-1.79614889131967e+000

8.33972608672892e+004,-2.29124149575796e+001,-1.82108202933368e+000

8.45614432449099e+004,-2.29125527832980e+001,-1.84635760463654e+000

8.57418770029029e+004,-2.29126942317476e+001,-1.87198018180109e+000

8.69387890020841e+004,-2.29128393913766e+001,-1.89795438147540e+000

8.81524092701283e+004,-2.29129883524345e+001,-1.92428488093819e+000

8.93829710457770e+004,-2.29131412069905e+001,-1.95097641465739e+000

9.06307108236633e+004,-2.29132980489501e+001,-1.97803377485338e+000

9.18958683997622e+004,-2.29134589740716e+001,-2.00546181206704e+000

9.31786869174758e+004,-2.29136240799807e+001,-2.03326543573216e+000

9.44794129143618e+004,-2.29137934661847e+001,-2.06144961475180e+000

9.57982963695136e+004,-2.29139672340851e+001,-2.09001937808271e+000

9.71355907516031e+004,-2.29141454869892e+001,-2.11897981532131e+000

9.84915530675926e+004,-2.29143283301203e+001,-2.14833607729996e+000

9.98664439121282e+004,-2.29145158706264e+001,-2.17809337668706e+000

1.01260527517622e+005,-2.29147082175875e+001,-2.20825698859465e+000

1.02674071805032e+005,-2.29149054820217e+001,-2.23883225119324e+000

1.04107348435354e+005,-2.29151077768886e+001,-2.26982456633568e+000

1.05560632861831e+005,-2.29153152170924e+001,-2.30123940018886e+000

1.07034204382888e+005,-2.29155279194819e+001,-2.33308228387355e+000

1.08528346195813e+005,-2.29157460028494e+001,-2.36535881411653e+000

1.10043345451179e+005,-2.29159695879275e+001,-2.39807465391063e+000

1.11579493308032e+005,-2.29161987973832e+001,-2.43123553318890e+000

1.13137084989847e+005,-2.29164337558110e+001,-2.46484724950823e+000

1.14716419841265e+005,-2.29166745897227e+001,-2.49891566874814e+000

1.16317801385624e+005,-2.29169214275354e+001,-2.53344672582202e+000

1.17941537383287e+005,-2.29171743995569e+001,-2.56844642540610e+000

1.19587939890794e+005,-2.29174336379691e+001,-2.60392084268015e+000

1.21257325320831e+005,-2.29176992768084e+001,-2.63987612408980e+000

1.22950014503040e+005,-2.29179714519434e+001,-2.67631848812441e+000

1.24666332745679e+005,-2.29182503010504e+001,-2.71325422611627e+000

1.26406609898139e+005,-2.29185359635861e+001,-2.75068970305892e+000

1.28171180414339e+005,-2.29188285807569e+001,-2.78863135845048e+000

1.29960383416997e+005,-2.29191282954865e+001,-2.82708570715761e+000

1.31774562762811e+005,-2.29194352523793e+001,-2.86605934030816e+000

1.33614067108538e+005,-2.29197495976824e+001,-2.90555892620764e+000

1.35479249978003e+005,-2.29200714792432e+001,-2.94559121128651e+000

1.37370469830040e+005,-2.29204010464656e+001,-2.98616302107578e+000

1.39288090127379e+005,-2.29207384502615e+001,-3.02728126121752e+000

1.41232479406504e+005,-2.29210838430013e+001,-3.06895291850627e+000

1.43204011348474e+005,-2.29214373784603e+001,-3.11118506196696e+000

1.45203064850745e+005,-2.29217992117622e+001,-3.15398484397350e+000

1.47230024099979e+005,-2.29221694993209e+001,-3.19735950140244e+000

1.49285278645888e+005,-2.29225483987782e+001,-3.24131635683228e+000

1.51369223476094e+005,-2.29229360689400e+001,-3.28586281978564e+000

1.53482259092041e+005,-2.29233326697091e+001,-3.33100638801767e+000

1.55624791585964e+005,-2.29237383620163e+001,-3.37675464885257e+000

1.57797232718936e+005,-2.29241533077489e+001,-3.42311528057114e+000

1.59999999999999e+005,-2.29245776696769e+001,-3.47009605385189e+000

1.62233516766403e+005,-2.29250116113776e+001,-3.51770483326701e+000

1.64498212264969e+005,-2.29254552971583e+001,-3.56594957883621e+000

1.66794521734578e+005,-2.29259088919779e+001,-3.61483834763966e+000

1.69122886489819e+005,-2.29263725613663e+001,-3.66437929549611e+000

1.71483754005805e+005,-2.29268464713443e+001,-3.71458067870169e+000

1.73877578004168e+005,-2.29273307883413e+001,-3.76545085583954e+000

1.76304818540256e+005,-2.29278256791139e+001,-3.81699828965654e+000

1.78765942091554e+005,-2.29283313106639e+001,-3.86923154901211e+000

1.81261421647326e+005,-2.29288478501572e+001,-3.92215931090152e+000

1.83791736799524e+005,-2.29293754648427e+001,-3.97579036255433e+000

1.86357373834951e+005,-2.29299143219736e+001,-4.03013360361061e+000

1.88958825828723e+005,-2.29304645887297e+001,-4.08519804837817e+000

1.91596592739027e+005,-2.29310264321420e+001,-4.14099282817013e+000

1.94271181503206e+005,-2.29316000190207e+001,-4.19752719372691e+000

1.96983106135185e+005,-2.29321855158860e+001,-4.25481051772288e+000

1.99732887824256e+005,-2.29327830889027e+001,-4.31285229735889e+000

2.02521055035243e+005,-2.29333929038199e+001,-4.37166215704420e+000

2.05348143610063e+005,-2.29340151259155e+001,-4.43124985116486e+000

2.08214696870707e+005,-2.29346499199469e+001,-4.49162526694247e+000

2.11121265723661e+005,-2.29352974501074e+001,-4.55279842738524e+000

2.14068408765776e+005,-2.29359578799910e+001,-4.61477949432535e+000

2.17056692391625e+005,-2.29366313725641e+001,-4.67757877155115e+000

2.20086690902357e+005,-2.29373180901466e+001,-4.74120670802834e+000

2.23158986616063e+005,-2.29380181944019e+001,-4.80567390121013e+000

2.26274169979693e+005,-2.29387318463376e+001,-4.87099110043978e+000

2.29432839682530e+005,-2.29394592063170e+001,-4.93716921043850e+000

2.32635602771247e+005,-2.29402004340820e+001,-5.00421929488406e+000

2.35883074766574e+005,-2.29409556887892e+001,-5.07215258007137e+000

2.39175879781588e+005,-2.29417251290588e+001,-5.14098045866007e+000

2.42514650641661e+005,-2.29425089130380e+001,-5.21071449350044e+000

2.45900029006080e+005,-2.29433071984790e+001,-5.28136642154106e+000

2.49332665491357e+005,-2.29441201428329e+001,-5.35294815780928e+000

2.52813219796278e+005,-2.29449479033597e+001,-5.42547179946616e+000

2.56342360828676e+005,-2.29457906372560e+001,-5.49894962992925e+000

2.59920766833993e+005,-2.29466485017998e+001,-5.57339412305996e+000

2.63549125525621e+005,-2.29475216545145e+001,-5.64881794741131e+000

2.67228134217075e+005,-2.29484102533517e+001,-5.72523397053135e+000

2.70958499956006e+005,-2.29493144568936e+001,-5.80265526331738e+000

2.74740939660078e+005,-2.29502344245766e+001,-5.88109510441417e+000

2.78576180254757e+005,-2.29511703169346e+001,-5.96056698465345e+000

2.82464958813007e+005,-2.29521222958647e+001,-6.04108461152598e+000

2.86408022696948e+005,-2.29530905249141e+001,-6.12266191368165e+000

2.90406129701488e+005,-2.29540751695890e+001,-6.20531304545016e+000

2.94460048199957e+005,-2.29550763976870e+001,-6.28905239137708e+000

2.98570557291775e+005,-2.29560943796507e+001,-6.37389457076711e+000

3.02738446952187e+005,-2.29571292889457e+001,-6.45985444222909e+000

3.06964518184081e+005,-2.29581813024604e+001,-6.54694710821314e+000

3.11249583171928e+005,-2.29592506009300e+001,-6.63518791953743e+000

3.15594465437872e+005,-2.29603373693824e+001,-6.72459247989170e+000

3.19999999999997e+005,-2.29614417976082e+001,-6.81517665031541e+000

3.24467033532806e+005,-2.29625640806528e+001,-6.90695655364042e+000

3.28996424529938e+005,-2.29637044193312e+001,-6.99994857889199e+000

3.33589043469155e+005,-2.29648630207657e+001,-7.09416938564121e+000

3.38245772979638e+005,-2.29660400989445e+001,-7.18963590830209e+000

3.42967508011610e+005,-2.29672358753024e+001,-7.28636536036723e+000

3.47755156008335e+005,-2.29684505793228e+001,-7.38437523857331e+000

3.52609637080511e+005,-2.29696844491595e+001,-7.48368332699367e+000

3.57531884183106e+005,-2.29709377322784e+001,-7.58430770104962e+000

3.62522843294651e+005,-2.29722106861184e+001,-7.68626673143537e+000

3.67583473599047e+005,-2.29735035787712e+001,-7.78957908795209e+000

3.72714747669902e+005,-2.29748166896773e+001,-7.89426374324589e+000

3.77917651657445e+005,-2.29761503103406e+001,-8.00033997644448e+000

3.83193185478053e+005,-2.29775047450569e+001,-8.10782737669087e+000

3.88542363006410e+005,-2.29788803116592e+001,-8.21674584656706e+000

3.93966212270369e+005,-2.29802773422756e+001,-8.32711560540789e+000

3.99465775648511e+005,-2.29816961841015e+001,-8.43895719250084e+000

4.05042110070485e+005,-2.29831372001828e+001,-8.55229147016963e+000

4.10696287220124e+005,-2.29846007702113e+001,-8.66713962674074e+000

4.16429393741414e+005,-2.29860872913298e+001,-8.78352317939134e+000

4.22242531447321e+005,-2.29875971789460e+001,-8.90146397687792e+000

4.28136817531551e+005,-2.29891308675562e+001,-9.02098420214568e+000

4.34113384783250e+005,-2.29906888115741e+001,-9.14210637481909e+000

4.40173381804713e+005,-2.29922714861685e+001,-9.26485335357397e+000

4.46317973232124e+005,-2.29938793881046e+001,-9.38924833839339e+000

4.52548339959385e+005,-2.29955130365913e+001,-9.51531487270783e+000

4.58865679365059e+005,-2.29971729741316e+001,-9.64307684542314e+000

4.65271205542494e+005,-2.29988597673769e+001,-9.77255849283644e+000

4.71766149533147e+005,-2.30005740079832e+001,-9.90378440044599e+000

4.78351759563174e+005,-2.30023163134697e+001,-1.00367795046560e+001

4.85029301283321e+005,-2.30040873280782e+001,-1.01715690943794e+001

4.91800058012158e+005,-2.30058877236336e+001,-1.03081788125445e+001

4.98665330982714e+005,-2.30077182004044e+001,-1.04466346575064e+001

5.05626439592555e+005,-2.30095794879637e+001,-1.05869629843709e+001

5.12684721657352e+005,-2.30114723460493e+001,-1.07291905062308e+001

5.19841533667984e+005,-2.30133975654231e+001,-1.08733442953218e+001

5.27098251051240e+005,-2.30153559687307e+001,-1.10194517841017e+001

5.34456268434150e+005,-2.30173484113588e+001,-1.11675407662561e+001

5.41916999912011e+005,-2.30193757822927e+001,-1.13176393976356e+001

