Freq.,VOut,OutRef

1.00000000000000e+004,-2.06078100281920e+001,-3.60861370420461e-001

1.01395947979003e+004,-2.06078132691405e+001,-3.65898458658521e-001

1.02811382665607e+004,-2.06078166011311e+001,-3.71005847229850e-001

1.04246576084112e+004,-2.06078200267193e+001,-3.76184516863551e-001

1.05701804056138e+004,-2.06078235485321e+001,-3.81435461950669e-001

1.07177346253629e+004,-2.06078271692700e+001,-3.86759690737798e-001

1.08673486252606e+004,-2.06078308917092e+001,-3.92158225516889e-001

1.10190511587661e+004,-2.06078347187038e+001,-3.97632102819799e-001

1.11728713807222e+004,-2.06078386531878e+001,-4.03182373616644e-001

1.13288388529580e+004,-2.06078426981771e+001,-4.08810103516826e-001

1.14869835499703e+004,-2.06078468567725e+001,-4.14516372968761e-001

1.16473358646846e+004,-2.06078511321612e+001,-4.20302277470316e-001

1.18099266142953e+004,-2.06078555276200e+001,-4.26168927773747e-001

1.19747870461893e+004,-2.06078600465171e+001,-4.32117450098337e-001

1.21419488439505e+004,-2.06078646923154e+001,-4.38148986344406e-001

1.23114441334492e+004,-2.06078694685743e+001,-4.44264694310590e-001

1.24833054890161e+004,-2.06078743789531e+001,-4.50465747914784e-001

1.26575659397028e+004,-2.06078794272131e+001,-4.56753337416816e-001

1.28342589756290e+004,-2.06078846172214e+001,-4.63128669642430e-001

1.30134185544193e+004,-2.06078899529527e+001,-4.69592968217597e-001

1.31950791077289e+004,-2.06078954384934e+001,-4.76147473795275e-001

1.33792755478611e+004,-2.06079010780437e+001,-4.82793444295233e-001

1.35660432744767e+004,-2.06079068759216e+001,-4.89532155139997e-001

1.37554181813974e+004,-2.06079128365657e+001,-4.96364899499222e-001

1.39474366635040e+004,-2.06079189645384e+001,-5.03292988533299e-001

1.41421356237309e+004,-2.06079252645301e+001,-5.10317751641123e-001

1.43395524801583e+004,-2.06079317413618e+001,-5.17440536715217e-001

1.45397251732031e+004,-2.06079383999896e+001,-5.24662710393447e-001

1.47426921729110e+004,-2.06079452455078e+001,-5.31985658320902e-001

1.49484924863494e+004,-2.06079522831528e+001,-5.39410785410268e-001

1.51571656651040e+004,-2.06079595183078e+001,-5.46939516107283e-001

1.53687518128801e+004,-2.06079669565056e+001,-5.54573294662960e-001

1.55832915932100e+004,-2.06079746034338e+001,-5.62313585402794e-001

1.58008262372675e+004,-2.06079824649388e+001,-5.70161873006688e-001

1.60213975517924e+004,-2.06079905470298e+001,-5.78119662786791e-001

1.62450479271247e+004,-2.06079988558840e+001,-5.86188480973863e-001

1.64718203453514e+004,-2.06080073978506e+001,-5.94369875004296e-001

1.67017583885674e+004,-2.06080161794559e+001,-6.02665413811954e-001

1.69349062472505e+004,-2.06080252074082e+001,-6.11076688122417e-001

1.71713087287550e+004,-2.06080344886025e+001,-6.19605310756751e-001

1.74110112659224e+004,-2.06080440301263e+001,-6.28252916930150e-001

1.76540599258131e+004,-2.06080538392642e+001,-6.37021164563247e-001

1.79005014185594e+004,-2.06080639235039e+001,-6.45911734592017e-001

1.81503831063432e+004,-2.06080742905413e+001,-6.54926331284834e-001

1.84037530124975e+004,-2.06080849482868e+001,-6.64066682562328e-001

1.86606598307361e+004,-2.06080959048706e+001,-6.73334540320927e-001

1.89211529345119e+004,-2.06081071686492e+001,-6.82731680762722e-001

1.91852823865052e+004,-2.06081187482117e+001,-6.92259904727150e-001

1.94530989482457e+004,-2.06081306523854e+001,-7.01921038029696e-001

1.97246540898671e+004,-2.06081428902436e+001,-7.11716931802743e-001

1.99999999999999e+004,-2.06081554711112e+001,-7.21649462841607e-001

2.02791895958005e+004,-2.06081684045722e+001,-7.31720533957575e-001

2.05622765331213e+004,-2.06081817004769e+001,-7.41932074329407e-001

2.08493152168224e+004,-2.06081953689485e+001,-7.52286039867977e-001

2.11403608112276e+004,-2.06082094203916e+001,-7.62784413576453e-001

2.14354692507258e+004,-2.06082238654990e+001,-7.73429205923744e-001

2.17346972505211e+004,-2.06082387152601e+001,-7.84222455215877e-001

2.20381023175322e+004,-2.06082539809686e+001,-7.95166227977574e-001

2.23457427614443e+004,-2.06082696742313e+001,-8.06262619334117e-001

2.26576777059159e+004,-2.06082858069762e+001,-8.17513753402046e-001

2.29739670999406e+004,-2.06083023914616e+001,-8.28921783681315e-001

2.32946717293690e+004,-2.06083194402848e+001,-8.40488893456425e-001

2.36198532285905e+004,-2.06083369663914e+001,-8.52217296199824e-001

2.39495740923785e+004,-2.06083549830848e+001,-8.64109235980470e-001

2.42838976879009e+004,-2.06083735040362e+001,-8.76166987878725e-001

2.46228882668982e+004,-2.06083925432939e+001,-8.88392858408107e-001

2.49666109780322e+004,-2.06084121152940e+001,-9.00789185937063e-001

2.53151318794055e+004,-2.06084322348711e+001,-9.13358341122150e-001

2.56685179512580e+004,-2.06084529172684e+001,-9.26102727343123e-001

2.60268371088386e+004,-2.06084741781494e+001,-9.39024781144951e-001

2.63901582154578e+004,-2.06084960336086e+001,-9.52126972683715e-001

2.67585510957221e+004,-2.06085185001838e+001,-9.65411806179649e-001

2.71320865489533e+004,-2.06085415948675e+001,-9.78881820376493e-001

2.75108363627948e+004,-2.06085653351194e+001,-9.92539589003718e-001

2.78948733270080e+004,-2.06085897388788e+001,-1.00638772124738e+000

2.82842712474618e+004,-2.06086148245773e+001,-1.02042886222525e+000

2.86791049603164e+004,-2.06086406111527e+001,-1.03466569346778e+000

2.90794503464061e+004,-2.06086671180612e+001,-1.04910093340651e+000

2.94853843458219e+004,-2.06086943652929e+001,-1.06373733786545e+000

2.98969849726987e+004,-2.06087223733845e+001,-1.07857770056228e+000

3.03143313302078e+004,-2.06087511634350e+001,-1.09362485361142e+000

3.07375036257601e+004,-2.06087807571196e+001,-1.10888166803829e+000

3.11665831864199e+004,-2.06088111767059e+001,-1.12435105429398e+000

3.16016524745350e+004,-2.06088424450694e+001,-1.14003596277937e+000

3.20427951035848e+004,-2.06088745857088e+001,-1.15593938437757e+000

3.24900958542493e+004,-2.06089076227635e+001,-1.17206435098704e+000

3.29436406907028e+004,-2.06089415810299e+001,-1.18841393606552e+000

3.34035167771346e+004,-2.06089764859786e+001,-1.20499125518055e+000

3.38698124945009e+004,-2.06090123637724e+001,-1.22179946656087e+000

3.43426174575100e+004,-2.06090492412841e+001,-1.23884177166297e+000

3.48220225318448e+004,-2.06090871461156e+001,-1.25612141573558e+000

3.53081198516260e+004,-2.06091261066161e+001,-1.27364168839762e+000

3.58010028371187e+004,-2.06091661519023e+001,-1.29140592421743e+000

3.63007662126863e+004,-2.06092073118778e+001,-1.30941750330195e+000

3.68075060249948e+004,-2.06092496172538e+001,-1.32767985189255e+000

3.73213196614721e+004,-2.06092930995697e+001,-1.34619644296424e+000

3.78423058690237e+004,-2.06093377912148e+001,-1.36497079683613e+000

3.83705647730104e+004,-2.06093837254497e+001,-1.38400648178559e+000

3.89061978964912e+004,-2.06094309364290e+001,-1.40330711467094e+000

3.94493081797342e+004,-2.06094794592241e+001,-1.42287636155799e+000

3.99999999999998e+004,-2.06095293298463e+001,-1.44271793835896e+000

4.05583791916010e+004,-2.06095805852710e+001,-1.46283561147312e+000

4.11245530662425e+004,-2.06096332634620e+001,-1.48323319843590e+000

4.16986304336447e+004,-2.06096874033967e+001,-1.50391456857631e+000

4.22807216224550e+004,-2.06097430450912e+001,-1.52488364368050e+000

4.28709385014515e+004,-2.06098002296267e+001,-1.54614439866155e+000

4.34693945010421e+004,-2.06098589991762e+001,-1.56770086223708e+000

4.40762046350642e+004,-2.06099193970315e+001,-1.58955711761499e+000

4.46914855228886e+004,-2.06099814676311e+001,-1.61171730318289e+000

4.53153554118317e+004,-2.06100452565888e+001,-1.63418561320892e+000

4.59479341998812e+004,-2.06101108107223e+001,-1.65696629854617e+000

4.65893434587380e+004,-2.06101781780830e+001,-1.68006366734614e+000

4.72397064571810e+004,-2.06102474079864e+001,-1.70348208577963e+000

4.78991481847569e+004,-2.06103185510424e+001,-1.72722597876203e+000

4.85677953758016e+004,-2.06103916591872e+001,-1.75129983068925e+000

4.92457765337964e+004,-2.06104667857151e+001,-1.77570818617866e+000

4.99332219560642e+004,-2.06105439853110e+001,-1.80045565081778e+000

5.06302637588109e+004,-2.06106233140842e+001,-1.82554689192032e+000

5.13370359025159e+004,-2.06107048296018e+001,-1.85098663928810e+000

5.20536742176771e+004,-2.06107885909235e+001,-1.87677968598249e+000

5.27803164309155e+004,-2.06108746586369e+001,-1.90293088910132e+000

5.35171021914442e+004,-2.06109630948930e+001,-1.92944517056227e+000

5.42641730979066e+004,-2.06110539634429e+001,-1.95632751789580e+000

5.50216727255895e+004,-2.06111473296748e+001,-1.98358298504338e+000

5.57897466540159e+004,-2.06112432606520e+001,-2.01121669316210e+000

5.65685424949235e+004,-2.06113418251509e+001,-2.03923383143988e+000

5.73582099206328e+004,-2.06114430937002e+001,-2.06763965791378e+000

5.81589006928121e+004,-2.06115471386205e+001,-2.09643950029703e+000

5.89707686916437e+004,-2.06116540340646e+001,-2.12563875681486e+000

5.97939699453972e+004,-2.06117638560584e+001,-2.15524289704368e+000

6.06286626604156e+004,-2.06118766825422e+001,-2.18525746276141e+000

6.14750072515201e+004,-2.06119925934129e+001,-2.21568806880160e+000

6.23331663728396e+004,-2.06121116705670e+001,-2.24654040391662e+000

6.32033049490698e+004,-2.06122339979433e+001,-2.27782023164596e+000

6.40855902071694e+004,-2.06123596615671e+001,-2.30953339119530e+000

6.49801917084985e+004,-2.06124887495945e+001,-2.34168579831703e+000

6.58872813814055e+004,-2.06126213523575e+001,-2.37428344620249e+000

6.68070335542691e+004,-2.06127575624090e+001,-2.40733240638025e+000

6.77396249890018e+004,-2.06128974745696e+001,-2.44083882961876e+000

6.86852349150199e+004,-2.06130411859732e+001,-2.47480894683964e+000

6.96440450636895e+004,-2.06131887961145e+001,-2.50924907003590e+000

7.06162397032520e+004,-2.06133404068960e+001,-2.54416559319768e+000

7.16020056742374e+004,-2.06134961226763e+001,-2.57956499324456e+000

7.26015324253724e+004,-2.06136560503179e+001,-2.61545383096649e+000

7.36150120499896e+004,-2.06138202992357e+001,-2.65183875197062e+000

7.46426393229441e+004,-2.06139889814463e+001,-2.68872648763475e+000

7.56846117380472e+004,-2.06141622116169e+001,-2.72612385607013e+000

7.67411295460207e+004,-2.06143401071148e+001,-2.76403776308927e+000

7.78123957929823e+004,-2.06145227880572e+001,-2.80247520318248e+000

7.88986163594682e+004,-2.06147103773610e+001,-2.84144326050184e+000

7.99999999999995e+004,-2.06149030007929e+001,-2.88094910985192e+000

8.11167583832018e+004,-2.06151007870194e+001,-2.92100001768943e+000

8.22491061324848e+004,-2.06153038676573e+001,-2.96160334312877e+000

8.33972608672892e+004,-2.06155123773236e+001,-3.00276653895782e+000

8.45614432449099e+004,-2.06157264536859e+001,-3.04449715265993e+000

8.57418770029029e+004,-2.06159462375122e+001,-3.08680282744563e+000

8.69387890020841e+004,-2.06161718727212e+001,-3.12969130329232e+000

8.81524092701283e+004,-2.06164035064318e+001,-3.17317041799137e+000

8.93829710457770e+004,-2.06166412890127e+001,-3.21724810820696e+000

9.06307108236633e+004,-2.06168853741313e+001,-3.26193241054238e+000

9.18958683997622e+004,-2.06171359188028e+001,-3.30723146261515e+000

9.31786869174758e+004,-2.06173930834383e+001,-3.35315350414478e+000

9.44794129143618e+004,-2.06176570318924e+001,-3.39970687804860e+000

9.57982963695136e+004,-2.06179279315110e+001,-3.44690003154850e+000

9.71355907516031e+004,-2.06182059531770e+001,-3.49474151728989e+000

9.84915530675926e+004,-2.06184912713567e+001,-3.54323999447185e+000

9.98664439121282e+004,-2.06187840641448e+001,-3.59240422998851e+000

1.01260527517622e+005,-2.06190845133078e+001,-3.64224309958542e+000

1.02674071805032e+005,-2.06193928043280e+001,-3.69276558902645e+000

1.04107348435354e+005,-2.06197091264452e+001,-3.74398079527722e+000

1.05560632861831e+005,-2.06200336726978e+001,-3.79589792770152e+000

1.07034204382888e+005,-2.06203666399624e+001,-3.84852630927462e+000

1.08528346195813e+005,-2.06207082289927e+001,-3.90187537781150e+000

1.10043345451179e+005,-2.06210586444564e+001,-3.95595468721369e+000

1.11579493308032e+005,-2.06214180949712e+001,-4.01077390873337e+000

1.13137084989847e+005,-2.06217867931392e+001,-4.06634283225679e+000

1.14716419841265e+005,-2.06221649555794e+001,-4.12267136760783e+000

1.16317801385624e+005,-2.06225528029591e+001,-4.17976954587370e+000

1.17941537383287e+005,-2.06229505600234e+001,-4.23764752075142e+000

1.19587939890794e+005,-2.06233584556229e+001,-4.29631556992022e+000

1.21257325320831e+005,-2.06237767227395e+001,-4.35578409643775e+000

1.22950014503040e+005,-2.06242055985109e+001,-4.41606363016266e+000

1.24666332745679e+005,-2.06246453242524e+001,-4.47716482920647e+000

1.26406609898139e+005,-2.06250961454777e+001,-4.53909848141393e+000

1.28171180414339e+005,-2.06255583119168e+001,-4.60187550587506e+000

1.29960383416997e+005,-2.06260320775330e+001,-4.66550695446936e+000

1.31774562762811e+005,-2.06265177005369e+001,-4.73000401344665e+000

1.33614067108538e+005,-2.06270154433990e+001,-4.79537800504262e+000

1.35479249978003e+005,-2.06275255728606e+001,-4.86164038913337e+000

1.37370469830040e+005,-2.06280483599419e+001,-4.92880276493129e+000

1.39288090127379e+005,-2.06285840799492e+001,-4.99687687272271e+000

1.41232479406504e+005,-2.06291330124796e+001,-5.06587459565104e+000

1.43204011348474e+005,-2.06296954414243e+001,-5.13580796154588e+000

1.45203064850745e+005,-2.06302716549701e+001,-5.20668914480334e+000

1.47230024099979e+005,-2.06308619455994e+001,-5.27853046831621e+000

1.49285278645888e+005,-2.06314666100888e+001,-5.35134440545915e+000

1.51369223476094e+005,-2.06320859495063e+001,-5.42514358213089e+000

1.53482259092041e+005,-2.06327202692079e+001,-5.49994077885414e+000

1.55624791585964e+005,-2.06333698788323e+001,-5.57574893293903e+000

1.57797232718936e+005,-2.06340350922962e+001,-5.65258114070971e+000

1.59999999999999e+005,-2.06347162277884e+001,-5.73045065979764e+000

1.62233516766403e+005,-2.06354136077636e+001,-5.80937091150587e+000

1.64498212264969e+005,-2.06361275589372e+001,-5.88935548324429e+000

1.66794521734578e+005,-2.06368584122797e+001,-5.97041813103922e+000

1.69122886489819e+005,-2.06376065030126e+001,-6.05257278212329e+000

1.71483754005805e+005,-2.06383721706055e+001,-6.13583353760203e+000

1.73877578004168e+005,-2.06391557587745e+001,-6.22021467520542e+000

1.76304818540256e+005,-2.06399576154831e+001,-6.30573065212417e+000

1.78765942091554e+005,-2.06407780929459e+001,-6.39239610793317e+000

1.81261421647326e+005,-2.06416175476354e+001,-6.48022586760538e+000

1.83791736799524e+005,-2.06424763402920e+001,-6.56923494461863e+000

1.86357373834951e+005,-2.06433548359398e+001,-6.65943854415528e+000

1.88958825828723e+005,-2.06442534039057e+001,-6.75085206640046e+000

1.91596592739027e+005,-2.06451724178457e+001,-6.84349110993673e+000

1.94271181503206e+005,-2.06461122557766e+001,-6.93737147524020e+000

1.96983106135185e+005,-2.06470733001157e+001,-7.03250916827739e+000

1.99732887824256e+005,-2.06480559377274e+001,-7.12892040420525e+000

2.02521055035243e+005,-2.06490605599798e+001,-7.22662161117506e+000

2.05348143610063e+005,-2.06500875628100e+001,-7.32562943424072e+000

2.08214696870707e+005,-2.06511373468005e+001,-7.42596073937256e+000

2.11121265723661e+005,-2.06522103172660e+001,-7.52763261757663e+000

2.14068408765776e+005,-2.06533068843542e+001,-7.63066238911859e+000

2.17056692391625e+005,-2.06544274631584e+001,-7.73506760785399e+000

2.20086690902357e+005,-2.06555724738446e+001,-7.84086606566132e+000

2.23158986616063e+005,-2.06567423417948e+001,-7.94807579697835e+000

2.26274169979693e+005,-2.06579374977656e+001,-8.05671508344095e+000

2.29432839682530e+005,-2.06591583780639e+001,-8.16680245862030e+000

2.32635602771247e+005,-2.06604054247425e+001,-8.27835671285810e+000

2.35883074766574e+005,-2.06616790858127e+001,-8.39139689819551e+000

2.39175879781588e+005,-2.06629798154795e+001,-8.50594233339431e+000

2.42514650641661e+005,-2.06643080743970e+001,-8.62201260904494e+000

2.45900029006080e+005,-2.06656643299460e+001,-8.73962759275798e+000

2.49332665491357e+005,-2.06670490565365e+001,-8.85880743443471e+000

2.52813219796278e+005,-2.06684627359324e+001,-8.97957257161177e+000

2.56342360828676e+005,-2.06699058576041e+001,-9.10194373487332e+000

2.59920766833993e+005,-2.06713789191053e+001,-9.22594195332591e+000

2.63549125525621e+005,-2.06728824264783e+001,-9.35158856012966e+000

2.67228134217075e+005,-2.06744168946866e+001,-9.47890519807746e+000

2.70958499956006e+005,-2.06759828480773e+001,-9.60791382521663e+000

2.74740939660078e+005,-2.06775808208719e+001,-9.73863672050394e+000

2.78576180254757e+005,-2.06792113576885e+001,-9.87109648948663e+000

2.82464958813007e+005,-2.06808750140948e+001,-1.00053160700004e+001

2.86408022696948e+005,-2.06825723571921e+001,-1.01413187378762e+001

2.90406129701488e+005,-2.06843039662319e+001,-1.02791281126449e+001

2.94460048199957e+005,-2.06860704332651e+001,-1.04187681632336e+001

2.98570557291775e+005,-2.06878723638235e+001,-1.05602632136387e+001

3.02738446952187e+005,-2.06897103776349e+001,-1.07036379485721e+001

3.06964518184081e+005,-2.06915851093715e+001,-1.08489174190635e+001

3.11249583171928e+005,-2.06934972094318e+001,-1.09961270480143e+001

3.15594465437872e+005,-2.06954473447550e+001,-1.11452926356887e+001

3.19999999999997e+005,-2.06974361996705e+001,-1.12964403651330e+001

3.24467033532806e+005,-2.06994644767788e+001,-1.14495968075127e+001

3.28996424529938e+005,-2.07015328978664e+001,-1.16047889273553e+001

3.33589043469155e+005,-2.07036422048530e+001,-1.17620440876906e+001

3.38245772979638e+005,-2.07057931607706e+001,-1.19213900550756e+001

3.42967508011610e+005,-2.07079865507744e+001,-1.20828550044950e+001

3.47755156008335e+005,-2.07102231831841e+001,-1.22464675241278e+001

3.52609637080511e+005,-2.07125038905565e+001,-1.24122566199682e+001

3.57531884183106e+005,-2.07148295307862e+001,-1.25802517202933e+001

3.62522843294651e+005,-2.07172009882356e+001,-1.27504826799662e+001

3.67583473599047e+005,-2.07196191748925e+001,-1.29229797845684e+001

3.72714747669902e+005,-2.07220850315538e+001,-1.30977737543488e+001

3.77917651657445e+005,-2.07245995290349e+001,-1.32748957479867e+001

3.83193185478053e+005,-2.07271636694036e+001,-1.34543773661548e+001

3.88542363006410e+005,-2.07297784872368e+001,-1.36362506548810e+001

3.93966212270369e+005,-2.07324450508990e+001,-1.38205481086969e+001

3.99465775648511e+005,-2.07351644638420e+001,-1.40073026735715e+001

4.05042110070485e+005,-2.07379378659231e+001,-1.41965477496208e+001

4.10696287220124e+005,-2.07407664347415e+001,-1.43883171935900e+001

4.16429393741414e+005,-2.07436513869913e+001,-1.45826453211022e+001

4.22242531447321e+005,-2.07465939798301e+001,-1.47795669086720e+001

4.28136817531551e+005,-2.07495955122604e+001,-1.49791171954764e+001

4.34113384783250e+005,-2.07526573265242e+001,-1.51813318848838e+001

4.40173381804713e+005,-2.07557808095085e+001,-1.53862471457360e+001

4.46317973232124e+005,-2.07589673941605e+001,-1.55938996133807e+001

4.52548339959385e+005,-2.07622185609109e+001,-1.58043263904546e+001

4.58865679365059e+005,-2.07655358391048e+001,-1.60175650474150e+001

4.65271205542494e+005,-2.07689208084376e+001,-1.62336536228167e+001

4.71766149533147e+005,-2.07723751003964e+001,-1.64526306233373e+001

4.78351759563174e+005,-2.07759003997037e+001,-1.66745350235470e+001

4.85029301283321e+005,-2.07794984457644e+001,-1.68994062654254e+001

4.91800058012158e+005,-2.07831710341129e+001,-1.71272842576229e+001

4.98665330982714e+005,-2.07869200178604e+001,-1.73582093744698e+001

5.05626439592555e+005,-2.07907473091418e+001,-1.75922224547304e+001

5.12684721657352e+005,-2.07946548805599e+001,-1.78293648001047e+001

5.19841533667984e+005,-2.07986447666267e+001,-1.80696781734778e+001

5.27098251051240e+005,-2.08027190652013e+001,-1.83132047969160e+001

5.34456268434150e+005,-2.08068799389230e+001,-1.85599873494124e+001

5.41916999912011e+005,-2.08111296166384e+001,-1.88100689643801e+001

