Freq.,VOut,OutRef

1.00000000000000e+004,-1.24710684884361e+001,-7.74850771300063e-002

1.01395947979003e+004,-1.24710701514016e+001,-7.85664476232771e-002

1.02811382665607e+004,-1.24710718610575e+001,-7.96629015697341e-002

1.04246576084112e+004,-1.24710736187127e+001,-8.07746490210244e-002

1.05701804056138e+004,-1.24710754257132e+001,-8.19019029382202e-002

1.07177346253629e+004,-1.24710772834422e+001,-8.30448792361093e-002

1.08673486252606e+004,-1.24710791933215e+001,-8.42037968194253e-002

1.10190511587661e+004,-1.24710811568132e+001,-8.53788776212681e-002

1.11728713807222e+004,-1.24710831754198e+001,-8.65703466517022e-002

1.13288388529580e+004,-1.24710852506857e+001,-8.77784320333409e-002

1.14869835499703e+004,-1.24710873841987e+001,-8.90033650461683e-002

1.16473358646846e+004,-1.24710895775908e+001,-9.02453801709145e-002

1.18099266142953e+004,-1.24710918325399e+001,-9.15047151297482e-002

1.19747870461893e+004,-1.24710941507702e+001,-9.27816109341765e-002

1.21419488439505e+004,-1.24710965340540e+001,-9.40763119287836e-002

1.23114441334492e+004,-1.24710989842141e+001,-9.53890658301970e-002

1.24833054890161e+004,-1.24711015031226e+001,-9.67201237849068e-002

1.26575659397028e+004,-1.24711040927053e+001,-9.80697404014704e-002

1.28342589756290e+004,-1.24711067549404e+001,-9.94381738116415e-002

1.30134185544193e+004,-1.24711094918624e+001,-1.00825685703932e-001

1.31950791077289e+004,-1.24711123055615e+001,-1.02232541384823e-001

1.33792755478611e+004,-1.24711151981870e+001,-1.03659009815275e-001

1.35660432744767e+004,-1.24711181719477e+001,-1.05105363668476e-001

1.37554181813974e+004,-1.24711212291139e+001,-1.06571879377741e-001

1.39474366635040e+004,-1.24711243720192e+001,-1.08058837184173e-001

1.41421356237309e+004,-1.24711276030618e+001,-1.09566521193364e-001

1.43395524801583e+004,-1.24711309247073e+001,-1.11095219420253e-001

1.45397251732031e+004,-1.24711343394895e+001,-1.12645223845341e-001

1.47426921729110e+004,-1.24711378500126e+001,-1.14216830470153e-001

1.49484924863494e+004,-1.24711414589536e+001,-1.15810339363797e-001

1.51571656651040e+004,-1.24711451690636e+001,-1.17426054724541e-001

1.53687518128801e+004,-1.24711489831703e+001,-1.19064284930579e-001

1.55832915932100e+004,-1.24711529041795e+001,-1.20725342599358e-001

1.58008262372675e+004,-1.24711569350784e+001,-1.22409544636538e-001

1.60213975517924e+004,-1.24711610789369e+001,-1.24117212301050e-001

1.62450479271247e+004,-1.24711653389097e+001,-1.25848671259942e-001

1.64718203453514e+004,-1.24711697182394e+001,-1.27604251643281e-001

1.67017583885674e+004,-1.24711742202586e+001,-1.29384288107782e-001

1.69349062472505e+004,-1.24711788483919e+001,-1.31189119894872e-001

1.71713087287550e+004,-1.24711836061590e+001,-1.33019090890485e-001

1.74110112659224e+004,-1.24711884971769e+001,-1.34874549686778e-001

1.76540599258131e+004,-1.24711935251634e+001,-1.36755849640458e-001

1.79005014185594e+004,-1.24711986939383e+001,-1.38663348942130e-001

1.81503831063432e+004,-1.24712040074276e+001,-1.40597410673858e-001

1.84037530124975e+004,-1.24712094696658e+001,-1.42558402873792e-001

1.86606598307361e+004,-1.24712150847985e+001,-1.44546698603771e-001

1.89211529345119e+004,-1.24712208570861e+001,-1.46562676010180e-001

1.91852823865052e+004,-1.24712267909070e+001,-1.48606718391710e-001

1.94530989482457e+004,-1.24712328907596e+001,-1.50679214268182e-001

1.97246540898671e+004,-1.24712391612667e+001,-1.52780557446294e-001

1.99999999999999e+004,-1.24712456071790e+001,-1.54911147083741e-001

2.02791895958005e+004,-1.24712522333776e+001,-1.57071387763820e-001

2.05622765331213e+004,-1.24712590448776e+001,-1.59261689565979e-001

2.08493152168224e+004,-1.24712660468331e+001,-1.61482468126116e-001

2.11403608112276e+004,-1.24712732445392e+001,-1.63734144719489e-001

2.14354692507258e+004,-1.24712806434364e+001,-1.66017146326034e-001

2.17346972505211e+004,-1.24712882491151e+001,-1.68331905702234e-001

2.20381023175322e+004,-1.24712960673189e+001,-1.70678861456577e-001

2.23457427614443e+004,-1.24713041039489e+001,-1.73058458122142e-001

2.26576777059159e+004,-1.24713123650681e+001,-1.75471146231372e-001

2.29739670999406e+004,-1.24713208569053e+001,-1.77917382391238e-001

2.32946717293690e+004,-1.24713295858598e+001,-1.80397629359707e-001

2.36198532285905e+004,-1.24713385585061e+001,-1.82912356120252e-001

2.39495740923785e+004,-1.24713477815982e+001,-1.85462037961598e-001

2.42838976879009e+004,-1.24713572620742e+001,-1.88047156555013e-001

2.46228882668982e+004,-1.24713670070619e+001,-1.90668200030884e-001

2.49666109780322e+004,-1.24713770238834e+001,-1.93325663059657e-001

2.53151318794055e+004,-1.24713873200595e+001,-1.96020046934275e-001

2.56685179512580e+004,-1.24713979033164e+001,-1.98751859644620e-001

2.60268371088386e+004,-1.24714087815901e+001,-2.01521615963156e-001

2.63901582154578e+004,-1.24714199630315e+001,-2.04329837528769e-001

2.67585510957221e+004,-1.24714314560134e+001,-2.07177052922770e-001

2.71320865489533e+004,-1.24714432691351e+001,-2.10063797756348e-001

2.75108363627948e+004,-1.24714554112284e+001,-2.12990614756515e-001

2.78948733270080e+004,-1.24714678913645e+001,-2.15958053843285e-001

2.82842712474618e+004,-1.24714807188592e+001,-2.18966672221393e-001

2.86791049603164e+004,-1.24714939032796e+001,-2.22017034462474e-001

2.90794503464061e+004,-1.24715074544509e+001,-2.25109712590138e-001

2.94853843458219e+004,-1.24715213824626e+001,-2.28245286168731e-001

2.98969849726987e+004,-1.24715356976751e+001,-2.31424342390841e-001

3.03143313302078e+004,-1.24715504107273e+001,-2.34647476160838e-001

3.07375036257601e+004,-1.24715655325430e+001,-2.37915290187349e-001

3.11665831864199e+004,-1.24715810743386e+001,-2.41228395067790e-001

3.16016524745350e+004,-1.24715970476305e+001,-2.44587409379743e-001

3.20427951035848e+004,-1.24716134642421e+001,-2.47992959769618e-001

3.24900958542493e+004,-1.24716303363122e+001,-2.51445681042206e-001

3.29436406907028e+004,-1.24716476763027e+001,-2.54946216247507e-001

3.34035167771346e+004,-1.24716654970064e+001,-2.58495216776800e-001

3.38698124945009e+004,-1.24716838115556e+001,-2.62093342447840e-001

3.43426174575100e+004,-1.24717026334300e+001,-2.65741261599218e-001

3.48220225318448e+004,-1.24717219764663e+001,-2.69439651177372e-001

3.53081198516260e+004,-1.24717418548657e+001,-2.73189196831290e-001

3.58010028371187e+004,-1.24717622832036e+001,-2.76990593002151e-001

3.63007662126863e+004,-1.24717832764386e+001,-2.80844543014188e-001

3.68075060249948e+004,-1.24718048499217e+001,-2.84751759167665e-001

3.73213196614721e+004,-1.24718270194059e+001,-2.88712962828145e-001

3.78423058690237e+004,-1.24718498010552e+001,-2.92728884520778e-001

3.83705647730104e+004,-1.24718732114561e+001,-2.96800264015436e-001

3.89061978964912e+004,-1.24718972676255e+001,-3.00927850426962e-001

3.94493081797342e+004,-1.24719219870227e+001,-3.05112402296793e-001

3.99999999999998e+004,-1.24719473875583e+001,-3.09354687692136e-001

4.05583791916010e+004,-1.24719734876063e+001,-3.13655484288475e-001

4.11245530662425e+004,-1.24720003060131e+001,-3.18015579467141e-001

4.16986304336447e+004,-1.24720278621103e+001,-3.22435770397644e-001

4.22807216224550e+004,-1.24720561757244e+001,-3.26916864132042e-001

4.28709385014515e+004,-1.24720852671885e+001,-3.31459677693664e-001

4.34693945010421e+004,-1.24721151573541e+001,-3.36065038160064e-001

4.40762046350642e+004,-1.24721458676025e+001,-3.40733782755887e-001

4.46914855228886e+004,-1.24721774198561e+001,-3.45466758938522e-001

4.53153554118317e+004,-1.24722098365917e+001,-3.50264824479662e-001

4.59479341998812e+004,-1.24722431408510e+001,-3.55128847555815e-001

4.65893434587380e+004,-1.24722773562541e+001,-3.60059706829634e-001

4.72397064571810e+004,-1.24723125070115e+001,-3.65058291531898e-001

4.78991481847569e+004,-1.24723486179366e+001,-3.70125501546012e-001

4.85677953758016e+004,-1.24723857144589e+001,-3.75262247484414e-001

4.92457765337964e+004,-1.24724238226361e+001,-3.80469450773400e-001

4.99332219560642e+004,-1.24724629691680e+001,-3.85748043724920e-001

5.06302637588109e+004,-1.24725031814090e+001,-3.91098969618121e-001

5.13370359025159e+004,-1.24725444873817e+001,-3.96523182769503e-001

5.20536742176771e+004,-1.24725869157898e+001,-4.02021648610842e-001

5.27803164309155e+004,-1.24726304960322e+001,-4.07595343755184e-001

5.35171021914442e+004,-1.24726752582157e+001,-4.13245256070747e-001

5.42641730979066e+004,-1.24727212331693e+001,-4.18972384745136e-001

5.50216727255895e+004,-1.24727684524574e+001,-4.24777740352643e-001

5.57897466540159e+004,-1.24728169483940e+001,-4.30662344914674e-001

5.65685424949235e+004,-1.24728667540553e+001,-4.36627231964849e-001

5.73582099206328e+004,-1.24729179032947e+001,-4.42673446602841e-001

5.81589006928121e+004,-1.24729704307558e+001,-4.48802045550368e-001

5.89707686916437e+004,-1.24730243718861e+001,-4.55014097208959e-001

5.97939699453972e+004,-1.24730797629507e+001,-4.61310681703651e-001

6.06286626604156e+004,-1.24731366410459e+001,-4.67692890936476e-001

6.14750072515201e+004,-1.24731950441127e+001,-4.74161828625044e-001

6.23331663728396e+004,-1.24732550109499e+001,-4.80718610347922e-001

6.32033049490698e+004,-1.24733165812273e+001,-4.87364363582141e-001

6.40855902071694e+004,-1.24733797954991e+001,-4.94100227734884e-001

6.49801917084985e+004,-1.24734446952164e+001,-5.00927354177763e-001

6.58872813814055e+004,-1.24735113227397e+001,-5.07846906272548e-001

6.68070335542691e+004,-1.24735797213513e+001,-5.14860059396116e-001

6.77396249890018e+004,-1.24736499352676e+001,-5.21968000958282e-001

6.86852349150199e+004,-1.24737220096502e+001,-5.29171930420301e-001

6.96440450636895e+004,-1.24737959906176e+001,-5.36473059305178e-001

7.06162397032520e+004,-1.24738719252559e+001,-5.43872611207404e-001

7.16020056742374e+004,-1.24739498616294e+001,-5.51371821793528e-001

7.26015324253724e+004,-1.24740298487902e+001,-5.58971938803230e-001

7.36150120499896e+004,-1.24741119367877e+001,-5.66674222044481e-001

7.46426393229441e+004,-1.24741961766773e+001,-5.74479943383690e-001

7.56846117380472e+004,-1.24742826205286e+001,-5.82390386730616e-001

7.67411295460207e+004,-1.24743713214325e+001,-5.90406848018941e-001

7.78123957929823e+004,-1.24744623335079e+001,-5.98530635185427e-001

7.88986163594682e+004,-1.24745557119077e+001,-6.06763068137729e-001

7.99999999999995e+004,-1.24746515128233e+001,-6.15105478724835e-001

8.11167583832018e+004,-1.24747497934885e+001,-6.23559210697320e-001

8.22491061324848e+004,-1.24748506121829e+001,-6.32125619663547e-001

8.33972608672892e+004,-1.24749540282327e+001,-6.40806073045315e-001

8.45614432449099e+004,-1.24750601020125e+001,-6.49601950022022e-001

8.57418770029029e+004,-1.24751688949436e+001,-6.58514641475184e-001

8.69387890020841e+004,-1.24752804694927e+001,-6.67545549927230e-001

8.81524092701283e+004,-1.24753948891681e+001,-6.76696089474427e-001

8.93829710457770e+004,-1.24755122185152e+001,-6.85967685715233e-001

9.06307108236633e+004,-1.24756325231097e+001,-6.95361775675688e-001

9.18958683997622e+004,-1.24757558695498e+001,-7.04879807729458e-001

9.31786869174758e+004,-1.24758823254459e+001,-7.14523241515863e-001

9.44794129143618e+004,-1.24760119594092e+001,-7.24293547849341e-001

9.57982963695136e+004,-1.24761448410381e+001,-7.34192208630501e-001

9.71355907516031e+004,-1.24762810409018e+001,-7.44220716751064e-001

9.84915530675926e+004,-1.24764206305232e+001,-7.54380575995820e-001

9.98664439121282e+004,-1.24765636823581e+001,-7.64673300941919e-001

1.01260527517622e+005,-1.24767102697729e+001,-7.75100416858110e-001

1.02674071805032e+005,-1.24768604670197e+001,-7.85663459596792e-001

1.04107348435354e+005,-1.24770143492086e+001,-7.96363975490180e-001

1.05560632861831e+005,-1.24771719922771e+001,-8.07203521243128e-001

1.07034204382888e+005,-1.24773334729576e+001,-8.18183663823337e-001

1.08528346195813e+005,-1.24774988687406e+001,-8.29305980355587e-001

1.10043345451179e+005,-1.24776682578362e+001,-8.40572058015086e-001

1.11579493308032e+005,-1.24778417191319e+001,-8.51983493920420e-001

1.13137084989847e+005,-1.24780193321469e+001,-8.63541895031241e-001

1.14716419841265e+005,-1.24782011769828e+001,-8.75248878049932e-001

1.16317801385624e+005,-1.24783873342723e+001,-8.87106069322575e-001

1.17941537383287e+005,-1.24785778851224e+001,-8.99115104748664e-001

1.19587939890794e+005,-1.24787729110551e+001,-9.11277629696570e-001

1.21257325320831e+005,-1.24789724939438e+001,-9.23595298924737e-001

1.22950014503040e+005,-1.24791767159460e+001,-9.36069776508598e-001

1.24666332745679e+005,-1.24793856594321e+001,-9.48702735782515e-001

1.26406609898139e+005,-1.24795994069094e+001,-9.61495859287506e-001

1.28171180414339e+005,-1.24798180409429e+001,-9.74450838730199e-001

1.29960383416997e+005,-1.24800416440712e+001,-9.87569374960304e-001

1.31774562762811e+005,-1.24802702987179e+001,-1.00085317795636e+000

1.33614067108538e+005,-1.24805040870995e+001,-1.01430396683203e+000

1.35479249978003e+005,-1.24807430911276e+001,-1.02792346985788e+000

1.37370469830040e+005,-1.24809873923070e+001,-1.04171342450440e+000

1.39288090127379e+005,-1.24812370716303e+001,-1.05567557750369e+000

1.41232479406504e+005,-1.24814922094657e+001,-1.06981168493941e+000

1.43204011348474e+005,-1.24817528854427e+001,-1.08412351235269e+000

1.45203064850745e+005,-1.24820191783309e+001,-1.09861283488517e+000

1.47230024099979e+005,-1.24822911659157e+001,-1.11328143744431e+000

1.49285278645888e+005,-1.24825689248689e+001,-1.12813111490025e+000

1.51369223476094e+005,-1.24828525306147e+001,-1.14316367231878e+000

1.53482259092041e+005,-1.24831420571912e+001,-1.15838092522731e+000

1.55624791585964e+005,-1.24834375771075e+001,-1.17378469991837e+000

1.57797232718936e+005,-1.24837391611968e+001,-1.18937683379381e+000

1.59999999999999e+005,-1.24840468784649e+001,-1.20515917574950e+000

1.62233516766403e+005,-1.24843607959345e+001,-1.22113358660723e+000

1.64498212264969e+005,-1.24846809784864e+001,-1.23730193959033e+000

1.66794521734578e+005,-1.24850074886958e+001,-1.25366612084962e+000

1.69122886489819e+005,-1.24853403866664e+001,-1.27022803004080e+000

1.71483754005805e+005,-1.24856797298598e+001,-1.28698958095763e+000

1.73877578004168e+005,-1.24860255729234e+001,-1.30395270221510e+000

1.76304818540256e+005,-1.24863779675143e+001,-1.32111933799887e+000

1.78765942091554e+005,-1.24867369621209e+001,-1.33849144887042e+000

1.81261421647326e+005,-1.24871026018839e+001,-1.35607101263560e+000

1.83791736799524e+005,-1.24874749284131e+001,-1.37386002528069e+000

1.86357373834951e+005,-1.24878539796048e+001,-1.39186050197225e+000

1.88958825828723e+005,-1.24882397894582e+001,-1.41007447812755e+000

1.91596592739027e+005,-1.24886323878897e+001,-1.42850401055722e+000

1.94271181503206e+005,-1.24890318005492e+001,-1.44715117867875e+000

1.96983106135185e+005,-1.24894380486355e+001,-1.46601808580459e+000

1.99732887824256e+005,-1.24898511487138e+001,-1.48510686050570e+000

2.02521055035243e+005,-1.24902711125337e+001,-1.50441965805380e+000

2.05348143610063e+005,-1.24906979468504e+001,-1.52395866193842e+000

2.08214696870707e+005,-1.24911316532481e+001,-1.54372608546602e+000

2.11121265723661e+005,-1.24915722279668e+001,-1.56372417343670e+000

2.14068408765776e+005,-1.24920196617336e+001,-1.58395520390029e+000

2.17056692391625e+005,-1.24924739395979e+001,-1.60442148999614e+000

2.20086690902357e+005,-1.24929350407730e+001,-1.62512538186699e+000

2.23158986616063e+005,-1.24934029384831e+001,-1.64606926865743e+000

2.26274169979693e+005,-1.24938775998168e+001,-1.66725558058923e+000

2.29432839682530e+005,-1.24943589855891e+001,-1.68868679111348e+000

2.32635602771247e+005,-1.24948470502108e+001,-1.71036541914210e+000

2.35883074766574e+005,-1.24953417415666e+001,-1.73229403135062e+000

2.39175879781588e+005,-1.24958430009040e+001,-1.75447524455614e+000

2.42514650641661e+005,-1.24963507627308e+001,-1.77691172816693e+000

2.45900029006080e+005,-1.24968649547253e+001,-1.79960620669576e+000

2.49332665491357e+005,-1.24973854976572e+001,-1.82256146234269e+000

2.52813219796278e+005,-1.24979123053209e+001,-1.84578033763583e+000

2.56342360828676e+005,-1.24984452844821e+001,-1.86926573813239e+000

2.59920766833993e+005,-1.24989843348380e+001,-1.89302063517183e+000

2.63549125525621e+005,-1.24995293489913e+001,-1.91704806867930e+000

2.67228134217075e+005,-1.25000802124392e+001,-1.94135115001228e+000

2.70958499956006e+005,-1.25006368035780e+001,-1.96593306484791e+000

2.74740939660078e+005,-1.25011989937222e+001,-1.99079707610473e+000

2.78576180254757e+005,-1.25017666471410e+001,-2.01594652689242e+000

2.82464958813007e+005,-1.25023396211106e+001,-2.04138484348313e+000

2.86408022696948e+005,-1.25029177659832e+001,-2.06711553830190e+000

2.90406129701488e+005,-1.25035009252727e+001,-2.09314221292418e+000

2.94460048199957e+005,-1.25040889357589e+001,-2.11946856107969e+000

2.98570557291775e+005,-1.25046816276069e+001,-2.14609837165171e+000

3.02738446952187e+005,-1.25052788245051e+001,-2.17303553166723e+000

3.06964518184081e+005,-1.25058803438206e+001,-2.20028402926896e+000

3.11249583171928e+005,-1.25064859967709e+001,-2.22784795666481e+000

3.15594465437872e+005,-1.25070955886127e+001,-2.25573151304728e+000

3.19999999999997e+005,-1.25077089188483e+001,-2.28393900747242e+000

3.24467033532806e+005,-1.25083257814465e+001,-2.31247486169800e+000

3.28996424529938e+005,-1.25089459650815e+001,-2.34134361296537e+000

3.33589043469155e+005,-1.25095692533858e+001,-2.37054991672825e+000

3.38245772979638e+005,-1.25101954252178e+001,-2.40009854931406e+000

3.42967508011610e+005,-1.25108242549449e+001,-2.42999441051366e+000

3.47755156008335e+005,-1.25114555127387e+001,-2.46024252609721e+000

3.52609637080511e+005,-1.25120889648833e+001,-2.49084805024520e+000

3.57531884183106e+005,-1.25127243740956e+001,-2.52181626789200e+000

3.62522843294651e+005,-1.25133614998565e+001,-2.55315259697690e+000

3.67583473599047e+005,-1.25140000987514e+001,-2.58486259059802e+000

3.72714747669902e+005,-1.25146399248198e+001,-2.61695193906468e+000

3.77917651657445e+005,-1.25152807299137e+001,-2.64942647184342e+000

3.83193185478053e+005,-1.25159222640604e+001,-2.68229215939849e+000

3.88542363006410e+005,-1.25165642758332e+001,-2.71555511491831e+000

3.93966212270369e+005,-1.25172065127249e+001,-2.74922159593077e+000

3.99465775648511e+005,-1.25178487215245e+001,-2.78329800580538e+000

4.05042110070485e+005,-1.25184906486962e+001,-2.81779089513684e+000

4.10696287220124e+005,-1.25191320407589e+001,-2.85270696301557e+000

4.16429393741414e+005,-1.25197726446642e+001,-2.88805305818261e+000

4.22242531447321e+005,-1.25204122081741e+001,-2.92383618006773e+000

4.28136817531551e+005,-1.25210504802335e+001,-2.96006347971727e+000

4.34113384783250e+005,-1.25216872113401e+001,-2.99674226060972e+000

4.40173381804713e+005,-1.25223221539079e+001,-3.03387997936005e+000

4.46317973232124e+005,-1.25229550626237e+001,-3.07148424632314e+000

4.52548339959385e+005,-1.25235856947963e+001,-3.10956282609151e+000

4.58865679365059e+005,-1.25242138106965e+001,-3.14812363789624e+000

4.65271205542494e+005,-1.25248391738870e+001,-3.18717475591524e+000

4.71766149533147e+005,-1.25254615515413e+001,-3.22672440949238e+000

4.78351759563174e+005,-1.25260807147511e+001,-3.26678098327386e+000

4.85029301283321e+005,-1.25266964388203e+001,-3.30735301726850e+000

4.91800058012158e+005,-1.25273085035455e+001,-3.34844920683607e+000

4.98665330982714e+005,-1.25279166934829e+001,-3.39007840261214e+000

5.05626439592555e+005,-1.25285207981993e+001,-3.43224961037462e+000

5.12684721657352e+005,-1.25291206125081e+001,-3.47497199086112e+000

5.19841533667984e+005,-1.25297159366891e+001,-3.51825485954061e+000

5.27098251051240e+005,-1.25303065766917e+001,-3.56210768635186e+000

5.34456268434150e+005,-1.25308923443212e+001,-3.60654009541101e+000

5.41916999912011e+005,-1.25314730574085e+001,-3.65156186469858e+000

