Freq.,VOut,OutRef

1.00000000000000e+004,-1.86630234862006e+001,-2.46096956185798e-001

1.01395947979003e+004,-1.86630256859102e+001,-2.49532047817388e-001

1.02811382665607e+004,-1.86630279473983e+001,-2.53015079072464e-001

1.04246576084112e+004,-1.86630302723979e+001,-2.56546718635444e-001

1.05701804056138e+004,-1.86630326626907e+001,-2.60127644502471e-001

1.07177346253629e+004,-1.86630351201083e+001,-2.63758544109302e-001

1.08673486252606e+004,-1.86630376465337e+001,-2.67440114465151e-001

1.10190511587661e+004,-1.86630402439022e+001,-2.71173062282887e-001

1.11728713807222e+004,-1.86630429142037e+001,-2.74958104114334e-001

1.13288388529580e+004,-1.86630456594832e+001,-2.78795966488609e-001

1.14869835499703e+004,-1.86630484818437e+001,-2.82687386043833e-001

1.16473358646846e+004,-1.86630513834463e+001,-2.86633109675057e-001

1.18099266142953e+004,-1.86630543665127e+001,-2.90633894671492e-001

1.19747870461893e+004,-1.86630574333272e+001,-2.94690508858563e-001

1.21419488439505e+004,-1.86630605862373e+001,-2.98803730751190e-001

1.23114441334492e+004,-1.86630638276565e+001,-3.02974349691783e-001

1.24833054890161e+004,-1.86630671600657e+001,-3.07203166007748e-001

1.26575659397028e+004,-1.86630705860149e+001,-3.11490991159996e-001

1.28342589756290e+004,-1.86630741081258e+001,-3.15838647894901e-001

1.30134185544193e+004,-1.86630777290928e+001,-3.20246970405374e-001

1.31950791077289e+004,-1.86630814516858e+001,-3.24716804484356e-001

1.33792755478611e+004,-1.86630852787523e+001,-3.29249007684945e-001

1.35660432744767e+004,-1.86630892132188e+001,-3.33844449486628e-001

1.37554181813974e+004,-1.86630932580937e+001,-3.38504011455819e-001

1.39474366635040e+004,-1.86630974164695e+001,-3.43228587413680e-001

1.41421356237309e+004,-1.86631016915248e+001,-3.48019083606163e-001

1.43395524801583e+004,-1.86631060865269e+001,-3.52876418874096e-001

1.45397251732031e+004,-1.86631106048343e+001,-3.57801524826134e-001

1.47426921729110e+004,-1.86631152498990e+001,-3.62795346016006e-001

1.49484924863494e+004,-1.86631200252692e+001,-3.67858840120359e-001

1.51571656651040e+004,-1.86631249345922e+001,-3.72992978117820e-001

1.53687518128801e+004,-1.86631299816167e+001,-3.78198744473789e-001

1.55832915932100e+004,-1.86631351701960e+001,-3.83477137324710e-001

1.58008262372675e+004,-1.86631405042907e+001,-3.88829168666306e-001

1.60213975517924e+004,-1.86631459879713e+001,-3.94255864544014e-001

1.62450479271247e+004,-1.86631516254221e+001,-3.99758265245373e-001

1.64718203453514e+004,-1.86631574209435e+001,-4.05337425495975e-001

1.67017583885674e+004,-1.86631633789554e+001,-4.10994414658248e-001

1.69349062472505e+004,-1.86631695040012e+001,-4.16730316928856e-001

1.71713087287550e+004,-1.86631758007500e+001,-4.22546231546592e-001

1.74110112659224e+004,-1.86631822740007e+001,-4.28443272994690e-001

1.76540599258131e+004,-1.86631889286861e+001,-4.34422571210707e-001

1.79005014185594e+004,-1.86631957698751e+001,-4.40485271799050e-001

1.81503831063432e+004,-1.86632028027780e+001,-4.46632536243976e-001

1.84037530124975e+004,-1.86632100327495e+001,-4.52865542124850e-001

1.86606598307361e+004,-1.86632174652928e+001,-4.59185483340583e-001

1.89211529345119e+004,-1.86632251060636e+001,-4.65593570327706e-001

1.91852823865052e+004,-1.86632329608748e+001,-4.72091030287842e-001

1.94530989482457e+004,-1.86632410356999e+001,-4.78679107416819e-001

1.97246540898671e+004,-1.86632493366781e+001,-4.85359063135292e-001

1.99999999999999e+004,-1.86632578701184e+001,-4.92132176323809e-001

2.02791895958005e+004,-1.86632666425045e+001,-4.98999743558800e-001

2.05622765331213e+004,-1.86632756604997e+001,-5.05963079354926e-001

2.08493152168224e+004,-1.86632849309510e+001,-5.13023516407596e-001

2.11403608112276e+004,-1.86632944608952e+001,-5.20182405839723e-001

2.14354692507258e+004,-1.86633042575630e+001,-5.27441117453371e-001

2.17346972505211e+004,-1.86633143283849e+001,-5.34801039980031e-001

2.20381023175322e+004,-1.86633246809965e+001,-5.42263581339442e-001

2.23457427614443e+004,-1.86633353232442e+001,-5.49830168896184e-001

2.26576777059159e+004,-1.86633462631902e+001,-5.57502249726171e-001

2.29739670999406e+004,-1.86633575091191e+001,-5.65281290880671e-001

2.32946717293690e+004,-1.86633690695435e+001,-5.73168779655811e-001

2.36198532285905e+004,-1.86633809532106e+001,-5.81166223865430e-001

2.39495740923785e+004,-1.86633931691076e+001,-5.89275152118312e-001

2.42838976879009e+004,-1.86634057264691e+001,-5.97497114096765e-001

2.46228882668982e+004,-1.86634186347832e+001,-6.05833680840921e-001

2.49666109780322e+004,-1.86634319037984e+001,-6.14286445034854e-001

2.53151318794055e+004,-1.86634455435307e+001,-6.22857021296104e-001

2.56685179512580e+004,-1.86634595642707e+001,-6.31547046470771e-001

2.60268371088386e+004,-1.86634739765905e+001,-6.40358179930888e-001

2.63901582154578e+004,-1.86634887913520e+001,-6.49292103873378e-001

2.67585510957221e+004,-1.86635040197139e+001,-6.58350523628552e-001

2.71320865489533e+004,-1.86635196731399e+001,-6.67535167964338e-001

2.75108363627948e+004,-1.86635357634068e+001,-6.76847789401008e-001

2.78948733270080e+004,-1.86635523026127e+001,-6.86290164526188e-001

2.82842712474618e+004,-1.86635693031853e+001,-6.95864094314601e-001

2.86791049603164e+004,-1.86635867778910e+001,-7.05571404452125e-001

2.90794503464061e+004,-1.86636047398435e+001,-7.15413945661178e-001

2.94853843458219e+004,-1.86636232025131e+001,-7.25393594033733e-001

2.98969849726987e+004,-1.86636421797358e+001,-7.35512251365609e-001

3.03143313302078e+004,-1.86636616857232e+001,-7.45771845494976e-001

3.07375036257601e+004,-1.86636817350718e+001,-7.56174330646628e-001

3.11665831864199e+004,-1.86637023427737e+001,-7.66721687776605e-001

3.16016524745350e+004,-1.86637235242265e+001,-7.77415924924022e-001

3.20427951035848e+004,-1.86637452952434e+001,-7.88259077566824e-001

3.24900958542493e+004,-1.86637676720648e+001,-7.99253208978971e-001

3.29436406907028e+004,-1.86637906713688e+001,-8.10400410594474e-001

3.34035167771346e+004,-1.86638143102824e+001,-8.21702802373137e-001

3.38698124945009e+004,-1.86638386063932e+001,-8.33162533173291e-001

3.43426174575100e+004,-1.86638635777614e+001,-8.44781781124762e-001

3.48220225318448e+004,-1.86638892429311e+001,-8.56562754010563e-001

3.53081198516260e+004,-1.86639156209436e+001,-8.68507689648054e-001

3.58010028371187e+004,-1.86639427313492e+001,-8.80618856278210e-001

3.63007662126863e+004,-1.86639705942206e+001,-8.92898552955079e-001

3.68075060249948e+004,-1.86639992301656e+001,-9.05349109945671e-001

3.73213196614721e+004,-1.86640286603410e+001,-9.17972889124974e-001

3.78423058690237e+004,-1.86640589064661e+001,-9.30772284384830e-001

3.83705647730104e+004,-1.86640899908366e+001,-9.43749722040203e-001

3.89061978964912e+004,-1.86641219363394e+001,-9.56907661241324e-001

3.94493081797342e+004,-1.86641547664665e+001,-9.70248594392747e-001

3.99999999999998e+004,-1.86641885053307e+001,-9.83775047572723e-001

4.05583791916010e+004,-1.86642231776803e+001,-9.97489580960537e-001

4.11245530662425e+004,-1.86642588089149e+001,-1.01139478926414e+000

4.16986304336447e+004,-1.86642954251011e+001,-1.02549330215637e+000

4.22807216224550e+004,-1.86643330529890e+001,-1.03978778471009e+000

4.28709385014515e+004,-1.86643717200282e+001,-1.05428093784494e+000

4.34693945010421e+004,-1.86644114543849e+001,-1.06897549876966e+000

4.40762046350642e+004,-1.86644522849592e+001,-1.08387424143650e+000

4.46914855228886e+004,-1.86644942414020e+001,-1.09897997699428e+000

4.53153554118317e+004,-1.86645373541334e+001,-1.11429555424878e+000

4.59479341998812e+004,-1.86645816543603e+001,-1.12982386012619e+000

4.65893434587380e+004,-1.86646271740951e+001,-1.14556782014045e+000

4.72397064571810e+004,-1.86646739461741e+001,-1.16153039886621e+000

4.78991481847569e+004,-1.86647220042772e+001,-1.17771460041344e+000

4.85677953758016e+004,-1.86647713829464e+001,-1.19412346890964e+000

4.92457765337964e+004,-1.86648221176060e+001,-1.21076008898373e+000

4.99332219560642e+004,-1.86648742445827e+001,-1.22762758625287e+000

5.06302637588109e+004,-1.86649278011255e+001,-1.24472912781843e+000

5.13370359025159e+004,-1.86649828254264e+001,-1.26206792275915e+000

5.20536742176771e+004,-1.86650393566418e+001,-1.27964722263517e+000

5.27803164309155e+004,-1.86650974349129e+001,-1.29747032199034e+000

5.35171021914442e+004,-1.86651571013879e+001,-1.31554055886214e+000

5.42641730979066e+004,-1.86652183982432e+001,-1.33386131529538e+000

5.50216727255895e+004,-1.86652813687059e+001,-1.35243601785673e+000

5.57897466540159e+004,-1.86653460570758e+001,-1.37126813815694e+000

5.65685424949235e+004,-1.86654125087483e+001,-1.39036119337529e+000

5.73582099206328e+004,-1.86654807702370e+001,-1.40971874678670e+000

5.81589006928121e+004,-1.86655508891963e+001,-1.42934440829591e+000

5.89707686916437e+004,-1.86656229144458e+001,-1.44924183497091e+000

5.97939699453972e+004,-1.86656968959928e+001,-1.46941473158482e+000

6.06286626604156e+004,-1.86657728850560e+001,-1.48986685115827e+000

6.14750072515201e+004,-1.86658509340901e+001,-1.51060199550647e+000

6.23331663728396e+004,-1.86659310968090e+001,-1.53162401579012e+000

6.32033049490698e+004,-1.86660134282104e+001,-1.55293681306946e+000

6.40855902071694e+004,-1.86660979845998e+001,-1.57454433886292e+000

6.49801917084985e+004,-1.86661848236150e+001,-1.59645059570775e+000

6.58872813814055e+004,-1.86662740042505e+001,-1.61865963772559e+000

6.68070335542691e+004,-1.86663655868819e+001,-1.64117557119029e+000

6.77396249890018e+004,-1.86664596332904e+001,-1.66400255510198e+000

6.86852349150199e+004,-1.86665562066874e+001,-1.68714480175951e+000

6.96440450636895e+004,-1.86666553717388e+001,-1.71060657734239e+000

7.06162397032520e+004,-1.86667571945893e+001,-1.73439220249172e+000

7.16020056742374e+004,-1.86668617428869e+001,-1.75850605289551e+000

7.26015324253724e+004,-1.86669690858066e+001,-1.78295255988071e+000

7.36150120499896e+004,-1.86670792940750e+001,-1.80773621100277e+000

7.46426393229441e+004,-1.86671924399932e+001,-1.83286155064494e+000

7.56846117380472e+004,-1.86673085974608e+001,-1.85833318061662e+000

7.67411295460207e+004,-1.86674278419987e+001,-1.88415576075695e+000

7.78123957929823e+004,-1.86675502507721e+001,-1.91033400954297e+000

7.88986163594682e+004,-1.86676759026129e+001,-1.93687270469888e+000

7.99999999999995e+004,-1.86678048780411e+001,-1.96377668381236e+000

8.11167583832018e+004,-1.86679372592868e+001,-1.99105084495140e+000

8.22491061324848e+004,-1.86680731303106e+001,-2.01870014728820e+000

8.33972608672892e+004,-1.86682125768239e+001,-2.04672961172429e+000

8.45614432449099e+004,-1.86683556863085e+001,-2.07514432152186e+000

8.57418770029029e+004,-1.86685025480350e+001,-2.10394942293847e+000

8.69387890020841e+004,-1.86686532530811e+001,-2.13315012586703e+000

8.81524092701283e+004,-1.86688078943483e+001,-2.16275170447914e+000

8.93829710457770e+004,-1.86689665665780e+001,-2.19275949787512e+000

9.06307108236633e+004,-1.86691293663665e+001,-2.22317891073817e+000

9.18958683997622e+004,-1.86692963921792e+001,-2.25401541399388e+000

9.31786869174758e+004,-1.86694677443628e+001,-2.28527454547603e+000

9.44794129143618e+004,-1.86696435251568e+001,-2.31696191059807e+000

9.57982963695136e+004,-1.86698238387040e+001,-2.34908318303114e+000

9.71355907516031e+004,-1.86700087910587e+001,-2.38164410538978e+000

9.84915530675926e+004,-1.86701984901939e+001,-2.41465048992273e+000

9.98664439121282e+004,-1.86703930460068e+001,-2.44810821921453e+000

1.01260527517622e+005,-1.86705925703225e+001,-2.48202324689233e+000

1.02674071805032e+005,-1.86707971768960e+001,-2.51640159834374e+000

1.04107348435354e+005,-1.86710069814125e+001,-2.55124937144251e+000

1.05560632861831e+005,-1.86712221014853e+001,-2.58657273728600e+000

1.07034204382888e+005,-1.86714426566516e+001,-2.62237794094148e+000

1.08528346195813e+005,-1.86716687683669e+001,-2.65867130220505e+000

1.10043345451179e+005,-1.86719005599962e+001,-2.69545921637279e+000

1.11579493308032e+005,-1.86721381568032e+001,-2.73274815502491e+000

1.13137084989847e+005,-1.86723816859376e+001,-2.77054466682303e+000

1.14716419841265e+005,-1.86726312764185e+001,-2.80885537832485e+000

1.16317801385624e+005,-1.86728870591170e+001,-2.84768699481179e+000

1.17941537383287e+005,-1.86731491667344e+001,-2.88704630113580e+000

1.19587939890794e+005,-1.86734177337784e+001,-2.92694016258426e+000

1.21257325320831e+005,-1.86736928965369e+001,-2.96737552576340e+000

1.22950014503040e+005,-1.86739747930473e+001,-3.00835941950403e+000

1.24666332745679e+005,-1.86742635630648e+001,-3.04989895578787e+000

1.26406609898139e+005,-1.86745593480258e+001,-3.09200133069769e+000

1.28171180414339e+005,-1.86748622910090e+001,-3.13467382539497e+000

1.29960383416997e+005,-1.86751725366937e+001,-3.17792380711979e+000

1.31774562762811e+005,-1.86754902313137e+001,-3.22175873022351e+000

1.33614067108538e+005,-1.86758155226089e+001,-3.26618613722860e+000

1.35479249978003e+005,-1.86761485597731e+001,-3.31121365992141e+000

1.37370469830040e+005,-1.86764894933986e+001,-3.35684902047838e+000

1.39288090127379e+005,-1.86768384754175e+001,-3.40310003262826e+000

1.41232479406504e+005,-1.86771956590398e+001,-3.44997460285175e+000

1.43204011348474e+005,-1.86775611986873e+001,-3.49748073162078e+000

1.45203064850745e+005,-1.86779352499258e+001,-3.54562651467985e+000

1.47230024099979e+005,-1.86783179693928e+001,-3.59442014437060e+000

1.49285278645888e+005,-1.86787095147223e+001,-3.64386991100516e+000

1.51369223476094e+005,-1.86791100444668e+001,-3.69398420428545e+000

1.53482259092041e+005,-1.86795197180163e+001,-3.74477151477401e+000

1.55624791585964e+005,-1.86799386955141e+001,-3.79624043542058e+000

1.57797232718936e+005,-1.86803671377704e+001,-3.84839966314184e+000

1.59999999999999e+005,-1.86808052061729e+001,-3.90125800046111e+000

1.62233516766403e+005,-1.86812530625954e+001,-3.95482435720804e+000

1.64498212264969e+005,-1.86817108693039e+001,-4.00910775228342e+000

1.66794521734578e+005,-1.86821787888613e+001,-4.06411731548811e+000

1.69122886489819e+005,-1.86826569840301e+001,-4.11986228942180e+000

1.71483754005805e+005,-1.86831456176738e+001,-4.17635203145280e+000

1.73877578004168e+005,-1.86836448526576e+001,-4.23359601576028e+000

1.76304818540256e+005,-1.86841548517478e+001,-4.29160383545454e+000

1.78765942091554e+005,-1.86846757775119e+001,-4.35038520477508e+000

1.81261421647326e+005,-1.86852077922176e+001,-4.40994996136819e+000

1.83791736799524e+005,-1.86857510577334e+001,-4.47030806865050e+000

1.86357373834951e+005,-1.86863057354299e+001,-4.53146961825599e+000

1.88958825828723e+005,-1.86868719860822e+001,-4.59344483257109e+000

1.91596592739027e+005,-1.86874499697750e+001,-4.65624406735993e+000

1.94271181503206e+005,-1.86880398458100e+001,-4.71987781448029e+000

1.96983106135185e+005,-1.86886417726164e+001,-4.78435670469360e+000

1.99732887824256e+005,-1.86892559076654e+001,-4.84969151056938e+000

2.02521055035243e+005,-1.86898824073893e+001,-4.91589314948510e+000

2.05348143610063e+005,-1.86905214271050e+001,-4.98297268672439e+000

2.08214696870707e+005,-1.86911731209447e+001,-5.05094133867299e+000

2.11121265723661e+005,-1.86918376417913e+001,-5.11981047611373e+000

2.14068408765776e+005,-1.86925151412231e+001,-5.18959162762126e+000

2.17056692391625e+005,-1.86932057694647e+001,-5.26029648305553e+000

2.20086690902357e+005,-1.86939096753481e+001,-5.33193689715594e+000

2.23158986616063e+005,-1.86946270062830e+001,-5.40452489323382e+000

2.26274169979693e+005,-1.86953579082370e+001,-5.47807266696404e+000

2.29432839682530e+005,-1.86961025257278e+001,-5.55259259027335e+000

2.32635602771247e+005,-1.86968610018272e+001,-5.62809721532501e+000

2.35883074766574e+005,-1.86976334781781e+001,-5.70459927859896e+000

2.39175879781588e+005,-1.86984200950250e+001,-5.78211170506177e+000

2.42514650641661e+005,-1.86992209912594e+001,-5.86064761242939e+000

2.45900029006080e+005,-1.87000363044802e+001,-5.94022031551450e+000

2.49332665491357e+005,-1.87008661710708e+001,-6.02084333066014e+000

2.52813219796278e+005,-1.87017107262925e+001,-6.10253038025125e+000

2.56342360828676e+005,-1.87025701043965e+001,-6.18529539730468e+000

2.59920766833993e+005,-1.87034444387534e+001,-6.26915253013044e+000

2.63549125525621e+005,-1.87043338620029e+001,-6.35411614706084e+000

2.67228134217075e+005,-1.87052385062225e+001,-6.44020084124146e+000

2.70958499956006e+005,-1.87061585031169e+001,-6.52742143548124e+000

2.74740939660078e+005,-1.87070939842291e+001,-6.61579298715147e+000

2.78576180254757e+005,-1.87080450811726e+001,-6.70533079313225e+000

2.82464958813007e+005,-1.87090119258853e+001,-6.79605039479809e+000

2.86408022696948e+005,-1.87099946509071e+001,-6.88796758303561e+000

2.90406129701488e+005,-1.87109933896793e+001,-6.98109840328794e+000

2.94460048199957e+005,-1.87120082768682e+001,-7.07545916061745e+000

2.98570557291775e+005,-1.87130394487112e+001,-7.17106642478076e+000

3.02738446952187e+005,-1.87140870433878e+001,-7.26793703530879e+000

3.06964518184081e+005,-1.87151512014130e+001,-7.36608810658265e+000

3.11249583171928e+005,-1.87162320660555e+001,-7.46553703290000e+000

3.15594465437872e+005,-1.87173297837794e+001,-7.56630149352349e+000

3.19999999999997e+005,-1.87184445047095e+001,-7.66839945770250e+000

3.24467033532806e+005,-1.87195763831196e+001,-7.77184918966302e+000

3.28996424529938e+005,-1.87207255779449e+001,-7.87666925355609e+000

3.33589043469155e+005,-1.87218922533163e+001,-7.98287851835804e+000

3.38245772979638e+005,-1.87230765791177e+001,-8.09049616271657e+000

3.42967508011610e+005,-1.87242787315645e+001,-8.19954167973345e+000

3.47755156008335e+005,-1.87254988938044e+001,-8.31003488167880e+000

3.52609637080511e+005,-1.87267372565376e+001,-8.42199590462945e+000

3.57531884183106e+005,-1.87279940186579e+001,-8.53544521302665e+000

3.62522843294651e+005,-1.87292693879130e+001,-8.65040360414445e+000

3.67583473599047e+005,-1.87305635815820e+001,-8.76689221246724e+000

3.72714747669902e+005,-1.87318768271718e+001,-8.88493251396758e+000

3.77917651657445e+005,-1.87332093631289e+001,-9.00454633028216e+000

3.83193185478053e+005,-1.87345614395677e+001,-9.12575583278113e+000

3.88542363006410e+005,-1.87359333190124e+001,-9.24858354652695e+000

3.93966212270369e+005,-1.87373252771532e+001,-9.37305235411904e+000

3.99465775648511e+005,-1.87387376036142e+001,-9.49918549942407e+000

4.05042110070485e+005,-1.87401706027337e+001,-9.62700659118603e+000

4.10696287220124e+005,-1.87416245943536e+001,-9.75653960651820e+000

4.16429393741414e+005,-1.87430999146190e+001,-9.88780889427329e+000

4.22242531447321e+005,-1.87445969167850e+001,-1.00208391782936e+001

4.28136817531551e+005,-1.87461159720318e+001,-1.01556555605388e+001

4.34113384783250e+005,-1.87476574702843e+001,-1.02922835240946e+001

4.40173381804713e+005,-1.87492218210379e+001,-1.04307489360605e+001

4.46317973232124e+005,-1.87508094541879e+001,-1.05710780503219e+001

4.52548339959385e+005,-1.87524208208615e+001,-1.07132975102044e+001

4.58865679365059e+005,-1.87540563942528e+001,-1.08574343510160e+001

4.65271205542494e+005,-1.87557166704580e+001,-1.10035160024798e+001

4.71766149533147e+005,-1.87574021693124e+001,-1.11515702910574e+001

4.78351759563174e+005,-1.87591134352258e+001,-1.13016254421723e+001

4.85029301283321e+005,-1.87608510380179e+001,-1.14537100823307e+001

4.91800058012158e+005,-1.87626155737517e+001,-1.16078532411490e+001

4.98665330982714e+005,-1.87644076655650e+001,-1.17640843532905e+001

5.05626439592555e+005,-1.87662279644992e+001,-1.19224332603157e+001

5.12684721657352e+005,-1.87680771503253e+001,-1.20829302124511e+001

5.19841533667984e+005,-1.87699559323664e+001,-1.22456058702816e+001

5.27098251051240e+005,-1.87718650503173e+001,-1.24104913063713e+001

5.34456268434150e+005,-1.87738052750595e+001,-1.25776180068183e+001

5.41916999912011e+005,-1.87757774094734e+001,-1.27470178727459e+001

