Freq.,VOut,OutRef

1.00000000000000e+004,-6.19388449098139e+000,-6.04963832342311e-002

1.01395947979003e+004,-6.19388520172976e+000,-6.13407569447726e-002

1.02811382665607e+004,-6.19388593243284e+000,-6.21969123959219e-002

1.04246576084112e+004,-6.19388668364952e+000,-6.30650138348698e-002

1.05701804056138e+004,-6.19388745595545e+000,-6.39452277844034e-002

1.07177346253629e+004,-6.19388824994131e+000,-6.48377230890757e-002

1.08673486252606e+004,-6.19388906621490e+000,-6.57426709358293e-002

1.10190511587661e+004,-6.19388990540106e+000,-6.66602448901741e-002

1.11728713807222e+004,-6.19389076814163e+000,-6.75906209327327e-002

1.13288388529580e+004,-6.19389165509646e+000,-6.85339774881808e-002

1.14869835499703e+004,-6.19389256694455e+000,-6.94904954551772e-002

1.16473358646846e+004,-6.19389350438312e+000,-7.04603582498466e-002

1.18099266142953e+004,-6.19389446812884e+000,-7.14437518351792e-002

1.19747870461893e+004,-6.19389545891857e+000,-7.24408647556658e-002

1.21419488439505e+004,-6.19389647751006e+000,-7.34518881713787e-002

1.23114441334492e+004,-6.19389752468161e+000,-7.44770158988691e-002

1.24833054890161e+004,-6.19389860123370e+000,-7.55164444429323e-002

1.26575659397028e+004,-6.19389970798883e+000,-7.65703730360006e-002

1.28342589756290e+004,-6.19390084579267e+000,-7.76390036743442e-002

1.30134185544193e+004,-6.19390201551413e+000,-7.87225411573580e-002

1.31950791077289e+004,-6.19390321804654e+000,-7.98211931244373e-002

1.33792755478611e+004,-6.19390445430823e+000,-8.09351700935530e-002

1.35660432744767e+004,-6.19390572524286e+000,-8.20646855027610e-002

1.37554181813974e+004,-6.19390703182091e+000,-8.32099557455236e-002

1.39474366635040e+004,-6.19390837503890e+000,-8.43712002205297e-002

1.41421356237309e+004,-6.19390975592179e+000,-8.55486413618760e-002

1.43395524801583e+004,-6.19391117552332e+000,-8.67425046843279e-002

1.45397251732031e+004,-6.19391263492546e+000,-8.79530188315727e-002

1.47426921729110e+004,-6.19391413524144e+000,-8.91804156078952e-002

1.49484924863494e+004,-6.19391567761484e+000,-9.04249300286767e-002

1.51571656651040e+004,-6.19391726322091e+000,-9.16868003642280e-002

1.53687518128801e+004,-6.19391889326771e+000,-9.29662681806749e-002

1.55832915932100e+004,-6.19392056899711e+000,-9.42635783839778e-002

1.58008262372675e+004,-6.19392229168514e+000,-9.55789792702378e-002

1.60213975517924e+004,-6.19392406264318e+000,-9.69127225685687e-002

1.62450479271247e+004,-6.19392588321921e+000,-9.82650634871989e-002

1.64718203453514e+004,-6.19392775479846e+000,-9.96362607617307e-002

1.67017583885674e+004,-6.19392967880471e+000,-1.01026576701622e-001

1.69349062472505e+004,-6.19393165670056e+000,-1.02436277243579e-001

1.71713087287550e+004,-6.19393368999027e+000,-1.03865631988999e-001

1.74110112659224e+004,-6.19393578021899e+000,-1.05314914265505e-001

1.76540599258131e+004,-6.19393792897415e+000,-1.06784401175809e-001

1.79005014185594e+004,-6.19394013788837e+000,-1.08274373637308e-001

1.81503831063432e+004,-6.19394240863819e+000,-1.09785116448869e-001

1.84037530124975e+004,-6.19394474294698e+000,-1.11316918332537e-001

1.86606598307361e+004,-6.19394714258604e+000,-1.12870071987282e-001

1.89211529345119e+004,-6.19394960937493e+000,-1.14444874147998e-001

1.91852823865052e+004,-6.19395214518377e+000,-1.16041625634378e-001

1.94530989482457e+004,-6.19395475193415e+000,-1.17660631407208e-001

1.97246540898671e+004,-6.19395743160073e+000,-1.19302200623289e-001

1.99999999999999e+004,-6.19396018621234e+000,-1.20966646693709e-001

2.02791895958005e+004,-6.19396301785395e+000,-1.22654287336184e-001

2.05622765331213e+004,-6.19396592866765e+000,-1.24365444636972e-001

2.08493152168224e+004,-6.19396892085441e+000,-1.26100445107216e-001

2.11403608112276e+004,-6.19397199667582e+000,-1.27859619740959e-001

2.14354692507258e+004,-6.19397515845545e+000,-1.29643304075296e-001

2.17346972505211e+004,-6.19397840858089e+000,-1.31451838249016e-001

2.20381023175322e+004,-6.19398174950487e+000,-1.33285567067645e-001

2.23457427614443e+004,-6.19398518374758e+000,-1.35144840060101e-001

2.26576777059159e+004,-6.19398871389778e+000,-1.37030011546534e-001

2.29739670999406e+004,-6.19399234261556e+000,-1.38941440694927e-001

2.32946717293690e+004,-6.19399607263372e+000,-1.40879491587511e-001

2.36198532285905e+004,-6.19399990675924e+000,-1.42844533289749e-001

2.39495740923785e+004,-6.19400384787626e+000,-1.44836939907741e-001

2.42838976879009e+004,-6.19400789894707e+000,-1.46857090660961e-001

2.46228882668982e+004,-6.19401206301513e+000,-1.48905369943783e-001

2.49666109780322e+004,-6.19401634320650e+000,-1.50982167396222e-001

2.53151318794055e+004,-6.19402074273216e+000,-1.53087877972178e-001

2.56685179512580e+004,-6.19402526489083e+000,-1.55222902003935e-001

2.60268371088386e+004,-6.19402991307010e+000,-1.57387645279305e-001

2.63901582154578e+004,-6.19403469075001e+000,-1.59582519104860e-001

2.67585510957221e+004,-6.19403960150444e+000,-1.61807940382137e-001

2.71320865489533e+004,-6.19404464900428e+000,-1.64064331676053e-001

2.75108363627948e+004,-6.19404983701958e+000,-1.66352121290064e-001

2.78948733270080e+004,-6.19405516942183e+000,-1.68671743340254e-001

2.82842712474618e+004,-6.19406065018762e+000,-1.71023637823971e-001

2.86791049603164e+004,-6.19406628340011e+000,-1.73408250702186e-001

2.90794503464061e+004,-6.19407207325232e+000,-1.75826033971900e-001

2.94853843458219e+004,-6.19407802405026e+000,-1.78277445740797e-001

2.98969849726987e+004,-6.19408414021534e+000,-1.80762950306510e-001

3.03143313302078e+004,-6.19409042628727e+000,-1.83283018235818e-001

3.07375036257601e+004,-6.19409688692735e+000,-1.85838126441579e-001

3.11665831864199e+004,-6.19410352692165e+000,-1.88428758260738e-001

3.16016524745350e+004,-6.19411035118362e+000,-1.91055403538777e-001

3.20427951035848e+004,-6.19411736475779e+000,-1.93718558707278e-001

3.24900958542493e+004,-6.19412457282281e+000,-1.96418726866555e-001

3.29436406907028e+004,-6.19413198069490e+000,-1.99156417868625e-001

3.34035167771346e+004,-6.19413959383107e+000,-2.01932148400622e-001

3.38698124945009e+004,-6.19414741783316e+000,-2.04746442065549e-001

3.43426174575100e+004,-6.19415545845045e+000,-2.07599829473165e-001

3.48220225318448e+004,-6.19416372158419e+000,-2.10492848319992e-001

3.53081198516260e+004,-6.19417221329102e+000,-2.13426043475604e-001

3.58010028371187e+004,-6.19418093978643e+000,-2.16399967073117e-001

3.63007662126863e+004,-6.19418990744887e+000,-2.19415178594257e-001

3.68075060249948e+004,-6.19419912282411e+000,-2.22472244955039e-001

3.73213196614721e+004,-6.19420859262839e+000,-2.25571740599345e-001

3.78423058690237e+004,-6.19421832375303e+000,-2.28714247586020e-001

3.83705647730104e+004,-6.19422832326848e+000,-2.31900355678492e-001

3.89061978964912e+004,-6.19423859842857e+000,-2.35130662436370e-001

3.94493081797342e+004,-6.19424915667487e+000,-2.38405773305649e-001

3.99999999999998e+004,-6.19426000564072e+000,-2.41726301713550e-001

4.05583791916010e+004,-6.19427115315639e+000,-2.45092869156288e-001

4.11245530662425e+004,-6.19428260725272e+000,-2.48506105297419e-001

4.16986304336447e+004,-6.19429437616628e+000,-2.51966648059092e-001

4.22807216224550e+004,-6.19430646834412e+000,-2.55475143714366e-001

4.28709385014515e+004,-6.19431889244812e+000,-2.59032246986139e-001

4.34693945010421e+004,-6.19433165736028e+000,-2.62638621137848e-001

4.40762046350642e+004,-6.19434477218679e+000,-2.66294938075204e-001

4.46914855228886e+004,-6.19435824626421e+000,-2.70001878435142e-001

4.53153554118317e+004,-6.19437208916331e+000,-2.73760131688524e-001

4.59479341998812e+004,-6.19438631069485e+000,-2.77570396234208e-001

4.65893434587380e+004,-6.19440092091438e+000,-2.81433379498493e-001

4.72397064571810e+004,-6.19441593012777e+000,-2.85349798030101e-001

4.78991481847569e+004,-6.19443134889620e+000,-2.89320377600997e-001

4.85677953758016e+004,-6.19444718804158e+000,-2.93345853304227e-001

4.92457765337964e+004,-6.19446345865193e+000,-2.97426969652454e-001

4.99332219560642e+004,-6.19448017208661e+000,-3.01564480677866e-001

5.06302637588109e+004,-6.19449733998201e+000,-3.05759150031195e-001

5.13370359025159e+004,-6.19451497425715e+000,-3.10011751079675e-001

5.20536742176771e+004,-6.19453308711904e+000,-3.14323067008075e-001

5.27803164309155e+004,-6.19455169106784e+000,-3.18693890921405e-001

5.35171021914442e+004,-6.19457079890334e+000,-3.23125025939016e-001

5.42641730979066e+004,-6.19459042372974e+000,-3.27617285300366e-001

5.50216727255895e+004,-6.19461057896180e+000,-3.32171492461262e-001

5.57897466540159e+004,-6.19463127833029e+000,-3.36788481195583e-001

5.65685424949235e+004,-6.19465253588744e+000,-3.41469095695646e-001

5.73582099206328e+004,-6.19467436601279e+000,-3.46214190672301e-001

5.81589006928121e+004,-6.19469678341875e+000,-3.51024631453974e-001

5.89707686916437e+004,-6.19471980315613e+000,-3.55901294086611e-001

5.97939699453972e+004,-6.19474344061956e+000,-3.60845065435277e-001

6.06286626604156e+004,-6.19476771155345e+000,-3.65856843279593e-001

6.14750072515201e+004,-6.19479263205648e+000,-3.70937536419057e-001

6.23331663728396e+004,-6.19481821858825e+000,-3.76088064764574e-001

6.32033049490698e+004,-6.19484448797333e+000,-3.81309359444643e-001

6.40855902071694e+004,-6.19487145740744e+000,-3.86602362896431e-001

6.49801917084985e+004,-6.19489914446172e+000,-3.91968028970302e-001

6.58872813814055e+004,-6.19492756708849e+000,-3.97407323021635e-001

6.68070335542691e+004,-6.19495674362526e+000,-4.02921222012612e-001

6.77396249890018e+004,-6.19498669280021e+000,-4.08510714604827e-001

6.86852349150199e+004,-6.19501743373620e+000,-4.14176801257344e-001

6.96440450636895e+004,-6.19504898595509e+000,-4.19920494322665e-001

7.06162397032520e+004,-6.19508136938228e+000,-4.25742818139275e-001

7.16020056742374e+004,-6.19511460435014e+000,-4.31644809128411e-001

7.26015324253724e+004,-6.19514871160174e+000,-4.37627515887309e-001

7.36150120499896e+004,-6.19518371229482e+000,-4.43691999278688e-001

7.46426393229441e+004,-6.19521962800388e+000,-4.49839332529168e-001

7.56846117380472e+004,-6.19525648072390e+000,-4.56070601315508e-001

7.67411295460207e+004,-6.19529429287221e+000,-4.62386903858149e-001

7.78123957929823e+004,-6.19533308729076e+000,-4.68789351011590e-001

7.88986163594682e+004,-6.19537288724783e+000,-4.75279066352594e-001

7.99999999999995e+004,-6.19541371643922e+000,-4.81857186270623e-001

8.11167583832018e+004,-6.19545559898925e+000,-4.88524860053466e-001

8.22491061324848e+004,-6.19549855945092e+000,-4.95283249977286e-001

8.33972608672892e+004,-6.19554262280550e+000,-5.02133531393920e-001

8.45614432449099e+004,-6.19558781446256e+000,-5.09076892812817e-001

8.57418770029029e+004,-6.19563416025772e+000,-5.16114535992373e-001

8.69387890020841e+004,-6.19568168645162e+000,-5.23247676019824e-001

8.81524092701283e+004,-6.19573041972650e+000,-5.30477541400578e-001

8.93829710457770e+004,-6.19578038718371e+000,-5.37805374137721e-001

9.06307108236633e+004,-6.19583161633907e+000,-5.45232429820461e-001

9.18958683997622e+004,-6.19588413511869e+000,-5.52759977703019e-001

9.31786869174758e+004,-6.19593797185286e+000,-5.60389300792554e-001

9.44794129143618e+004,-6.19599315526992e+000,-5.68121695929274e-001

9.57982963695136e+004,-6.19604971448880e+000,-5.75958473871950e-001

9.71355907516031e+004,-6.19610767901060e+000,-5.83900959381120e-001

9.84915530675926e+004,-6.19616707870974e+000,-5.91950491301824e-001

9.98664439121282e+004,-6.19622794382322e+000,-6.00108422649322e-001

1.01260527517622e+005,-6.19629030493932e+000,-6.08376120695313e-001

1.02674071805032e+005,-6.19635419298497e+000,-6.16754967053261e-001

1.04107348435354e+005,-6.19641963921220e+000,-6.25246357765969e-001

1.05560632861831e+005,-6.19648667518326e+000,-6.33851703392851e-001

1.07034204382888e+005,-6.19655533275370e+000,-6.42572429104877e-001

1.08528346195813e+005,-6.19662564405560e+000,-6.51409974772526e-001

1.10043345451179e+005,-6.19669764147791e+000,-6.60365795063822e-001

1.11579493308032e+005,-6.19677135764649e+000,-6.69441359539125e-001

1.13137084989847e+005,-6.19684682540175e+000,-6.78638152754206e-001

1.14716419841265e+005,-6.19692407777530e+000,-6.87957674363255e-001

1.16317801385624e+005,-6.19700314796516e+000,-6.97401439224605e-001

1.17941537383287e+005,-6.19708406930848e+000,-7.06970977515631e-001

1.19587939890794e+005,-6.19716687525344e+000,-7.16667834847491e-001

1.21257325320831e+005,-6.19725159932909e+000,-7.26493572386649e-001

1.22950014503040e+005,-6.19733827511310e+000,-7.36449766983297e-001

1.24666332745679e+005,-6.19742693619812e+000,-7.46538011304957e-001

1.26406609898139e+005,-6.19751761615615e+000,-7.56759913976032e-001

1.28171180414339e+005,-6.19761034850054e+000,-7.67117099727964e-001

1.29960383416997e+005,-6.19770516664685e+000,-7.77611209552687e-001

1.31774562762811e+005,-6.19780210387088e+000,-7.88243900869820e-001

1.33614067108538e+005,-6.19790119326512e+000,-7.99016847701194e-001

1.35479249978003e+005,-6.19800246769323e+000,-8.09931740853865e-001

1.37370469830040e+005,-6.19810595974189e+000,-8.20990288118420e-001

1.39288090127379e+005,-6.19821170167131e+000,-8.32194214474708e-001

1.41232479406504e+005,-6.19831972536285e+000,-8.43545262313544e-001

1.43204011348474e+005,-6.19843006226511e+000,-8.55045191670537e-001

1.45203064850745e+005,-6.19854274333725e+000,-8.66695780476018e-001

1.47230024099979e+005,-6.19865779899119e+000,-8.78498824815103e-001

1.49285278645888e+005,-6.19877525903041e+000,-8.90456139212517e-001

1.51369223476094e+005,-6.19889515258747e+000,-9.02569556928656e-001

1.53482259092041e+005,-6.19901750805944e+000,-9.14840930274522e-001

1.55624791585964e+005,-6.19914235304077e+000,-9.27272130948836e-001

1.57797232718936e+005,-6.19926971425460e+000,-9.39865050393322e-001

1.59999999999999e+005,-6.19939961748174e+000,-9.52621600170125e-001

1.62233516766403e+005,-6.19953208748820e+000,-9.65543712361643e-001

1.64498212264969e+005,-6.19966714795022e+000,-9.78633339995141e-001

1.66794521734578e+005,-6.19980482137821e+000,-9.91892457489392e-001

1.69122886489819e+005,-6.19994512903842e+000,-1.00532306113086e+000

1.71483754005805e+005,-6.20008809087353e+000,-1.01892716957317e+000

1.73877578004168e+005,-6.20023372542131e+000,-1.03270682436767e+000

1.76304818540256e+005,-6.20038204973234e+000,-1.04666409052016e+000

1.78765942091554e+005,-6.20053307928623e+000,-1.06080105708012e+000

1.81261421647326e+005,-6.20068682790661e+000,-1.07511983776132e+000

1.83791736799524e+005,-6.20084330767578e+000,-1.08962257159163e+000

1.86357373834951e+005,-6.20100252884819e+000,-1.10431142359833e+000

1.88958825828723e+005,-6.20116449976332e+000,-1.11918858552750e+000

1.91596592739027e+005,-6.20132922675841e+000,-1.13425627659773e+000

1.94271181503206e+005,-6.20149671408084e+000,-1.14951674428947e+000

1.96983106135185e+005,-6.20166696380067e+000,-1.16497226517176e+000

1.99732887824256e+005,-6.20183997572355e+000,-1.18062514576439e+000

2.02521055035243e+005,-6.20201574730390e+000,-1.19647772344002e+000

2.05348143610063e+005,-6.20219427355923e+000,-1.21253236736288e+000

2.08214696870707e+005,-6.20237554698485e+000,-1.22879147946921e+000

2.11121265723661e+005,-6.20255955747084e+000,-1.24525749548224e+000

2.14068408765776e+005,-6.20274629221995e+000,-1.26193288596991e+000

2.17056692391625e+005,-6.20293573566713e+000,-1.27882015744323e+000

2.20086690902357e+005,-6.20312786940234e+000,-1.29592185348924e+000

2.23158986616063e+005,-6.20332267209443e+000,-1.31324055594977e+000

2.26274169979693e+005,-6.20352011941901e+000,-1.33077888613369e+000

2.29432839682530e+005,-6.20372018398858e+000,-1.34853950607257e+000

2.32635602771247e+005,-6.20392283528673e+000,-1.36652511981013e+000

2.35883074766574e+005,-6.20412803960515e+000,-1.38473847473554e+000

2.39175879781588e+005,-6.20433575998577e+000,-1.40318236294664e+000

2.42514650641661e+005,-6.20454595616635e+000,-1.42185962265438e+000

2.45900029006080e+005,-6.20475858453097e+000,-1.44077313961995e+000

2.49332665491357e+005,-6.20497359806596e+000,-1.45992584862356e+000

2.52813219796278e+005,-6.20519094631982e+000,-1.47932073497144e+000

2.56342360828676e+005,-6.20541057537001e+000,-1.49896083602621e+000

2.59920766833993e+005,-6.20563242779459e+000,-1.51884924277018e+000

2.63549125525621e+005,-6.20585644265012e+000,-1.53898910139584e+000

2.67228134217075e+005,-6.20608255545600e+000,-1.55938361491860e+000

2.70958499956006e+005,-6.20631069818490e+000,-1.58003604481530e+000

2.74740939660078e+005,-6.20654079926008e+000,-1.60094971268165e+000

2.78576180254757e+005,-6.20677278355956e+000,-1.62212800190777e+000

2.82464958813007e+005,-6.20700657242705e+000,-1.64357435936989e+000

2.86408022696948e+005,-6.20724208369025e+000,-1.66529229713542e+000

2.90406129701488e+005,-6.20747923168623e+000,-1.68728539417580e+000

2.94460048199957e+005,-6.20771792729398e+000,-1.70955729808999e+000

2.98570557291775e+005,-6.20795807797441e+000,-1.73211172683093e+000

3.02738446952187e+005,-6.20819958781767e+000,-1.75495247043305e+000

3.06964518184081e+005,-6.20844235759763e+000,-1.77808339273911e+000

3.11249583171928e+005,-6.20868628483376e+000,-1.80150843312244e+000

3.15594465437872e+005,-6.20893126386007e+000,-1.82523160820187e+000

3.19999999999997e+005,-6.20917718590094e+000,-1.84925701354634e+000

3.24467033532806e+005,-6.20942393915418e+000,-1.87358882536461e+000

3.28996424529938e+005,-6.20967140888016e+000,-1.89823130218219e+000

3.33589043469155e+005,-6.20991947749815e+000,-1.92318878649374e+000

3.38245772979638e+005,-6.21016802468777e+000,-1.94846570639941e+000

3.42967508011610e+005,-6.21041692749758e+000,-1.97406657721118e+000

3.47755156008335e+005,-6.21066606045811e+000,-1.99999600303494e+000

3.52609637080511e+005,-6.21091529570036e+000,-2.02625867832358e+000

3.57531884183106e+005,-6.21116450307965e+000,-2.05285938939399e+000

3.62522843294651e+005,-6.21141355030293e+000,-2.07980301591485e+000

3.67583473599047e+005,-6.21166230306052e+000,-2.10709453235592e+000

3.72714747669902e+005,-6.21191062516130e+000,-2.13473900939898e+000

3.77917651657445e+005,-6.21215837867052e+000,-2.16274161531099e+000

3.83193185478053e+005,-6.21240542405035e+000,-2.19110761727628e+000

3.88542363006410e+005,-6.21265162030203e+000,-2.21984238268694e+000

3.93966212270369e+005,-6.21289682510966e+000,-2.24895138039020e+000

3.99465775648511e+005,-6.21314089498448e+000,-2.27844018189465e+000

4.05042110070485e+005,-6.21338368540946e+000,-2.30831446253102e+000

4.10696287220124e+005,-6.21362505098383e+000,-2.33858000257080e+000

4.16429393741414e+005,-6.21386484556600e+000,-2.36924268830223e+000

4.22242531447321e+005,-6.21410292241558e+000,-2.40030851306225e+000

4.28136817531551e+005,-6.21433913433341e+000,-2.43178357822704e+000

4.34113384783250e+005,-6.21457333379799e+000,-2.46367409416316e+000

4.40173381804713e+005,-6.21480537310007e+000,-2.49598638113674e+000

4.46317973232124e+005,-6.21503510447234e+000,-2.52872687018597e+000

4.52548339959385e+005,-6.21526238021548e+000,-2.56190210395722e+000

4.58865679365059e+005,-6.21548705281940e+000,-2.59551873750563e+000

4.65271205542494e+005,-6.21570897507896e+000,-2.62958353906448e+000

4.71766149533147e+005,-6.21592800020410e+000,-2.66410339078499e+000

4.78351759563174e+005,-6.21614398192397e+000,-2.69908528944722e+000

4.85029301283321e+005,-6.21635677458427e+000,-2.73453634714816e+000

4.91800058012158e+005,-6.21656623323766e+000,-2.77046379196727e+000

4.98665330982714e+005,-6.21677221372692e+000,-2.80687496861360e+000

5.05626439592555e+005,-6.21697457276052e+000,-2.84377733905788e+000

5.12684721657352e+005,-6.21717316798022e+000,-2.88117848315161e+000

5.19841533667984e+005,-6.21736785802032e+000,-2.91908609923889e+000

5.27098251051240e+005,-6.21755850255889e+000,-2.95750800476121e+000

5.34456268434150e+005,-6.21774496236000e+000,-2.99645213686210e+000

5.41916999912011e+005,-6.21792709930753e+000,-3.03592655299255e+000

