Freq.,VOut,OutRef

1.00000000000000e+004,-1.71418097682404e+001,-1.41967570185461e-001

1.01395947979003e+004,-1.71418113707152e+001,-1.43949113152399e-001

1.02811382665607e+004,-1.71418130181863e+001,-1.45958306802979e-001

1.04246576084112e+004,-1.71418147119162e+001,-1.47995536673118e-001

1.05701804056138e+004,-1.71418164532015e+001,-1.50061193666702e-001

1.07177346253629e+004,-1.71418182433760e+001,-1.52155674120837e-001

1.08673486252606e+004,-1.71418200838103e+001,-1.54279379885995e-001

1.10190511587661e+004,-1.71418219759137e+001,-1.56432718399743e-001

1.11728713807222e+004,-1.71418239211344e+001,-1.58616102766019e-001

1.13288388529580e+004,-1.71418259209614e+001,-1.60829951831555e-001

1.14869835499703e+004,-1.71418279769253e+001,-1.63074690265675e-001

1.16473358646846e+004,-1.71418300905997e+001,-1.65350748638292e-001

1.18099266142953e+004,-1.71418322636016e+001,-1.67658563506265e-001

1.19747870461893e+004,-1.71418344975933e+001,-1.69998577492002e-001

1.21419488439505e+004,-1.71418367942841e+001,-1.72371239366344e-001

1.23114441334492e+004,-1.71418391554304e+001,-1.74777004136044e-001

1.24833054890161e+004,-1.71418415828378e+001,-1.77216333128354e-001

1.26575659397028e+004,-1.71418440783624e+001,-1.79689694077036e-001

1.28342589756290e+004,-1.71418466439121e+001,-1.82197561210514e-001

1.30134185544193e+004,-1.71418492814479e+001,-1.84740415342645e-001

1.31950791077289e+004,-1.71418519929855e+001,-1.87318743962808e-001

1.33792755478611e+004,-1.71418547805968e+001,-1.89933041325963e-001

1.35660432744767e+004,-1.71418576464118e+001,-1.92583808545513e-001

1.37554181813974e+004,-1.71418605926195e+001,-1.95271553689594e-001

1.39474366635040e+004,-1.71418636214698e+001,-1.97996791875776e-001

1.41421356237309e+004,-1.71418667352758e+001,-2.00760045365012e-001

1.43395524801583e+004,-1.71418699364147e+001,-2.03561843662012e-001

1.45397251732031e+004,-1.71418732273296e+001,-2.06402723615383e-001

1.47426921729110e+004,-1.71418766105322e+001,-2.09283229513550e-001

1.49484924863494e+004,-1.71418800886039e+001,-2.12203913190330e-001

1.51571656651040e+004,-1.71418836641975e+001,-2.15165334128999e-001

1.53687518128801e+004,-1.71418873400403e+001,-2.18168059560850e-001

1.55832915932100e+004,-1.71418911189347e+001,-2.21212664578846e-001

1.58008262372675e+004,-1.71418950037617e+001,-2.24299732237039e-001

1.60213975517924e+004,-1.71418989974818e+001,-2.27429853665911e-001

1.62450479271247e+004,-1.71419031031381e+001,-2.30603628175250e-001

1.64718203453514e+004,-1.71419073238581e+001,-2.33821663372541e-001

1.67017583885674e+004,-1.71419116628559e+001,-2.37084575272864e-001

1.69349062472505e+004,-1.71419161234352e+001,-2.40392988409133e-001

1.71713087287550e+004,-1.71419207089911e+001,-2.43747535955325e-001

1.74110112659224e+004,-1.71419254230126e+001,-2.47148859838683e-001

1.76540599258131e+004,-1.71419302690859e+001,-2.50597610857603e-001

1.79005014185594e+004,-1.71419352508964e+001,-2.54094448806180e-001

1.81503831063432e+004,-1.71419403722314e+001,-2.57640042591287e-001

1.84037530124975e+004,-1.71419456369831e+001,-2.61235070360948e-001

1.86606598307361e+004,-1.71419510491517e+001,-2.64880219621873e-001

1.89211529345119e+004,-1.71419566128475e+001,-2.68576187373353e-001

1.91852823865052e+004,-1.71419623322950e+001,-2.72323680231359e-001

1.94530989482457e+004,-1.71419682118350e+001,-2.76123414557722e-001

1.97246540898671e+004,-1.71419742559286e+001,-2.79976116592524e-001

1.99999999999999e+004,-1.71419804691595e+001,-2.83882522586732e-001

2.02791895958005e+004,-1.71419868562385e+001,-2.87843378936239e-001

2.05622765331213e+004,-1.71419934220060e+001,-2.91859442318253e-001

2.08493152168224e+004,-1.71420001714356e+001,-2.95931479829097e-001

2.11403608112276e+004,-1.71420071096385e+001,-3.00060269122314e-001

2.14354692507258e+004,-1.71420142418658e+001,-3.04246598553948e-001

2.17346972505211e+004,-1.71420215735138e+001,-3.08491267318717e-001

2.20381023175322e+004,-1.71420291101269e+001,-3.12795085601194e-001

2.23457427614443e+004,-1.71420368574017e+001,-3.17158874717233e-001

2.26576777059159e+004,-1.71420448211916e+001,-3.21583467265475e-001

2.29739670999406e+004,-1.71420530075104e+001,-3.26069707273926e-001

2.32946717293690e+004,-1.71420614225368e+001,-3.30618450355969e-001

2.36198532285905e+004,-1.71420700726191e+001,-3.35230563858132e-001

2.39495740923785e+004,-1.71420789642790e+001,-3.39906927020489e-001

2.42838976879009e+004,-1.71420881042171e+001,-3.44648431130506e-001

2.46228882668982e+004,-1.71420974993170e+001,-3.49455979683716e-001

2.49666109780322e+004,-1.71421071566503e+001,-3.54330488542909e-001

2.53151318794055e+004,-1.71421170834821e+001,-3.59272886099940e-001

2.56685179512580e+004,-1.71421272872749e+001,-3.64284113444342e-001

2.60268371088386e+004,-1.71421377756953e+001,-3.69365124523767e-001

2.63901582154578e+004,-1.71421485566184e+001,-3.74516886317226e-001

2.67585510957221e+004,-1.71421596381334e+001,-3.79740379000723e-001

2.71320865489533e+004,-1.71421710285494e+001,-3.85036596123344e-001

2.75108363627948e+004,-1.71421827364015e+001,-3.90406544777030e-001

2.78948733270080e+004,-1.71421947704555e+001,-3.95851245776526e-001

2.82842712474618e+004,-1.71422071397156e+001,-4.01371733831781e-001

2.86791049603164e+004,-1.71422198534292e+001,-4.06969057732458e-001

2.90794503464061e+004,-1.71422329210939e+001,-4.12644280526668e-001

2.94853843458219e+004,-1.71422463524639e+001,-4.18398479704353e-001

2.98969849726987e+004,-1.71422601575563e+001,-4.24232747384398e-001

3.03143313302078e+004,-1.71422743466582e+001,-4.30148190500128e-001

3.07375036257601e+004,-1.71422889303339e+001,-4.36145930987758e-001

3.11665831864199e+004,-1.71423039194312e+001,-4.42227105980241e-001

3.16016524745350e+004,-1.71423193250892e+001,-4.48392867998883e-001

3.20427951035848e+004,-1.71423351587458e+001,-4.54644385147834e-001

3.24900958542493e+004,-1.71423514321450e+001,-4.60982841311010e-001

3.29436406907028e+004,-1.71423681573448e+001,-4.67409436351603e-001

3.34035167771346e+004,-1.71423853467247e+001,-4.73925386314133e-001

3.38698124945009e+004,-1.71424030129948e+001,-4.80531923623338e-001

3.43426174575100e+004,-1.71424211692031e+001,-4.87230297293113e-001

3.48220225318448e+004,-1.71424398287443e+001,-4.94021773129666e-001

3.53081198516260e+004,-1.71424590053685e+001,-5.00907633942505e-001

3.58010028371187e+004,-1.71424787131898e+001,-5.07889179753168e-001

3.63007662126863e+004,-1.71424989666955e+001,-5.14967728008513e-001

3.68075060249948e+004,-1.71425197807553e+001,-5.22144613793441e-001

3.73213196614721e+004,-1.71425411706306e+001,-5.29421190047665e-001

3.78423058690237e+004,-1.71425631519836e+001,-5.36798827785089e-001

3.83705647730104e+004,-1.71425857408879e+001,-5.44278916310202e-001

3.89061978964912e+004,-1.71426089538377e+001,-5.51862863442909e-001

3.94493081797342e+004,-1.71426328077587e+001,-5.59552095737799e-001

3.99999999999998e+004,-1.71426573200172e+001,-5.67348058713614e-001

4.05583791916010e+004,-1.71426825084319e+001,-5.75252217076980e-001

4.11245530662425e+004,-1.71427083912838e+001,-5.83266054952082e-001

4.16986304336447e+004,-1.71427349873273e+001,-5.91391076110915e-001

4.22807216224550e+004,-1.71427623158013e+001,-5.99628804203821e-001

4.28709385014515e+004,-1.71427903964405e+001,-6.07980782995856e-001

4.34693945010421e+004,-1.71428192494869e+001,-6.16448576597880e-001

4.40762046350642e+004,-1.71428488957014e+001,-6.25033769707207e-001

4.46914855228886e+004,-1.71428793563754e+001,-6.33737967844416e-001

4.53153554118317e+004,-1.71429106533434e+001,-6.42562797591670e-001

4.59479341998812e+004,-1.71429428089946e+001,-6.51509906836151e-001

4.65893434587380e+004,-1.71429758462858e+001,-6.60580965012195e-001

4.72397064571810e+004,-1.71430097887537e+001,-6.69777663344144e-001

4.78991481847569e+004,-1.71430446605274e+001,-6.79101715094636e-001

4.85677953758016e+004,-1.71430804863422e+001,-6.88554855807450e-001

4.92457765337964e+004,-1.71431172915515e+001,-6.98138843559509e-001

4.99332219560642e+004,-1.71431551021411e+001,-7.07855459207518e-001

5.06302637588109e+004,-1.71431939447418e+001,-7.17706506639537e-001

5.13370359025159e+004,-1.71432338466434e+001,-7.27693813026946e-001

5.20536742176771e+004,-1.71432748358084e+001,-7.37819229076049e-001

5.27803164309155e+004,-1.71433169408855e+001,-7.48084629281231e-001

5.35171021914442e+004,-1.71433601912238e+001,-7.58491912182448e-001

5.42641730979066e+004,-1.71434046168870e+001,-7.69043000617183e-001

5.50216727255895e+004,-1.71434502486669e+001,-7.79739841979228e-001

5.57897466540159e+004,-1.71434971180985e+001,-7.90584408475609e-001

5.65685424949235e+004,-1.71435452574738e+001,-8.01578697382599e-001

5.73582099206328e+004,-1.71435946998562e+001,-8.12724731306950e-001

5.81589006928121e+004,-1.71436454790952e+001,-8.24024558443146e-001

5.89707686916437e+004,-1.71436976298410e+001,-8.35480252833069e-001

5.97939699453972e+004,-1.71437511875583e+001,-8.47093914627617e-001

6.06286626604156e+004,-1.71438061885419e+001,-8.58867670345286e-001

6.14750072515201e+004,-1.71438626699300e+001,-8.70803673135779e-001

6.23331663728396e+004,-1.71439206697199e+001,-8.82904103037623e-001

6.32033049490698e+004,-1.71439802267811e+001,-8.95171167242864e-001

6.40855902071694e+004,-1.71440413808711e+001,-9.07607100356433e-001

6.49801917084985e+004,-1.71441041726482e+001,-9.20214164659668e-001

6.58872813814055e+004,-1.71441686436866e+001,-9.32994650370055e-001

6.68070335542691e+004,-1.71442348364898e+001,-9.45950875904470e-001

6.77396249890018e+004,-1.71443027945048e+001,-9.59085188139902e-001

6.86852349150199e+004,-1.71443725621352e+001,-9.72399962675502e-001

6.96440450636895e+004,-1.71444441847547e+001,-9.85897604094024e-001

7.06162397032520e+004,-1.71445177087204e+001,-9.99580546221714e-001

7.16020056742374e+004,-1.71445931813846e+001,-1.01345125239154e+000

7.26015324253724e+004,-1.71446706511082e+001,-1.02751221570129e+000

7.36150120499896e+004,-1.71447501672722e+001,-1.04176595927505e+000

7.46426393229441e+004,-1.71448317802890e+001,-1.05621503652278e+000

7.56846117380472e+004,-1.71449155416137e+001,-1.07086203140100e+000

7.67411295460207e+004,-1.71450015037543e+001,-1.08570955867022e+000

7.78123957929823e+004,-1.71450897202823e+001,-1.10076026415472e+000

7.88986163594682e+004,-1.71451802458410e+001,-1.11601682500088e+000

7.99999999999995e+004,-1.71452731361550e+001,-1.13148194993598e+000

8.11167583832018e+004,-1.71453684480375e+001,-1.14715837952467e+000

8.22491061324848e+004,-1.71454662393979e+001,-1.16304888642746e+000

8.33972608672892e+004,-1.71455665692473e+001,-1.17915627565885e+000

8.45614432449099e+004,-1.71456694977048e+001,-1.19548338484196e+000

8.57418770029029e+004,-1.71457750860011e+001,-1.21203308446954e+000

8.69387890020841e+004,-1.71458833964820e+001,-1.22880827815794e+000

8.81524092701283e+004,-1.71459944926108e+001,-1.24581190290642e+000

8.93829710457770e+004,-1.71461084389692e+001,-1.26304692935416e+000

9.06307108236633e+004,-1.71462253012570e+001,-1.28051636203976e+000

9.18958683997622e+004,-1.71463451462906e+001,-1.29822323965852e+000

9.31786869174758e+004,-1.71464680420000e+001,-1.31617063532416e+000

9.44794129143618e+004,-1.71465940574244e+001,-1.33436165682886e+000

9.57982963695136e+004,-1.71467232627061e+001,-1.35279944690656e+000

9.71355907516031e+004,-1.71468557290827e+001,-1.37148718349619e+000

9.84915530675926e+004,-1.71469915288780e+001,-1.39042808000867e+000

9.98664439121282e+004,-1.71471307354903e+001,-1.40962538559627e+000

1.01260527517622e+005,-1.71472734233796e+001,-1.42908238542263e+000

1.02674071805032e+005,-1.71474196680520e+001,-1.44880240093907e+000

1.04107348435354e+005,-1.71475695460430e+001,-1.46878879016109e+000

1.05560632861831e+005,-1.71477231348974e+001,-1.48904494795303e+000

1.07034204382888e+005,-1.71478805131477e+001,-1.50957430631484e+000

1.08528346195813e+005,-1.71480417602900e+001,-1.53038033467438e+000

1.10043345451179e+005,-1.71482069567574e+001,-1.55146654018680e+000

1.11579493308032e+005,-1.71483761838908e+001,-1.57283646803927e+000

1.13137084989847e+005,-1.71485495239065e+001,-1.59449370176546e+000

1.14716419841265e+005,-1.71487270598624e+001,-1.61644186356476e+000

1.16317801385624e+005,-1.71489088756198e+001,-1.63868461463457e+000

1.17941537383287e+005,-1.71490950558029e+001,-1.66122565550878e+000

1.19587939890794e+005,-1.71492856857559e+001,-1.68406872640968e+000

1.21257325320831e+005,-1.71494808514959e+001,-1.70721760761119e+000

1.22950014503040e+005,-1.71496806396630e+001,-1.73067611981564e+000

1.24666332745679e+005,-1.71498851374675e+001,-1.75444812454193e+000

1.26406609898139e+005,-1.71500944326332e+001,-1.77853752453338e+000

1.28171180414339e+005,-1.71503086133373e+001,-1.80294826417945e+000

1.29960383416997e+005,-1.71505277681477e+001,-1.82768432995497e+000

1.31774562762811e+005,-1.71507519859548e+001,-1.85274975088129e+000

1.33614067108538e+005,-1.71509813559021e+001,-1.87814859900470e+000

1.35479249978003e+005,-1.71512159673113e+001,-1.90388498990138e+000

1.37370469830040e+005,-1.71514559096043e+001,-1.92996308320134e+000

1.39288090127379e+005,-1.71517012722217e+001,-1.95638708314271e+000

1.41232479406504e+005,-1.71519521445378e+001,-1.98316123914876e+000

1.43204011348474e+005,-1.71522086157704e+001,-2.01028984643830e+000

1.45203064850745e+005,-1.71524707748888e+001,-2.03777724666320e+000

1.47230024099979e+005,-1.71527387105171e+001,-2.06562782858053e+000

1.49285278645888e+005,-1.71530125108332e+001,-2.09384602875897e+000

1.51369223476094e+005,-1.71532922634658e+001,-2.12243633232100e+000

1.53482259092041e+005,-1.71535780553862e+001,-2.15140327372573e+000

1.55624791585964e+005,-1.71538699727976e+001,-2.18075143758971e+000

1.57797232718936e+005,-1.71541681010205e+001,-2.21048545955297e+000

1.59999999999999e+005,-1.71544725243752e+001,-2.24061002718826e+000

1.62233516766403e+005,-1.71547833260608e+001,-2.27112988095854e+000

1.64498212264969e+005,-1.71551005880316e+001,-2.30204981522304e+000

1.66794521734578e+005,-1.71554243908699e+001,-2.33337467929536e+000

1.69122886489819e+005,-1.71557548136574e+001,-2.36510937855442e+000

1.71483754005805e+005,-1.71560919338430e+001,-2.39725887561231e+000

1.73877578004168e+005,-1.71564358271093e+001,-2.42982819153944e+000

1.76304818540256e+005,-1.71567865672367e+001,-2.46282240715026e+000

1.78765942091554e+005,-1.71571442259662e+001,-2.49624666435045e+000

1.81261421647326e+005,-1.71575088728605e+001,-2.53010616755039e+000

1.83791736799524e+005,-1.71578805751650e+001,-2.56440618514276e+000

1.86357373834951e+005,-1.71582593976672e+001,-2.59915205104961e+000

1.88958825828723e+005,-1.71586454025567e+001,-2.63434916633989e+000

1.91596592739027e+005,-1.71590386492848e+001,-2.67000300091812e+000

1.94271181503206e+005,-1.71594391944256e+001,-2.70611909528681e+000

1.96983106135185e+005,-1.71598470915375e+001,-2.74270306238480e+000

1.99732887824256e+005,-1.71602623910263e+001,-2.77976058950099e+000

2.02521055035243e+005,-1.71606851400115e+001,-2.81729744026625e+000

2.05348143610063e+005,-1.71611153821937e+001,-2.85531945672409e+000

2.08214696870707e+005,-1.71615531577266e+001,-2.89383256148139e+000

2.11121265723661e+005,-1.71619985030921e+001,-2.93284275993804e+000

2.14068408765776e+005,-1.71624514509799e+001,-2.97235614259949e+000

2.17056692391625e+005,-1.71629120301724e+001,-3.01237888746923e+000

2.20086690902357e+005,-1.71633802654349e+001,-3.05291726252107e+000

2.23158986616063e+005,-1.71638561774121e+001,-3.09397762825542e+000

2.26274169979693e+005,-1.71643397825321e+001,-3.13556644033229e+000

2.29432839682530e+005,-1.71648310929171e+001,-3.17769025228682e+000

2.32635602771247e+005,-1.71653301163030e+001,-3.22035571832090e+000

2.35883074766574e+005,-1.71658368559676e+001,-3.26356959617441e+000

2.39175879781588e+005,-1.71663513106687e+001,-3.30733875006975e+000

2.42514650641661e+005,-1.71668734745919e+001,-3.35167015373023e+000

2.45900029006080e+005,-1.71674033373095e+001,-3.39657089347139e+000

2.49332665491357e+005,-1.71679408837515e+001,-3.44204817135922e+000

2.52813219796278e+005,-1.71684860941875e+001,-3.48810930843518e+000

2.56342360828676e+005,-1.71690389442224e+001,-3.53476174800234e+000

2.59920766833993e+005,-1.71695994048050e+001,-3.58201305897351e+000

2.63549125525621e+005,-1.71701674422502e+001,-3.62987093927178e+000

2.67228134217075e+005,-1.71707430182761e+001,-3.67834321928294e+000

2.70958499956006e+005,-1.71713260900554e+001,-3.72743786535705e+000

2.74740939660078e+005,-1.71719166102825e+001,-3.77716298334815e+000

2.78576180254757e+005,-1.71725145272560e+001,-3.82752682219462e+000

2.82464958813007e+005,-1.71731197849777e+001,-3.87853777753040e+000

2.86408022696948e+005,-1.71737323232671e+001,-3.93020439532254e+000

2.90406129701488e+005,-1.71743520778933e+001,-3.98253537553129e+000

2.94460048199957e+005,-1.71749789807235e+001,-4.03553957578395e+000

2.98570557291775e+005,-1.71756129598885e+001,-4.08922601505953e+000

3.02738446952187e+005,-1.71762539399641e+001,-4.14360387737826e+000

3.06964518184081e+005,-1.71769018421718e+001,-4.19868251548476e+000

3.11249583171928e+005,-1.71775565845940e+001,-4.25447145452783e+000

3.15594465437872e+005,-1.71782180824078e+001,-4.31098039572110e+000

3.19999999999997e+005,-1.71788862481346e+001,-4.36821921998602e+000

3.24467033532806e+005,-1.71795609919062e+001,-4.42619799156626e+000

3.28996424529938e+005,-1.71802422217471e+001,-4.48492696161013e+000

3.33589043469155e+005,-1.71809298438726e+001,-4.54441657171413e+000

3.38245772979638e+005,-1.71816237630017e+001,-4.60467745742191e+000

3.42967508011610e+005,-1.71823238826852e+001,-4.66572045167356e+000

3.47755156008335e+005,-1.71830301056474e+001,-4.72755658820016e+000

3.52609637080511e+005,-1.71837423341416e+001,-4.79019710485721e+000

3.57531884183106e+005,-1.71844604703185e+001,-4.85365344689374e+000

3.62522843294651e+005,-1.71851844166058e+001,-4.91793727015291e+000

3.67583473599047e+005,-1.71859140761000e+001,-4.98306044419848e+000

3.72714747669902e+005,-1.71866493529678e+001,-5.04903505536429e+000

3.77917651657445e+005,-1.71873901528573e+001,-5.11587340972417e+000

3.83193185478053e+005,-1.71881363833174e+001,-5.18358803597964e+000

3.88542363006410e+005,-1.71888879542248e+001,-5.25219168826070e+000

3.93966212270369e+005,-1.71896447782178e+001,-5.32169734884201e+000

3.99465775648511e+005,-1.71904067711352e+001,-5.39211823076914e+000

4.05042110070485e+005,-1.71911738524599e+001,-5.46346778039577e+000

4.10696287220124e+005,-1.71919459457659e+001,-5.53575967983293e+000

4.16429393741414e+005,-1.71927229791675e+001,-5.60900784930751e+000

4.22242531447321e+005,-1.71935048857704e+001,-5.68322644943295e+000

4.28136817531551e+005,-1.71942916041225e+001,-5.75842988339265e+000

4.34113384783250e+005,-1.71950830786646e+001,-5.83463279903777e+000

4.40173381804713e+005,-1.71958792601789e+001,-5.91185009090189e+000

4.46317973232124e+005,-1.71966801062352e+001,-5.99009690213417e+000

4.52548339959385e+005,-1.71974855816340e+001,-6.06938862635670e+000

4.58865679365059e+005,-1.71982956588442e+001,-6.14974090944583e+000

4.65271205542494e+005,-1.71991103184367e+001,-6.23116965124508e+000

4.71766149533147e+005,-1.71999295495109e+001,-6.31369100721258e+000

4.78351759563174e+005,-1.72007533501152e+001,-6.39732139000648e+000

4.85029301283321e+005,-1.72015817276599e+001,-6.48207747101562e+000

4.91800058012158e+005,-1.72024146993221e+001,-6.56797618184001e+000

4.98665330982714e+005,-1.72032522924414e+001,-6.65503471572581e+000

5.05626439592555e+005,-1.72040945449077e+001,-6.74327052896229e+000

5.12684721657352e+005,-1.72049415055385e+001,-6.83270134224531e+000

5.19841533667984e+005,-1.72057932344468e+001,-6.92334514201493e+000

5.27098251051240e+005,-1.72066498033988e+001,-7.01522018177188e+000

5.34456268434150e+005,-1.72075112961615e+001,-7.10834498338145e+000

5.41916999912011e+005,-1.72083778088394e+001,-7.20273833836821e+000

