Freq.,VOut,OutRef

1.00000000000000e+004,-1.34970892961019e+000,-1.14096123337241e-001

1.01395947979003e+004,-1.34970890913888e+000,-1.15688841869487e-001

1.02811382665607e+004,-1.34970888809106e+000,-1.17303793754596e-001

1.04246576084112e+004,-1.34970886645046e+000,-1.18941289351562e-001

1.05701804056138e+004,-1.34970884420051e+000,-1.20601643350475e-001

1.07177346253629e+004,-1.34970882132382e+000,-1.22285174835908e-001

1.08673486252606e+004,-1.34970879780279e+000,-1.23992207345093e-001

1.10190511587661e+004,-1.34970877361927e+000,-1.25723068931464e-001

1.11728713807222e+004,-1.34970874875461e+000,-1.27478092227153e-001

1.13288388529580e+004,-1.34970872318940e+000,-1.29257614509238e-001

1.14869835499703e+004,-1.34970869690414e+000,-1.31061977759232e-001

1.16473358646846e+004,-1.34970866987824e+000,-1.32891528736052e-001

1.18099266142953e+004,-1.34970864209092e+000,-1.34746619036022e-001

1.19747870461893e+004,-1.34970861352064e+000,-1.36627605163910e-001

1.21419488439505e+004,-1.34970858414531e+000,-1.38534848600544e-001

1.23114441334492e+004,-1.34970855394224e+000,-1.40468715872540e-001

1.24833054890161e+004,-1.34970852288787e+000,-1.42429578623158e-001

1.26575659397028e+004,-1.34970849095848e+000,-1.44417813680698e-001

1.28342589756290e+004,-1.34970845812893e+000,-1.46433803137297e-001

1.30134185544193e+004,-1.34970842437415e+000,-1.48477934413703e-001

1.31950791077289e+004,-1.34970838966781e+000,-1.50550600341769e-001

1.33792755478611e+004,-1.34970835398295e+000,-1.52652199235507e-001

1.35660432744767e+004,-1.34970831729207e+000,-1.54783134967405e-001

1.37554181813974e+004,-1.34970827956663e+000,-1.56943817048474e-001

1.39474366635040e+004,-1.34970824077741e+000,-1.59134660705075e-001

1.41421356237309e+004,-1.34970820089438e+000,-1.61356086958478e-001

1.43395524801583e+004,-1.34970815988632e+000,-1.63608522709208e-001

1.45397251732031e+004,-1.34970811772173e+000,-1.65892400812147e-001

1.47426921729110e+004,-1.34970807436776e+000,-1.68208160166790e-001

1.49484924863494e+004,-1.34970802979078e+000,-1.70556245797469e-001

1.51571656651040e+004,-1.34970798395604e+000,-1.72937108940835e-001

1.53687518128801e+004,-1.34970793682806e+000,-1.75351207130027e-001

1.55832915932100e+004,-1.34970788837005e+000,-1.77799004286622e-001

1.58008262372675e+004,-1.34970783854459e+000,-1.80280970803844e-001

1.60213975517924e+004,-1.34970778731275e+000,-1.82797583643490e-001

1.62450479271247e+004,-1.34970773463475e+000,-1.85349326422598e-001

1.64718203453514e+004,-1.34970768046947e+000,-1.87936689509717e-001

1.67017583885674e+004,-1.34970762477498e+000,-1.90560170114730e-001

1.69349062472505e+004,-1.34970756750770e+000,-1.93220272390246e-001

1.71713087287550e+004,-1.34970750862305e+000,-1.95917507523610e-001

1.74110112659224e+004,-1.34970744807530e+000,-1.98652393835891e-001

1.76540599258131e+004,-1.34970738581713e+000,-2.01425456884430e-001

1.79005014185594e+004,-1.34970732179998e+000,-2.04237229560112e-001

1.81503831063432e+004,-1.34970725597389e+000,-2.07088252191989e-001

1.84037530124975e+004,-1.34970718828763e+000,-2.09979072648667e-001

1.86606598307361e+004,-1.34970711868819e+000,-2.12910246447410e-001

1.89211529345119e+004,-1.34970704712134e+000,-2.15882336856417e-001

1.91852823865052e+004,-1.34970697353104e+000,-2.18895915006695e-001

1.94530989482457e+004,-1.34970689785980e+000,-2.21951559998672e-001

1.97246540898671e+004,-1.34970682004839e+000,-2.25049859016172e-001

1.99999999999999e+004,-1.34970674003605e+000,-2.28191407435849e-001

2.02791895958005e+004,-1.34970665776001e+000,-2.31376808945395e-001

2.05622765331213e+004,-1.34970657315591e+000,-2.34606675656122e-001

2.08493152168224e+004,-1.34970648615732e+000,-2.37881628223023e-001

2.11403608112276e+004,-1.34970639669613e+000,-2.41202295961351e-001

2.14354692507258e+004,-1.34970630470215e+000,-2.44569316969439e-001

2.17346972505211e+004,-1.34970621010320e+000,-2.47983338250282e-001

2.20381023175322e+004,-1.34970611282493e+000,-2.51445015836590e-001

2.23457427614443e+004,-1.34970601279084e+000,-2.54955014916321e-001

2.26576777059159e+004,-1.34970590992225e+000,-2.58514009959587e-001

2.29739670999406e+004,-1.34970580413837e+000,-2.62122684847854e-001

2.32946717293690e+004,-1.34970569535591e+000,-2.65781733007133e-001

2.36198532285905e+004,-1.34970558348893e+000,-2.69491857541177e-001

2.39495740923785e+004,-1.34970546844951e+000,-2.73253771362348e-001

2.42838976879009e+004,-1.34970535014676e+000,-2.77068197333691e-001

2.46228882668982e+004,-1.34970522848730e+000,-2.80935868404230e-001

2.49666109780322e+004,-1.34970510337500e+000,-2.84857527751346e-001

2.53151318794055e+004,-1.34970497471102e+000,-2.88833928921696e-001

2.56685179512580e+004,-1.34970484239350e+000,-2.92865835977998e-001

2.60268371088386e+004,-1.34970470631772e+000,-2.96954023643567e-001

2.63901582154578e+004,-1.34970456637576e+000,-3.01099277452698e-001

2.67585510957221e+004,-1.34970442245670e+000,-3.05302393900152e-001

2.71320865489533e+004,-1.34970427444633e+000,-3.09564180594037e-001

2.75108363627948e+004,-1.34970412222692e+000,-3.13885456412265e-001

2.78948733270080e+004,-1.34970396567768e+000,-3.18267051656166e-001

2.82842712474618e+004,-1.34970380467374e+000,-3.22709808215343e-001

2.86791049603164e+004,-1.34970363908708e+000,-3.27214579722733e-001

2.90794503464061e+004,-1.34970346878562e+000,-3.31782231723233e-001

2.94853843458219e+004,-1.34970329363332e+000,-3.36413641838232e-001

2.98969849726987e+004,-1.34970311349032e+000,-3.41109699932626e-001

3.03143313302078e+004,-1.34970292821254e+000,-3.45871308287009e-001

3.07375036257601e+004,-1.34970273765167e+000,-3.50699381770283e-001

3.11665831864199e+004,-1.34970254165504e+000,-3.55594848014398e-001

3.16016524745350e+004,-1.34970234006528e+000,-3.60558647594236e-001

3.20427951035848e+004,-1.34970213272063e+000,-3.65591734204622e-001

3.24900958542493e+004,-1.34970191945420e+000,-3.70695074847465e-001

3.29436406907028e+004,-1.34970170009433e+000,-3.75869650012875e-001

3.34035167771346e+004,-1.34970147446425e+000,-3.81116453869868e-001

3.38698124945009e+004,-1.34970124238179e+000,-3.86436494456304e-001

3.43426174575100e+004,-1.34970100365945e+000,-3.91830793871139e-001

3.48220225318448e+004,-1.34970075810407e+000,-3.97300388472012e-001

3.53081198516260e+004,-1.34970050551660e+000,-4.02846329072854e-001

3.58010028371187e+004,-1.34970024569229e+000,-4.08469681143974e-001

3.63007662126863e+004,-1.34969997841977e+000,-4.14171525020701e-001

3.68075060249948e+004,-1.34969970348183e+000,-4.19952956103547e-001

3.73213196614721e+004,-1.34969942065430e+000,-4.25815085074804e-001

3.78423058690237e+004,-1.34969912970641e+000,-4.31759038106853e-001

3.83705647730104e+004,-1.34969883040030e+000,-4.37785957080170e-001

3.89061978964912e+004,-1.34969852249104e+000,-4.43896999801262e-001

3.94493081797342e+004,-1.34969820572614e+000,-4.50093340223736e-001

3.99999999999998e+004,-1.34969787984541e+000,-4.56376168675092e-001

4.05583791916010e+004,-1.34969754458082e+000,-4.62746692082494e-001

4.11245530662425e+004,-1.34969719965602e+000,-4.69206134205694e-001

4.16986304336447e+004,-1.34969684478632e+000,-4.75755735869688e-001

4.22807216224550e+004,-1.34969647967818e+000,-4.82396755203895e-001

4.28709385014515e+004,-1.34969610402914e+000,-4.89130467881840e-001

4.34693945010421e+004,-1.34969571752742e+000,-4.95958167365542e-001

4.40762046350642e+004,-1.34969531985144e+000,-5.02881165154596e-001

4.46914855228886e+004,-1.34969491066993e+000,-5.09900791033796e-001

4.53153554118317e+004,-1.34969448964113e+000,-5.17018393331840e-001

4.59479341998812e+004,-1.34969405641284e+000,-5.24235339175555e-001

4.65893434587380e+004,-1.34969361062177e+000,-5.31553014754050e-001

4.72397064571810e+004,-1.34969315189330e+000,-5.38972825583201e-001

4.78991481847569e+004,-1.34969267984117e+000,-5.46496196773835e-001

4.85677953758016e+004,-1.34969219406706e+000,-5.54124573304128e-001

4.92457765337964e+004,-1.34969169415999e+000,-5.61859420297879e-001

4.99332219560642e+004,-1.34969117969605e+000,-5.69702223303387e-001

5.06302637588109e+004,-1.34969065023816e+000,-5.77654488576322e-001

5.13370359025159e+004,-1.34969010533519e+000,-5.85717743370288e-001

5.20536742176771e+004,-1.34968954452171e+000,-5.93893536227422e-001

5.27803164309155e+004,-1.34968896731771e+000,-6.02183437273253e-001

5.35171021914442e+004,-1.34968837322767e+000,-6.10589038519265e-001

5.42641730979066e+004,-1.34968776174040e+000,-6.19111954165027e-001

5.50216727255895e+004,-1.34968713232818e+000,-6.27753820908606e-001

5.57897466540159e+004,-1.34968648444651e+000,-6.36516298256807e-001

5.65685424949235e+004,-1.34968581753315e+000,-6.45401068845231e-001

5.73582099206328e+004,-1.34968513100807e+000,-6.54409838755991e-001

5.81589006928121e+004,-1.34968442427206e+000,-6.63544337847982e-001

5.89707686916437e+004,-1.34968369670687e+000,-6.72806320082833e-001

5.97939699453972e+004,-1.34968294767382e+000,-6.82197563863633e-001

6.06286626604156e+004,-1.34968217651358e+000,-6.91719872371819e-001

6.14750072515201e+004,-1.34968138254520e+000,-7.01375073912799e-001

6.23331663728396e+004,-1.34968056506547e+000,-7.11165022264157e-001

6.32033049490698e+004,-1.34967972334805e+000,-7.21091597030134e-001

6.40855902071694e+004,-1.34967885664262e+000,-7.31156704000205e-001

6.49801917084985e+004,-1.34967796417401e+000,-7.41362275512770e-001

6.58872813814055e+004,-1.34967704514157e+000,-7.51710270822992e-001

6.68070335542691e+004,-1.34967609871775e+000,-7.62202676478682e-001

6.77396249890018e+004,-1.34967512404769e+000,-7.72841506696186e-001

6.86852349150199e+004,-1.34967412024782e+000,-7.83628803747405e-001

6.96440450636895e+004,-1.34967308640501e+000,-7.94566638347901e-001

7.06162397032520e+004,-1.34967202157542e+000,-8.05657110052261e-001

7.16020056742374e+004,-1.34967092478345e+000,-8.16902347653495e-001

7.26015324253724e+004,-1.34966979502049e+000,-8.28304509590694e-001

7.36150120499896e+004,-1.34966863124381e+000,-8.39865784358204e-001

7.46426393229441e+004,-1.34966743237523e+000,-8.51588390925129e-001

7.56846117380472e+004,-1.34966619729994e+000,-8.63474579156018e-001

7.67411295460207e+004,-1.34966492486480e+000,-8.75526630242233e-001

7.78123957929823e+004,-1.34966361387741e+000,-8.87746857134334e-001

7.88986163594682e+004,-1.34966226310433e+000,-9.00137604983593e-001

7.99999999999995e+004,-1.34966087126976e+000,-9.12701251589034e-001

8.11167583832018e+004,-1.34965943705358e+000,-9.25440207851233e-001

8.22491061324848e+004,-1.34965795909024e+000,-9.38356918229735e-001

8.33972608672892e+004,-1.34965643596667e+000,-9.51453861210055e-001

8.45614432449099e+004,-1.34965486622070e+000,-9.64733549775629e-001

8.57418770029029e+004,-1.34965324833907e+000,-9.78198531886418e-001

8.69387890020841e+004,-1.34965158075557e+000,-9.91851390964255e-001

8.81524092701283e+004,-1.34964986184929e+000,-1.00569474638390e+000

8.93829710457770e+004,-1.34964808994201e+000,-1.01973125397439e+000

9.06307108236633e+004,-1.34964626329667e+000,-1.03396360652188e+000

9.18958683997622e+004,-1.34964438011467e+000,-1.04839453428508e+000

9.31786869174758e+004,-1.34964243853397e+000,-1.06302680551275e+000

9.44794129143618e+004,-1.34964043662617e+000,-1.07786322697398e+000

9.57982963695136e+004,-1.34963837239459e+000,-1.09290664448950e+000

9.71355907516031e+004,-1.34963624377126e+000,-1.10815994347618e+000

9.84915530675926e+004,-1.34963404861433e+000,-1.12362604949593e+000

9.98664439121282e+004,-1.34963178470545e+000,-1.13930792881226e+000

1.01260527517622e+005,-1.34962944974665e+000,-1.15520858895650e+000

1.02674071805032e+005,-1.34962704135735e+000,-1.17133107930035e+000

1.04107348435354e+005,-1.34962455707154e+000,-1.18767849163624e+000

1.05560632861831e+005,-1.34962199433409e+000,-1.20425396076789e+000

1.07034204382888e+005,-1.34961935049773e+000,-1.22106066510658e+000

1.08528346195813e+005,-1.34961662281938e+000,-1.23810182727812e+000

1.10043345451179e+005,-1.34961380845670e+000,-1.25538071473582e+000

1.11579493308032e+005,-1.34961090446421e+000,-1.27290064038508e+000

1.13137084989847e+005,-1.34960790778942e+000,-1.29066496321466e+000

1.14716419841265e+005,-1.34960481526886e+000,-1.30867708893672e+000

1.16317801385624e+005,-1.34960162362396e+000,-1.32694047063836e+000

1.17941537383287e+005,-1.34959832945648e+000,-1.34545860943951e+000

1.19587939890794e+005,-1.34959492924444e+000,-1.36423505516143e+000

1.21257325320831e+005,-1.34959141933707e+000,-1.38327340700547e+000

1.22950014503040e+005,-1.34958779595042e+000,-1.40257731423972e+000

1.24666332745679e+005,-1.34958405516207e+000,-1.42215047689709e+000

1.26406609898139e+005,-1.34958019290601e+000,-1.44199664648352e+000

1.28171180414339e+005,-1.34957620496775e+000,-1.46211962669282e+000

1.29960383416997e+005,-1.34957208697823e+000,-1.48252327413856e+000

1.31774562762811e+005,-1.34956783440859e+000,-1.50321149908872e+000

1.33614067108538e+005,-1.34956344256420e+000,-1.52418826621651e+000

1.35479249978003e+005,-1.34955890657844e+000,-1.54545759535982e+000

1.37370469830040e+005,-1.34955422140668e+000,-1.56702356229198e+000

1.39288090127379e+005,-1.34954938181967e+000,-1.58889029950325e+000

1.41232479406504e+005,-1.34954438239698e+000,-1.61106199699477e+000

1.43204011348474e+005,-1.34953921751995e+000,-1.63354290308289e+000

1.45203064850745e+005,-1.34953388136495e+000,-1.65633732521517e+000

1.47230024099979e+005,-1.34952836789566e+000,-1.67944963080012e+000

1.49285278645888e+005,-1.34952267085583e+000,-1.70288424804641e+000

1.51369223476094e+005,-1.34951678376148e+000,-1.72664566681615e+000

1.53482259092041e+005,-1.34951069989281e+000,-1.75073843949036e+000

1.55624791585964e+005,-1.34950441228615e+000,-1.77516718184684e+000

1.57797232718936e+005,-1.34949791372531e+000,-1.79993657395161e+000

1.59999999999999e+005,-1.34949119673317e+000,-1.82505136106161e+000

1.62233516766403e+005,-1.34948425356245e+000,-1.85051635454425e+000

1.64498212264969e+005,-1.34947707618686e+000,-1.87633643280635e+000

1.66794521734578e+005,-1.34946965629131e+000,-1.90251654224064e+000

1.69122886489819e+005,-1.34946198526269e+000,-1.92906169818330e+000

1.71483754005805e+005,-1.34945405417946e+000,-1.95597698588838e+000

1.73877578004168e+005,-1.34944585380198e+000,-1.98326756151377e+000

1.76304818540256e+005,-1.34943737456173e+000,-2.01093865312482e+000

1.78765942091554e+005,-1.34942860655080e+000,-2.03899556171112e+000

1.81261421647326e+005,-1.34941953951100e+000,-2.06744366221888e+000

1.83791736799524e+005,-1.34941016282251e+000,-2.09628840459796e+000

1.86357373834951e+005,-1.34940046549258e+000,-2.12553531486742e+000

1.88958825828723e+005,-1.34939043614388e+000,-2.15518999619250e+000

1.91596592739027e+005,-1.34938006300243e+000,-2.18525812998174e+000

1.94271181503206e+005,-1.34936933388540e+000,-2.21574547699856e+000

1.96983106135185e+005,-1.34935823618876e+000,-2.24665787848984e+000

1.99732887824256e+005,-1.34934675687452e+000,-2.27800125733112e+000

2.02521055035243e+005,-1.34933488245772e+000,-2.30978161918942e+000

2.05348143610063e+005,-1.34932259899331e+000,-2.34200505370357e+000

2.08214696870707e+005,-1.34930989206254e+000,-2.37467773568173e+000

2.11121265723661e+005,-1.34929674675941e+000,-2.40780592631679e+000

2.14068408765776e+005,-1.34928314767664e+000,-2.44139597442028e+000

2.17056692391625e+005,-1.34926907889144e+000,-2.47545431767457e+000

2.20086690902357e+005,-1.34925452395111e+000,-2.50998748390340e+000

2.23158986616063e+005,-1.34923946585827e+000,-2.54500209236260e+000

2.26274169979693e+005,-1.34922388705602e+000,-2.58050485504759e+000

2.29432839682530e+005,-1.34920776941279e+000,-2.61650257802254e+000

2.32635602771247e+005,-1.34919109420685e+000,-2.65300216276808e+000

2.35883074766574e+005,-1.34917384211074e+000,-2.69001060754940e+000

2.39175879781588e+005,-1.34915599317528e+000,-2.72753500880441e+000

2.42514650641661e+005,-1.34913752681357e+000,-2.76558256255193e+000

2.45900029006080e+005,-1.34911842178463e+000,-2.80416056582101e+000

2.49332665491357e+005,-1.34909865617679e+000,-2.84327641810081e+000

2.52813219796278e+005,-1.34907820739089e+000,-2.88293762281205e+000

2.56342360828676e+005,-1.34905705212311e+000,-2.92315178880005e+000

2.59920766833993e+005,-1.34903516634791e+000,-2.96392663184807e+000

2.63549125525621e+005,-1.34901252530027e+000,-3.00526997621420e+000

2.67228134217075e+005,-1.34898910345800e+000,-3.04718975618958e+000

2.70958499956006e+005,-1.34896487452355e+000,-3.08969401767961e+000

2.74740939660078e+005,-1.34893981140600e+000,-3.13279091980640e+000

2.78576180254757e+005,-1.34891388620221e+000,-3.17648873653581e+000

2.82464958813007e+005,-1.34888707017809e+000,-3.22079585832683e+000

2.86408022696948e+005,-1.34885933374946e+000,-3.26572079380421e+000

2.90406129701488e+005,-1.34883064646260e+000,-3.31127217145574e+000

2.94460048199957e+005,-1.34880097697453e+000,-3.35745874135165e+000

2.98570557291775e+005,-1.34877029303300e+000,-3.40428937688985e+000

3.02738446952187e+005,-1.34873856145600e+000,-3.45177307656550e+000

3.06964518184081e+005,-1.34870574811106e+000,-3.49991896576426e+000

3.11249583171928e+005,-1.34867181789428e+000,-3.54873629858096e+000

3.15594465437872e+005,-1.34863673470850e+000,-3.59823445966480e+000

3.19999999999997e+005,-1.34860046144169e+000,-3.64842296608809e+000

3.24467033532806e+005,-1.34856295994441e+000,-3.69931146924267e+000

3.28996424529938e+005,-1.34852419100709e+000,-3.75090975676143e+000

3.33589043469155e+005,-1.34848411433665e+000,-3.80322775446678e+000

3.38245772979638e+005,-1.34844268853276e+000,-3.85627552834620e+000

3.42967508011610e+005,-1.34839987106347e+000,-3.91006328655432e+000

3.47755156008335e+005,-1.34835561824019e+000,-3.96460138144346e+000

3.52609637080511e+005,-1.34830988519220e+000,-4.01990031162129e+000

3.57531884183106e+005,-1.34826262584049e+000,-4.07597072403742e+000

3.62522843294651e+005,-1.34821379287077e+000,-4.13282341609843e+000

3.67583473599047e+005,-1.34816333770615e+000,-4.19046933781132e+000

3.72714747669902e+005,-1.34811121047845e+000,-4.24891959395850e+000

3.77917651657445e+005,-1.34805735999928e+000,-4.30818544630065e+000

3.83193185478053e+005,-1.34800173373006e+000,-4.36827831581107e+000

3.88542363006410e+005,-1.34794427775111e+000,-4.42920978494089e+000

3.93966212270369e+005,-1.34788493672988e+000,-4.49099159991554e+000

3.99465775648511e+005,-1.34782365388818e+000,-4.55363567306393e+000

4.05042110070485e+005,-1.34776037096853e+000,-4.61715408517826e+000

4.10696287220124e+005,-1.34769502819918e+000,-4.68155908790972e+000

4.16429393741414e+005,-1.34762756425840e+000,-4.74686310619497e+000

4.22242531447321e+005,-1.34755791623717e+000,-4.81307874071888e+000

4.28136817531551e+005,-1.34748601960104e+000,-4.88021877041133e+000

4.34113384783250e+005,-1.34741180815054e+000,-4.94829615497977e+000

4.40173381804713e+005,-1.34733521398041e+000,-5.01732403747744e+000

4.46317973232124e+005,-1.34725616743738e+000,-5.08731574690926e+000

4.52548339959385e+005,-1.34717459707648e+000,-5.15828480087512e+000

4.58865679365059e+005,-1.34709042961624e+000,-5.23024490825042e+000

4.65271205542494e+005,-1.34700358989191e+000,-5.30320997190765e+000

4.71766149533147e+005,-1.34691400080763e+000,-5.37719409147561e+000

4.78351759563174e+005,-1.34682158328655e+000,-5.45221156614134e+000

4.85029301283321e+005,-1.34672625621960e+000,-5.52827689749200e+000

4.91800058012158e+005,-1.34662793641249e+000,-5.60540479239959e+000

4.98665330982714e+005,-1.34652653853092e+000,-5.68361016594903e+000

5.05626439592555e+005,-1.34642197504407e+000,-5.76290814440993e+000

5.12684721657352e+005,-1.34631415616615e+000,-5.84331406825328e+000

5.19841533667984e+005,-1.34620298979621e+000,-5.92484349521494e+000

5.27098251051240e+005,-1.34608838145584e+000,-6.00751220340411e+000

5.34456268434150e+005,-1.34597023422515e+000,-6.09133619446145e+000

5.41916999912011e+005,-1.34584844867635e+000,-6.17633169676492e+000

