Freq.,VOut,OutRef

1.00000000000000e+004,-2.44881709590031e+001,-2.12755957540305e-001

1.01395947979003e+004,-2.44881730377609e+001,-2.15725652070036e-001

1.02811382665607e+004,-2.44881751749024e+001,-2.18736790620886e-001

1.04246576084112e+004,-2.44881773720655e+001,-2.21789951249165e-001

1.05701804056138e+004,-2.44881796309344e+001,-2.24885720057127e-001

1.07177346253629e+004,-2.44881819532398e+001,-2.28024691310213e-001

1.08673486252606e+004,-2.44881843407616e+001,-2.31207467545711e-001

1.10190511587661e+004,-2.44881867953291e+001,-2.34434659688047e-001

1.11728713807222e+004,-2.44881893188227e+001,-2.37706887168137e-001

1.13288388529580e+004,-2.44881919131755e+001,-2.41024778038245e-001

1.14869835499703e+004,-2.44881945803750e+001,-2.44388969089464e-001

1.16473358646846e+004,-2.44881973224637e+001,-2.47800105978217e-001

1.18099266142953e+004,-2.44882001415420e+001,-2.51258843341535e-001

1.19747870461893e+004,-2.44882030397681e+001,-2.54765844929716e-001

1.21419488439505e+004,-2.44882060193615e+001,-2.58321783723815e-001

1.23114441334492e+004,-2.44882090826030e+001,-2.61927342069624e-001

1.24833054890161e+004,-2.44882122318377e+001,-2.65583211802856e-001

1.26575659397028e+004,-2.44882154694758e+001,-2.69290094384145e-001

1.28342589756290e+004,-2.44882187979952e+001,-2.73048701027272e-001

1.30134185544193e+004,-2.44882222199428e+001,-2.76859752837891e-001

1.31950791077289e+004,-2.44882257379367e+001,-2.80723980947768e-001

1.33792755478611e+004,-2.44882293546684e+001,-2.84642126653196e-001

1.35660432744767e+004,-2.44882330729039e+001,-2.88614941556522e-001

1.37554181813974e+004,-2.44882368954872e+001,-2.92643187706297e-001

1.39474366635040e+004,-2.44882408253411e+001,-2.96727637742799e-001

1.41421356237309e+004,-2.44882448654703e+001,-3.00869075042878e-001

1.43395524801583e+004,-2.44882490189631e+001,-3.05068293868742e-001

1.45397251732031e+004,-2.44882532889942e+001,-3.09326099517025e-001

1.47426921729110e+004,-2.44882576788268e+001,-3.13643308469669e-001

1.49484924863494e+004,-2.44882621918147e+001,-3.18020748550850e-001

1.51571656651040e+004,-2.44882668314059e+001,-3.22459259079151e-001

1.53687518128801e+004,-2.44882716011438e+001,-3.26959691028971e-001

1.55832915932100e+004,-2.44882765046710e+001,-3.31522907186784e-001

1.58008262372675e+004,-2.44882815457312e+001,-3.36149782317961e-001

1.60213975517924e+004,-2.44882867281728e+001,-3.40841203326414e-001

1.62450479271247e+004,-2.44882920559510e+001,-3.45598069424076e-001

1.64718203453514e+004,-2.44882975331311e+001,-3.50421292298993e-001

1.67017583885674e+004,-2.44883031638919e+001,-3.55311796285378e-001

1.69349062472505e+004,-2.44883089525279e+001,-3.60270518538623e-001

1.71713087287550e+004,-2.44883149034533e+001,-3.65298409209094e-001

1.74110112659224e+004,-2.44883210212052e+001,-3.70396431619994e-001

1.76540599258131e+004,-2.44883273104466e+001,-3.75565562447956e-001

1.79005014185594e+004,-2.44883337759698e+001,-3.80806791906732e-001

1.81503831063432e+004,-2.44883404227008e+001,-3.86121123929481e-001

1.84037530124975e+004,-2.44883472557020e+001,-3.91509576356718e-001

1.86606598307361e+004,-2.44883542801763e+001,-3.96973181128456e-001

1.89211529345119e+004,-2.44883615014710e+001,-4.02512984473162e-001

1.91852823865052e+004,-2.44883689250817e+001,-4.08130047104445e-001

1.94530989482457e+004,-2.44883765566564e+001,-4.13825444417278e-001

1.97246540898671e+004,-2.44883844019996e+001,-4.19600266686950e-001

1.99999999999999e+004,-2.44883924670767e+001,-4.25455619272796e-001

2.02791895958005e+004,-2.44884007580181e+001,-4.31392622823888e-001

2.05622765331213e+004,-2.44884092811238e+001,-4.37412413483777e-001

2.08493152168224e+004,-2.44884180428687e+001,-4.43516143101260e-001

2.11403608112276e+004,-2.44884270499059e+001,-4.49704979446175e-001

2.14354692507258e+004,-2.44884363090731e+001,-4.55980106420522e-001

2.17346972505211e+004,-2.44884458273963e+001,-4.62342724281304e-001

2.20381023175322e+004,-2.44884556120962e+001,-4.68794049856395e-001

2.23457427614443e+004,-2.44884656705922e+001,-4.75335316773245e-001

2.26576777059159e+004,-2.44884760105087e+001,-4.81967775682292e-001

2.29739670999406e+004,-2.44884866396803e+001,-4.88692694487068e-001

2.32946717293690e+004,-2.44884975661571e+001,-4.95511358578792e-001

2.36198532285905e+004,-2.44885087982116e+001,-5.02425071066895e-001

2.39495740923785e+004,-2.44885203443433e+001,-5.09435153023007e-001

2.42838976879009e+004,-2.44885322132858e+001,-5.16542943716599e-001

2.46228882668982e+004,-2.44885444140128e+001,-5.23749800863217e-001

2.49666109780322e+004,-2.44885569557447e+001,-5.31057100867361e-001

2.53151318794055e+004,-2.44885698479547e+001,-5.38466239077414e-001

2.56685179512580e+004,-2.44885831003760e+001,-5.45978630034984e-001

2.60268371088386e+004,-2.44885967230087e+001,-5.53595707733348e-001

2.63901582154578e+004,-2.44886107261271e+001,-5.61318925873978e-001

2.67585510957221e+004,-2.44886251202865e+001,-5.69149758132459e-001

2.71320865489533e+004,-2.44886399163309e+001,-5.77089698422216e-001

2.75108363627948e+004,-2.44886551254010e+001,-5.85140261162479e-001

2.78948733270080e+004,-2.44886707589417e+001,-5.93302981551563e-001

2.82842712474618e+004,-2.44886868287103e+001,-6.01579415842014e-001

2.86791049603164e+004,-2.44887033467845e+001,-6.09971141617692e-001

2.90794503464061e+004,-2.44887203255712e+001,-6.18479758077571e-001

2.94853843458219e+004,-2.44887377778151e+001,-6.27106886318209e-001

2.98969849726987e+004,-2.44887557166073e+001,-6.35854169623545e-001

3.03143313302078e+004,-2.44887741553949e+001,-6.44723273755604e-001

3.07375036257601e+004,-2.44887931079897e+001,-6.53715887250983e-001

3.11665831864199e+004,-2.44888125885781e+001,-6.62833721717351e-001

3.16016524745350e+004,-2.44888326117308e+001,-6.72078512135250e-001

3.20427951035848e+004,-2.44888531924130e+001,-6.81452017164174e-001

3.24900958542493e+004,-2.44888743459942e+001,-6.90956019450129e-001

3.29436406907028e+004,-2.44888960882587e+001,-7.00592325938642e-001

3.34035167771346e+004,-2.44889184354167e+001,-7.10362768188754e-001

3.38698124945009e+004,-2.44889414041153e+001,-7.20269202691642e-001

3.43426174575100e+004,-2.44889650114491e+001,-7.30313511194979e-001

3.48220225318448e+004,-2.44889892749721e+001,-7.40497601026448e-001

3.53081198516260e+004,-2.44890142127095e+001,-7.50823405423798e-001

3.58010028371187e+004,-2.44890398431694e+001,-7.61292883869161e-001

3.63007662126863e+004,-2.44890661853555e+001,-7.71908022421023e-001

3.68075060249948e+004,-2.44890932587790e+001,-7.82670834060140e-001

3.73213196614721e+004,-2.44891210834723e+001,-7.93583359026808e-001

3.78423058690237e+004,-2.44891496800012e+001,-8.04647665171633e-001

3.83705647730104e+004,-2.44891790694786e+001,-8.15865848305734e-001

3.89061978964912e+004,-2.44892092735786e+001,-8.27240032552399e-001

3.94493081797342e+004,-2.44892403145499e+001,-8.38772370706179e-001

3.99999999999998e+004,-2.44892722152302e+001,-8.50465044594625e-001

4.05583791916010e+004,-2.44893049990610e+001,-8.62320265440585e-001

4.11245530662425e+004,-2.44893386901021e+001,-8.74340274233487e-001

4.16986304336447e+004,-2.44893733130470e+001,-8.86527342098007e-001

4.22807216224550e+004,-2.44894088932383e+001,-8.98883770671254e-001

4.28709385014515e+004,-2.44894454566834e+001,-9.11411892480571e-001

4.34693945010421e+004,-2.44894830300708e+001,-9.24114071326040e-001

4.40762046350642e+004,-2.44895216407860e+001,-9.36992702666559e-001

4.46914855228886e+004,-2.44895613169288e+001,-9.50050214009207e-001

4.53153554118317e+004,-2.44896020873299e+001,-9.63289065301540e-001

4.59479341998812e+004,-2.44896439815688e+001,-9.76711749327228e-001

4.65893434587380e+004,-2.44896870299905e+001,-9.90320792108380e-001

4.72397064571810e+004,-2.44897312637243e+001,-1.00411875330532e+000

4.78991481847569e+004,-2.44897767147017e+001,-1.01810822662545e+000

4.85677953758016e+004,-2.44898234156754e+001,-1.03229184023215e+000

4.92457765337964e+004,-2.44898714002376e+001,-1.04667225715933e+000

4.99332219560642e+004,-2.44899207028397e+001,-1.06125217572602e+000

5.06302637588109e+004,-2.44899713588115e+001,-1.07603432995945e+000

5.13370359025159e+004,-2.44900234043816e+001,-1.09102149001498e+000

5.20536742176771e+004,-2.44900768766969e+001,-1.10621646260516e+000

5.27803164309155e+004,-2.44901318138434e+001,-1.12162209142901e+000

5.35171021914442e+004,-2.44901882548671e+001,-1.13724125760446e+000

5.42641730979066e+004,-2.44902462397945e+001,-1.15307688010541e+000

5.50216727255895e+004,-2.44903058096543e+001,-1.16913191620045e+000

5.57897466540159e+004,-2.44903670064993e+001,-1.18540936189639e+000

5.65685424949235e+004,-2.44904298734274e+001,-1.20191225238196e+000

5.73582099206328e+004,-2.44904944546047e+001,-1.21864366247924e+000

5.81589006928121e+004,-2.44905607952870e+001,-1.23560670709231e+000

5.89707686916437e+004,-2.44906289418431e+001,-1.25280454166444e+000

5.97939699453972e+004,-2.44906989417773e+001,-1.27024036263390e+000

6.06286626604156e+004,-2.44907708437525e+001,-1.28791740789561e+000

6.14750072515201e+004,-2.44908446976135e+001,-1.30583895726315e+000

6.23331663728396e+004,-2.44909205544105e+001,-1.32400833293693e+000

6.32033049490698e+004,-2.44909984664227e+001,-1.34242889997031e+000

6.40855902071694e+004,-2.44910784871819e+001,-1.36110406674426e+000

6.49801917084985e+004,-2.44911606714967e+001,-1.38003728544006e+000

6.58872813814055e+004,-2.44912450754762e+001,-1.39923205251670e+000

6.68070335542691e+004,-2.44913317565543e+001,-1.41869190919088e+000

6.77396249890018e+004,-2.44914207735140e+001,-1.43842044191942e+000

6.86852349150199e+004,-2.44915121865114e+001,-1.45842128288406e+000

6.96440450636895e+004,-2.44916060571000e+001,-1.47869811047957e+000

7.06162397032520e+004,-2.44917024482549e+001,-1.49925464980407e+000

7.16020056742374e+004,-2.44918014243972e+001,-1.52009467315104e+000

7.26015324253724e+004,-2.44919030514175e+001,-1.54122200050616e+000

7.36150120499896e+004,-2.44920073967010e+001,-1.56264050004366e+000

7.46426393229441e+004,-2.44921145291503e+001,-1.58435408862776e+000

7.56846117380472e+004,-2.44922245192096e+001,-1.60636673231644e+000

7.67411295460207e+004,-2.44923374388879e+001,-1.62868244686654e+000

7.78123957929823e+004,-2.44924533617828e+001,-1.65130529824189e+000

7.88986163594682e+004,-2.44925723631026e+001,-1.67423940312553e+000

7.99999999999995e+004,-2.44926945196895e+001,-1.69748892943283e+000

8.11167583832018e+004,-2.44928199100412e+001,-1.72105809682928e+000

8.22491061324848e+004,-2.44929486143333e+001,-1.74495117724928e+000

8.33972608672892e+004,-2.44930807144398e+001,-1.76917249541930e+000

8.45614432449099e+004,-2.44932162939543e+001,-1.79372642938369e+000

8.57418770029029e+004,-2.44933554382099e+001,-1.81861741103395e+000

8.69387890020841e+004,-2.44934982342982e+001,-1.84384992664163e+000

8.81524092701283e+004,-2.44936447710888e+001,-1.86942851739372e+000

8.93829710457770e+004,-2.44937951392463e+001,-1.89535777993291e+000

9.06307108236633e+004,-2.44939494312477e+001,-1.92164236690205e+000

9.18958683997622e+004,-2.44941077413988e+001,-1.94828698749107e+000

9.31786869174758e+004,-2.44942701658488e+001,-1.97529640799048e+000

9.44794129143618e+004,-2.44944368026044e+001,-2.00267545234880e+000

9.57982963695136e+004,-2.44946077515430e+001,-2.03042900273402e+000

9.71355907516031e+004,-2.44947831144243e+001,-2.05856200010236e+000

9.84915530675926e+004,-2.44949629949006e+001,-2.08707944477075e+000

9.98664439121282e+004,-2.44951474985258e+001,-2.11598639699868e+000

1.01260527517622e+005,-2.44953367327632e+001,-2.14528797757270e+000

1.02674071805032e+005,-2.44955308069918e+001,-2.17498936840057e+000

1.04107348435354e+005,-2.44957298325100e+001,-2.20509581311401e+000

1.05560632861831e+005,-2.44959339225393e+001,-2.23561261767632e+000

1.07034204382888e+005,-2.44961431922249e+001,-2.26654515100242e+000

1.08528346195813e+005,-2.44963577586350e+001,-2.29789884558596e+000

1.10043345451179e+005,-2.44965777407579e+001,-2.32967919813828e+000

1.11579493308032e+005,-2.44968032594976e+001,-2.36189177023734e+000

1.13137084989847e+005,-2.44970344376666e+001,-2.39454218898873e+000

1.14716419841265e+005,-2.44972713999773e+001,-2.42763614769998e+000

1.16317801385624e+005,-2.44975142730304e+001,-2.46117940656795e+000

1.17941537383287e+005,-2.44977631853016e+001,-2.49517779338008e+000

1.19587939890794e+005,-2.44980182671256e+001,-2.52963720423304e+000

1.21257325320831e+005,-2.44982796506774e+001,-2.56456360426691e+000

1.22950014503040e+005,-2.44985474699518e+001,-2.59996302841651e+000

1.24666332745679e+005,-2.44988218607396e+001,-2.63584158218441e+000

1.26406609898139e+005,-2.44991029606015e+001,-2.67220544243112e+000

1.28171180414339e+005,-2.44993909088392e+001,-2.70906085818965e+000

1.29960383416997e+005,-2.44996858464638e+001,-2.74641415150179e+000

1.31774562762811e+005,-2.44999879161614e+001,-2.78427171827956e+000

1.33614067108538e+005,-2.45002972622561e+001,-2.82264002919319e+000

1.35479249978003e+005,-2.45006140306696e+001,-2.86152563058510e+000

1.37370469830040e+005,-2.45009383688786e+001,-2.90093514541706e+000

1.39288090127379e+005,-2.45012704258695e+001,-2.94087527424384e+000

1.41232479406504e+005,-2.45016103520888e+001,-2.98135279622443e+000

1.43204011348474e+005,-2.45019582993933e+001,-3.02237457016479e+000

1.45203064850745e+005,-2.45023144209946e+001,-3.06394753559982e+000

1.47230024099979e+005,-2.45026788714035e+001,-3.10607871391258e+000

1.49285278645888e+005,-2.45030518063698e+001,-3.14877520949552e+000

1.51369223476094e+005,-2.45034333828208e+001,-3.19204421095347e+000

1.53482259092041e+005,-2.45038237587968e+001,-3.23589299235352e+000

1.55624791585964e+005,-2.45042230933843e+001,-3.28032891452065e+000

1.57797232718936e+005,-2.45046315466469e+001,-3.32535942638365e+000

1.59999999999999e+005,-2.45050492795548e+001,-3.37099206637259e+000

1.62233516766403e+005,-2.45054764539117e+001,-3.41723446387037e+000

1.64498212264969e+005,-2.45059132322803e+001,-3.46409434072056e+000

1.66794521734578e+005,-2.45063597779063e+001,-3.51157951279487e+000

1.69122886489819e+005,-2.45068162546416e+001,-3.55969789161961e+000

1.71483754005805e+005,-2.45072828268664e+001,-3.60845748606680e+000

1.73877578004168e+005,-2.45077596594103e+001,-3.65786640411075e+000

1.76304818540256e+005,-2.45082469174737e+001,-3.70793285465185e+000

1.78765942091554e+005,-2.45087447665490e+001,-3.75866514941078e+000

1.81261421647326e+005,-2.45092533723421e+001,-3.81007170489434e+000

1.83791736799524e+005,-2.45097729006956e+001,-3.86216104443575e+000

1.86357373834951e+005,-2.45103035175120e+001,-3.91494180031126e+000

1.88958825828723e+005,-2.45108453886797e+001,-3.96842271593393e+000

1.91596592739027e+005,-2.45113986800011e+001,-4.02261264812891e+000

1.94271181503206e+005,-2.45119635571229e+001,-4.07752056948842e+000

1.96983106135185e+005,-2.45125401854705e+001,-4.13315557081120e+000

1.99732887824256e+005,-2.45131287301858e+001,-4.18952686362527e+000

2.02521055035243e+005,-2.45137293560698e+001,-4.24664378279807e+000

2.05348143610063e+005,-2.45143422275298e+001,-4.30451578923097e+000

2.08214696870707e+005,-2.45149675085333e+001,-4.36315247264298e+000

2.11121265723661e+005,-2.45156053625674e+001,-4.42256355444255e+000

2.14068408765776e+005,-2.45162559526058e+001,-4.48275889068692e+000

2.17056692391625e+005,-2.45169194410839e+001,-4.54374847513148e+000

2.20086690902357e+005,-2.45175959898815e+001,-4.60554244236633e+000

2.23158986616063e+005,-2.45182857603161e+001,-4.66815107104204e+000

2.26274169979693e+005,-2.45189889131453e+001,-4.73158478718214e+000

2.29432839682530e+005,-2.45197056085804e+001,-4.79585416758362e+000

2.32635602771247e+005,-2.45204360063114e+001,-4.86096994330020e+000

2.35883074766574e+005,-2.45211802655447e+001,-4.92694300321213e+000

2.39175879781588e+005,-2.45219385450539e+001,-4.99378439767495e+000

2.42514650641661e+005,-2.45227110032438e+001,-5.06150534225022e+000

2.45900029006080e+005,-2.45234977982301e+001,-5.13011722151131e+000

2.49332665491357e+005,-2.45242990879339e+001,-5.19963159292438e+000

2.52813219796278e+005,-2.45251150301925e+001,-5.27006019079871e+000

2.56342360828676e+005,-2.45259457828869e+001,-5.34141493030576e+000

2.59920766833993e+005,-2.45267915040875e+001,-5.41370791155959e+000

2.63549125525621e+005,-2.45276523522169e+001,-5.48695142375782e+000

2.67228134217075e+005,-2.45285284862331e+001,-5.56115794937507e+000

2.70958499956006e+005,-2.45294200658304e+001,-5.63634016840720e+000

2.74740939660078e+005,-2.45303272516621e+001,-5.71251096265884e+000

2.78576180254757e+005,-2.45312502055824e+001,-5.78968342006917e+000

2.82464958813007e+005,-2.45321890909101e+001,-5.86787083907170e+000

2.86408022696948e+005,-2.45331440727134e+001,-5.94708673297867e+000

2.90406129701488e+005,-2.45341153181166e+001,-6.02734483438917e+000

2.94460048199957e+005,-2.45351029966294e+001,-6.10865909960757e+000

2.98570557291775e+005,-2.45361072804974e+001,-6.19104371307258e+000

3.02738446952187e+005,-2.45371283450766e+001,-6.27451309178502e+000

3.06964518184081e+005,-2.45381663692293e+001,-6.35908188973057e+000

3.11249583171928e+005,-2.45392215357441e+001,-6.44476500228781e+000

3.15594465437872e+005,-2.45402940317774e+001,-6.53157757061840e+000

3.19999999999997e+005,-2.45413840493180e+001,-6.61953498602807e+000

3.24467033532806e+005,-2.45424917856745e+001,-6.70865289429443e+000

3.28996424529938e+005,-2.45436174439849e+001,-6.79894719995324e+000

3.33589043469155e+005,-2.45447612337477e+001,-6.89043407053787e+000

3.38245772979638e+005,-2.45459233713750e+001,-6.98312994076233e+000

3.42967508011610e+005,-2.45471040807673e+001,-7.07705151664514e+000

3.47755156008335e+005,-2.45483035939081e+001,-7.17221577956474e+000

3.52609637080511e+005,-2.45495221514791e+001,-7.26863999024160e+000

3.57531884183106e+005,-2.45507600034953e+001,-7.36634169264148e+000

3.62522843294651e+005,-2.45520174099585e+001,-7.46533871779395e+000

3.67583473599047e+005,-2.45532946415290e+001,-7.56564918752111e+000

3.72714747669902e+005,-2.45545919802154e+001,-7.66729151807171e+000

3.77917651657445e+005,-2.45559097200801e+001,-7.77028442365699e+000

3.83193185478053e+005,-2.45572481679608e+001,-7.87464691988300e+000

3.88542363006410e+005,-2.45586076442079e+001,-7.98039832707778e+000

3.93966212270369e+005,-2.45599884834340e+001,-8.08755827350827e+000

3.99465775648511e+005,-2.45613910352784e+001,-8.19614669848634e+000

4.05042110070485e+005,-2.45628156651823e+001,-8.30618385536034e+000

4.10696287220124e+005,-2.45642627551765e+001,-8.41769031439225e+000

4.16429393741414e+005,-2.45657327046776e+001,-8.53068696551679e+000

4.22242531447321e+005,-2.45672259312955e+001,-8.64519502098551e+000

4.28136817531551e+005,-2.45687428716479e+001,-8.76123601789165e+000

4.34113384783250e+005,-2.45702839821829e+001,-8.87883182057972e+000

4.40173381804713e+005,-2.45718497400080e+001,-8.99800462293817e+000

4.46317973232124e+005,-2.45734406437247e+001,-9.11877695057791e+000

4.52548339959385e+005,-2.45750572142688e+001,-9.24117166289714e+000

4.58865679365059e+005,-2.45766999957542e+001,-9.36521195503523e+000

4.65271205542494e+005,-2.45783695563197e+001,-9.49092135971856e+000

4.71766149533147e+005,-2.45800664889803e+001,-9.61832374899962e+000

4.78351759563174e+005,-2.45817914124786e+001,-9.74744333589412e+000

4.85029301283321e+005,-2.45835449721393e+001,-9.87830467591820e+000

4.91800058012158e+005,-2.45853278407243e+001,-1.00109326685295e+001

4.98665330982714e+005,-2.45871407192885e+001,-1.01453525584774e+001

5.05626439592555e+005,-2.45889843380355e+001,-1.02815899370629e+001

5.12684721657352e+005,-2.45908594571750e+001,-1.04196707433166e+001

5.19841533667984e+005,-2.45927668677774e+001,-1.05596212650959e+001

5.27098251051240e+005,-2.45947073926305e+001,-1.07014681401048e+001

5.34456268434150e+005,-2.45966818870948e+001,-1.08452383568449e+001

5.41916999912011e+005,-2.45986912399582e+001,-1.09909592554955e+001

