Freq.,VOut,OutRef

1.00000000000000e+004,-9.30360731900472e-001,-1.24330651218767e-001

1.01395947979003e+004,-9.30360705342371e-001,-1.26066240903701e-001

1.02811382665607e+004,-9.30360678037225e-001,-1.27826058452998e-001

1.04246576084112e+004,-9.30360649963975e-001,-1.29610442072507e-001

1.05701804056138e+004,-9.30360621101077e-001,-1.31419734688461e-001

1.07177346253629e+004,-9.30360591426357e-001,-1.33254284014040e-001

1.08673486252606e+004,-9.30360560916696e-001,-1.35114442618471e-001

1.10190511587661e+004,-9.30360529548901e-001,-1.37000567988795e-001

1.11728713807222e+004,-9.30360497298650e-001,-1.38913022605274e-001

1.13288388529580e+004,-9.30360464141070e-001,-1.40852174006981e-001

1.14869835499703e+004,-9.30360430050858e-001,-1.42818394862161e-001

1.16473358646846e+004,-9.30360395001440e-001,-1.44812063044498e-001

1.18099266142953e+004,-9.30360358966035e-001,-1.46833561698818e-001

1.19747870461893e+004,-9.30360321916754e-001,-1.48883279320710e-001

1.21419488439505e+004,-9.30360283825185e-001,-1.50961609827426e-001

1.23114441334492e+004,-9.30360244661867e-001,-1.53068952635778e-001

1.24833054890161e+004,-9.30360204396681e-001,-1.55205712737518e-001

1.26575659397028e+004,-9.30360162998629e-001,-1.57372300777657e-001

1.28342589756290e+004,-9.30360120435718e-001,-1.59569133134127e-001

1.30134185544193e+004,-9.30360076675241e-001,-1.61796631995894e-001

1.31950791077289e+004,-9.30360031683332e-001,-1.64055225446702e-001

1.33792755478611e+004,-9.30359985425422e-001,-1.66345347544455e-001

1.35660432744767e+004,-9.30359937865912e-001,-1.68667438406448e-001

1.37554181813974e+004,-9.30359888968004e-001,-1.71021944294134e-001

1.39474366635040e+004,-9.30359838694061e-001,-1.73409317697827e-001

1.41421356237309e+004,-9.30359787005358e-001,-1.75830017423652e-001

1.43395524801583e+004,-9.30359733861887e-001,-1.78284508683607e-001

1.45397251732031e+004,-9.30359679222903e-001,-1.80773263181262e-001

1.47426921729110e+004,-9.30359623046098e-001,-1.83296759206539e-001

1.49484924863494e+004,-9.30359565288211e-001,-1.85855481724968e-001

1.51571656651040e+004,-9.30359505904664e-001,-1.88449922471671e-001

1.53687518128801e+004,-9.30359444849675e-001,-1.91080580045443e-001

1.55832915932100e+004,-9.30359382076149e-001,-1.93747960005493e-001

1.58008262372675e+004,-9.30359317535600e-001,-1.96452574967855e-001

1.60213975517924e+004,-9.30359251178295e-001,-1.99194944703522e-001

1.62450479271247e+004,-9.30359182952910e-001,-2.01975596239803e-001

1.64718203453514e+004,-9.30359112806950e-001,-2.04795063959065e-001

1.67017583885674e+004,-9.30359040686162e-001,-2.07653889704274e-001

1.69349062472505e+004,-9.30358966534876e-001,-2.10552622881518e-001

1.71713087287550e+004,-9.30358890295867e-001,-2.13491820565362e-001

1.74110112659224e+004,-9.30358811910290e-001,-2.16472047606433e-001

1.76540599258131e+004,-9.30358731317648e-001,-2.19493876739700e-001

1.79005014185594e+004,-9.30358648455537e-001,-2.22557888695813e-001

1.81503831063432e+004,-9.30358563260130e-001,-2.25664672309885e-001

1.84037530124975e+004,-9.30358475665423e-001,-2.28814824637870e-001

1.86606598307361e+004,-9.30358385603988e-001,-2.32008951067577e-001

1.89211529345119e+004,-9.30358293005980e-001,-2.35247665439657e-001

1.91852823865052e+004,-9.30358197799986e-001,-2.38531590160867e-001

1.94530989482457e+004,-9.30358099912447e-001,-2.41861356326173e-001

1.97246540898671e+004,-9.30357999267440e-001,-2.45237603841197e-001

1.99999999999999e+004,-9.30357895787495e-001,-2.48660981540461e-001

2.02791895958005e+004,-9.30357789392357e-001,-2.52132147318212e-001

2.05622765331213e+004,-9.30357679999773e-001,-2.55651768249930e-001

2.08493152168224e+004,-9.30357567525160e-001,-2.59220520722302e-001

2.11403608112276e+004,-9.30357451881409e-001,-2.62839090564218e-001

2.14354692507258e+004,-9.30357332979140e-001,-2.66508173176109e-001

2.17346972505211e+004,-9.30357210726323e-001,-2.70228473665049e-001

2.20381023175322e+004,-9.30357085028204e-001,-2.74000706981353e-001

2.23457427614443e+004,-9.30356955787569e-001,-2.77825598052968e-001

2.26576777059159e+004,-9.30356822904175e-001,-2.81703881927629e-001

2.29739670999406e+004,-9.30356686275376e-001,-2.85636303910834e-001

2.32946717293690e+004,-9.30356545795015e-001,-2.89623619713867e-001

2.36198532285905e+004,-9.30356401354401e-001,-2.93666595593410e-001

2.39495740923785e+004,-9.30356252841489e-001,-2.97766008503251e-001

2.42838976879009e+004,-9.30356100141230e-001,-3.01922646240249e-001

2.46228882668982e+004,-9.30355943135103e-001,-3.06137307598150e-001

2.49666109780322e+004,-9.30355781701435e-001,-3.10410802519127e-001

2.53151318794055e+004,-9.30355615715016e-001,-3.14743952250549e-001

2.56685179512580e+004,-9.30355445046879e-001,-3.19137589503259e-001

2.60268371088386e+004,-9.30355269564636e-001,-3.23592558608874e-001

2.63901582154578e+004,-9.30355089132056e-001,-3.28109715685027e-001

2.67585510957221e+004,-9.30354903609030e-001,-3.32689928797564e-001

2.71320865489533e+004,-9.30354712851358e-001,-3.37334078129427e-001

2.75108363627948e+004,-9.30354516710866e-001,-3.42043056147146e-001

2.78948733270080e+004,-9.30354315034990e-001,-3.46817767775117e-001

2.82842712474618e+004,-9.30354107667086e-001,-3.51659130565721e-001

2.86791049603164e+004,-9.30353894445834e-001,-3.56568074879254e-001

2.90794503464061e+004,-9.30353675205227e-001,-3.61545544061166e-001

2.94853843458219e+004,-9.30353449774697e-001,-3.66592494622701e-001

2.98969849726987e+004,-9.30353217978813e-001,-3.71709896424082e-001

3.03143313302078e+004,-9.30352979636951e-001,-3.76898732863208e-001

3.07375036257601e+004,-9.30352734563493e-001,-3.82160001062299e-001

3.11665831864199e+004,-9.30352482567395e-001,-3.87494712059995e-001

3.16016524745350e+004,-9.30352223452205e-001,-3.92903891005458e-001

3.20427951035848e+004,-9.30351957015850e-001,-3.98388577355852e-001

3.24900958542493e+004,-9.30351683050363e-001,-4.03949825075158e-001

3.29436406907028e+004,-9.30351401342062e-001,-4.09588702836356e-001

3.34035167771346e+004,-9.30351111670869e-001,-4.15306294227894e-001

3.38698124945009e+004,-9.30350813810447e-001,-4.21103697960939e-001

3.43426174575100e+004,-9.30350507528002e-001,-4.26982028080083e-001

3.48220225318448e+004,-9.30350192584165e-001,-4.32942414177071e-001

3.53081198516260e+004,-9.30349868732549e-001,-4.38986001608699e-001

3.58010028371187e+004,-9.30349535719617e-001,-4.45113951716516e-001

3.63007662126863e+004,-9.30349193284644e-001,-4.51327442048845e-001

3.68075060249948e+004,-9.30348841159482e-001,-4.57627666587228e-001

3.73213196614721e+004,-9.30348479068061e-001,-4.64015835976593e-001

3.78423058690237e+004,-9.30348106726449e-001,-4.70493177756513e-001

3.83705647730104e+004,-9.30347723842561e-001,-4.77060936597129e-001

3.89061978964912e+004,-9.30347330115729e-001,-4.83720374539120e-001

3.94493081797342e+004,-9.30346925236832e-001,-4.90472771233824e-001

3.99999999999998e+004,-9.30346508887645e-001,-4.97319424190892e-001

4.05583791916010e+004,-9.30346080740685e-001,-5.04261649026652e-001

4.11245530662425e+004,-9.30345640459155e-001,-5.11300779716346e-001

4.16986304336447e+004,-9.30345187696463e-001,-5.18438168850121e-001

4.22807216224550e+004,-9.30344722095814e-001,-5.25675187893955e-001

4.28709385014515e+004,-9.30344243290319e-001,-5.33013227450151e-001

4.34693945010421e+004,-9.30343750902167e-001,-5.40453697527631e-001

4.40762046350642e+004,-9.30343244542760e-001,-5.47998027809845e-001

4.46914855228886e+004,-9.30342723812086e-001,-5.55647667930434e-001

4.53153554118317e+004,-9.30342188298559e-001,-5.63404087750907e-001

4.59479341998812e+004,-9.30341637578562e-001,-5.71268777643179e-001

4.65893434587380e+004,-9.30341071216159e-001,-5.79243248775093e-001

4.72397064571810e+004,-9.30340488762644e-001,-5.87329033400408e-001

4.78991481847569e+004,-9.30339889756293e-001,-5.95527685153365e-001

4.85677953758016e+004,-9.30339273721753e-001,-6.03840779346352e-001

4.92457765337964e+004,-9.30338640169825e-001,-6.12269913272230e-001

4.99332219560642e+004,-9.30337988597022e-001,-6.20816706510387e-001

5.06302637588109e+004,-9.30337318485044e-001,-6.29482801238147e-001

5.13370359025159e+004,-9.30336629300424e-001,-6.38269862545259e-001

5.20536742176771e+004,-9.30335920493925e-001,-6.47179578754267e-001

5.27803164309155e+004,-9.30335191500311e-001,-6.56213661742445e-001

5.35171021914442e+004,-9.30334441737490e-001,-6.65373847273050e-001

5.42641730979066e+004,-9.30333670606427e-001,-6.74661895325253e-001

5.50216727255895e+004,-9.30332877490358e-001,-6.84079590433594e-001

5.57897466540159e+004,-9.30332061754185e-001,-6.93628742030137e-001

5.65685424949235e+004,-9.30331222744213e-001,-7.03311184790540e-001

5.73582099206328e+004,-9.30330359787273e-001,-7.13128778986783e-001

5.81589006928121e+004,-9.30329472190227e-001,-7.23083410844380e-001

5.89707686916437e+004,-9.30328559239508e-001,-7.33176992902302e-001

5.97939699453972e+004,-9.30327620200246e-001,-7.43411464381606e-001

6.06286626604156e+004,-9.30326654315711e-001,-7.53788791556453e-001

6.14750072515201e+004,-9.30325660806678e-001,-7.64310968131466e-001

6.23331663728396e+004,-9.30324638870715e-001,-7.74980015623284e-001

6.32033049490698e+004,-9.30323587681401e-001,-7.85797983749197e-001

6.40855902071694e+004,-9.30322506387564e-001,-7.96766950819692e-001

6.49801917084985e+004,-9.30321394112731e-001,-8.07889024136380e-001

6.58872813814055e+004,-9.30320249954013e-001,-8.19166340396900e-001

6.68070335542691e+004,-9.30319072981415e-001,-8.30601066104620e-001

6.77396249890018e+004,-9.30317862237102e-001,-8.42195397983011e-001

6.86852349150199e+004,-9.30316616734337e-001,-8.53951563397513e-001

6.96440450636895e+004,-9.30315335456820e-001,-8.65871820781926e-001

7.06162397032520e+004,-9.30314017357375e-001,-8.77958460072292e-001

7.16020056742374e+004,-9.30312661357260e-001,-8.90213803145119e-001

7.26015324253724e+004,-9.30311266345230e-001,-9.02640204262074e-001

7.36150120499896e+004,-9.30309831176275e-001,-9.15240050522485e-001

7.46426393229441e+004,-9.30308354670606e-001,-9.28015762319643e-001

7.56846117380472e+004,-9.30306835612712e-001,-9.40969793805344e-001

7.67411295460207e+004,-9.30305272749959e-001,-9.54104633360766e-001

7.78123957929823e+004,-9.30303664791730e-001,-9.67422804071263e-001

7.88986163594682e+004,-9.30302010407890e-001,-9.80926864212918e-001

7.99999999999995e+004,-9.30300308227747e-001,-9.94619407740359e-001

8.11167583832018e+004,-9.30298556838516e-001,-1.00850306478566e+000

8.22491061324848e+004,-9.30296754784376e-001,-1.02258050216065e+000

8.33972608672892e+004,-9.30294900564595e-001,-1.03685442387003e+000

8.45614432449099e+004,-9.30292992632430e-001,-1.05132757162781e+000

8.57418770029029e+004,-9.30291029393552e-001,-1.06600272538320e+000

8.69387890020841e+004,-9.30289009204413e-001,-1.08088270385450e+000

8.81524092701283e+004,-9.30286930370795e-001,-1.09597036506750e+000

8.93829710457770e+004,-9.30284791145989e-001,-1.11126860690514e+000

9.06307108236633e+004,-9.30282589729394e-001,-1.12678036766081e+000

9.18958683997622e+004,-9.30280324264462e-001,-1.14250862660299e+000

9.31786869174758e+004,-9.30277992836971e-001,-1.15845640454615e+000

9.44794129143618e+004,-9.30275593473182e-001,-1.17462676442925e+000

9.57982963695136e+004,-9.30273124138081e-001,-1.19102281190210e+000

9.71355907516031e+004,-9.30270582732925e-001,-1.20764769592265e+000

9.84915530675926e+004,-9.30267967093667e-001,-1.22450460935865e+000

9.98664439121282e+004,-9.30265274988336e-001,-1.24159678960122e+000

1.01260527517622e+005,-9.30262504115393e-001,-1.25892751918351e+000

1.02674071805032e+005,-9.30259652100827e-001,-1.27650012641240e+000

1.04107348435354e+005,-9.30256716496321e-001,-1.29431798600458e+000

1.05560632861831e+005,-9.30253694776431e-001,-1.31238451973515e+000

1.07034204382888e+005,-9.30250584336262e-001,-1.33070319709244e+000

1.08528346195813e+005,-9.30247382488905e-001,-1.34927753594403e+000

1.10043345451179e+005,-9.30244086462577e-001,-1.36811110321177e+000

1.11579493308032e+005,-9.30240693397925e-001,-1.38720751555532e+000

1.13137084989847e+005,-9.30237200345232e-001,-1.40657044006582e+000

1.14716419841265e+005,-9.30233604261313e-001,-1.42620359497008e+000

1.16317801385624e+005,-9.30229902006524e-001,-1.44611075034379e+000

1.17941537383287e+005,-9.30226090341617e-001,-1.46629572883465e+000

1.19587939890794e+005,-9.30222165924521e-001,-1.48676240639573e+000

1.21257325320831e+005,-9.30218125306738e-001,-1.50751471303111e+000

1.22950014503040e+005,-9.30213964930227e-001,-1.52855663354837e+000

1.24666332745679e+005,-9.30209681123575e-001,-1.54989220832477e+000

1.26406609898139e+005,-9.30205270098295e-001,-1.57152553408346e+000

1.28171180414339e+005,-9.30200727945115e-001,-1.59346076467988e+000

1.29960383416997e+005,-9.30196050629942e-001,-1.61570211189986e+000

1.31774562762811e+005,-9.30191233989972e-001,-1.63825384626899e+000

1.33614067108538e+005,-9.30186273729234e-001,-1.66112029787421e+000

1.35479249978003e+005,-9.30181165414553e-001,-1.68430585719486e+000

1.37370469830040e+005,-9.30175904470869e-001,-1.70781497594851e+000

1.39288090127379e+005,-9.30170486176747e-001,-1.73165216794614e+000

1.41232479406504e+005,-9.30164905659702e-001,-1.75582200996152e+000

1.43204011348474e+005,-9.30159157891287e-001,-1.78032914261110e+000

1.45203064850745e+005,-9.30153237682084e-001,-1.80517827124795e+000

1.47230024099979e+005,-9.30147139676549e-001,-1.83037416686755e+000

1.49285278645888e+005,-9.30140858347630e-001,-1.85592166702758e+000

1.51369223476094e+005,-9.30134387991463e-001,-1.88182567677911e+000

1.53482259092041e+005,-9.30127722721562e-001,-1.90809116961263e+000

1.55624791585964e+005,-9.30120856463242e-001,-1.93472318841658e+000

1.57797232718936e+005,-9.30113782947423e-001,-1.96172684645114e+000

1.59999999999999e+005,-9.30106495704740e-001,-1.98910732833353e+000

1.62233516766403e+005,-9.30098988059149e-001,-2.01686989103941e+000

1.64498212264969e+005,-9.30091253121425e-001,-2.04501986491866e+000

1.66794521734578e+005,-9.30083283782683e-001,-2.07356265472377e+000

1.69122886489819e+005,-9.30075072707438e-001,-2.10250374065563e+000

1.71483754005805e+005,-9.30066612326555e-001,-2.13184867942255e+000

1.73877578004168e+005,-9.30057894830291e-001,-2.16160310531463e+000

1.76304818540256e+005,-9.30048912160773e-001,-2.19177273129481e+000

1.78765942091554e+005,-9.30039656004341e-001,-2.22236335010447e+000

1.81261421647326e+005,-9.30030117784057e-001,-2.25338083538532e+000

1.83791736799524e+005,-9.30020288651639e-001,-2.28483114281718e+000

1.86357373834951e+005,-9.30010159479158e-001,-2.31672031127338e+000

1.88958825828723e+005,-9.29999720851012e-001,-2.34905446399079e+000

1.91596592739027e+005,-9.29988963055158e-001,-2.38183980975875e+000

1.94271181503206e+005,-9.29977876074404e-001,-2.41508264412386e+000

1.96983106135185e+005,-9.29966449577403e-001,-2.44878935061308e+000

1.99732887824256e+005,-9.29954672909727e-001,-2.48296640197320e+000

2.02521055035243e+005,-9.29942535084135e-001,-2.51762036143000e+000

2.05348143610063e+005,-9.29930024771220e-001,-2.55275788396414e+000

2.08214696870707e+005,-9.29917130289554e-001,-2.58838571760581e+000

2.11121265723661e+005,-9.29903839595610e-001,-2.62451070474907e+000

2.14068408765776e+005,-9.29890140273475e-001,-2.66113978348362e+000

2.17056692391625e+005,-9.29876019524537e-001,-2.69827998894695e+000

2.20086690902357e+005,-9.29861464156507e-001,-2.73593845469599e+000

2.23158986616063e+005,-9.29846460572787e-001,-2.77412241409743e+000

2.26274169979693e+005,-9.29830994761068e-001,-2.81283920173954e+000

2.29432839682530e+005,-9.29815052281968e-001,-2.85209625486401e+000

2.32635602771247e+005,-9.29798618257521e-001,-2.89190111481690e+000

2.35883074766574e+005,-9.29781677359181e-001,-2.93226142852332e+000

2.39175879781588e+005,-9.29764213795615e-001,-2.97318494998081e+000

2.42514650641661e+005,-9.29746211300430e-001,-3.01467954177578e+000

2.45900029006080e+005,-9.29727653119608e-001,-3.05675317662023e+000

2.49332665491357e+005,-9.29708521998313e-001,-3.09941393891324e+000

2.52813219796278e+005,-9.29688800168135e-001,-3.14267002632118e+000

2.56342360828676e+005,-9.29668469333246e-001,-3.18652975138398e+000

2.59920766833993e+005,-9.29647510657077e-001,-3.23100154314266e+000

2.63549125525621e+005,-9.29625904748042e-001,-3.27609394879036e+000

2.67228134217075e+005,-9.29603631645446e-001,-3.32181563534703e+000

2.70958499956006e+005,-9.29580670804844e-001,-3.36817539135900e+000

2.74740939660078e+005,-9.29557001083172e-001,-3.41518212862126e+000

2.78576180254757e+005,-9.29532600723608e-001,-3.46284488392566e+000

2.82464958813007e+005,-9.29507447340125e-001,-3.51117282083277e+000

2.86408022696948e+005,-9.29481517901499e-001,-3.56017523147107e+000

2.90406129701488e+005,-9.29454788715380e-001,-3.60986153835869e+000

2.94460048199957e+005,-9.29427235411623e-001,-3.66024129625424e+000

2.98570557291775e+005,-9.29398832925499e-001,-3.71132419403165e+000

3.02738446952187e+005,-9.29369555480383e-001,-3.76312005658299e+000

3.06964518184081e+005,-9.29339376570295e-001,-3.81563884674710e+000

3.11249583171928e+005,-9.29308268941630e-001,-3.86889066726739e+000

3.15594465437872e+005,-9.29276204575009e-001,-3.92288576277491e+000

3.19999999999997e+005,-9.29243154666176e-001,-3.97763452180233e+000

3.24467033532806e+005,-9.29209089606838e-001,-4.03314747882387e+000

3.28996424529938e+005,-9.29173978964823e-001,-4.08943531632601e+000

3.33589043469155e+005,-9.29137791463787e-001,-4.14650886690684e+000

3.38245772979638e+005,-9.29100494962675e-001,-4.20437911540443e+000

3.42967508011610e+005,-9.29062056434137e-001,-4.26305720105707e+000

3.47755156008335e+005,-9.29022441942929e-001,-4.32255441969278e+000

3.52609637080511e+005,-9.28981616623526e-001,-4.38288222594955e+000

3.57531884183106e+005,-9.28939544657067e-001,-4.44405223552915e+000

3.62522843294651e+005,-9.28896189247897e-001,-4.50607622747994e+000

3.67583473599047e+005,-9.28851512599256e-001,-4.56896614651536e+000

3.72714747669902e+005,-9.28805475888574e-001,-4.63273410536255e+000

3.77917651657445e+005,-9.28758039241780e-001,-4.69739238714631e+000

3.83193185478053e+005,-9.28709161707169e-001,-4.76295344780602e+000

3.88542363006410e+005,-9.28658801228438e-001,-4.82942991854762e+000

3.93966212270369e+005,-9.28606914616855e-001,-4.89683460833061e+000

3.99465775648511e+005,-9.28553457522833e-001,-4.96518050639027e+000

4.05042110070485e+005,-9.28498384406490e-001,-5.03448078479660e+000

4.10696287220124e+005,-9.28441648507609e-001,-5.10474880104947e+000

4.16429393741414e+005,-9.28383201814408e-001,-5.17599810071176e+000

4.22242531447321e+005,-9.28322995031608e-001,-5.24824242008039e+000

4.28136817531551e+005,-9.28260977547617e-001,-5.32149568889549e+000

4.34113384783250e+005,-9.28197097400530e-001,-5.39577203308948e+000

4.40173381804713e+005,-9.28131301243329e-001,-5.47108577757589e+000

4.46317973232124e+005,-9.28063534307932e-001,-5.54745144907906e+000

4.52548339959385e+005,-9.27993740368146e-001,-5.62488377900464e+000

4.58865679365059e+005,-9.27921861701819e-001,-5.70339770635277e+000

4.65271205542494e+005,-9.27847839051324e-001,-5.78300838067405e+000

4.71766149533147e+005,-9.27771611583461e-001,-5.86373116506849e+000

4.78351759563174e+005,-9.27693116847802e-001,-5.94558163922994e+000

4.85029301283321e+005,-9.27612290733868e-001,-6.02857560253411e+000

4.91800058012158e+005,-9.27529067427105e-001,-6.11272907717437e+000

4.98665330982714e+005,-9.27443379363672e-001,-6.19805831134259e+000

5.05626439592555e+005,-9.27355157183640e-001,-6.28457978245870e+000

5.12684721657352e+005,-9.27264329682962e-001,-6.37231020044875e+000

5.19841533667984e+005,-9.27170823764218e-001,-6.46126651107171e+000

5.27098251051240e+005,-9.27074564385636e-001,-6.55146589929685e+000

5.34456268434150e+005,-9.26975474508874e-001,-6.64292579273251e+000

5.41916999912011e+005,-9.26873475045202e-001,-6.73566386510697e+000

