Freq.,VOut,OutRef

1.00000000000000e+004,-7.16761663016307e+000,-1.53019108939274e-002

1.01395947979003e+004,-7.16761662788810e+000,-1.55155176100290e-002

1.02811382665607e+004,-7.16761662554867e+000,-1.57321061681182e-002

1.04246576084112e+004,-7.16761662314373e+000,-1.59517181882692e-002

1.05701804056138e+004,-7.16761662067148e+000,-1.61743958760393e-002

1.07177346253629e+004,-7.16761661812937e+000,-1.64001820309929e-002

1.08673486252606e+004,-7.16761661551586e+000,-1.66291200426967e-002

1.10190511587661e+004,-7.16761661282863e+000,-1.68612539116467e-002

1.11728713807222e+004,-7.16761661006599e+000,-1.70966282479914e-002

1.13288388529580e+004,-7.16761660722606e+000,-1.73352882852153e-002

1.14869835499703e+004,-7.16761660430585e+000,-1.75772798954051e-002

1.16473358646846e+004,-7.16761660130374e+000,-1.78226495813188e-002

1.18099266142953e+004,-7.16761659821701e+000,-1.80714445019611e-002

1.19747870461893e+004,-7.16761659504367e+000,-1.83237124694130e-002

1.21419488439505e+004,-7.16761659178123e+000,-1.85795019657598e-002

1.23114441334492e+004,-7.16761658842694e+000,-1.88388621514666e-002

1.24833054890161e+004,-7.16761658497839e+000,-1.91018428703219e-002

1.26575659397028e+004,-7.16761658143269e+000,-1.93684946644923e-002

1.28342589756290e+004,-7.16761657778748e+000,-1.96388687780066e-002

1.30134185544193e+004,-7.16761657403966e+000,-1.99130171747471e-002

1.31950791077289e+004,-7.16761657018692e+000,-2.01909925375256e-002

1.33792755478611e+004,-7.16761656622543e+000,-2.04728482949641e-002

1.35660432744767e+004,-7.16761656215276e+000,-2.07586386110512e-002

1.37554181813974e+004,-7.16761655796554e+000,-2.10484184116066e-002

1.39474366635040e+004,-7.16761655366058e+000,-2.13422433879779e-002

1.41421356237309e+004,-7.16761654923442e+000,-2.16401700094883e-002

1.43395524801583e+004,-7.16761654468391e+000,-2.19422555311650e-002

1.45397251732031e+004,-7.16761654000536e+000,-2.22485580106701e-002

1.47426921729110e+004,-7.16761653519577e+000,-2.25591363104094e-002

1.49484924863494e+004,-7.16761653025047e+000,-2.28740501250818e-002

1.51571656651040e+004,-7.16761652516629e+000,-2.31933599722396e-002

1.53687518128801e+004,-7.16761651993945e+000,-2.35171272170312e-002

1.55832915932100e+004,-7.16761651456540e+000,-2.38454140863285e-002

1.58008262372675e+004,-7.16761650904038e+000,-2.41782836688715e-002

1.60213975517924e+004,-7.16761650335966e+000,-2.45157999404204e-002

1.62450479271247e+004,-7.16761649751956e+000,-2.48580277617575e-002

1.64718203453514e+004,-7.16761649151512e+000,-2.52050329067323e-002

1.67017583885674e+004,-7.16761648534191e+000,-2.55568820630891e-002

1.69349062472505e+004,-7.16761647899528e+000,-2.59136428502073e-002

1.71713087287550e+004,-7.16761647247048e+000,-2.62753838309820e-002

1.74110112659224e+004,-7.16761646576170e+000,-2.66421745315842e-002

1.76540599258131e+004,-7.16761645886470e+000,-2.70140854376087e-002

1.79005014185594e+004,-7.16761645177355e+000,-2.73911880281466e-002

1.81503831063432e+004,-7.16761644448281e+000,-2.77735547767336e-002

1.84037530124975e+004,-7.16761643698753e+000,-2.81612591641879e-002

1.86606598307361e+004,-7.16761642928160e+000,-2.85543757028559e-002

1.89211529345119e+004,-7.16761642135879e+000,-2.89529799459623e-002

1.91852823865052e+004,-7.16761641321332e+000,-2.93571484972429e-002

1.94530989482457e+004,-7.16761640483881e+000,-2.97669590317674e-002

1.97246540898671e+004,-7.16761639622866e+000,-3.01824903101348e-002

1.99999999999999e+004,-7.16761638737679e+000,-3.06038221874500e-002

2.02791895958005e+004,-7.16761637827598e+000,-3.10310356395447e-002

2.05622765331213e+004,-7.16761636891922e+000,-3.14642127705168e-002

2.08493152168224e+004,-7.16761635929943e+000,-3.19034368293585e-002

2.11403608112276e+004,-7.16761634940898e+000,-3.23487922296742e-002

2.14354692507258e+004,-7.16761633924063e+000,-3.28003645596154e-002

2.17346972505211e+004,-7.16761632878644e+000,-3.32582406046927e-002

2.20381023175322e+004,-7.16761631803843e+000,-3.37225083614286e-002

2.23457427614443e+004,-7.16761630698816e+000,-3.41932570561440e-002

2.26576777059159e+004,-7.16761629562756e+000,-3.46705771563300e-002

2.29739670999406e+004,-7.16761628394702e+000,-3.51545604011639e-002

2.32946717293690e+004,-7.16761627193828e+000,-3.56452998000589e-002

2.36198532285905e+004,-7.16761625959198e+000,-3.61428896665289e-002

2.39495740923785e+004,-7.16761624689867e+000,-3.66474256289697e-002

2.42838976879009e+004,-7.16761623384847e+000,-3.71590046524089e-002

2.46228882668982e+004,-7.16761622043146e+000,-3.76777250532992e-002

2.49666109780322e+004,-7.16761620663716e+000,-3.82036865229870e-002

2.53151318794055e+004,-7.16761619245470e+000,-3.87369901447044e-002

2.56685179512580e+004,-7.16761617787406e+000,-3.92777384050212e-002

2.60268371088386e+004,-7.16761616288315e+000,-3.98260352336673e-002

2.63901582154578e+004,-7.16761614747098e+000,-4.03819860007831e-002

2.67585510957221e+004,-7.16761613162540e+000,-4.09456975536822e-002

2.71320865489533e+004,-7.16761611533432e+000,-4.15172782280777e-002

2.75108363627948e+004,-7.16761609858539e+000,-4.20968378719200e-002

2.78948733270080e+004,-7.16761608136532e+000,-4.26844878703383e-002

2.82842712474618e+004,-7.16761606366125e+000,-4.32803411578404e-002

2.86791049603164e+004,-7.16761604545964e+000,-4.38845122477892e-002

2.90794503464061e+004,-7.16761602674625e+000,-4.44971172541230e-002

2.94853843458219e+004,-7.16761600750649e+000,-4.51182739113102e-002

2.98969849726987e+004,-7.16761598772599e+000,-4.57481015934289e-002

3.03143313302078e+004,-7.16761596738953e+000,-4.63867213431562e-002

3.07375036257601e+004,-7.16761594648114e+000,-4.70342558960232e-002

3.11665831864199e+004,-7.16761592498492e+000,-4.76908296966764e-002

3.16016524745350e+004,-7.16761590288455e+000,-4.83565689270947e-002

3.20427951035848e+004,-7.16761588016268e+000,-4.90316015345317e-002

3.24900958542493e+004,-7.16761585680202e+000,-4.97160572484227e-002

3.29436406907028e+004,-7.16761583278487e+000,-5.04100676090973e-002

3.34035167771346e+004,-7.16761580809204e+000,-5.11137659991009e-002

3.38698124945009e+004,-7.16761578270531e+000,-5.18272876535087e-002

3.43426174575100e+004,-7.16761575660502e+000,-5.25507697007877e-002

3.48220225318448e+004,-7.16761572977073e+000,-5.32843511858773e-002

3.53081198516260e+004,-7.16761570218176e+000,-5.40281730920412e-002

3.58010028371187e+004,-7.16761567381760e+000,-5.47823783653380e-002

3.63007662126863e+004,-7.16761564465588e+000,-5.55471119565517e-002

3.68075060249948e+004,-7.16761561467433e+000,-5.63225208344235e-002

3.73213196614721e+004,-7.16761558384978e+000,-5.71087540213810e-002

3.78423058690237e+004,-7.16761555215875e+000,-5.79059626180174e-002

3.83705647730104e+004,-7.16761551957666e+000,-5.87142998366925e-002

3.89061978964912e+004,-7.16761548607859e+000,-5.95339210268526e-002

3.94493081797342e+004,-7.16761545163884e+000,-6.03649837062669e-002

3.99999999999998e+004,-7.16761541623069e+000,-6.12076475943945e-002

4.05583791916010e+004,-7.16761537982708e+000,-6.20620746369225e-002

4.11245530662425e+004,-7.16761534240034e+000,-6.29284290398506e-002

4.16986304336447e+004,-7.16761530392104e+000,-6.38068773070518e-002

4.22807216224550e+004,-7.16761526436012e+000,-6.46975882595612e-002

4.28709385014515e+004,-7.16761522368705e+000,-6.56007330793222e-002

4.34693945010421e+004,-7.16761518187037e+000,-6.65164853377358e-002

4.40762046350642e+004,-7.16761513887822e+000,-6.74450210267935e-002

4.46914855228886e+004,-7.16761509467717e+000,-6.83865185991665e-002

4.53153554118317e+004,-7.16761504923341e+000,-6.93411589949726e-002

4.59479341998812e+004,-7.16761500251247e+000,-7.03091256788454e-002

4.65893434587380e+004,-7.16761495447752e+000,-7.12906046848448e-002

4.72397064571810e+004,-7.16761490509244e+000,-7.22857846331243e-002

4.78991481847569e+004,-7.16761485431888e+000,-7.32948567842711e-002

4.85677953758016e+004,-7.16761480211809e+000,-7.43180150650589e-002

4.92457765337964e+004,-7.16761474844941e+000,-7.53554561141750e-002

4.99332219560642e+004,-7.16761469327208e+000,-7.64073793088136e-002

5.06302637588109e+004,-7.16761463654340e+000,-7.74739868143021e-002

5.13370359025159e+004,-7.16761457821997e+000,-7.85554836152483e-002

5.20536742176771e+004,-7.16761451825677e+000,-7.96520775598314e-002

5.27803164309155e+004,-7.16761445660777e+000,-8.07639793965644e-002

5.35171021914442e+004,-7.16761439322562e+000,-8.18914028157675e-002

5.42641730979066e+004,-7.16761432806155e+000,-8.30345644910958e-002

5.50216727255895e+004,-7.16761426106551e+000,-8.41936841211989e-002

5.57897466540159e+004,-7.16761419218595e+000,-8.53689844712285e-002

5.65685424949235e+004,-7.16761412136972e+000,-8.65606914173370e-002

5.73582099206328e+004,-7.16761404856288e+000,-8.77690339849956e-002

5.81589006928121e+004,-7.16761397370885e+000,-8.89942444028850e-002

5.89707686916437e+004,-7.16761389675067e+000,-9.02365581343442e-002

5.97939699453972e+004,-7.16761381762877e+000,-9.14962139360554e-002

6.06286626604156e+004,-7.16761373628249e+000,-9.27734538939300e-002

6.14750072515201e+004,-7.16761365264917e+000,-9.40685234749483e-002

6.23331663728396e+004,-7.16761356666473e+000,-9.53816715709129e-002

6.32033049490698e+004,-7.16761347826289e+000,-9.67131505504229e-002

6.40855902071694e+004,-7.16761338737575e+000,-9.80632163032855e-002

6.49801917084985e+004,-7.16761329393344e+000,-9.94321282924069e-002

6.58872813814055e+004,-7.16761319786403e+000,-1.00820149602465e-001

6.68070335542691e+004,-7.16761309909385e+000,-1.02227546989561e-001

6.77396249890018e+004,-7.16761299754676e+000,-1.03654590935984e-001

6.86852349150199e+004,-7.16761289314476e+000,-1.05101555697846e-001

6.96440450636895e+004,-7.16761278580775e+000,-1.06568719359628e-001

7.06162397032520e+004,-7.16761267545305e+000,-1.08056363889387e-001

7.16020056742374e+004,-7.16761256199593e+000,-1.09564775189640e-001

7.26015324253724e+004,-7.16761244534891e+000,-1.11094243157097e-001

7.36150120499896e+004,-7.16761232542256e+000,-1.12645061730820e-001

7.46426393229441e+004,-7.16761220212470e+000,-1.14217528955940e-001

7.56846117380472e+004,-7.16761207536057e+000,-1.15811947037174e-001

7.67411295460207e+004,-7.16761194503236e+000,-1.17428622400766e-001

7.78123957929823e+004,-7.16761181104028e+000,-1.19067865745730e-001

7.88986163594682e+004,-7.16761167328115e+000,-1.20729992111611e-001

7.99999999999995e+004,-7.16761153164924e+000,-1.22415320934480e-001

8.11167583832018e+004,-7.16761138603525e+000,-1.24124176112512e-001

8.22491061324848e+004,-7.16761123632772e+000,-1.25856886059991e-001

8.33972608672892e+004,-7.16761108241126e+000,-1.27613783780810e-001

8.45614432449099e+004,-7.16761092416754e+000,-1.29395206925390e-001

8.57418770029029e+004,-7.16761076147502e+000,-1.31201497857504e-001

8.69387890020841e+004,-7.16761059420875e+000,-1.33033003719353e-001

8.81524092701283e+004,-7.16761042223976e+000,-1.34890076502907e-001

8.93829710457770e+004,-7.16761024543622e+000,-1.36773073108927e-001

9.06307108236633e+004,-7.16761006366222e+000,-1.38682355422577e-001

9.18958683997622e+004,-7.16760987677759e+000,-1.40618290383836e-001

9.31786869174758e+004,-7.16760968463898e+000,-1.42581250050074e-001

9.44794129143618e+004,-7.16760948709866e+000,-1.44571611674979e-001

9.57982963695136e+004,-7.16760928400487e+000,-1.46589757777424e-001

9.71355907516031e+004,-7.16760907520119e+000,-1.48636076219258e-001

9.84915530675926e+004,-7.16760886052719e+000,-1.50710960273524e-001

9.98664439121282e+004,-7.16760863981801e+000,-1.52814808703756e-001

1.01260527517622e+005,-7.16760841290386e+000,-1.54948025840915e-001

1.02674071805032e+005,-7.16760817961029e+000,-1.57111021660662e-001

1.04107348435354e+005,-7.16760793975802e+000,-1.59304211860759e-001

1.05560632861831e+005,-7.16760769316248e+000,-1.61528017943499e-001

1.07034204382888e+005,-7.16760743963427e+000,-1.63782867293852e-001

1.08528346195813e+005,-7.16760717897852e+000,-1.66069193262870e-001

1.10043345451179e+005,-7.16760691099465e+000,-1.68387435253114e-001

1.11579493308032e+005,-7.16760663547672e+000,-1.70738038799838e-001

1.13137084989847e+005,-7.16760635221305e+000,-1.73121455656579e-001

1.14716419841265e+005,-7.16760606098565e+000,-1.75538143886172e-001

1.16317801385624e+005,-7.16760576157078e+000,-1.77988567943725e-001

1.17941537383287e+005,-7.16760545373833e+000,-1.80473198768389e-001

1.19587939890794e+005,-7.16760513725148e+000,-1.82992513874898e-001

1.21257325320831e+005,-7.16760481186698e+000,-1.85546997443242e-001

1.22950014503040e+005,-7.16760447733477e+000,-1.88137140411575e-001

1.24666332745679e+005,-7.16760413339760e+000,-1.90763440573223e-001

1.26406609898139e+005,-7.16760377979104e+000,-1.93426402669821e-001

1.28171180414339e+005,-7.16760341624336e+000,-1.96126538488817e-001

1.29960383416997e+005,-7.16760304247482e+000,-1.98864366964213e-001

1.31774562762811e+005,-7.16760265819845e+000,-2.01640414270651e-001

1.33614067108538e+005,-7.16760226311847e+000,-2.04455213932417e-001

1.35479249978003e+005,-7.16760185693142e+000,-2.07309306918387e-001

1.37370469830040e+005,-7.16760143932496e+000,-2.10203241751050e-001

1.39288090127379e+005,-7.16760100997800e+000,-2.13137574610742e-001

1.41232479406504e+005,-7.16760056856049e+000,-2.16112869441098e-001

1.43204011348474e+005,-7.16760011473307e+000,-2.19129698058909e-001

1.45203064850745e+005,-7.16759964814689e+000,-2.22188640263595e-001

1.47230024099979e+005,-7.16759916844324e+000,-2.25290283948401e-001

1.49285278645888e+005,-7.16759867525342e+000,-2.28435225213500e-001

1.51369223476094e+005,-7.16759816819816e+000,-2.31624068482223e-001

1.53482259092041e+005,-7.16759764688768e+000,-2.34857426614174e-001

1.55624791585964e+005,-7.16759711092128e+000,-2.38135921024739e-001

1.57797232718936e+005,-7.16759655988698e+000,-2.41460181804900e-001

1.59999999999999e+005,-7.16759599336090e+000,-2.44830847843074e-001

1.62233516766403e+005,-7.16759541090772e+000,-2.48248566944503e-001

1.64498212264969e+005,-7.16759481207968e+000,-2.51713995958737e-001

1.66794521734578e+005,-7.16759419641639e+000,-2.55227800906031e-001

1.69122886489819e+005,-7.16759356344462e+000,-2.58790657103047e-001

1.71483754005805e+005,-7.16759291267752e+000,-2.62403249296978e-001

1.73877578004168e+005,-7.16759224361513e+000,-2.66066271790337e-001

1.76304818540256e+005,-7.16759155574296e+000,-2.69780428581401e-001

1.78765942091554e+005,-7.16759084853205e+000,-2.73546433496753e-001

1.81261421647326e+005,-7.16759012143898e+000,-2.77365010325559e-001

1.83791736799524e+005,-7.16758937390473e+000,-2.81236892964008e-001

1.86357373834951e+005,-7.16758860535438e+000,-2.85162825554271e-001

1.88958825828723e+005,-7.16758781519748e+000,-2.89143562624096e-001

1.91596592739027e+005,-7.16758700282640e+000,-2.93179869237947e-001

1.94271181503206e+005,-7.16758616761655e+000,-2.97272521140501e-001

1.96983106135185e+005,-7.16758530892594e+000,-3.01422304905406e-001

1.99732887824256e+005,-7.16758442609450e+000,-3.05630018087757e-001

2.02521055035243e+005,-7.16758351844345e+000,-3.09896469377865e-001

2.05348143610063e+005,-7.16758258527512e+000,-3.14222478754775e-001

2.08214696870707e+005,-7.16758162587203e+000,-3.18608877646890e-001

2.11121265723661e+005,-7.16758063949674e+000,-3.23056509088055e-001

2.14068408765776e+005,-7.16757962539085e+000,-3.27566227883757e-001

2.17056692391625e+005,-7.16757858277487e+000,-3.32138900771182e-001

2.20086690902357e+005,-7.16757751084733e+000,-3.36775406589098e-001

2.23158986616063e+005,-7.16757640878402e+000,-3.41476636446995e-001

2.26274169979693e+005,-7.16757527573776e+000,-3.46243493893346e-001

2.29432839682530e+005,-7.16757411083768e+000,-3.51076895091415e-001

2.32635602771247e+005,-7.16757291318812e+000,-3.55977768996444e-001

2.35883074766574e+005,-7.16757168186846e+000,-3.60947057531669e-001

2.39175879781588e+005,-7.16757041593208e+000,-3.65985715771684e-001

2.42514650641661e+005,-7.16756911440567e+000,-3.71094712125602e-001

2.45900029006080e+005,-7.16756777628895e+000,-3.76275028520614e-001

2.49332665491357e+005,-7.16756640055316e+000,-3.81527660595163e-001

2.52813219796278e+005,-7.16756498614055e+000,-3.86853617888342e-001

2.56342360828676e+005,-7.16756353196399e+000,-3.92253924032405e-001

2.59920766833993e+005,-7.16756203690549e+000,-3.97729616952739e-001

2.63549125525621e+005,-7.16756049981579e+000,-4.03281749064514e-001

2.67228134217075e+005,-7.16755891951314e+000,-4.08911387478316e-001

2.70958499956006e+005,-7.16755729478288e+000,-4.14619614200999e-001

2.74740939660078e+005,-7.16755562437588e+000,-4.20407526348200e-001

2.78576180254757e+005,-7.16755390700816e+000,-4.26276236352450e-001

2.82464958813007e+005,-7.16755214135938e+000,-4.32226872178843e-001

2.86408022696948e+005,-7.16755032607225e+000,-4.38260577540523e-001

2.90406129701488e+005,-7.16754845975130e+000,-4.44378512119671e-001

2.94460048199957e+005,-7.16754654096197e+000,-4.50581851789082e-001

2.98570557291775e+005,-7.16754456822904e+000,-4.56871788841407e-001

3.02738446952187e+005,-7.16754254003598e+000,-4.63249532215663e-001

3.06964518184081e+005,-7.16754045482381e+000,-4.69716307729378e-001

3.11249583171928e+005,-7.16753831098950e+000,-4.76273358317092e-001

3.15594465437872e+005,-7.16753610688494e+000,-4.82921944268071e-001

3.19999999999997e+005,-7.16753384081590e+000,-4.89663343467202e-001

3.24467033532806e+005,-7.16753151104026e+000,-4.96498851643970e-001

3.28996424529938e+005,-7.16752911576727e+000,-5.03429782617751e-001

3.33589043469155e+005,-7.16752665315534e+000,-5.10457468555930e-001

3.38245772979638e+005,-7.16752412131167e+000,-5.17583260223407e-001

3.42967508011610e+005,-7.16752151828984e+000,-5.24808527248845e-001

3.47755156008335e+005,-7.16751884208888e+000,-5.32134658384348e-001

3.52609637080511e+005,-7.16751609065155e+000,-5.39563061773822e-001

3.57531884183106e+005,-7.16751326186279e+000,-5.47095165223537e-001

3.62522843294651e+005,-7.16751035354797e+000,-5.54732416477889e-001

3.67583473599047e+005,-7.16750736347163e+000,-5.62476283495543e-001

3.72714747669902e+005,-7.16750428933501e+000,-5.70328254736082e-001

3.77917651657445e+005,-7.16750112877532e+000,-5.78289839440634e-001

3.83193185478053e+005,-7.16749787936264e+000,-5.86362567929384e-001

3.88542363006410e+005,-7.16749453859943e+000,-5.94547991888474e-001

3.93966212270369e+005,-7.16749110391746e+000,-6.02847684674989e-001

3.99465775648511e+005,-7.16748757267657e+000,-6.11263241615848e-001

4.05042110070485e+005,-7.16748394216225e+000,-6.19796280316749e-001

4.10696287220124e+005,-7.16748020958372e+000,-6.28448440972755e-001

4.16429393741414e+005,-7.16747637207185e+000,-6.37221386683640e-001

4.22242531447321e+005,-7.16747242667653e+000,-6.46116803776275e-001

4.28136817531551e+005,-7.16746837036524e+000,-6.55136402124694e-001

4.34113384783250e+005,-7.16746420001992e+000,-6.64281915483651e-001

4.40173381804713e+005,-7.16745991243473e+000,-6.73555101821536e-001

4.46317973232124e+005,-7.16745550431391e+000,-6.82957743656810e-001

4.52548339959385e+005,-7.16745097226904e+000,-6.92491648402833e-001

4.58865679365059e+005,-7.16744631281654e+000,-7.02158648714945e-001

4.65271205542494e+005,-7.16744152237466e+000,-7.11960602845273e-001

4.71766149533147e+005,-7.16743659726108e+000,-7.21899394998412e-001

4.78351759563174e+005,-7.16743153369012e+000,-7.31976935694313e-001

4.85029301283321e+005,-7.16742632776953e+000,-7.42195162137976e-001

4.91800058012158e+005,-7.16742097549778e+000,-7.52556038590773e-001

4.98665330982714e+005,-7.16741547276066e+000,-7.63061556750265e-001

5.05626439592555e+005,-7.16740981532851e+000,-7.73713736132651e-001

5.12684721657352e+005,-7.16740399885261e+000,-7.84514624462707e-001

5.19841533667984e+005,-7.16739801886231e+000,-7.95466298066530e-001

5.27098251051240e+005,-7.16739187076091e+000,-8.06570862274194e-001

5.34456268434150e+005,-7.16738554982279e+000,-8.17830451823277e-001

5.41916999912011e+005,-7.16737905118944e+000,-8.29247231271014e-001

