Freq.,VOut,OutRef

1.00000000000000e+004,-2.63138674156203e+001,-1.12296452250010e-001

1.01395947979003e+004,-2.63138675886879e+001,-1.13864051449527e-001

1.02811382665607e+004,-2.63138677666209e+001,-1.15453533482899e-001

1.04246576084112e+004,-2.63138679495564e+001,-1.17065203820703e-001

1.05701804056138e+004,-2.63138681376348e+001,-1.18699372198396e-001

1.07177346253629e+004,-2.63138683310009e+001,-1.20356352675453e-001

1.08673486252606e+004,-2.63138685298031e+001,-1.22036463695239e-001

1.10190511587661e+004,-2.63138687341945e+001,-1.23740028146251e-001

1.11728713807222e+004,-2.63138689443321e+001,-1.25467373423575e-001

1.13288388529580e+004,-2.63138691603776e+001,-1.27218831493568e-001

1.14869835499703e+004,-2.63138693824968e+001,-1.28994738957218e-001

1.16473358646846e+004,-2.63138696108605e+001,-1.30795437112385e-001

1.18099266142953e+004,-2.63138698456445e+001,-1.32621272021800e-001

1.19747870461893e+004,-2.63138700870292e+001,-1.34472594579358e-001

1.21419488439505e+004,-2.63138703352000e+001,-1.36349760577087e-001

1.23114441334492e+004,-2.63138705903480e+001,-1.38253130772548e-001

1.24833054890161e+004,-2.63138708526691e+001,-1.40183070961074e-001

1.26575659397028e+004,-2.63138711223651e+001,-1.42139952042860e-001

1.28342589756290e+004,-2.63138713996431e+001,-1.44124150096630e-001

1.30134185544193e+004,-2.63138716847165e+001,-1.46136046448657e-001

1.31950791077289e+004,-2.63138719778044e+001,-1.48176027750380e-001

1.33792755478611e+004,-2.63138722791321e+001,-1.50244486049936e-001

1.35660432744767e+004,-2.63138725889313e+001,-1.52341818867945e-001

1.37554181813974e+004,-2.63138729074401e+001,-1.54468429273324e-001

1.39474366635040e+004,-2.63138732349034e+001,-1.56624725963339e-001

1.41421356237309e+004,-2.63138735715729e+001,-1.58811123339339e-001

1.43395524801583e+004,-2.63138739177073e+001,-1.61028041587207e-001

1.45397251732031e+004,-2.63138742735729e+001,-1.63275906757402e-001

1.47426921729110e+004,-2.63138746394435e+001,-1.65555150847865e-001

1.49484924863494e+004,-2.63138750155998e+001,-1.67866211889633e-001

1.51571656651040e+004,-2.63138754023313e+001,-1.70209534024764e-001

1.53687518128801e+004,-2.63138757999354e+001,-1.72585567595718e-001

1.55832915932100e+004,-2.63138762087175e+001,-1.74994769233372e-001

1.58008262372675e+004,-2.63138766289920e+001,-1.77437601940952e-001

1.60213975517924e+004,-2.63138770610821e+001,-1.79914535184672e-001

1.62450479271247e+004,-2.63138775053197e+001,-1.82426044984926e-001

1.64718203453514e+004,-2.63138779620467e+001,-1.84972614005374e-001

1.67017583885674e+004,-2.63138784316138e+001,-1.87554731649534e-001

1.69349062472505e+004,-2.63138789143822e+001,-1.90172894150663e-001

1.71713087287550e+004,-2.63138794107231e+001,-1.92827604668247e-001

1.74110112659224e+004,-2.63138799210179e+001,-1.95519373387990e-001

1.76540599258131e+004,-2.63138804456591e+001,-1.98248717614144e-001

1.79005014185594e+004,-2.63138809850499e+001,-2.01016161873958e-001

1.81503831063432e+004,-2.63138815396048e+001,-2.03822238017405e-001

1.84037530124975e+004,-2.63138821097504e+001,-2.06667485314824e-001

1.86606598307361e+004,-2.63138826959250e+001,-2.09552450567283e-001

1.89211529345119e+004,-2.63138832985791e+001,-2.12477688206934e-001

1.91852823865052e+004,-2.63138839181760e+001,-2.15443760406632e-001

1.94530989482457e+004,-2.63138845551920e+001,-2.18451237185893e-001

1.97246540898671e+004,-2.63138852101169e+001,-2.21500696519469e-001

1.99999999999999e+004,-2.63138858834543e+001,-2.24592724450623e-001

2.02791895958005e+004,-2.63138865757216e+001,-2.27727915205456e-001

2.05622765331213e+004,-2.63138872874509e+001,-2.30906871302096e-001

2.08493152168224e+004,-2.63138880191897e+001,-2.34130203668566e-001

2.11403608112276e+004,-2.63138887715004e+001,-2.37398531761763e-001

2.14354692507258e+004,-2.63138895449613e+001,-2.40712483685983e-001

2.17346972505211e+004,-2.63138903401669e+001,-2.44072696312644e-001

2.20381023175322e+004,-2.63138911577287e+001,-2.47479815401105e-001

2.23457427614443e+004,-2.63138919982752e+001,-2.50934495726650e-001

2.26576777059159e+004,-2.63138928624524e+001,-2.54437401203833e-001

2.29739670999406e+004,-2.63138937509249e+001,-2.57989205013689e-001

2.32946717293690e+004,-2.63138946643755e+001,-2.61590589734853e-001

2.36198532285905e+004,-2.63138956035066e+001,-2.65242247472125e-001

2.39495740923785e+004,-2.63138965690400e+001,-2.68944879992998e-001

2.42838976879009e+004,-2.63138975617180e+001,-2.72699198859499e-001

2.46228882668982e+004,-2.63138985823039e+001,-2.76505925565089e-001

2.49666109780322e+004,-2.63138996315820e+001,-2.80365791674836e-001

2.53151318794055e+004,-2.63139007103592e+001,-2.84279538964936e-001

2.56685179512580e+004,-2.63139018194647e+001,-2.88247919566002e-001

2.60268371088386e+004,-2.63139029597512e+001,-2.92271696106771e-001

2.63901582154578e+004,-2.63139041320950e+001,-2.96351641860911e-001

2.67585510957221e+004,-2.63139053373978e+001,-3.00488540894132e-001

2.71320865489533e+004,-2.63139065765859e+001,-3.04683188218490e-001

2.75108363627948e+004,-2.63139078506120e+001,-3.08936389941446e-001

2.78948733270080e+004,-2.63139091604554e+001,-3.13248963422753e-001

2.82842712474618e+004,-2.63139105071232e+001,-3.17621737429457e-001

2.86791049603164e+004,-2.63139118916507e+001,-3.22055552298115e-001

2.90794503464061e+004,-2.63139133151020e+001,-3.26551260094278e-001

2.94853843458219e+004,-2.63139147785716e+001,-3.31109724775690e-001

2.98969849726987e+004,-2.63139162831845e+001,-3.35731822358718e-001

3.03143313302078e+004,-2.63139178300973e+001,-3.40418441089088e-001

3.07375036257601e+004,-2.63139194204991e+001,-3.45170481608560e-001

3.11665831864199e+004,-2.63139210556128e+001,-3.49988857128929e-001

3.16016524745350e+004,-2.63139227366952e+001,-3.54874493610001e-001

3.20427951035848e+004,-2.63139244650386e+001,-3.59828329935792e-001

3.24900958542493e+004,-2.63139262419717e+001,-3.64851318092960e-001

3.29436406907028e+004,-2.63139280688606e+001,-3.69944423356491e-001

3.34035167771346e+004,-2.63139299471096e+001,-3.75108624474435e-001

3.38698124945009e+004,-2.63139318781626e+001,-3.80344913854330e-001

3.43426174575100e+004,-2.63139338635040e+001,-3.85654297756692e-001

3.48220225318448e+004,-2.63139359046602e+001,-3.91037796484862e-001

3.53081198516260e+004,-2.63139380032002e+001,-3.96496444582951e-001

3.58010028371187e+004,-2.63139401607372e+001,-4.02031291035687e-001

3.63007662126863e+004,-2.63139423789298e+001,-4.07643399466694e-001

3.68075060249948e+004,-2.63139446594833e+001,-4.13333848344455e-001

3.73213196614721e+004,-2.63139470041506e+001,-4.19103731191468e-001

3.78423058690237e+004,-2.63139494147345e+001,-4.24954156789187e-001

3.83705647730104e+004,-2.63139518930878e+001,-4.30886249397217e-001

3.89061978964912e+004,-2.63139544411158e+001,-4.36901148963379e-001

3.94493081797342e+004,-2.63139570607772e+001,-4.43000011346388e-001

3.99999999999998e+004,-2.63139597540858e+001,-4.49184008536566e-001

4.05583791916010e+004,-2.63139625231121e+001,-4.55454328880357e-001

4.11245530662425e+004,-2.63139653699846e+001,-4.61812177309230e-001

4.16986304336447e+004,-2.63139682968919e+001,-4.68258775571920e-001

4.22807216224550e+004,-2.63139713060839e+001,-4.74795362465522e-001

4.28709385014515e+004,-2.63139743998738e+001,-4.81423194078905e-001

4.34693945010421e+004,-2.63139775806401e+001,-4.88143544027548e-001

4.40762046350642e+004,-2.63139808508276e+001,-4.94957703703792e-001

4.46914855228886e+004,-2.63139842129503e+001,-5.01866982520480e-001

4.53153554118317e+004,-2.63139876695926e+001,-5.08872708165062e-001

4.59479341998812e+004,-2.63139912234119e+001,-5.15976226852797e-001

4.65893434587380e+004,-2.63139948771399e+001,-5.23178903585681e-001

4.72397064571810e+004,-2.63139986335853e+001,-5.30482122415409e-001

4.78991481847569e+004,-2.63140024956357e+001,-5.37887286707643e-001

4.85677953758016e+004,-2.63140064662600e+001,-5.45395819411447e-001

4.92457765337964e+004,-2.63140105485103e+001,-5.53009163334206e-001

4.99332219560642e+004,-2.63140147455246e+001,-5.60728781416481e-001

5.06302637588109e+004,-2.63140190605293e+001,-5.68556157013280e-001

5.13370359025159e+004,-2.63140234968413e+001,-5.76492794178910e-001

5.20536742176771e+004,-2.63140280578708e+001,-5.84540217956389e-001

5.27803164309155e+004,-2.63140327471238e+001,-5.92699974669294e-001

5.35171021914442e+004,-2.63140375682050e+001,-6.00973632217395e-001

5.42641730979066e+004,-2.63140425248201e+001,-6.09362780380490e-001

5.50216727255895e+004,-2.63140476207794e+001,-6.17869031120340e-001

5.57897466540159e+004,-2.63140528599999e+001,-6.26494018891757e-001

5.65685424949235e+004,-2.63140582465092e+001,-6.35239400954771e-001

5.73582099206328e+004,-2.63140637844475e+001,-6.44106857694922e-001

5.81589006928121e+004,-2.63140694780720e+001,-6.53098092942927e-001

5.89707686916437e+004,-2.63140753317590e+001,-6.62214834303426e-001

5.97939699453972e+004,-2.63140813500082e+001,-6.71458833484925e-001

6.06286626604156e+004,-2.63140875374456e+001,-6.80831866637783e-001

6.14750072515201e+004,-2.63140938988273e+001,-6.90335734692260e-001

6.23331663728396e+004,-2.63141004390431e+001,-6.99972263705815e-001

6.32033049490698e+004,-2.63141071631202e+001,-7.09743305213103e-001

6.40855902071694e+004,-2.63141140762271e+001,-7.19650736579912e-001

6.49801917084985e+004,-2.63141211836776e+001,-7.29696461364198e-001

6.58872813814055e+004,-2.63141284909348e+001,-7.39882409680391e-001

6.68070335542691e+004,-2.63141360036155e+001,-7.50210538570876e-001

6.77396249890018e+004,-2.63141437274943e+001,-7.60682832378730e-001

6.86852349150199e+004,-2.63141516685080e+001,-7.71301303130746e-001

6.96440450636895e+004,-2.63141598327605e+001,-7.82067990919901e-001

7.06162397032520e+004,-2.63141682265269e+001,-7.92984964301140e-001

7.16020056742374e+004,-2.63141768562592e+001,-8.04054320681930e-001

7.26015324253724e+004,-2.63141857285902e+001,-8.15278186729397e-001

7.36150120499896e+004,-2.63141948503395e+001,-8.26658718774948e-001

7.46426393229441e+004,-2.63142042285180e+001,-8.38198103228721e-001

7.56846117380472e+004,-2.63142138703342e+001,-8.49898556996652e-001

7.67411295460207e+004,-2.63142237831987e+001,-8.61762327907971e-001

7.78123957929823e+004,-2.63142339747306e+001,-8.73791695143480e-001

7.88986163594682e+004,-2.63142444527631e+001,-8.85988969673067e-001

7.99999999999995e+004,-2.63142552253496e+001,-8.98356494698218e-001

8.11167583832018e+004,-2.63142663007698e+001,-9.10896646100629e-001

8.22491061324848e+004,-2.63142776875359e+001,-9.23611832897918e-001

8.33972608672892e+004,-2.63142893943998e+001,-9.36504497702415e-001

8.45614432449099e+004,-2.63143014303589e+001,-9.49577117192679e-001

8.57418770029029e+004,-2.63143138046638e+001,-9.62832202583888e-001

8.69387890020841e+004,-2.63143265268247e+001,-9.76272300110996e-001

8.81524092701283e+004,-2.63143396066194e+001,-9.89899991514441e-001

8.93829710457770e+004,-2.63143530541004e+001,-1.00371789453548e+000

9.06307108236633e+004,-2.63143668796026e+001,-1.01772866341556e+000

9.18958683997622e+004,-2.63143810937515e+001,-1.03193498940521e+000

9.31786869174758e+004,-2.63143957074710e+001,-1.04633960127958e+000

9.44794129143618e+004,-2.63144107319921e+001,-1.06094526585794e+000

9.57982963695136e+004,-2.63144261788615e+001,-1.07575478853476e+000

9.71355907516031e+004,-2.63144420599501e+001,-1.09077101381576e+000

9.84915530675926e+004,-2.63144583874626e+001,-1.10599682586157e+000

9.98664439121282e+004,-2.63144751739466e+001,-1.12143514903816e+000

1.01260527517622e+005,-2.63144924323022e+001,-1.13708894847771e+000

1.02674071805032e+005,-2.63145101757922e+001,-1.15296123064312e+000

1.04107348435354e+005,-2.63145284180519e+001,-1.16905504390423e+000

1.05560632861831e+005,-2.63145471730996e+001,-1.18537347911876e+000

1.07034204382888e+005,-2.63145664553479e+001,-1.20191967022334e+000

1.08528346195813e+005,-2.63145862796139e+001,-1.21869679483220e+000

1.10043345451179e+005,-2.63146066611314e+001,-1.23570807484300e+000

1.11579493308032e+005,-2.63146276155618e+001,-1.25295677705342e+000

1.13137084989847e+005,-2.63146491590071e+001,-1.27044621378226e+000

1.14716419841265e+005,-2.63146713080211e+001,-1.28817974350426e+000

1.16317801385624e+005,-2.63146940796232e+001,-1.30616077148832e+000

1.17941537383287e+005,-2.63147174913105e+001,-1.32439275044944e+000

1.19587939890794e+005,-2.63147415610720e+001,-1.34287918120489e+000

1.21257325320831e+005,-2.63147663074019e+001,-1.36162361334317e+000

1.22950014503040e+005,-2.63147917493141e+001,-1.38062964590046e+000

1.24666332745679e+005,-2.63148179063566e+001,-1.39990092804562e+000

1.26406609898139e+005,-2.63148447986263e+001,-1.41944115977679e+000

1.28171180414339e+005,-2.63148724467851e+001,-1.43925409262526e+000

1.29960383416997e+005,-2.63149008720749e+001,-1.45934353036955e+000

1.31774562762811e+005,-2.63149300963345e+001,-1.47971332976106e+000

1.33614067108538e+005,-2.63149601420161e+001,-1.50036740125718e+000

1.35479249978003e+005,-2.63149910322026e+001,-1.52130970976446e+000

1.37370469830040e+005,-2.63150227906251e+001,-1.54254427539505e+000

1.39288090127379e+005,-2.63150554416812e+001,-1.56407517423006e+000

1.41232479406504e+005,-2.63150890104542e+001,-1.58590653909320e+000

1.43204011348474e+005,-2.63151235227314e+001,-1.60804256033945e+000

1.45203064850745e+005,-2.63151590050245e+001,-1.63048748664790e+000

1.47230024099979e+005,-2.63151954845896e+001,-1.65324562583101e+000

1.49285278645888e+005,-2.63152329894486e+001,-1.67632134565184e+000

1.51369223476094e+005,-2.63152715484100e+001,-1.69971907465227e+000

1.53482259092041e+005,-2.63153111910915e+001,-1.72344330299499e+000

1.55624791585964e+005,-2.63153519479423e+001,-1.74749858331388e+000

1.57797232718936e+005,-2.63153938502666e+001,-1.77188953157811e+000

1.59999999999999e+005,-2.63154369302479e+001,-1.79662082796565e+000

1.62233516766403e+005,-2.63154812209729e+001,-1.82169721775211e+000

1.64498212264969e+005,-2.63155267564577e+001,-1.84712351220711e+000

1.66794521734578e+005,-2.63155735716730e+001,-1.87290458950671e+000

1.69122886489819e+005,-2.63156217025715e+001,-1.89904539565607e+000

1.71483754005805e+005,-2.63156711861153e+001,-1.92555094542523e+000

1.73877578004168e+005,-2.63157220603041e+001,-1.95242632329551e+000

1.76304818540256e+005,-2.63157743642039e+001,-1.97967668442323e+000

1.78765942091554e+005,-2.63158281379780e+001,-2.00730725561066e+000

1.81261421647326e+005,-2.63158834229164e+001,-2.03532333629457e+000

1.83791736799524e+005,-2.63159402614683e+001,-2.06373029954506e+000

1.86357373834951e+005,-2.63159986972743e+001,-2.09253359307969e+000

1.88958825828723e+005,-2.63160587751997e+001,-2.12173874029021e+000

1.91596592739027e+005,-2.63161205413688e+001,-2.15135134128225e+000

1.94271181503206e+005,-2.63161840432004e+001,-2.18137707393117e+000

1.96983106135185e+005,-2.63162493294438e+001,-2.21182169494892e+000

1.99732887824256e+005,-2.63163164502162e+001,-2.24269104096815e+000

2.02521055035243e+005,-2.63163854570410e+001,-2.27399102963765e+000

2.05348143610063e+005,-2.63164564028870e+001,-2.30572766073545e+000

2.08214696870707e+005,-2.63165293422093e+001,-2.33790701729328e+000

2.11121265723661e+005,-2.63166043309904e+001,-2.37053526673912e+000

2.14068408765776e+005,-2.63166814267830e+001,-2.40361866205253e+000

2.17056692391625e+005,-2.63167606887545e+001,-2.43716354293559e+000

2.20086690902357e+005,-2.63168421777316e+001,-2.47117633700098e+000

2.23158986616063e+005,-2.63169259562468e+001,-2.50566356097193e+000

2.26274169979693e+005,-2.63170120885865e+001,-2.54063182190222e+000

2.29432839682530e+005,-2.63171006408395e+001,-2.57608781840911e+000

2.32635602771247e+005,-2.63171916809480e+001,-2.61203834192319e+000

2.35883074766574e+005,-2.63172852787591e+001,-2.64849027795459e+000

2.39175879781588e+005,-2.63173815060778e+001,-2.68545060737611e+000

2.42514650641661e+005,-2.63174804367223e+001,-2.72292640772150e+000

2.45900029006080e+005,-2.63175821465799e+001,-2.76092485450216e+000

2.49332665491357e+005,-2.63176867136651e+001,-2.79945322253970e+000

2.52813219796278e+005,-2.63177942181784e+001,-2.83851888731626e+000

2.56342360828676e+005,-2.63179047425684e+001,-2.87812932634179e+000

2.59920766833993e+005,-2.63180183715936e+001,-2.91829212053856e+000

2.63549125525621e+005,-2.63181351923875e+001,-2.95901495564493e+000

2.67228134217075e+005,-2.63182552945246e+001,-3.00030562363418e+000

2.70958499956006e+005,-2.63183787700889e+001,-3.04217202415354e+000

2.74740939660078e+005,-2.63185057137434e+001,-3.08462216598165e+000

2.78576180254757e+005,-2.63186362228026e+001,-3.12766416850219e+000

2.82464958813007e+005,-2.63187703973062e+001,-3.17130626319809e+000

2.86408022696948e+005,-2.63189083400952e+001,-3.21555679516424e+000

2.90406129701488e+005,-2.63190501568898e+001,-3.26042422463757e+000

2.94460048199957e+005,-2.63191959563700e+001,-3.30591712854811e+000

2.98570557291775e+005,-2.63193458502579e+001,-3.35204420208824e+000

3.02738446952187e+005,-2.63194999534025e+001,-3.39881426030121e+000

3.06964518184081e+005,-2.63196583838669e+001,-3.44623623968975e+000

3.11249583171928e+005,-2.63198212630176e+001,-3.49431919984432e+000

3.15594465437872e+005,-2.63199887156166e+001,-3.54307232509146e+000

3.19999999999997e+005,-2.63201608699162e+001,-3.59250492616054e+000

3.24467033532806e+005,-2.63203378577555e+001,-3.64262644187382e+000

3.28996424529938e+005,-2.63205198146609e+001,-3.69344644085351e+000

3.33589043469155e+005,-2.63207068799481e+001,-3.74497462325204e+000

3.38245772979638e+005,-2.63208991968278e+001,-3.79722082250098e+000

3.42967508011610e+005,-2.63210969125136e+001,-3.85019500708231e+000

3.47755156008335e+005,-2.63213001783338e+001,-3.90390728231960e+000

3.52609637080511e+005,-2.63215091498450e+001,-3.95836789219043e+000

3.57531884183106e+005,-2.63217239869501e+001,-4.01358722116039e+000

3.62522843294651e+005,-2.63219448540187e+001,-4.06957579603801e+000

3.67583473599047e+005,-2.63221719200109e+001,-4.12634428785213e+000

3.72714747669902e+005,-2.63224053586049e+001,-4.18390351374834e+000

3.77917651657445e+005,-2.63226453483276e+001,-4.24226443890993e+000

3.83193185478053e+005,-2.63228920726892e+001,-4.30143817849952e+000

3.88542363006410e+005,-2.63231457203211e+001,-4.36143599962160e+000

3.93966212270369e+005,-2.63234064851177e+001,-4.42226932330844e+000

3.99465775648511e+005,-2.63236745663823e+001,-4.48394972652691e+000

4.05042110070485e+005,-2.63239501689764e+001,-4.54648894420882e+000

4.10696287220124e+005,-2.63242335034739e+001,-4.60989887130135e+000

4.16429393741414e+005,-2.63245247863185e+001,-4.67419156484160e+000

4.22242531447321e+005,-2.63248242399865e+001,-4.73937924605225e+000

4.28136817531551e+005,-2.63251320931526e+001,-4.80547430246016e+000

4.34113384783250e+005,-2.63254485808617e+001,-4.87248929003687e+000

4.40173381804713e+005,-2.63257739447044e+001,-4.94043693536082e+000

4.46317973232124e+005,-2.63261084329974e+001,-5.00933013780416e+000

4.52548339959385e+005,-2.63264523009690e+001,-5.07918197173874e+000

4.58865679365059e+005,-2.63268058109494e+001,-5.15000568876661e+000

4.65271205542494e+005,-2.63271692325662e+001,-5.22181471997206e+000

4.71766149533147e+005,-2.63275428429451e+001,-5.29462267819584e+000

4.78351759563174e+005,-2.63279269269162e+001,-5.36844336033126e+000

4.85029301283321e+005,-2.63283217772256e+001,-5.44329074964225e+000

4.91800058012158e+005,-2.63287276947526e+001,-5.51917901810442e+000

4.98665330982714e+005,-2.63291449887333e+001,-5.59612252876620e+000

5.05626439592555e+005,-2.63295739769893e+001,-5.67413583813301e+000

5.12684721657352e+005,-2.63300149861631e+001,-5.75323369857226e+000

5.19841533667984e+005,-2.63304683519598e+001,-5.83343106073925e+000

5.27098251051240e+005,-2.63309344193950e+001,-5.91474307602514e+000

5.34456268434150e+005,-2.63314135430488e+001,-5.99718509902549e+000

5.41916999912011e+005,-2.63319060873279e+001,-6.08077269002882e+000

