Freq.,VOut,OutRef

1.00000000000000e+004,-3.69414843005553e+001,-2.29922624624411e-001

1.01395947979003e+004,-3.69414850814138e+001,-2.33132216879583e-001

1.02811382665607e+004,-3.69414858842251e+001,-2.36386613033785e-001

1.04246576084112e+004,-3.69414867096064e+001,-2.39686438511989e-001

1.05701804056138e+004,-3.69414875581922e+001,-2.43032327469323e-001

1.07177346253629e+004,-3.69414884306349e+001,-2.46424922911585e-001

1.08673486252606e+004,-3.69414893276050e+001,-2.49864876822094e-001

1.10190511587661e+004,-3.69414902497923e+001,-2.53352850282491e-001

1.11728713807222e+004,-3.69414911979056e+001,-2.56889513602884e-001

1.13288388529580e+004,-3.69414921726738e+001,-2.60475546450615e-001

1.14869835499703e+004,-3.69414931748463e+001,-2.64111637978677e-001

1.16473358646846e+004,-3.69414942051935e+001,-2.67798486960442e-001

1.18099266142953e+004,-3.69414952645074e+001,-2.71536801922872e-001

1.19747870461893e+004,-3.69414963536026e+001,-2.75327301281859e-001

1.21419488439505e+004,-3.69414974733160e+001,-2.79170713482369e-001

1.23114441334492e+004,-3.69414986245088e+001,-2.83067777135345e-001

1.24833054890161e+004,-3.69414998080656e+001,-2.87019241163894e-001

1.26575659397028e+004,-3.69415010248964e+001,-2.91025864942724e-001

1.28342589756290e+004,-3.69415022759367e+001,-2.95088418445963e-001

1.30134185544193e+004,-3.69415035621481e+001,-2.99207682396528e-001

1.31950791077289e+004,-3.69415048845198e+001,-3.03384448411279e-001

1.33792755478611e+004,-3.69415062440678e+001,-3.07619519161425e-001

1.35660432744767e+004,-3.69415076418375e+001,-3.11913708517992e-001

1.37554181813974e+004,-3.69415090789035e+001,-3.16267841712292e-001

1.39474366635040e+004,-3.69415105563706e+001,-3.20682755495248e-001

1.41421356237309e+004,-3.69415120753744e+001,-3.25159298296290e-001

1.43395524801583e+004,-3.69415136370828e+001,-3.29698330387326e-001

1.45397251732031e+004,-3.69415152426962e+001,-3.34300724046711e-001

1.47426921729110e+004,-3.69415168934491e+001,-3.38967363728693e-001

1.49484924863494e+004,-3.69415185906104e+001,-3.43699146231153e-001

1.51571656651040e+004,-3.69415203354848e+001,-3.48496980870975e-001

1.53687518128801e+004,-3.69415221294136e+001,-3.53361789655360e-001

1.55832915932100e+004,-3.69415239737760e+001,-3.58294507459315e-001

1.58008262372675e+004,-3.69415258699898e+001,-3.63296082208273e-001

1.60213975517924e+004,-3.69415278195126e+001,-3.68367475057682e-001

1.62450479271247e+004,-3.69415298238432e+001,-3.73509660576095e-001

1.64718203453514e+004,-3.69415318845225e+001,-3.78723626935932e-001

1.67017583885674e+004,-3.69415340031343e+001,-3.84010376102582e-001

1.69349062472505e+004,-3.69415361813075e+001,-3.89370924022985e-001

1.71713087287550e+004,-3.69415384207167e+001,-3.94806300825119e-001

1.74110112659224e+004,-3.69415407230830e+001,-4.00317551014985e-001

1.76540599258131e+004,-3.69415430901766e+001,-4.05905733675906e-001

1.79005014185594e+004,-3.69415455238171e+001,-4.11571922671574e-001

1.81503831063432e+004,-3.69415480258754e+001,-4.17317206853858e-001

1.84037530124975e+004,-3.69415505982748e+001,-4.23142690271487e-001

1.86606598307361e+004,-3.69415532429927e+001,-4.29049492382573e-001

1.89211529345119e+004,-3.69415559620625e+001,-4.35038748266127e-001

1.91852823865052e+004,-3.69415587575741e+001,-4.41111608845148e-001

1.94530989482457e+004,-3.69415616316766e+001,-4.47269241104468e-001

1.97246540898671e+004,-3.69415645865795e+001,-4.53512828314502e-001

1.99999999999999e+004,-3.69415676245541e+001,-4.59843570260600e-001

2.02791895958005e+004,-3.69415707479360e+001,-4.66262683471122e-001

2.05622765331213e+004,-3.69415739591261e+001,-4.72771401453053e-001

2.08493152168224e+004,-3.69415772605929e+001,-4.79370974926909e-001

2.11403608112276e+004,-3.69415806548742e+001,-4.86062672068900e-001

2.14354692507258e+004,-3.69415841445796e+001,-4.92847778751125e-001

2.17346972505211e+004,-3.69415877323912e+001,-4.99727598793179e-001

2.20381023175322e+004,-3.69415914210673e+001,-5.06703454208040e-001

2.23457427614443e+004,-3.69415952134435e+001,-5.13776685457034e-001

2.26576777059159e+004,-3.69415991124348e+001,-5.20948651709757e-001

2.29739670999406e+004,-3.69416031210387e+001,-5.28220731100064e-001

2.32946717293690e+004,-3.69416072423364e+001,-5.35594320996105e-001

2.36198532285905e+004,-3.69416114794960e+001,-5.43070838264000e-001

2.39495740923785e+004,-3.69416158357747e+001,-5.50651719541854e-001

2.42838976879009e+004,-3.69416203145211e+001,-5.58338421514622e-001

2.46228882668982e+004,-3.69416249191781e+001,-5.66132421195436e-001

2.49666109780322e+004,-3.69416296532852e+001,-5.74035216206568e-001

2.53151318794055e+004,-3.69416345204816e+001,-5.82048325067711e-001

2.56685179512580e+004,-3.69416395245086e+001,-5.90173287489391e-001

2.60268371088386e+004,-3.69416446692128e+001,-5.98411664663823e-001

2.63901582154578e+004,-3.69416499585488e+001,-6.06765039569330e-001

2.67585510957221e+004,-3.69416553965825e+001,-6.15235017271571e-001

2.71320865489533e+004,-3.69416609874940e+001,-6.23823225230898e-001

2.75108363627948e+004,-3.69416667355811e+001,-6.32531313615266e-001

2.78948733270080e+004,-3.69416726452620e+001,-6.41360955618225e-001

2.82842712474618e+004,-3.69416787210794e+001,-6.50313847777644e-001

2.86791049603164e+004,-3.69416849677037e+001,-6.59391710302083e-001

2.90794503464061e+004,-3.69416913899364e+001,-6.68596287400833e-001

2.94853843458219e+004,-3.69416979927141e+001,-6.77929347617342e-001

2.98969849726987e+004,-3.69417047811122e+001,-6.87392684170371e-001

3.03143313302078e+004,-3.69417117603486e+001,-6.96988115296306e-001

3.07375036257601e+004,-3.69417189357881e+001,-7.06717484596829e-001

3.11665831864199e+004,-3.69417263129459e+001,-7.16582661396416e-001

3.16016524745350e+004,-3.69417338974926e+001,-7.26585541095143e-001

3.20427951035848e+004,-3.69417416952581e+001,-7.36728045536913e-001

3.24900958542493e+004,-3.69417497122360e+001,-7.47012123374884e-001

3.29436406907028e+004,-3.69417579545886e+001,-7.57439750446303e-001

3.34035167771346e+004,-3.69417664286512e+001,-7.68012930149861e-001

3.38698124945009e+004,-3.69417751409373e+001,-7.78733693832548e-001

3.43426174575100e+004,-3.69417840981434e+001,-7.89604101174796e-001

3.48220225318448e+004,-3.69417933071543e+001,-8.00626240588081e-001

3.53081198516260e+004,-3.69418027750482e+001,-8.11802229615312e-001

3.58010028371187e+004,-3.69418125091024e+001,-8.23134215333442e-001

3.63007662126863e+004,-3.69418225167984e+001,-8.34624374768596e-001

3.68075060249948e+004,-3.69418328058284e+001,-8.46274915310397e-001

3.73213196614721e+004,-3.69418433841006e+001,-8.58088075135603e-001

3.78423058690237e+004,-3.69418542597453e+001,-8.70066123636918e-001

3.83705647730104e+004,-3.69418654411216e+001,-8.82211361857503e-001

3.89061978964912e+004,-3.69418769368233e+001,-8.94526122930933e-001

3.94493081797342e+004,-3.69418887556860e+001,-9.07012772528871e-001

3.99999999999998e+004,-3.69419009067931e+001,-9.19673709313442e-001

4.05583791916010e+004,-3.69419133994840e+001,-9.32511365395848e-001

4.11245530662425e+004,-3.69419262433599e+001,-9.45528206802969e-001

4.16986304336447e+004,-3.69419394482922e+001,-9.58726733948062e-001

4.22807216224550e+004,-3.69419530244297e+001,-9.72109482110288e-001

4.28709385014515e+004,-3.69419669822063e+001,-9.85679021919088e-001

4.34693945010421e+004,-3.69419813323492e+001,-9.99437959845909e-001

4.40762046350642e+004,-3.69419960858869e+001,-1.01338893870276e+000

4.46914855228886e+004,-3.69420112541581e+001,-1.02753463814846e+000

4.53153554118317e+004,-3.69420268488199e+001,-1.04187777520008e+000

4.59479341998812e+004,-3.69420428818571e+001,-1.05642110475231e+000

4.65893434587380e+004,-3.69420593655913e+001,-1.07116742010450e+000

4.72397064571810e+004,-3.69420763126901e+001,-1.08611955349544e+000

4.78991481847569e+004,-3.69420937361774e+001,-1.10128037664235e+000

4.85677953758016e+004,-3.69421116494429e+001,-1.11665280129233e+000

4.92457765337964e+004,-3.69421300662525e+001,-1.13223977977558e+000

4.99332219560642e+004,-3.69421490007591e+001,-1.14804430557240e+000

5.06302637588109e+004,-3.69421684675130e+001,-1.16406941388286e+000

5.13370359025159e+004,-3.69421884814736e+001,-1.18031818220669e+000

5.20536742176771e+004,-3.69422090580205e+001,-1.19679373093127e+000

5.27803164309155e+004,-3.69422302129654e+001,-1.21349922392692e+000

5.35171021914442e+004,-3.69422519625642e+001,-1.23043786915099e+000

5.42641730979066e+004,-3.69422743235299e+001,-1.24761291925911e+000

5.50216727255895e+004,-3.69422973130445e+001,-1.26502767222706e+000

5.57897466540159e+004,-3.69423209487731e+001,-1.28268547197800e+000

5.65685424949235e+004,-3.69423452488772e+001,-1.30058970902124e+000

5.73582099206328e+004,-3.69423702320282e+001,-1.31874382109853e+000

5.81589006928121e+004,-3.69423959174222e+001,-1.33715129383932e+000

5.89707686916437e+004,-3.69424223247946e+001,-1.35581566142415e+000

5.97939699453972e+004,-3.69424494744353e+001,-1.37474050725815e+000

6.06286626604156e+004,-3.69424773872040e+001,-1.39392946465479e+000

6.14750072515201e+004,-3.69425060845465e+001,-1.41338621752582e+000

6.23331663728396e+004,-3.69425355885109e+001,-1.43311450108387e+000

6.32033049490698e+004,-3.69425659217650e+001,-1.45311810255195e+000

6.40855902071694e+004,-3.69425971076127e+001,-1.47340086188596e+000

6.49801917084985e+004,-3.69426291700131e+001,-1.49396667250306e+000

6.58872813814055e+004,-3.69426621335979e+001,-1.51481948202256e+000

6.68070335542691e+004,-3.69426960236908e+001,-1.53596329301693e+000

6.77396249890018e+004,-3.69427308663265e+001,-1.55740216377206e+000

6.86852349150199e+004,-3.69427666882713e+001,-1.57914020905755e+000

6.96440450636895e+004,-3.69428035170430e+001,-1.60118160090851e+000

7.06162397032520e+004,-3.69428413809321e+001,-1.62353056941835e+000

7.16020056742374e+004,-3.69428803090240e+001,-1.64619140354003e+000

7.26015324253724e+004,-3.69429203312204e+001,-1.66916845190050e+000

7.36150120499896e+004,-3.69429614782630e+001,-1.69246612362591e+000

7.46426393229441e+004,-3.69430037817567e+001,-1.71608888917620e+000

7.56846117380472e+004,-3.69430472741938e+001,-1.74004128119257e+000

7.67411295460207e+004,-3.69430919889790e+001,-1.76432789535693e+000

7.78123957929823e+004,-3.69431379604549e+001,-1.78895339126096e+000

7.88986163594682e+004,-3.69431852239283e+001,-1.81392249328762e+000

7.99999999999995e+004,-3.69432338156974e+001,-1.83923999150610e+000

8.11167583832018e+004,-3.69432837730792e+001,-1.86491074257717e+000

8.22491061324848e+004,-3.69433351344388e+001,-1.89093967067001e+000

8.33972608672892e+004,-3.69433879392177e+001,-1.91733176839421e+000

8.45614432449099e+004,-3.69434422279650e+001,-1.94409209774052e+000

8.57418770029029e+004,-3.69434980423680e+001,-1.97122579103809e+000

8.69387890020841e+004,-3.69435554252839e+001,-1.99873805192073e+000

8.81524092701283e+004,-3.69436144207729e+001,-2.02663415630945e+000

8.93829710457770e+004,-3.69436750741319e+001,-2.05491945340550e+000

9.06307108236633e+004,-3.69437374319291e+001,-2.08359936669805e+000

9.18958683997622e+004,-3.69438015420392e+001,-2.11267939498568e+000

9.31786869174758e+004,-3.69438674536809e+001,-2.14216511340865e+000

9.44794129143618e+004,-3.69439352174536e+001,-2.17206217449975e+000

9.57982963695136e+004,-3.69440048853767e+001,-2.20237630924343e+000

9.71355907516031e+004,-3.69440765109292e+001,-2.23311332815378e+000

9.84915530675926e+004,-3.69441501490903e+001,-2.26427912236354e+000

9.98664439121282e+004,-3.69442258563818e+001,-2.29587966472912e+000

1.01260527517622e+005,-3.69443036909110e+001,-2.32792101094959e+000

1.02674071805032e+005,-3.69443837124152e+001,-2.36040930070004e+000

1.04107348435354e+005,-3.69444659823074e+001,-2.39335075878082e+000

1.05560632861831e+005,-3.69445505637231e+001,-2.42675169628066e+000

1.07034204382888e+005,-3.69446375215681e+001,-2.46061851175583e+000

1.08528346195813e+005,-3.69447269225691e+001,-2.49495769242434e+000

1.10043345451179e+005,-3.69448188353233e+001,-2.52977581537562e+000

1.11579493308032e+005,-3.69449133303517e+001,-2.56507954879627e+000

1.13137084989847e+005,-3.69450104801525e+001,-2.60087565321028e+000

1.14716419841265e+005,-3.69451103592565e+001,-2.63717098273856e+000

1.16317801385624e+005,-3.69452130442836e+001,-2.67397248637010e+000

1.17941537383287e+005,-3.69453186140018e+001,-2.71128720925399e+000

1.19587939890794e+005,-3.69454271493867e+001,-2.74912229400466e+000

1.21257325320831e+005,-3.69455387336834e+001,-2.78748498202586e+000

1.22950014503040e+005,-3.69456534524698e+001,-2.82638261485060e+000

1.24666332745679e+005,-3.69457713937219e+001,-2.86582263549857e+000

1.26406609898139e+005,-3.69458926478807e+001,-2.90581258985013e+000

1.28171180414339e+005,-3.69460173079210e+001,-2.94636012803858e+000

1.29960383416997e+005,-3.69461454694222e+001,-2.98747300585973e+000

1.31774562762811e+005,-3.69462772306410e+001,-3.02915908619899e+000

1.33614067108538e+005,-3.69464126925859e+001,-3.07142634047616e+000

1.35479249978003e+005,-3.69465519590942e+001,-3.11428285010911e+000

1.37370469830040e+005,-3.69466951369109e+001,-3.15773680799499e+000

1.39288090127379e+005,-3.69468423357698e+001,-3.20179652000953e+000

1.41232479406504e+005,-3.69469936684765e+001,-3.24647040652601e+000

1.43204011348474e+005,-3.69471492509944e+001,-3.29176700395279e+000

1.45203064850745e+005,-3.69473092025326e+001,-3.33769496628781e+000

1.47230024099979e+005,-3.69474736456364e+001,-3.38426306669488e+000

1.49285278645888e+005,-3.69476427062798e+001,-3.43148019909722e+000

1.51369223476094e+005,-3.69478165139615e+001,-3.47935537979133e+000

1.53482259092041e+005,-3.69479952018029e+001,-3.52789774907928e+000

1.55624791585964e+005,-3.69481789066486e+001,-3.57711657292272e+000

1.57797232718936e+005,-3.69483677691704e+001,-3.62702124461311e+000

1.59999999999999e+005,-3.69485619339733e+001,-3.67762128646624e+000

1.62233516766403e+005,-3.69487615497055e+001,-3.72892635153308e+000

1.64498212264969e+005,-3.69489667691702e+001,-3.78094622533259e+000

1.66794521734578e+005,-3.69491777494412e+001,-3.83369082760471e+000

1.69122886489819e+005,-3.69493946519817e+001,-3.88717021408351e+000

1.71483754005805e+005,-3.69496176427661e+001,-3.94139457829062e+000

1.73877578004168e+005,-3.69498468924052e+001,-3.99637425335001e+000

1.76304818540256e+005,-3.69500825762749e+001,-4.05211971382276e+000

1.78765942091554e+005,-3.69503248746481e+001,-4.10864157756291e+000

1.81261421647326e+005,-3.69505739728312e+001,-4.16595060759485e+000

1.83791736799524e+005,-3.69508300613028e+001,-4.22405771401043e+000

1.86357373834951e+005,-3.69510933358575e+001,-4.28297395588893e+000

1.88958825828723e+005,-3.69513639977529e+001,-4.34271054323606e+000

1.91596592739027e+005,-3.69516422538610e+001,-4.40327883894628e+000

1.94271181503206e+005,-3.69519283168235e+001,-4.46469036078518e+000

1.96983106135185e+005,-3.69522224052113e+001,-4.52695678339319e+000

1.99732887824256e+005,-3.69525247436884e+001,-4.59008994031142e+000

2.02521055035243e+005,-3.69528355631805e+001,-4.65410182602759e+000

2.05348143610063e+005,-3.69531551010476e+001,-4.71900459804522e+000

2.08214696870707e+005,-3.69534836012622e+001,-4.78481057897228e+000

2.11121265723661e+005,-3.69538213145908e+001,-4.85153225863236e+000

2.14068408765776e+005,-3.69541684987821e+001,-4.91918229619713e+000

2.17056692391625e+005,-3.69545254187593e+001,-4.98777352233983e+000

2.20086690902357e+005,-3.69548923468172e+001,-5.05731894140977e+000

2.23158986616063e+005,-3.69552695628258e+001,-5.12783173362880e+000

2.26274169979693e+005,-3.69556573544383e+001,-5.19932525730861e+000

2.29432839682530e+005,-3.69560560173051e+001,-5.27181305108831e+000

2.32635602771247e+005,-3.69564658552940e+001,-5.34530883619459e+000

2.35883074766574e+005,-3.69568871807152e+001,-5.41982651872041e+000

2.39175879781588e+005,-3.69573203145535e+001,-5.49538019192679e+000

2.42514650641661e+005,-3.69577655867059e+001,-5.57198413856266e+000

2.45900029006080e+005,-3.69582233362261e+001,-5.64965283320716e+000

2.49332665491357e+005,-3.69586939115748e+001,-5.72840094463014e+000

2.52813219796278e+005,-3.69591776708776e+001,-5.80824333817380e+000

2.56342360828676e+005,-3.69596749821891e+001,-5.88919507815306e+000

2.59920766833993e+005,-3.69601862237638e+001,-5.97127143027596e+000

2.63549125525621e+005,-3.69607117843351e+001,-6.05448786408202e+000

2.67228134217075e+005,-3.69612520634009e+001,-6.13886005540000e+000

2.70958499956006e+005,-3.69618074715167e+001,-6.22440388882374e+000

2.74740939660078e+005,-3.69623784305971e+001,-6.31113546020557e+000

2.78576180254757e+005,-3.69629653742244e+001,-6.39907107916752e+000

2.82464958813007e+005,-3.69635687479659e+001,-6.48822727162922e+000

2.86408022696948e+005,-3.69641890096994e+001,-6.57862078235243e+000

2.90406129701488e+005,-3.69648266299467e+001,-6.67026857750105e+000

2.94460048199957e+005,-3.69654820922167e+001,-6.76318784721729e+000

2.98570557291775e+005,-3.69661558933564e+001,-6.85739600821213e+000

3.02738446952187e+005,-3.69668485439120e+001,-6.95291070636929e+000

3.06964518184081e+005,-3.69675605684985e+001,-7.04974981936386e+000

3.11249583171928e+005,-3.69682925061794e+001,-7.14793145929271e+000

3.15594465437872e+005,-3.69690449108559e+001,-7.24747397531728e+000

3.19999999999997e+005,-3.69698183516663e+001,-7.34839595631665e+000

3.24467033532806e+005,-3.69706134133952e+001,-7.45071623355191e+000

3.28996424529938e+005,-3.69714306968940e+001,-7.55445388333930e+000

3.33589043469155e+005,-3.69722708195109e+001,-7.65962822973101e+000

3.38245772979638e+005,-3.69731344155332e+001,-7.76625884720450e+000

3.42967508011610e+005,-3.69740221366395e+001,-7.87436556335677e+000

3.47755156008335e+005,-3.69749346523641e+001,-7.98396846160442e+000

3.52609637080511e+005,-3.69758726505732e+001,-8.09508788388711e+000

3.57531884183106e+005,-3.69768368379520e+001,-8.20774443337401e+000

3.62522843294651e+005,-3.69778279405054e+001,-8.32195897717034e+000

3.67583473599047e+005,-3.69788467040697e+001,-8.43775264902486e+000

3.72714747669902e+005,-3.69798938948385e+001,-8.55514685203502e+000

3.77917651657445e+005,-3.69809702999003e+001,-8.67416326134844e+000

3.83193185478053e+005,-3.69820767277895e+001,-8.79482382686058e+000

3.88542363006410e+005,-3.69832140090521e+001,-8.91715077590416e+000

3.93966212270369e+005,-3.69843829968235e+001,-9.04116661593132e+000

3.99465775648511e+005,-3.69855845674213e+001,-9.16689413718490e+000

4.05042110070485e+005,-3.69868196209526e+001,-9.29435641535700e+000

4.10696287220124e+005,-3.69880890819349e+001,-9.42357681423408e+000

4.16429393741414e+005,-3.69893938999329e+001,-9.55457898832428e+000

4.22242531447321e+005,-3.69907350502101e+001,-9.68738688546641e+000

4.28136817531551e+005,-3.69921135343953e+001,-9.82202474941778e+000

4.34113384783250e+005,-3.69935303811655e+001,-9.95851712241802e+000

4.40173381804713e+005,-3.69949866469448e+001,-1.00968888477263e+001

4.46317973232124e+005,-3.69964834166186e+001,-1.02371650721300e+001

4.52548339959385e+005,-3.69980218042655e+001,-1.03793712484215e+001

4.58865679365059e+005,-3.69996029539053e+001,-1.05235331378397e+001

4.65271205542494e+005,-3.70012280402641e+001,-1.06696768124737e+001

4.71766149533147e+005,-3.70028982695571e+001,-1.08178286576260e+001

4.78351759563174e+005,-3.70046148802886e+001,-1.09680153741308e+001

4.85029301283321e+005,-3.70063791440701e+001,-1.11202639806242e+001

4.91800058012158e+005,-3.70081923664564e+001,-1.12746018157643e+001

4.98665330982714e+005,-3.70100558878001e+001,-1.14310565403939e+001

5.05626439592555e+005,-3.70119710841246e+001,-1.15896561396468e+001

5.12684721657352e+005,-3.70139393680162e+001,-1.17504289249881e+001

5.19841533667984e+005,-3.70159621895352e+001,-1.19134035361903e+001

5.27098251051240e+005,-3.70180410371456e+001,-1.20786089432353e+001

5.34456268434150e+005,-3.70201774386659e+001,-1.22460744481419e+001

5.41916999912011e+005,-3.70223729622377e+001,-1.24158296867112e+001

