Freq.,VOut,OutRef

1.00000000000000e+004,-1.46751097629309e+001,-7.49038729047321e-002

1.01395947979003e+004,-1.46751097818206e+001,-7.59494919645313e-002

1.02811382665607e+004,-1.46751098012415e+001,-7.70097073198022e-002

1.04246576084112e+004,-1.46751098212084e+001,-7.80847227286225e-002

1.05701804056138e+004,-1.46751098417365e+001,-7.91747447914625e-002

1.07177346253629e+004,-1.46751098628418e+001,-8.02799829935125e-002

1.08673486252606e+004,-1.46751098845404e+001,-8.14006497442497e-002

1.10190511587661e+004,-1.46751099068490e+001,-8.25369604172179e-002

1.11728713807222e+004,-1.46751099297850e+001,-8.36891333930961e-002

1.13288388529580e+004,-1.46751099533657e+001,-8.48573901022805e-002

1.14869835499703e+004,-1.46751099776092e+001,-8.60419550660913e-002

1.16473358646846e+004,-1.46751100025345e+001,-8.72430559369420e-002

1.18099266142953e+004,-1.46751100281604e+001,-8.84609235490004e-002

1.19747870461893e+004,-1.46751100545067e+001,-8.96957919570144e-002

1.21419488439505e+004,-1.46751100815938e+001,-9.09478984823167e-002

1.23114441334492e+004,-1.46751101094425e+001,-9.22174837599658e-002

1.24833054890161e+004,-1.46751101380740e+001,-9.35047917855014e-002

1.26575659397028e+004,-1.46751101675105e+001,-9.48100699571775e-002

1.28342589756290e+004,-1.46751101977745e+001,-9.61335691307213e-002

1.30134185544193e+004,-1.46751102288894e+001,-9.74755436600139e-002

1.31950791077289e+004,-1.46751102608791e+001,-9.88362514522411e-002

1.33792755478611e+004,-1.46751102937681e+001,-1.00215954012880e-001

1.35660432744767e+004,-1.46751103275816e+001,-1.01614916501338e-001

1.37554181813974e+004,-1.46751103623459e+001,-1.03033407772906e-001

1.39474366635040e+004,-1.46751103980876e+001,-1.04471700440264e-001

1.41421356237309e+004,-1.46751104348341e+001,-1.05930070920881e-001

1.43395524801583e+004,-1.46751104726136e+001,-1.07408799489957e-001

1.45397251732031e+004,-1.46751105114552e+001,-1.08908170336293e-001

1.47426921729110e+004,-1.46751105513887e+001,-1.10428471615054e-001

1.49484924863494e+004,-1.46751105924452e+001,-1.11969995502056e-001

1.51571656651040e+004,-1.46751106346558e+001,-1.13533038255365e-001

1.53687518128801e+004,-1.46751106780531e+001,-1.15117900266820e-001

1.55832915932100e+004,-1.46751107226704e+001,-1.16724886122213e-001

1.58008262372675e+004,-1.46751107685421e+001,-1.18354304656964e-001

1.60213975517924e+004,-1.46751108157034e+001,-1.20006469021068e-001

1.62450479271247e+004,-1.46751108641906e+001,-1.21681696733252e-001

1.64718203453514e+004,-1.46751109140411e+001,-1.23380309744260e-001

1.67017583885674e+004,-1.46751109652930e+001,-1.25102634503387e-001

1.69349062472505e+004,-1.46751110179857e+001,-1.26849002012040e-001

1.71713087287550e+004,-1.46751110721599e+001,-1.28619747894730e-001

1.74110112659224e+004,-1.46751111278571e+001,-1.30415212460305e-001

1.76540599258131e+004,-1.46751111851200e+001,-1.32235740769568e-001

1.79005014185594e+004,-1.46751112439929e+001,-1.34081682696843e-001

1.81503831063432e+004,-1.46751113045210e+001,-1.35953393003308e-001

1.84037530124975e+004,-1.46751113667509e+001,-1.37851231401909e-001

1.86606598307361e+004,-1.46751114307301e+001,-1.39775562627736e-001

1.89211529345119e+004,-1.46751114965080e+001,-1.41726756505610e-001

1.91852823865052e+004,-1.46751115641353e+001,-1.43705188023359e-001

1.94530989482457e+004,-1.46751116336639e+001,-1.45711237404121e-001

1.97246540898671e+004,-1.46751117051471e+001,-1.47745290178749e-001

1.99999999999999e+004,-1.46751117786399e+001,-1.49807737259827e-001

2.02791895958005e+004,-1.46751118541989e+001,-1.51898975015930e-001

2.05622765331213e+004,-1.46751119318822e+001,-1.54019405348735e-001

2.08493152168224e+004,-1.46751120117495e+001,-1.56169435771304e-001

2.11403608112276e+004,-1.46751120938621e+001,-1.58349479485823e-001

2.14354692507258e+004,-1.46751121782833e+001,-1.60559955460486e-001

2.17346972505211e+004,-1.46751122650778e+001,-1.62801288514050e-001

2.20381023175322e+004,-1.46751123543124e+001,-1.65073909393942e-001

2.23457427614443e+004,-1.46751124460557e+001,-1.67378254861507e-001

2.26576777059159e+004,-1.46751125403784e+001,-1.69714767774004e-001

2.29739670999406e+004,-1.46751126373528e+001,-1.72083897172266e-001

2.32946717293690e+004,-1.46751127370535e+001,-1.74486098364473e-001

2.36198532285905e+004,-1.46751128395573e+001,-1.76921833014102e-001

2.39495740923785e+004,-1.46751129449427e+001,-1.79391569231341e-001

2.42838976879009e+004,-1.46751130532910e+001,-1.81895781658344e-001

2.46228882668982e+004,-1.46751131646853e+001,-1.84434951565220e-001

2.49666109780322e+004,-1.46751132792114e+001,-1.87009566937293e-001

2.53151318794055e+004,-1.46751133969572e+001,-1.89620122575163e-001

2.56685179512580e+004,-1.46751135180132e+001,-1.92267120185071e-001

2.60268371088386e+004,-1.46751136424727e+001,-1.94951068476583e-001

2.63901582154578e+004,-1.46751137704312e+001,-1.97672483260536e-001

2.67585510957221e+004,-1.46751139019869e+001,-2.00431887549656e-001

2.71320865489533e+004,-1.46751140372414e+001,-2.03229811654567e-001

2.75108363627948e+004,-1.46751141762982e+001,-2.06066793292059e-001

2.78948733270080e+004,-1.46751143192646e+001,-2.08943377682364e-001

2.82842712474618e+004,-1.46751144662502e+001,-2.11860117659046e-001

2.86791049603164e+004,-1.46751146173681e+001,-2.14817573770567e-001

2.90794503464061e+004,-1.46751147727346e+001,-2.17816314392119e-001

2.94853843458219e+004,-1.46751149324690e+001,-2.20856915831519e-001

2.98969849726987e+004,-1.46751150966941e+001,-2.23939962443599e-001

3.03143313302078e+004,-1.46751152655363e+001,-2.27066046737192e-001

3.07375036257601e+004,-1.46751154391252e+001,-2.30235769496501e-001

3.11665831864199e+004,-1.46751156175943e+001,-2.33449739888166e-001

3.16016524745350e+004,-1.46751158010811e+001,-2.36708575583522e-001

3.20427951035848e+004,-1.46751159897261e+001,-2.40012902878898e-001

3.24900958542493e+004,-1.46751161836747e+001,-2.43363356809320e-001

3.29436406907028e+004,-1.46751163830760e+001,-2.46760581277074e-001

3.34035167771346e+004,-1.46751165880832e+001,-2.50205229172047e-001

3.38698124945009e+004,-1.46751167988538e+001,-2.53697962498579e-001

3.43426174575100e+004,-1.46751170155501e+001,-2.57239452500156e-001

3.48220225318448e+004,-1.46751172383385e+001,-2.60830379793103e-001

3.53081198516260e+004,-1.46751174673903e+001,-2.64471434493428e-001

3.58010028371187e+004,-1.46751177028817e+001,-2.68163316349963e-001

3.63007662126863e+004,-1.46751179449936e+001,-2.71906734881134e-001

3.68075060249948e+004,-1.46751181939121e+001,-2.75702409508057e-001

3.73213196614721e+004,-1.46751184498287e+001,-2.79551069695857e-001

3.78423058690237e+004,-1.46751187129402e+001,-2.83453455091703e-001

3.83705647730104e+004,-1.46751189834485e+001,-2.87410315668214e-001

3.89061978964912e+004,-1.46751192615620e+001,-2.91422411866286e-001

3.94493081797342e+004,-1.46751195474942e+001,-2.95490514742662e-001

3.99999999999998e+004,-1.46751198414651e+001,-2.99615406117717e-001

4.05583791916010e+004,-1.46751201437005e+001,-3.03797878724489e-001

4.11245530662425e+004,-1.46751204544331e+001,-3.08038736361860e-001

4.16986304336447e+004,-1.46751207739014e+001,-3.12338794051597e-001

4.22807216224550e+004,-1.46751211023511e+001,-3.16698878189758e-001

4.28709385014515e+004,-1.46751214400348e+001,-3.21119826708938e-001

4.34693945010421e+004,-1.46751217872121e+001,-3.25602489239145e-001

4.40762046350642e+004,-1.46751221441498e+001,-3.30147727270295e-001

4.46914855228886e+004,-1.46751225111224e+001,-3.34756414318459e-001

4.53153554118317e+004,-1.46751228884119e+001,-3.39429436092550e-001

4.59479341998812e+004,-1.46751232763084e+001,-3.44167690665972e-001

4.65893434587380e+004,-1.46751236751102e+001,-3.48972088647317e-001

4.72397064571810e+004,-1.46751240851237e+001,-3.53843553358638e-001

4.78991481847569e+004,-1.46751245066643e+001,-3.58783021007711e-001

4.85677953758016e+004,-1.46751249400559e+001,-3.63791440874034e-001

4.92457765337964e+004,-1.46751253856318e+001,-3.68869775486838e-001

4.99332219560642e+004,-1.46751258437344e+001,-3.74019000811876e-001

5.06302637588109e+004,-1.46751263147160e+001,-3.79240106437422e-001

5.13370359025159e+004,-1.46751267989387e+001,-3.84534095766331e-001

5.20536742176771e+004,-1.46751272967746e+001,-3.89901986208404e-001

5.27803164309155e+004,-1.46751278086066e+001,-3.95344809375643e-001

5.35171021914442e+004,-1.46751283348280e+001,-4.00863611279134e-001

5.42641730979066e+004,-1.46751288758434e+001,-4.06459452533167e-001

5.50216727255895e+004,-1.46751294320688e+001,-4.12133408555320e-001

5.57897466540159e+004,-1.46751300039317e+001,-4.17886569776272e-001

5.65685424949235e+004,-1.46751305918718e+001,-4.23720041847341e-001

5.73582099206328e+004,-1.46751311963410e+001,-4.29634945855045e-001

5.81589006928121e+004,-1.46751318178041e+001,-4.35632418533030e-001

5.89707686916437e+004,-1.46751324567388e+001,-4.41713612483748e-001

5.97939699453972e+004,-1.46751331136363e+001,-4.47879696399381e-001

6.06286626604156e+004,-1.46751337890014e+001,-4.54131855285880e-001

6.14750072515201e+004,-1.46751344833537e+001,-4.60471290688442e-001

6.23331663728396e+004,-1.46751351972266e+001,-4.66899220927062e-001

6.32033049490698e+004,-1.46751359311692e+001,-4.73416881326919e-001

6.40855902071694e+004,-1.46751366857455e+001,-4.80025524458317e-001

6.49801917084985e+004,-1.46751374615357e+001,-4.86726420373454e-001

6.58872813814055e+004,-1.46751382591362e+001,-4.93520856856544e-001

6.68070335542691e+004,-1.46751390791600e+001,-5.00410139664878e-001

6.77396249890018e+004,-1.46751399222378e+001,-5.07395592783300e-001

6.86852349150199e+004,-1.46751407890174e+001,-5.14478558679519e-001

6.96440450636895e+004,-1.46751416801653e+001,-5.21660398558712e-001

7.06162397032520e+004,-1.46751425963666e+001,-5.28942492627732e-001

7.16020056742374e+004,-1.46751435383255e+001,-5.36326240359145e-001

7.26015324253724e+004,-1.46751445067664e+001,-5.43813060759953e-001

7.36150120499896e+004,-1.46751455024335e+001,-5.51404392645794e-001

7.46426393229441e+004,-1.46751465260924e+001,-5.59101694915413e-001

7.56846117380472e+004,-1.46751475785299e+001,-5.66906446832299e-001

7.67411295460207e+004,-1.46751486605552e+001,-5.74820148308603e-001

7.78123957929823e+004,-1.46751497730000e+001,-5.82844320192659e-001

7.88986163594682e+004,-1.46751509167195e+001,-5.90980504562537e-001

7.99999999999995e+004,-1.46751520925931e+001,-5.99230265020762e-001

8.11167583832018e+004,-1.46751533015245e+001,-6.07595186996310e-001

8.22491061324848e+004,-1.46751545444432e+001,-6.16076878048127e-001

8.33972608672892e+004,-1.46751558223047e+001,-6.24676968173676e-001

8.45614432449099e+004,-1.46751571360915e+001,-6.33397110123316e-001

8.57418770029029e+004,-1.46751584868131e+001,-6.42238979718421e-001

8.69387890020841e+004,-1.46751598755083e+001,-6.51204276169931e-001

8.81524092701283e+004,-1.46751613032445e+001,-6.60294722408843e-001

8.93829710457770e+004,-1.46751627711192e+001,-6.69512065414560e-001

9.06307108236633e+004,-1.46751642802609e+001,-6.78858076552407e-001

9.18958683997622e+004,-1.46751658318298e+001,-6.88334551911658e-001

9.31786869174758e+004,-1.46751674270185e+001,-6.97943312652950e-001

9.44794129143618e+004,-1.46751690670533e+001,-7.07686205357265e-001

9.57982963695136e+004,-1.46751707531951e+001,-7.17565102379685e-001

9.71355907516031e+004,-1.46751724867400e+001,-7.27581902210531e-001

9.84915530675926e+004,-1.46751742690206e+001,-7.37738529839436e-001

9.98664439121282e+004,-1.46751761014071e+001,-7.48036937125396e-001

1.01260527517622e+005,-1.46751779853080e+001,-7.58479103171836e-001

1.02674071805032e+005,-1.46751799221716e+001,-7.69067034705997e-001

1.04107348435354e+005,-1.46751819134868e+001,-7.79802766465351e-001

1.05560632861831e+005,-1.46751839607844e+001,-7.90688361587989e-001

1.07034204382888e+005,-1.46751860656383e+001,-8.01725912009296e-001

1.08528346195813e+005,-1.46751882296664e+001,-8.12917538863191e-001

1.10043345451179e+005,-1.46751904545323e+001,-8.24265392891623e-001

1.11579493308032e+005,-1.46751927419464e+001,-8.35771654853044e-001

1.13137084989847e+005,-1.46751950936668e+001,-8.47438535947636e-001

1.14716419841265e+005,-1.46751975115018e+001,-8.59268278236264e-001

1.16317801385624e+005,-1.46751999973096e+001,-8.71263155075340e-001

1.17941537383287e+005,-1.46752025530013e+001,-8.83425471551254e-001

1.19587939890794e+005,-1.46752051805415e+001,-8.95757564923274e-001

1.21257325320831e+005,-1.46752078819499e+001,-9.08261805073723e-001

1.22950014503040e+005,-1.46752106593033e+001,-9.20940594961155e-001

1.24666332745679e+005,-1.46752135147365e+001,-9.33796371084701e-001

1.26406609898139e+005,-1.46752164504447e+001,-9.46831603948572e-001

1.28171180414339e+005,-1.46752194686844e+001,-9.60048798540479e-001

1.29960383416997e+005,-1.46752225717759e+001,-9.73450494808630e-001

1.31774562762811e+005,-1.46752257621045e+001,-9.87039268152975e-001

1.33614067108538e+005,-1.46752290421227e+001,-1.00081772991768e+000

1.35479249978003e+005,-1.46752324143517e+001,-1.01478852789396e+000

1.37370469830040e+005,-1.46752358813838e+001,-1.02895434682721e+000

1.39288090127379e+005,-1.46752394458841e+001,-1.04331790893418e+000

1.41232479406504e+005,-1.46752431105926e+001,-1.05788197442464e+000

1.43204011348474e+005,-1.46752468783265e+001,-1.07264934203116e+000

1.45203064850745e+005,-1.46752507519818e+001,-1.08762284954767e+000

1.47230024099979e+005,-1.46752547345361e+001,-1.10280537437427e+000

1.49285278645888e+005,-1.46752588290510e+001,-1.11819983406819e+000

1.51369223476094e+005,-1.46752630386737e+001,-1.13380918690574e+000

1.53482259092041e+005,-1.46752673666401e+001,-1.14963643244957e+000

1.55624791585964e+005,-1.46752718162769e+001,-1.16568461212554e+000

1.57797232718936e+005,-1.46752763910047e+001,-1.18195680980388e+000

1.59999999999999e+005,-1.46752810943397e+001,-1.19845615239565e+000

1.62233516766403e+005,-1.46752859298972e+001,-1.21518581044960e+000

1.64498212264969e+005,-1.46752909013945e+001,-1.23214899876081e+000

1.66794521734578e+005,-1.46752960126525e+001,-1.24934897699136e+000

1.69122886489819e+005,-1.46753012676004e+001,-1.26678905029203e+000

1.71483754005805e+005,-1.46753066702774e+001,-1.28447256993891e+000

1.73877578004168e+005,-1.46753122248362e+001,-1.30240293397680e+000

1.76304818540256e+005,-1.46753179355463e+001,-1.32058358787043e+000

1.78765942091554e+005,-1.46753238067973e+001,-1.33901802516675e+000

1.81261421647326e+005,-1.46753298431021e+001,-1.35770978816510e+000

1.83791736799524e+005,-1.46753360491004e+001,-1.37666246859661e+000

1.86357373834951e+005,-1.46753424295624e+001,-1.39587970831474e+000

1.88958825828723e+005,-1.46753489893923e+001,-1.41536519999303e+000

1.91596592739027e+005,-1.46753557336322e+001,-1.43512268783498e+000

1.94271181503206e+005,-1.46753626674659e+001,-1.45515596829123e+000

1.96983106135185e+005,-1.46753697962229e+001,-1.47546889078897e+000

1.99732887824256e+005,-1.46753771253823e+001,-1.49606535847084e+000

2.02521055035243e+005,-1.46753846605777e+001,-1.51694932894243e+000

2.05348143610063e+005,-1.46753924076005e+001,-1.53812481503344e+000

2.08214696870707e+005,-1.46754003724050e+001,-1.55959588556715e+000

2.11121265723661e+005,-1.46754085611132e+001,-1.58136666613956e+000

2.14068408765776e+005,-1.46754169800187e+001,-1.60344133991307e+000

2.17056692391625e+005,-1.46754256355921e+001,-1.62582414841750e+000

2.20086690902357e+005,-1.46754345344861e+001,-1.64851939236398e+000

2.23158986616063e+005,-1.46754436835401e+001,-1.67153143247026e+000

2.26274169979693e+005,-1.46754530897858e+001,-1.69486469029705e+000

2.29432839682530e+005,-1.46754627604526e+001,-1.71852364909562e+000

2.32635602771247e+005,-1.46754727029729e+001,-1.74251285466833e+000

2.35883074766574e+005,-1.46754829249880e+001,-1.76683691623970e+000

2.39175879781588e+005,-1.46754934343542e+001,-1.79150050734093e+000

2.42514650641661e+005,-1.46755042391483e+001,-1.81650836670512e+000

2.45900029006080e+005,-1.46755153476740e+001,-1.84186529917716e+000

2.49332665491357e+005,-1.46755267684688e+001,-1.86757617663377e+000

2.52813219796278e+005,-1.46755385103096e+001,-1.89364593891854e+000

2.56342360828676e+005,-1.46755505822202e+001,-1.92007959478748e+000

2.59920766833993e+005,-1.46755629934781e+001,-1.94688222287079e+000

2.63549125525621e+005,-1.46755757536213e+001,-1.97405897264487e+000

2.67228134217075e+005,-1.46755888724558e+001,-2.00161506542061e+000

2.70958499956006e+005,-1.46756023600631e+001,-2.02955579534310e+000

2.74740939660078e+005,-1.46756162268083e+001,-2.05788653040549e+000

2.78576180254757e+005,-1.46756304833475e+001,-2.08661271347960e+000

2.82464958813007e+005,-1.46756451406361e+001,-2.11573986335679e+000

2.86408022696948e+005,-1.46756602099377e+001,-2.14527357580650e+000

2.90406129701488e+005,-1.46756757028321e+001,-2.17521952464701e+000

2.94460048199957e+005,-1.46756916312245e+001,-2.20558346283411e+000

2.98570557291775e+005,-1.46757080073546e+001,-2.23637122356029e+000

3.02738446952187e+005,-1.46757248438060e+001,-2.26758872137464e+000

3.06964518184081e+005,-1.46757421535159e+001,-2.29924195331360e+000

3.11249583171928e+005,-1.46757599497849e+001,-2.33133700004959e+000

3.15594465437872e+005,-1.46757782462874e+001,-2.36388002705511e+000

3.19999999999997e+005,-1.46757970570817e+001,-2.39687728578411e+000

3.24467033532806e+005,-1.46758163966214e+001,-2.43033511486683e+000

3.28996424529938e+005,-1.46758362797658e+001,-2.46425994132378e+000

3.33589043469155e+005,-1.46758567217919e+001,-2.49865828179617e+000

3.38245772979638e+005,-1.46758777384057e+001,-2.53353674379156e+000

3.42967508011610e+005,-1.46758993457544e+001,-2.56890202694931e+000

3.47755156008335e+005,-1.46759215604390e+001,-2.60476092432113e+000

3.52609637080511e+005,-1.46759443995266e+001,-2.64112032367078e+000

3.57531884183106e+005,-1.46759678805636e+001,-2.67798720879172e+000

3.62522843294651e+005,-1.46759920215896e+001,-2.71536866084183e+000

3.67583473599047e+005,-1.46760168411506e+001,-2.75327185969756e+000

3.72714747669902e+005,-1.46760423583137e+001,-2.79170408532637e+000

3.77917651657445e+005,-1.46760685926813e+001,-2.83067271917836e+000

3.83193185478053e+005,-1.46760955644065e+001,-2.87018524559664e+000

3.88542363006410e+005,-1.46761232942085e+001,-2.91024925324773e+000

3.93966212270369e+005,-1.46761518033881e+001,-2.95087243657021e+000

3.99465775648511e+005,-1.46761811138444e+001,-2.99206259724686e+000

4.05042110070485e+005,-1.46762112480916e+001,-3.03382764569123e+000

4.10696287220124e+005,-1.46762422292760e+001,-3.07617560256096e+000

4.16429393741414e+005,-1.46762740811939e+001,-3.11911460028759e+000

4.22242531447321e+005,-1.46763068283097e+001,-3.16265288462891e+000

4.28136817531551e+005,-1.46763404957750e+001,-3.20679881624283e+000

4.34113384783250e+005,-1.46763751094472e+001,-3.25156087228228e+000

4.40173381804713e+005,-1.46764106959099e+001,-3.29694764801293e+000

4.46317973232124e+005,-1.46764472824931e+001,-3.34296785845124e+000

4.52548339959385e+005,-1.46764848972939e+001,-3.38963034002741e+000

4.58865679365059e+005,-1.46765235691984e+001,-3.43694405226905e+000

4.65271205542494e+005,-1.46765633279033e+001,-3.48491807950949e+000

4.71766149533147e+005,-1.46766042039391e+001,-3.53356163261837e+000

4.78351759563174e+005,-1.46766462286935e+001,-3.58288405075584e+000

4.85029301283321e+005,-1.46766894344346e+001,-3.63289480315216e+000

4.91800058012158e+005,-1.46767338543368e+001,-3.68360349091005e+000

4.98665330982714e+005,-1.46767795225051e+001,-3.73501984883286e+000

5.05626439592555e+005,-1.46768264740020e+001,-3.78715374727576e+000

5.12684721657352e+005,-1.46768747448737e+001,-3.84001519402559e+000

5.19841533667984e+005,-1.46769243721781e+001,-3.89361433620222e+000

5.27098251051240e+005,-1.46769753940128e+001,-3.94796146218980e+000

5.34456268434150e+005,-1.46770278495445e+001,-4.00306700359104e+000

5.41916999912011e+005,-1.46770817790387e+001,-4.05894153720938e+000

