Freq.,VOut,OutRef

1.00000000000000e+004,-2.15435021474491e+000,-1.01581216170695e-002

1.01395947979003e+004,-2.15435021417084e+000,-1.02999237082929e-002

1.02811382665607e+004,-2.15435021358019e+000,-1.04437052858802e-002

1.04246576084112e+004,-2.15435021297289e+000,-1.05894939798955e-002

1.05701804056138e+004,-2.15435021234868e+000,-1.07373178071680e-002

1.07177346253629e+004,-2.15435021170681e+000,-1.08872051787444e-002

1.08673486252606e+004,-2.15435021104695e+000,-1.10391848997590e-002

1.10190511587661e+004,-2.15435021036834e+000,-1.11932861800431e-002

1.11728713807222e+004,-2.15435020967089e+000,-1.13495386324964e-002

1.13288388529580e+004,-2.15435020895398e+000,-1.15079722868287e-002

1.14869835499703e+004,-2.15435020821669e+000,-1.16686175940455e-002

1.16473358646846e+004,-2.15435020745859e+000,-1.18315054269394e-002

1.18099266142953e+004,-2.15435020667923e+000,-1.19966670888663e-002

1.19747870461893e+004,-2.15435020587805e+000,-1.21641343209107e-002

1.21419488439505e+004,-2.15435020505462e+000,-1.23339393067621e-002

1.23114441334492e+004,-2.15435020420761e+000,-1.25061146845742e-002

1.24833054890161e+004,-2.15435020333669e+000,-1.26806935420366e-002

1.26575659397028e+004,-2.15435020244177e+000,-1.28577094260874e-002

1.28342589756290e+004,-2.15435020152117e+000,-1.30371963634709e-002

1.30134185544193e+004,-2.15435020057505e+000,-1.32191888427344e-002

1.31950791077289e+004,-2.15435019960220e+000,-1.34037218431248e-002

1.33792755478611e+004,-2.15435019860216e+000,-1.35908308272475e-002

1.35660432744767e+004,-2.15435019757381e+000,-1.37805517567390e-002

1.37554181813974e+004,-2.15435019651652e+000,-1.39729210918788e-002

1.39474366635040e+004,-2.15435019542975e+000,-1.41679758013495e-002

1.41421356237309e+004,-2.15435019431239e+000,-1.43657533735272e-002

1.43395524801583e+004,-2.15435019316358e+000,-1.45662918179369e-002

1.45397251732031e+004,-2.15435019198249e+000,-1.47696296743946e-002

1.47426921729110e+004,-2.15435019076795e+000,-1.49758060234330e-002

1.49484924863494e+004,-2.15435018951939e+000,-1.51848604861358e-002

1.51571656651040e+004,-2.15435018823583e+000,-1.53968332397953e-002

1.53687518128801e+004,-2.15435018691591e+000,-1.56117650245895e-002

1.55832915932100e+004,-2.15435018555896e+000,-1.58296971449465e-002

1.58008262372675e+004,-2.15435018416400e+000,-1.60506714837006e-002

1.60213975517924e+004,-2.15435018273022e+000,-1.62747305064621e-002

1.62450479271247e+004,-2.15435018125543e+000,-1.65019172811739e-002

1.64718203453514e+004,-2.15435017973936e+000,-1.67322754639668e-002

1.67017583885674e+004,-2.15435017818101e+000,-1.69658493252123e-002

1.69349062472505e+004,-2.15435017657851e+000,-1.72026837582663e-002

1.71713087287550e+004,-2.15435017493101e+000,-1.74428242763424e-002

1.74110112659224e+004,-2.15435017323720e+000,-1.76863170313009e-002

1.76540599258131e+004,-2.15435017149595e+000,-1.79332088172111e-002

1.79005014185594e+004,-2.15435016970555e+000,-1.81835470856033e-002

1.81503831063432e+004,-2.15435016786495e+000,-1.84373799449342e-002

1.84037530124975e+004,-2.15435016597235e+000,-1.86947561807669e-002

1.86606598307361e+004,-2.15435016402699e+000,-1.89557252522046e-002

1.89211529345119e+004,-2.15435016202662e+000,-1.92203373181960e-002

1.91852823865052e+004,-2.15435015996977e+000,-1.94886432326841e-002

1.94530989482457e+004,-2.15435015785550e+000,-1.97606945557059e-002

1.97246540898671e+004,-2.15435015568170e+000,-2.00365435741760e-002

1.99999999999999e+004,-2.15435015344668e+000,-2.03162433022862e-002

2.02791895958005e+004,-2.15435015114921e+000,-2.05998474907520e-002

2.05622765331213e+004,-2.15435014878654e+000,-2.08874106502173e-002

2.08493152168224e+004,-2.15435014635810e+000,-2.11789880375490e-002

2.11403608112276e+004,-2.15435014386064e+000,-2.14746356985543e-002

2.14354692507258e+004,-2.15435014129359e+000,-2.17744104433563e-002

2.17346972505211e+004,-2.15435013865401e+000,-2.20783698900335e-002

2.20381023175322e+004,-2.15435013594056e+000,-2.23865724504168e-002

2.23457427614443e+004,-2.15435013315058e+000,-2.26990773597232e-002

2.26576777059159e+004,-2.15435013028196e+000,-2.30159446767069e-002

2.29739670999406e+004,-2.15435012733322e+000,-2.33372352932990e-002

2.32946717293690e+004,-2.15435012430128e+000,-2.36630109617636e-002

2.36198532285905e+004,-2.15435012118396e+000,-2.39933342902463e-002

2.39495740923785e+004,-2.15435011797928e+000,-2.43282687590270e-002

2.42838976879009e+004,-2.15435011468435e+000,-2.46678787396615e-002

2.46228882668982e+004,-2.15435011129666e+000,-2.50122295002044e-002

2.49666109780322e+004,-2.15435010781409e+000,-2.53613872160045e-002

2.53151318794055e+004,-2.15435010423324e+000,-2.57154189945286e-002

2.56685179512580e+004,-2.15435010055203e+000,-2.60743928706219e-002

2.60268371088386e+004,-2.15435009676720e+000,-2.64383778364362e-002

2.63901582154578e+004,-2.15435009287602e+000,-2.68074438427299e-002

2.67585510957221e+004,-2.15435008887517e+000,-2.71816618207537e-002

2.71320865489533e+004,-2.15435008476220e+000,-2.75611036850457e-002

2.75108363627948e+004,-2.15435008053337e+000,-2.79458423617942e-002

2.78948733270080e+004,-2.15435007618581e+000,-2.83359517898850e-002

2.82842712474618e+004,-2.15435007171591e+000,-2.87315069435519e-002

2.86791049603164e+004,-2.15435006712027e+000,-2.91325838420448e-002

2.90794503464061e+004,-2.15435006239562e+000,-2.95392595645274e-002

2.94853843458219e+004,-2.15435005753790e+000,-2.99516122705441e-002

2.98969849726987e+004,-2.15435005254388e+000,-3.03697212043782e-002

3.03143313302078e+004,-2.15435004740942e+000,-3.07936667219384e-002

3.07375036257601e+004,-2.15435004213050e+000,-3.12235302997493e-002

3.11665831864199e+004,-2.15435003670327e+000,-3.16593945489337e-002

3.16016524745350e+004,-2.15435003112321e+000,-3.21013432386238e-002

3.20427951035848e+004,-2.15435002538658e+000,-3.25494613003069e-002

3.24900958542493e+004,-2.15435001948868e+000,-3.30038348576217e-002

3.29436406907028e+004,-2.15435001342470e+000,-3.34645512352284e-002

3.34035167771346e+004,-2.15435000719037e+000,-3.39316989738281e-002

3.38698124945009e+004,-2.15435000078076e+000,-3.44053678519888e-002

3.43426174575100e+004,-2.15434999419082e+000,-3.48856489029308e-002

3.48220225318448e+004,-2.15434998741580e+000,-3.53726344268996e-002

3.53081198516260e+004,-2.15434998045038e+000,-3.58664180155262e-002

3.58010028371187e+004,-2.15434997328877e+000,-3.63670945687881e-002

3.63007662126863e+004,-2.15434996592623e+000,-3.68747603046024e-002

3.68075060249948e+004,-2.15434995835663e+000,-3.73895127910655e-002

3.73213196614721e+004,-2.15434995057410e+000,-3.79114509556943e-002

3.78423058690237e+004,-2.15434994257275e+000,-3.84406751065266e-002

3.83705647730104e+004,-2.15434993434656e+000,-3.89772869513242e-002

3.89061978964912e+004,-2.15434992588907e+000,-3.95213896191711e-002

3.94493081797342e+004,-2.15434991719374e+000,-4.00730876784904e-002

3.99999999999998e+004,-2.15434990825388e+000,-4.06324871570000e-002

4.05583791916010e+004,-2.15434989906274e+000,-4.11996955616303e-002

4.11245530662425e+004,-2.15434988961349e+000,-4.17748218998298e-002

4.16986304336447e+004,-2.15434987989822e+000,-4.23579767054214e-002

4.22807216224550e+004,-2.15434986990994e+000,-4.29492720492608e-002

4.28709385014515e+004,-2.15434985964076e+000,-4.35488215700537e-002

4.34693945010421e+004,-2.15434984908306e+000,-4.41567404899829e-002

4.40762046350642e+004,-2.15434983822854e+000,-4.47731456429226e-002

4.46914855228886e+004,-2.15434982706863e+000,-4.53981554938080e-002

4.53153554118317e+004,-2.15434981559531e+000,-4.60318901561338e-002

4.59479341998812e+004,-2.15434980379906e+000,-4.66744714282435e-002

4.65893434587380e+004,-2.15434979167136e+000,-4.73260228006168e-002

4.72397064571810e+004,-2.15434977920271e+000,-4.79866694926899e-002

4.78991481847569e+004,-2.15434976638369e+000,-4.86565384692566e-002

4.85677953758016e+004,-2.15434975320406e+000,-4.93357584711047e-002

4.92457765337964e+004,-2.15434973965396e+000,-5.00244600319464e-002

4.99332219560642e+004,-2.15434972572279e+000,-5.07227755106439e-002

5.06302637588109e+004,-2.15434971140017e+000,-5.14308391105994e-002

5.13370359025159e+004,-2.15434969667466e+000,-5.21487869131444e-002

5.20536742176771e+004,-2.15434968153512e+000,-5.28767568956587e-002

5.27803164309155e+004,-2.15434966597014e+000,-5.36148889611177e-002

5.35171021914442e+004,-2.15434964996779e+000,-5.43633249669174e-002

5.42641730979066e+004,-2.15434963351533e+000,-5.51222087533486e-002

5.50216727255895e+004,-2.15434961660017e+000,-5.58916861657536e-002

5.57897466540159e+004,-2.15434959920968e+000,-5.66719050834343e-002

5.65685424949235e+004,-2.15434958132999e+000,-5.74630154555016e-002

5.73582099206328e+004,-2.15434956294795e+000,-5.82651693172626e-002

5.81589006928121e+004,-2.15434954404896e+000,-5.90785208332201e-002

5.89707686916437e+004,-2.15434952461861e+000,-5.99032263160123e-002

5.97939699453972e+004,-2.15434950464209e+000,-6.07394442605273e-002

6.06286626604156e+004,-2.15434948410411e+000,-6.15873353744810e-002

6.14750072515201e+004,-2.15434946298842e+000,-6.24470626121526e-002

6.23331663728396e+004,-2.15434944127918e+000,-6.33187911973281e-002

6.32033049490698e+004,-2.15434941895966e+000,-6.42026886630611e-002

6.40855902071694e+004,-2.15434939601261e+000,-6.50989248813554e-002

6.49801917084985e+004,-2.15434937242059e+000,-6.60076720933794e-002

6.58872813814055e+004,-2.15434934816529e+000,-6.69291049476932e-002

6.68070335542691e+004,-2.15434932322791e+000,-6.78634005301073e-002

6.77396249890018e+004,-2.15434929758951e+000,-6.88107383963281e-002

6.86852349150199e+004,-2.15434927123030e+000,-6.97713006107591e-002

6.96440450636895e+004,-2.15434924413006e+000,-7.07452717783415e-002

7.06162397032520e+004,-2.15434921626779e+000,-7.17328390820459e-002

7.16020056742374e+004,-2.15434918762245e+000,-7.27341923146172e-002

7.26015324253724e+004,-2.15434915817169e+000,-7.37495239229857e-002

7.36150120499896e+004,-2.15434912789298e+000,-7.47790290373453e-002

7.46426393229441e+004,-2.15434909676290e+000,-7.58229055136572e-002

7.56846117380472e+004,-2.15434906475774e+000,-7.68813539674952e-002

7.67411295460207e+004,-2.15434903185264e+000,-7.79545778179588e-002

7.78123957929823e+004,-2.15434899802271e+000,-7.90427833194952e-002

7.88986163594682e+004,-2.15434896324157e+000,-8.01461796106246e-002

7.99999999999995e+004,-2.15434892748246e+000,-8.12649787477329e-002

8.11167583832018e+004,-2.15434889071827e+000,-8.23993957440107e-002

8.22491061324848e+004,-2.15434885292043e+000,-8.35496486188765e-002

8.33972608672892e+004,-2.15434881405973e+000,-8.47159584345244e-002

8.45614432449099e+004,-2.15434877410681e+000,-8.58985493342581e-002

8.57418770029029e+004,-2.15434873303049e+000,-8.70976485969002e-002

8.69387890020841e+004,-2.15434869079937e+000,-8.83134866699246e-002

8.81524092701283e+004,-2.15434864738101e+000,-8.95462972185314e-002

8.93829710457770e+004,-2.15434860274197e+000,-9.07963171704860e-002

9.06307108236633e+004,-2.15434855684793e+000,-9.20637867602345e-002

9.18958683997622e+004,-2.15434850966362e+000,-9.33489495762411e-002

9.31786869174758e+004,-2.15434846115290e+000,-9.46520526062690e-002

9.44794129143618e+004,-2.15434841127838e+000,-9.59733462874547e-002

9.57982963695136e+004,-2.15434836000153e+000,-9.73130845534157e-002

9.71355907516031e+004,-2.15434830728316e+000,-9.86715248801645e-002

9.84915530675926e+004,-2.15434825308267e+000,-1.00048928339344e-001

9.98664439121282e+004,-2.15434819735841e+000,-1.01445559647052e-001

1.01260527517622e+005,-2.15434814006766e+000,-1.02861687213805e-001

1.02674071805032e+005,-2.15434808116609e+000,-1.04297583199718e-001

1.04107348435354e+005,-2.15434802060866e+000,-1.05753523560490e-001

1.05560632861831e+005,-2.15434795834858e+000,-1.07229788107278e-001

1.07034204382888e+005,-2.15434789433830e+000,-1.08726660553979e-001

1.08528346195813e+005,-2.15434782852834e+000,-1.10244428578653e-001

1.10043345451179e+005,-2.15434776086837e+000,-1.11783383871398e-001

1.11579493308032e+005,-2.15434769130609e+000,-1.13343822198010e-001

1.13137084989847e+005,-2.15434761978806e+000,-1.14926043451305e-001

1.14716419841265e+005,-2.15434754625955e+000,-1.16530351708486e-001

1.16317801385624e+005,-2.15434747066383e+000,-1.18157055295129e-001

1.17941537383287e+005,-2.15434739294276e+000,-1.19806466838694e-001

1.19587939890794e+005,-2.15434731303671e+000,-1.21478903331332e-001

1.21257325320831e+005,-2.15434723088427e+000,-1.23174686189788e-001

1.22950014503040e+005,-2.15434714642206e+000,-1.24894141319831e-001

1.24666332745679e+005,-2.15434705958540e+000,-1.26637599173112e-001

1.26406609898139e+005,-2.15434697030751e+000,-1.28405394816666e-001

1.28171180414339e+005,-2.15434687851951e+000,-1.30197867995688e-001

1.29960383416997e+005,-2.15434678415111e+000,-1.32015363195754e-001

1.31774562762811e+005,-2.15434668712964e+000,-1.33858229712592e-001

1.33614067108538e+005,-2.15434658738051e+000,-1.35726821718377e-001

1.35479249978003e+005,-2.15434648482715e+000,-1.37621498327689e-001

1.37370469830040e+005,-2.15434637939044e+000,-1.39542623671318e-001

1.39288090127379e+005,-2.15434627098967e+000,-1.41490566959155e-001

1.41232479406504e+005,-2.15434615954122e+000,-1.43465702558984e-001

1.43204011348474e+005,-2.15434604495969e+000,-1.45468410061159e-001

1.45203064850745e+005,-2.15434592715665e+000,-1.47499074358658e-001

1.47230024099979e+005,-2.15434580604191e+000,-1.49558085713621e-001

1.49285278645888e+005,-2.15434568152215e+000,-1.51645839838528e-001

1.51369223476094e+005,-2.15434555350152e+000,-1.53762737970772e-001

1.53482259092041e+005,-2.15434542188190e+000,-1.55909186945151e-001

1.55624791585964e+005,-2.15434528656193e+000,-1.58085599279250e-001

1.57797232718936e+005,-2.15434514743757e+000,-1.60292393248048e-001

1.59999999999999e+005,-2.15434500440183e+000,-1.62529992966044e-001

1.62233516766403e+005,-2.15434485734497e+000,-1.64798828465912e-001

1.64498212264969e+005,-2.15434470615374e+000,-1.67099335786570e-001

1.66794521734578e+005,-2.15434455071196e+000,-1.69431957052548e-001

1.69122886489819e+005,-2.15434439090010e+000,-1.71797140560175e-001

1.71483754005805e+005,-2.15434422659529e+000,-1.74195340864348e-001

1.73877578004168e+005,-2.15434405767134e+000,-1.76627018864397e-001

1.76304818540256e+005,-2.15434388399830e+000,-1.79092641894649e-001

1.78765942091554e+005,-2.15434370544258e+000,-1.81592683813978e-001

1.81261421647326e+005,-2.15434352186712e+000,-1.84127625093647e-001

1.83791736799524e+005,-2.15434333313059e+000,-1.86697952915251e-001

1.86357373834951e+005,-2.15434313908802e+000,-1.89304161259017e-001

1.88958825828723e+005,-2.15434293959008e+000,-1.91946751002963e-001

1.91596592739027e+005,-2.15434273448356e+000,-1.94626230015302e-001

1.94271181503206e+005,-2.15434252361084e+000,-1.97343113254287e-001

1.96983106135185e+005,-2.15434230680956e+000,-2.00097922869217e-001

1.99732887824256e+005,-2.15434208391326e+000,-2.02891188295344e-001

2.02521055035243e+005,-2.15434185475054e+000,-2.05723446360405e-001

2.05348143610063e+005,-2.15434161914513e+000,-2.08595241386536e-001

2.08214696870707e+005,-2.15434137691611e+000,-2.11507125292501e-001

2.11121265723661e+005,-2.15434112787700e+000,-2.14459657705017e-001

2.14068408765776e+005,-2.15434087183660e+000,-2.17453406059588e-001

2.17056692391625e+005,-2.15434060859786e+000,-2.20488945715795e-001

2.20086690902357e+005,-2.15434033795861e+000,-2.23566860063051e-001

2.23158986616063e+005,-2.15434005971055e+000,-2.26687740637298e-001

2.26274169979693e+005,-2.15433977363994e+000,-2.29852187229557e-001

2.29432839682530e+005,-2.15433947952695e+000,-2.33060808004952e-001

2.32635602771247e+005,-2.15433917714528e+000,-2.36314219619416e-001

2.35883074766574e+005,-2.15433886626261e+000,-2.39613047335989e-001

2.39175879781588e+005,-2.15433854663985e+000,-2.42957925147818e-001

2.42514650641661e+005,-2.15433821803140e+000,-2.46349495896859e-001

2.45900029006080e+005,-2.15433788018447e+000,-2.49788411400845e-001

2.49332665491357e+005,-2.15433753283948e+000,-2.53275332575555e-001

2.52813219796278e+005,-2.15433717572933e+000,-2.56810929563917e-001

2.56342360828676e+005,-2.15433680857957e+000,-2.60395881863354e-001

2.59920766833993e+005,-2.15433643110774e+000,-2.64030878458597e-001

2.63549125525621e+005,-2.15433604302398e+000,-2.67716617949823e-001

2.67228134217075e+005,-2.15433564402971e+000,-2.71453808692893e-001

2.70958499956006e+005,-2.15433523381830e+000,-2.75243168930281e-001

2.74740939660078e+005,-2.15433481207429e+000,-2.79085426932581e-001

2.78576180254757e+005,-2.15433437847365e+000,-2.82981321135067e-001

2.82464958813007e+005,-2.15433393268284e+000,-2.86931600284550e-001

2.86408022696948e+005,-2.15433347435937e+000,-2.90937023577239e-001

2.90406129701488e+005,-2.15433300315065e+000,-2.94998360811398e-001

2.94460048199957e+005,-2.15433251869466e+000,-2.99116392528448e-001

2.98570557291775e+005,-2.15433202061888e+000,-3.03291910168325e-001

3.02738446952187e+005,-2.15433150854031e+000,-3.07525716219862e-001

3.06964518184081e+005,-2.15433098206544e+000,-3.11818624373138e-001

3.11249583171928e+005,-2.15433044078964e+000,-3.16171459678087e-001

3.15594465437872e+005,-2.15432988429650e+000,-3.20585058704551e-001

3.19999999999997e+005,-2.15432931215845e+000,-3.25060269698516e-001

3.24467033532806e+005,-2.15432872393549e+000,-3.29597952749866e-001

3.28996424529938e+005,-2.15432811917565e+000,-3.34198979953234e-001

3.33589043469155e+005,-2.15432749741387e+000,-3.38864235580520e-001

3.38245772979638e+005,-2.15432685817211e+000,-3.43594616247661e-001

3.42967508011610e+005,-2.15432620095907e+000,-3.48391031086783e-001

3.47755156008335e+005,-2.15432552526946e+000,-3.53254401923029e-001

3.52609637080511e+005,-2.15432483058393e+000,-3.58185663449646e-001

3.57531884183106e+005,-2.15432411636840e+000,-3.63185763409810e-001

3.62522843294651e+005,-2.15432338207371e+000,-3.68255662777514e-001

3.67583473599047e+005,-2.15432262713560e+000,-3.73396335941237e-001

3.72714747669902e+005,-2.15432185097354e+000,-3.78608770894180e-001

3.77917651657445e+005,-2.15432105299098e+000,-3.83893969421473e-001

3.83193185478053e+005,-2.15432023257435e+000,-3.89252947294781e-001

3.88542363006410e+005,-2.15431938909305e+000,-3.94686734465905e-001

3.93966212270369e+005,-2.15431852189858e+000,-4.00196375265839e-001

3.99465775648511e+005,-2.15431763032445e+000,-4.05782928604645e-001

4.05042110070485e+005,-2.15431671368510e+000,-4.11447468177020e-001

4.10696287220124e+005,-2.15431577127599e+000,-4.17191082665991e-001

4.16429393741414e+005,-2.15431480237265e+000,-4.23014875953857e-001

4.22242531447321e+005,-2.15431380623027e+000,-4.28919967334526e-001

4.28136817531551e+005,-2.15431278208300e+000,-4.34907491728471e-001

4.34113384783250e+005,-2.15431172914352e+000,-4.40978599901029e-001

4.40173381804713e+005,-2.15431064660263e+000,-4.47134458681440e-001

4.46317973232124e+005,-2.15430953362786e+000,-4.53376251192394e-001

4.52548339959385e+005,-2.15430838936391e+000,-4.59705177071035e-001

4.58865679365059e+005,-2.15430721293088e+000,-4.66122452706040e-001

4.65271205542494e+005,-2.15430600342468e+000,-4.72629311465301e-001

4.71766149533147e+005,-2.15430475991538e+000,-4.79227003938475e-001

4.78351759563174e+005,-2.15430348144710e+000,-4.85916798174463e-001

4.85029301283321e+005,-2.15430216703700e+000,-4.92699979925586e-001

4.91800058012158e+005,-2.15430081567480e+000,-4.99577852894888e-001

4.98665330982714e+005,-2.15429942632156e+000,-5.06551738988072e-001

5.05626439592555e+005,-2.15429799790931e+000,-5.13622978565884e-001

5.12684721657352e+005,-2.15429652934011e+000,-5.20792930702446e-001

5.19841533667984e+005,-2.15429501948488e+000,-5.28062973448149e-001

5.27098251051240e+005,-2.15429346718306e+000,-5.35434504092037e-001

5.34456268434150e+005,-2.15429187124144e+000,-5.42908939432394e-001

5.41916999912011e+005,-2.15429023043311e+000,-5.50487716049043e-001

