Freq.,VOut,OutRef

1.00000000000000e+004,-8.59795455511203e+000,-1.15057565629164e-001

1.01395947979003e+004,-8.59795444637906e+000,-1.16663710093146e-001

1.02811382665607e+004,-8.59795433458942e+000,-1.18292275526832e-001

1.04246576084112e+004,-8.59795421965672e+000,-1.19943574919036e-001

1.05701804056138e+004,-8.59795410149301e+000,-1.21617925623132e-001

1.07177346253629e+004,-8.59795398000722e+000,-1.23315649425982e-001

1.08673486252606e+004,-8.59795385510595e+000,-1.25037072605552e-001

1.10190511587661e+004,-8.59795372669338e+000,-1.26782525992958e-001

1.11728713807222e+004,-8.59795359467047e+000,-1.28552345040860e-001

1.13288388529580e+004,-8.59795345893589e+000,-1.30346869882020e-001

1.14869835499703e+004,-8.59795331938542e+000,-1.32166445397137e-001

1.16473358646846e+004,-8.59795317591155e+000,-1.34011421283936e-001

1.18099266142953e+004,-8.59795302840412e+000,-1.35882152119220e-001

1.19747870461893e+004,-8.59795287674978e+000,-1.37778997430215e-001

1.21419488439505e+004,-8.59795272083179e+000,-1.39702321764591e-001

1.23114441334492e+004,-8.59795256053030e+000,-1.41652494757781e-001

1.24833054890161e+004,-8.59795239572222e+000,-1.43629891203996e-001

1.26575659397028e+004,-8.59795222628080e+000,-1.45634891131424e-001

1.28342589756290e+004,-8.59795205207575e+000,-1.47667879872689e-001

1.30134185544193e+004,-8.59795187297302e+000,-1.49729248140230e-001

1.31950791077289e+004,-8.59795168883512e+000,-1.51819392098981e-001

1.33792755478611e+004,-8.59795149952044e+000,-1.53938713445457e-001

1.35660432744767e+004,-8.59795130488328e+000,-1.56087619484820e-001

1.37554181813974e+004,-8.59795110477427e+000,-1.58266523204930e-001

1.39474366635040e+004,-8.59795089903938e+000,-1.60475843362385e-001

1.41421356237309e+004,-8.59795068752049e+000,-1.62716004557465e-001

1.43395524801583e+004,-8.59795047005509e+000,-1.64987437317818e-001

1.45397251732031e+004,-8.59795024647582e+000,-1.67290578182819e-001

1.47426921729110e+004,-8.59795001661098e+000,-1.69625869783267e-001

1.49484924863494e+004,-8.59794978028373e+000,-1.71993760931622e-001

1.51571656651040e+004,-8.59794953731247e+000,-1.74394706703754e-001

1.53687518128801e+004,-8.59794928751031e+000,-1.76829168529757e-001

1.55832915932100e+004,-8.59794903068533e+000,-1.79297614279736e-001

1.58008262372675e+004,-8.59794876664000e+000,-1.81800518356715e-001

1.60213975517924e+004,-8.59794849517134e+000,-1.84338361785484e-001

1.62450479271247e+004,-8.59794821607084e+000,-1.86911632304766e-001

1.64718203453514e+004,-8.59794792912367e+000,-1.89520824465036e-001

1.67017583885674e+004,-8.59794763410939e+000,-1.92166439717852e-001

1.69349062472505e+004,-8.59794733080115e+000,-1.94848986516488e-001

1.71713087287550e+004,-8.59794701896572e+000,-1.97568980412372e-001

1.74110112659224e+004,-8.59794669836346e+000,-2.00326944152177e-001

1.76540599258131e+004,-8.59794636874789e+000,-2.03123407781782e-001

1.79005014185594e+004,-8.59794602986558e+000,-2.05958908746455e-001

1.81503831063432e+004,-8.59794568145614e+000,-2.08833991992609e-001

1.84037530124975e+004,-8.59794532325151e+000,-2.11749210076728e-001

1.86606598307361e+004,-8.59794495497647e+000,-2.14705123266514e-001

1.89211529345119e+004,-8.59794457634790e+000,-2.17702299652159e-001

1.91852823865052e+004,-8.59794418707450e+000,-2.20741315255531e-001

1.94530989482457e+004,-8.59794378685741e+000,-2.23822754136135e-001

1.97246540898671e+004,-8.59794337538857e+000,-2.26947208512018e-001

1.99999999999999e+004,-8.59794295235199e+000,-2.30115278863640e-001

2.02791895958005e+004,-8.59794251742206e+000,-2.33327574059405e-001

2.05622765331213e+004,-8.59794207026482e+000,-2.36584711462031e-001

2.08493152168224e+004,-8.59794161053627e+000,-2.39887317057480e-001

2.11403608112276e+004,-8.59794113788313e+000,-2.43236025567245e-001

2.14354692507258e+004,-8.59794065194193e+000,-2.46631480576106e-001

2.17346972505211e+004,-8.59794015233924e+000,-2.50074334651327e-001

2.20381023175322e+004,-8.59793963869072e+000,-2.53565249472672e-001

2.23457427614443e+004,-8.59793911060179e+000,-2.57104895953925e-001

2.26576777059159e+004,-8.59793856766618e+000,-2.60693954378660e-001

2.29739670999406e+004,-8.59793800946683e+000,-2.64333114523114e-001

2.32946717293690e+004,-8.59793743557440e+000,-2.68023075796804e-001

2.36198532285905e+004,-8.59793684554782e+000,-2.71764547371271e-001

2.39495740923785e+004,-8.59793623893352e+000,-2.75558248318450e-001

2.42838976879009e+004,-8.59793561526492e+000,-2.79404907750836e-001

2.46228882668982e+004,-8.59793497406290e+000,-2.83305264956114e-001

2.49666109780322e+004,-8.59793431483433e+000,-2.87260069545638e-001

2.53151318794055e+004,-8.59793363707241e+000,-2.91270081594830e-001

2.56685179512580e+004,-8.59793294025623e+000,-2.95336071789140e-001

2.60268371088386e+004,-8.59793222384998e+000,-2.99458821574896e-001

2.63901582154578e+004,-8.59793148730295e+000,-3.03639123306947e-001

2.67585510957221e+004,-8.59793073004908e+000,-3.07877780400719e-001

2.71320865489533e+004,-8.59792995150594e+000,-3.12175607490765e-001

2.75108363627948e+004,-8.59792915107532e+000,-3.16533430581010e-001

2.78948733270080e+004,-8.59792832814169e+000,-3.20952087209734e-001

2.82842712474618e+004,-8.59792748207242e+000,-3.25432426606721e-001

2.86791049603164e+004,-8.59792661221724e+000,-3.29975309856932e-001

2.90794503464061e+004,-8.59792571790736e+000,-3.34581610067792e-001

2.94853843458219e+004,-8.59792479845517e+000,-3.39252212536440e-001

2.98969849726987e+004,-8.59792385315399e+000,-3.43988014917848e-001

3.03143313302078e+004,-8.59792288127707e+000,-3.48789927400374e-001

3.07375036257601e+004,-8.59792188207729e+000,-3.53658872878849e-001

3.11665831864199e+004,-8.59792085478654e+000,-3.58595787132974e-001

3.16016524745350e+004,-8.59791979861503e+000,-3.63601619006939e-001

3.20427951035848e+004,-8.59791871275095e+000,-3.68677330590793e-001

3.24900958542493e+004,-8.59791759635950e+000,-3.73823897407631e-001

3.29436406907028e+004,-8.59791644858231e+000,-3.79042308600275e-001

3.34035167771346e+004,-8.59791526853714e+000,-3.84333567120094e-001

3.38698124945009e+004,-8.59791405531698e+000,-3.89698689920127e-001

3.43426174575100e+004,-8.59791280798890e+000,-3.95138708154403e-001

3.48220225318448e+004,-8.59791152559436e+000,-4.00654667369416e-001

3.53081198516260e+004,-8.59791020714713e+000,-4.06247627712946e-001

3.58010028371187e+004,-8.59790885163406e+000,-4.11918664129931e-001

3.63007662126863e+004,-8.59790745801298e+000,-4.17668866575711e-001

3.68075060249948e+004,-8.59790602521243e+000,-4.23499340223509e-001

3.73213196614721e+004,-8.59790455213101e+000,-4.29411205675132e-001

3.78423058690237e+004,-8.59790303763638e+000,-4.35405599177909e-001

3.83705647730104e+004,-8.59790148056437e+000,-4.41483672843383e-001

3.89061978964912e+004,-8.59789987971790e+000,-4.47646594869267e-001

3.94493081797342e+004,-8.59789823386637e+000,-4.53895549762942e-001

3.99999999999998e+004,-8.59789654174455e+000,-4.60231738570069e-001

4.05583791916010e+004,-8.59789480205167e+000,-4.66656379105155e-001

4.11245530662425e+004,-8.59789301345033e+000,-4.73170706186004e-001

4.16986304336447e+004,-8.59789117456570e+000,-4.79775971870710e-001

4.22807216224550e+004,-8.59788928398407e+000,-4.86473445699815e-001

4.28709385014515e+004,-8.59788734025217e+000,-4.93264414938447e-001

4.34693945010421e+004,-8.59788534187583e+000,-5.00150184825728e-001

4.40762046350642e+004,-8.59788328731883e+000,-5.07132078824953e-001

4.46914855228886e+004,-8.59788117500177e+000,-5.14211438878642e-001

4.53153554118317e+004,-8.59787900330081e+000,-5.21389625666383e-001

4.59479341998812e+004,-8.59787677054671e+000,-5.28668018865056e-001

4.65893434587380e+004,-8.59787447502295e+000,-5.36048017418239e-001

4.72397064571810e+004,-8.59787211496507e+000,-5.43531039800315e-001

4.78991481847569e+004,-8.59786968855881e+000,-5.51118524293875e-001

4.85677953758016e+004,-8.59786719393888e+000,-5.58811929263401e-001

4.92457765337964e+004,-8.59786462918778e+000,-5.66612733436678e-001

4.99332219560642e+004,-8.59786199233383e+000,-5.74522436190323e-001

5.06302637588109e+004,-8.59785928135030e+000,-5.82542557835456e-001

5.13370359025159e+004,-8.59785649415304e+000,-5.90674639914608e-001

5.20536742176771e+004,-8.59785362859960e+000,-5.98920245494396e-001

5.27803164309155e+004,-8.59785068248719e+000,-6.07280959468063e-001

5.35171021914442e+004,-8.59784765355132e+000,-6.15758388859060e-001

5.42641730979066e+004,-8.59784453946343e+000,-6.24354163133452e-001

5.50216727255895e+004,-8.59784133782997e+000,-6.33069934509424e-001

5.57897466540159e+004,-8.59783804618968e+000,-6.41907378278394e-001

5.65685424949235e+004,-8.59783466201243e+000,-6.50868193125615e-001

5.73582099206328e+004,-8.59783118269689e+000,-6.59954101457690e-001

5.81589006928121e+004,-8.59782760556858e+000,-6.69166849733709e-001

5.89707686916437e+004,-8.59782392787770e+000,-6.78508208803468e-001

5.97939699453972e+004,-8.59782014679744e+000,-6.87979974244319e-001

6.06286626604156e+004,-8.59781625942135e+000,-6.97583966710544e-001

6.14750072515201e+004,-8.59781226276132e+000,-7.07322032281714e-001

6.23331663728396e+004,-8.59780815374523e+000,-7.17196042819211e-001

6.32033049490698e+004,-8.59780392921463e+000,-7.27207896325999e-001

6.40855902071694e+004,-8.59779958592227e+000,-7.37359517311836e-001

6.49801917084985e+004,-8.59779512052972e+000,-7.47652857164106e-001

6.58872813814055e+004,-8.59779052960449e+000,-7.58089894524478e-001

6.68070335542691e+004,-8.59778580961801e+000,-7.68672635666828e-001

6.77396249890018e+004,-8.59778095694197e+000,-7.79403114888977e-001

6.86852349150199e+004,-8.59777596784659e+000,-7.90283394897821e-001

6.96440450636895e+004,-8.59777083849703e+000,-8.01315567212032e-001

7.06162397032520e+004,-8.59776556495061e+000,-8.12501752562520e-001

7.16020056742374e+004,-8.59776014315390e+000,-8.23844101300902e-001

7.26015324253724e+004,-8.59775456893970e+000,-8.35344793813368e-001

7.36150120499896e+004,-8.59774883802337e+000,-8.47006040942377e-001

7.46426393229441e+004,-8.59774294600005e+000,-8.58830084411494e-001

7.56846117380472e+004,-8.59773688834111e+000,-8.70819197255954e-001

7.67411295460207e+004,-8.59773066039046e+000,-8.82975684263561e-001

7.78123957929823e+004,-8.59772425736129e+000,-8.95301882416354e-001

7.88986163594682e+004,-8.59771767433225e+000,-9.07800161341425e-001

7.99999999999995e+004,-8.59771090624356e+000,-9.20472923769095e-001

8.11167583832018e+004,-8.59770394789343e+000,-9.33322605993210e-001

8.22491061324848e+004,-8.59769679393363e+000,-9.46351678343949e-001

8.33972608672892e+004,-8.59768943886588e+000,-9.59562645660842e-001

8.45614432449099e+004,-8.59768187703711e+000,-9.72958047778842e-001

8.57418770029029e+004,-8.59767410263563e+000,-9.86540460014727e-001

8.69387890020841e+004,-8.59766610968618e+000,-1.00031249366648e+000

8.81524092701283e+004,-8.59765789204584e+000,-1.01427679651433e+000

8.93829710457770e+004,-8.59764944339882e+000,-1.02843605333396e+000

9.06307108236633e+004,-8.59764075725190e+000,-1.04279298641234e+000

9.18958683997622e+004,-8.59763182692946e+000,-1.05735035607335e+000

9.31786869174758e+004,-8.59762264556825e+000,-1.07211096121034e+000

9.44794129143618e+004,-8.59761320611213e+000,-1.08707763982606e+000

9.57982963695136e+004,-8.59760350130669e+000,-1.10225326958055e+000

9.71355907516031e+004,-8.59759352369355e+000,-1.11764076834627e+000

9.84915530675926e+004,-8.59758326560499e+000,-1.13324309477040e+000

9.98664439121282e+004,-8.59757271915754e+000,-1.14906324884740e+000

1.01260527517622e+005,-8.59756187624645e+000,-1.16510427249681e+000

1.02674071805032e+005,-8.59755072853905e+000,-1.18136925015103e+000

1.04107348435354e+005,-8.59753926746868e+000,-1.19786130935068e+000

1.05560632861831e+005,-8.59752748422777e+000,-1.21458362134961e+000

1.07034204382888e+005,-8.59751536976147e+000,-1.23153940172538e+000

1.08528346195813e+005,-8.59750291476038e+000,-1.24873191100189e+000

1.10043345451179e+005,-8.59749010965358e+000,-1.26616445527895e+000

1.11579493308032e+005,-8.59747694460131e+000,-1.28384038687040e+000

1.13137084989847e+005,-8.59746340948711e+000,-1.30176310495370e+000

1.14716419841265e+005,-8.59744949391052e+000,-1.31993605622440e+000

1.16317801385624e+005,-8.59743518717881e+000,-1.33836273556422e+000

1.17941537383287e+005,-8.59742047829876e+000,-1.35704668671638e+000

1.19587939890794e+005,-8.59740535596844e+000,-1.37599150297005e+000

1.21257325320831e+005,-8.59738980856827e+000,-1.39520082785661e+000

1.22950014503040e+005,-8.59737382415224e+000,-1.41467835585363e+000

1.24666332745679e+005,-8.59735739043884e+000,-1.43442783309935e+000

1.26406609898139e+005,-8.59734049480148e+000,-1.45445305811805e+000

1.28171180414339e+005,-8.59732312425888e+000,-1.47475788255542e+000

1.29960383416997e+005,-8.59730526546511e+000,-1.49534621192375e+000

1.31774562762811e+005,-8.59728690469933e+000,-1.51622200635813e+000

1.33614067108538e+005,-8.59726802785522e+000,-1.53738928138417e+000

1.35479249978003e+005,-8.59724862043035e+000,-1.55885210869454e+000

1.37370469830040e+005,-8.59722866751491e+000,-1.58061461693818e+000

1.39288090127379e+005,-8.59720815378027e+000,-1.60268099252129e+000

1.41232479406504e+005,-8.59718706346721e+000,-1.62505548041829e+000

1.43204011348474e+005,-8.59716538037404e+000,-1.64774238499418e+000

1.45203064850745e+005,-8.59714308784388e+000,-1.67074607084031e+000

1.47230024099979e+005,-8.59712016875215e+000,-1.69407096362005e+000

1.49285278645888e+005,-8.59709660549337e+000,-1.71772155092816e+000

1.51369223476094e+005,-8.59707237996749e+000,-1.74170238316209e+000

1.53482259092041e+005,-8.59704747356634e+000,-1.76601807440406e+000

1.55624791585964e+005,-8.59702186715910e+000,-1.79067330331793e+000

1.57797232718936e+005,-8.59699554107783e+000,-1.81567281405825e+000

1.59999999999999e+005,-8.59696847510229e+000,-1.84102141719139e+000

1.62233516766403e+005,-8.59694064844439e+000,-1.86672399063106e+000

1.64498212264969e+005,-8.59691203973261e+000,-1.89278548058578e+000

1.66794521734578e+005,-8.59688262699510e+000,-1.91921090252264e+000

1.69122886489819e+005,-8.59685238764342e+000,-1.94600534214046e+000

1.71483754005805e+005,-8.59682129845472e+000,-1.97317395636251e+000

1.73877578004168e+005,-8.59678933555441e+000,-2.00072197433767e+000

1.76304818540256e+005,-8.59675647439753e+000,-2.02865469846101e+000

1.78765942091554e+005,-8.59672268975032e+000,-2.05697750540510e+000

1.81261421647326e+005,-8.59668795567051e+000,-2.08569584716949e+000

1.83791736799524e+005,-8.59665224548777e+000,-2.11481525214284e+000

1.86357373834951e+005,-8.59661553178329e+000,-2.14434132618066e+000

1.88958825828723e+005,-8.59657778636852e+000,-2.17427975370102e+000

1.91596592739027e+005,-8.59653898026403e+000,-2.20463629879235e+000

1.94271181503206e+005,-8.59649908367703e+000,-2.23541680633997e+000

1.96983106135185e+005,-8.59645806597871e+000,-2.26662720316872e+000

1.99732887824256e+005,-8.59641589568081e+000,-2.29827349920030e+000

2.02521055035243e+005,-8.59637254041156e+000,-2.33036178862969e+000

2.05348143610063e+005,-8.59632796689097e+000,-2.36289825111677e+000

2.08214696870707e+005,-8.59628214090526e+000,-2.39588915299690e+000

2.11121265723661e+005,-8.59623502728093e+000,-2.42934084850756e+000

2.14068408765776e+005,-8.59618658985770e+000,-2.46325978103380e+000

2.17056692391625e+005,-8.59613679146106e+000,-2.49765248437171e+000

2.20086690902357e+005,-8.59608559387378e+000,-2.53252558401019e+000

2.23158986616063e+005,-8.59603295780677e+000,-2.56788579843116e+000

2.26274169979693e+005,-8.59597884286898e+000,-2.60373994043035e+000

2.29432839682530e+005,-8.59592320753684e+000,-2.64009491845425e+000

2.32635602771247e+005,-8.59586600912230e+000,-2.67695773796017e+000

2.35883074766574e+005,-8.59580720374049e+000,-2.71433550279398e+000

2.39175879781588e+005,-8.59574674627598e+000,-2.75223541658978e+000

2.42514650641661e+005,-8.59568459034872e+000,-2.79066478418799e+000

2.45900029006080e+005,-8.59562068827845e+000,-2.82963101307636e+000

2.49332665491357e+005,-8.59555499104838e+000,-2.86914161485190e+000

2.52813219796278e+005,-8.59548744826801e+000,-2.90920420670291e+000

2.56342360828676e+005,-8.59541800813453e+000,-2.94982651291541e+000

2.59920766833993e+005,-8.59534661739350e+000,-2.99101636640018e+000

2.63549125525621e+005,-8.59527322129830e+000,-3.03278171024195e+000

2.67228134217075e+005,-8.59519776356843e+000,-3.07513059927466e+000

2.70958499956006e+005,-8.59512018634668e+000,-3.11807120167650e+000

2.74740939660078e+005,-8.59504043015521e+000,-3.16161180059083e+000

2.78576180254757e+005,-8.59495843385018e+000,-3.20576079577192e+000

2.82464958813007e+005,-8.59487413457538e+000,-3.25052670525312e+000

2.86408022696948e+005,-8.59478746771434e+000,-3.29591816704259e+000

2.90406129701488e+005,-8.59469836684159e+000,-3.34194394084183e+000

2.94460048199957e+005,-8.59460676367161e+000,-3.38861290979378e+000

2.98570557291775e+005,-8.59451258800756e+000,-3.43593408225320e+000

3.02738446952187e+005,-8.59441576768773e+000,-3.48391659358674e+000

3.06964518184081e+005,-8.59431622853083e+000,-3.53256970799946e+000

3.11249583171928e+005,-8.59421389427973e+000,-3.58190282038891e+000

3.15594465437872e+005,-8.59410868654368e+000,-3.63192545822772e+000

3.19999999999997e+005,-8.59400052473905e+000,-3.68264728347392e+000

3.24467033532806e+005,-8.59388932602794e+000,-3.73407809451315e+000

3.28996424529938e+005,-8.59377500525582e+000,-3.78622782812704e+000

3.33589043469155e+005,-8.59365747488685e+000,-3.83910656149526e+000

3.38245772979638e+005,-8.59353664493789e+000,-3.89272451422547e+000

3.42967508011610e+005,-8.59341242291024e+000,-3.94709205041713e+000

3.47755156008335e+005,-8.59328471371990e+000,-4.00221968075544e+000

3.52609637080511e+005,-8.59315341962553e+000,-4.05811806463957e+000

3.57531884183106e+005,-8.59301844015508e+000,-4.11479801234123e+000

3.62522843294651e+005,-8.59287967202943e+000,-4.17227048720078e+000

3.67583473599047e+005,-8.59273700908498e+000,-4.23054660785403e+000

3.72714747669902e+005,-8.59259034219334e+000,-4.28963765049648e+000

3.77917651657445e+005,-8.59243955917922e+000,-4.34955505118192e+000

3.83193185478053e+005,-8.59228454473597e+000,-4.41031040815839e+000

3.88542363006410e+005,-8.59212518033882e+000,-4.47191548423981e+000

3.93966212270369e+005,-8.59196134415568e+000,-4.53438220921688e+000

3.99465775648511e+005,-8.59179291095579e+000,-4.59772268230431e+000

4.05042110070485e+005,-8.59161975201540e+000,-4.66194917462948e+000

4.10696287220124e+005,-8.59144173502130e+000,-4.72707413176029e+000

4.16429393741414e+005,-8.59125872397165e+000,-4.79311017627184e+000

4.22242531447321e+005,-8.59107057907394e+000,-4.86007011035765e+000

4.28136817531551e+005,-8.59087715664029e+000,-4.92796691848116e+000

4.34113384783250e+005,-8.59067830898009e+000,-4.99681377007081e+000

4.40173381804713e+005,-8.59047388428937e+000,-5.06662402225892e+000

4.46317973232124e+005,-8.59026372653747e+000,-5.13741122266649e+000

4.52548339959385e+005,-8.59004767535054e+000,-5.20918911223272e+000

4.58865679365059e+005,-8.58982556589196e+000,-5.28197162809100e+000

4.65271205542494e+005,-8.58959722873940e+000,-5.35577290649423e+000

4.71766149533147e+005,-8.58936248975876e+000,-5.43060728578703e+000

4.78351759563174e+005,-8.58912116997469e+000,-5.50648930942815e+000

4.85029301283321e+005,-8.58887308543731e+000,-5.58343372906450e+000

4.91800058012158e+005,-8.58861804708596e+000,-5.66145550765583e+000

4.98665330982714e+005,-8.58835586060882e+000,-5.74056982265226e+000

5.05626439592555e+005,-8.58808632629887e+000,-5.82079206922750e+000

5.12684721657352e+005,-8.58780923890628e+000,-5.90213786356455e+000

5.19841533667984e+005,-8.58752438748646e+000,-5.98462304619994e+000

5.27098251051240e+005,-8.58723155524446e+000,-6.06826368542469e+000

5.34456268434150e+005,-8.58693051937492e+000,-6.15307608074444e+000

5.41916999912011e+005,-8.58662105089805e+000,-6.23907676639901e+000

