Freq.,VOut,OutRef

1.00000000000000e+004,-1.70966672632056e+001,-1.77138562056358e-001

1.01395947979003e+004,-1.70966674911620e+001,-1.79611322644657e-001

1.02811382665607e+004,-1.70966677255273e+001,-1.82118601615721e-001

1.04246576084112e+004,-1.70966679664814e+001,-1.84660880827452e-001

1.05701804056138e+004,-1.70966682142097e+001,-1.87238648860402e-001

1.07177346253629e+004,-1.70966684689024e+001,-1.89852401118405e-001

1.08673486252606e+004,-1.70966687307556e+001,-1.92502639918047e-001

1.10190511587661e+004,-1.70966689999705e+001,-1.95189874589490e-001

1.11728713807222e+004,-1.70966692767540e+001,-1.97914621572571e-001

1.13288388529580e+004,-1.70966695613189e+001,-2.00677404515754e-001

1.14869835499703e+004,-1.70966698538840e+001,-2.03478754377549e-001

1.16473358646846e+004,-1.70966701546743e+001,-2.06319209527484e-001

1.18099266142953e+004,-1.70966704639208e+001,-2.09199315851947e-001

1.19747870461893e+004,-1.70966707818613e+001,-2.12119626856195e-001

1.21419488439505e+004,-1.70966711087405e+001,-2.15080703770809e-001

1.23114441334492e+004,-1.70966714448094e+001,-2.18083115663341e-001

1.24833054890161e+004,-1.70966717903265e+001,-2.21127439542672e-001

1.26575659397028e+004,-1.70966721455573e+001,-2.24214260473977e-001

1.28342589756290e+004,-1.70966725107750e+001,-2.27344171688558e-001

1.30134185544193e+004,-1.70966728862603e+001,-2.30517774698783e-001

1.31950791077289e+004,-1.70966732723019e+001,-2.33735679413128e-001

1.33792755478611e+004,-1.70966736691966e+001,-2.36998504254541e-001

1.35660432744767e+004,-1.70966740772495e+001,-2.40306876277881e-001

1.37554181813974e+004,-1.70966744967742e+001,-2.43661431292939e-001

1.39474366635040e+004,-1.70966749280932e+001,-2.47062813982325e-001

1.41421356237309e+004,-1.70966753715384e+001,-2.50511678027943e-001

1.43395524801583e+004,-1.70966758274504e+001,-2.54008686239164e-001

1.45397251732031e+004,-1.70966762961797e+001,-2.57554510675046e-001

1.47426921729110e+004,-1.70966767780867e+001,-2.61149832776364e-001

1.49484924863494e+004,-1.70966772735420e+001,-2.64795343495647e-001

1.51571656651040e+004,-1.70966777829263e+001,-2.68491743432589e-001

1.53687518128801e+004,-1.70966783066313e+001,-2.72239742964266e-001

1.55832915932100e+004,-1.70966788450595e+001,-2.76040062384824e-001

1.58008262372675e+004,-1.70966793986250e+001,-2.79893432041932e-001

1.60213975517924e+004,-1.70966799677531e+001,-2.83800592480033e-001

1.62450479271247e+004,-1.70966805528817e+001,-2.87762294578158e-001

1.64718203453514e+004,-1.70966811544601e+001,-2.91779299700418e-001

1.67017583885674e+004,-1.70966817729513e+001,-2.95852379833905e-001

1.69349062472505e+004,-1.70966824088305e+001,-2.99982317746544e-001

1.71713087287550e+004,-1.70966830625865e+001,-3.04169907129001e-001

1.74110112659224e+004,-1.70966837347220e+001,-3.08415952753083e-001

1.76540599258131e+004,-1.70966844257537e+001,-3.12721270623359e-001

1.79005014185594e+004,-1.70966851362128e+001,-3.17086688135506e-001

1.81503831063432e+004,-1.70966858666455e+001,-3.21513044233382e-001

1.84037530124975e+004,-1.70966866176132e+001,-3.26001189573311e-001

1.86606598307361e+004,-1.70966873896934e+001,-3.30551986682889e-001

1.89211529345119e+004,-1.70966881834795e+001,-3.35166310132839e-001

1.91852823865052e+004,-1.70966889995818e+001,-3.39845046698794e-001

1.94530989482457e+004,-1.70966898386276e+001,-3.44589095536065e-001

1.97246540898671e+004,-1.70966907012620e+001,-3.49399368350777e-001

1.99999999999999e+004,-1.70966915881483e+001,-3.54276789574401e-001

2.02791895958005e+004,-1.70966924999679e+001,-3.59222296543819e-001

2.05622765331213e+004,-1.70966934374222e+001,-3.64236839676682e-001

2.08493152168224e+004,-1.70966944012315e+001,-3.69321382661281e-001

2.11403608112276e+004,-1.70966953921369e+001,-3.74476902633594e-001

2.14354692507258e+004,-1.70966964109002e+001,-3.79704390371419e-001

2.17346972505211e+004,-1.70966974583046e+001,-3.85004850480555e-001

2.20381023175322e+004,-1.70966985351552e+001,-3.90379301590551e-001

2.23457427614443e+004,-1.70966996422797e+001,-3.95828776549929e-001

2.26576777059159e+004,-1.70967007805295e+001,-4.01354322621720e-001

2.29739670999406e+004,-1.70967019507794e+001,-4.06957001689707e-001

2.32946717293690e+004,-1.70967031539291e+001,-4.12637890457587e-001

2.36198532285905e+004,-1.70967043909035e+001,-4.18398080659070e-001

2.39495740923785e+004,-1.70967056626537e+001,-4.24238679265593e-001

2.42838976879009e+004,-1.70967069701570e+001,-4.30160808701525e-001

2.46228882668982e+004,-1.70967083144188e+001,-4.36165607056096e-001

2.49666109780322e+004,-1.70967096964723e+001,-4.42254228305726e-001

2.53151318794055e+004,-1.70967111173801e+001,-4.48427842533104e-001

2.56685179512580e+004,-1.70967125782345e+001,-4.54687636152866e-001

2.60268371088386e+004,-1.70967140801585e+001,-4.61034812140258e-001

2.63901582154578e+004,-1.70967156243066e+001,-4.67470590261068e-001

2.67585510957221e+004,-1.70967172118659e+001,-4.73996207306541e-001

2.71320865489533e+004,-1.70967188440569e+001,-4.80612917330679e-001

2.75108363627948e+004,-1.70967205221342e+001,-4.87321991891392e-001

2.78948733270080e+004,-1.70967222473879e+001,-4.94124720294939e-001

2.82842712474618e+004,-1.70967240211441e+001,-5.01022409843041e-001

2.86791049603164e+004,-1.70967258447664e+001,-5.08016386084157e-001

2.90794503464061e+004,-1.70967277196569e+001,-5.15107993067484e-001

2.94853843458219e+004,-1.70967296472566e+001,-5.22298593603185e-001

2.98969849726987e+004,-1.70967316290474e+001,-5.29589569522608e-001

3.03143313302078e+004,-1.70967336665528e+001,-5.36982321942541e-001

3.07375036257601e+004,-1.70967357613390e+001,-5.44478271536913e-001

3.11665831864199e+004,-1.70967379150164e+001,-5.52078858807949e-001

3.16016524745350e+004,-1.70967401292405e+001,-5.59785544362987e-001

3.20427951035848e+004,-1.70967424057135e+001,-5.67599809196590e-001

3.24900958542493e+004,-1.70967447461853e+001,-5.75523154972003e-001

3.29436406907028e+004,-1.70967471524552e+001,-5.83557104311798e-001

3.34035167771346e+004,-1.70967496263727e+001,-5.91703201090772e-001

3.38698124945009e+004,-1.70967521698397e+001,-5.99963010729476e-001

3.43426174575100e+004,-1.70967547848115e+001,-6.08338120498622e-001

3.48220225318448e+004,-1.70967574732979e+001,-6.16830139821358e-001

3.53081198516260e+004,-1.70967602373660e+001,-6.25440700581839e-001

3.58010028371187e+004,-1.70967630791403e+001,-6.34171457441820e-001

3.63007662126863e+004,-1.70967660008055e+001,-6.43024088154532e-001

3.68075060249948e+004,-1.70967690046073e+001,-6.52000293889871e-001

3.73213196614721e+004,-1.70967720928547e+001,-6.61101799559511e-001

3.78423058690237e+004,-1.70967752679217e+001,-6.70330354147954e-001

3.83705647730104e+004,-1.70967785322492e+001,-6.79687731048982e-001

3.89061978964912e+004,-1.70967818883461e+001,-6.89175728406396e-001

3.94493081797342e+004,-1.70967853387925e+001,-6.98796169458326e-001

3.99999999999998e+004,-1.70967888862406e+001,-7.08550902888040e-001

4.05583791916010e+004,-1.70967925334173e+001,-7.18441803178276e-001

4.11245530662425e+004,-1.70967962831262e+001,-7.28470770972055e-001

4.16986304336447e+004,-1.70968001382496e+001,-7.38639733436016e-001

4.22807216224550e+004,-1.70968041017508e+001,-7.48950644631833e-001

4.28709385014515e+004,-1.70968081766766e+001,-7.59405485891151e-001

4.34693945010421e+004,-1.70968123661592e+001,-7.70006266194302e-001

4.40762046350642e+004,-1.70968166734191e+001,-7.80755022557583e-001

4.46914855228886e+004,-1.70968211017670e+001,-7.91653820424852e-001

4.53153554118317e+004,-1.70968256546069e+001,-8.02704754061929e-001

4.59479341998812e+004,-1.70968303354384e+001,-8.13909946959045e-001

4.65893434587380e+004,-1.70968351478596e+001,-8.25271552239712e-001

4.72397064571810e+004,-1.70968400955694e+001,-8.36791753073002e-001

4.78991481847569e+004,-1.70968451823711e+001,-8.48472763091949e-001

4.85677953758016e+004,-1.70968504121746e+001,-8.60316826819782e-001

4.92457765337964e+004,-1.70968557889998e+001,-8.72326220098611e-001

4.99332219560642e+004,-1.70968613169796e+001,-8.84503250528628e-001

5.06302637588109e+004,-1.70968670003630e+001,-8.96850257908408e-001

5.13370359025159e+004,-1.70968728435185e+001,-9.09369614686358e-001

5.20536742176771e+004,-1.70968788509374e+001,-9.22063726412842e-001

5.27803164309155e+004,-1.70968850272371e+001,-9.34935032204777e-001

5.35171021914442e+004,-1.70968913771649e+001,-9.47986005210853e-001

5.42641730979066e+004,-1.70968979056017e+001,-9.61219153087588e-001

5.50216727255895e+004,-1.70969046175651e+001,-9.74637018480412e-001

5.57897466540159e+004,-1.70969115182142e+001,-9.88242179510735e-001

5.65685424949235e+004,-1.70969186128528e+001,-1.00203725026997e+000

5.73582099206328e+004,-1.70969259069340e+001,-1.01602488132196e+000

5.81589006928121e+004,-1.70969334060640e+001,-1.03020776021067e+000

5.89707686916437e+004,-1.70969411160067e+001,-1.04458861197505e+000

5.97939699453972e+004,-1.70969490426877e+001,-1.05917019967362e+000

6.06286626604156e+004,-1.70969571921994e+001,-1.07395532491139e+000

6.14750072515201e+004,-1.70969655708056e+001,-1.08894682837852e+000

6.23331663728396e+004,-1.70969741849456e+001,-1.10414759039563e+000

6.32033049490698e+004,-1.70969830412401e+001,-1.11956053146499e+000

6.40855902071694e+004,-1.70969921464957e+001,-1.13518861282903e+000

6.49801917084985e+004,-1.70970015077104e+001,-1.15103483704112e+000

6.58872813814055e+004,-1.70970111320788e+001,-1.16710224853836e+000

6.68070335542691e+004,-1.70970210269975e+001,-1.18339393422578e+000

6.77396249890018e+004,-1.70970312000714e+001,-1.19991302406853e+000

6.86852349150199e+004,-1.70970416591186e+001,-1.21666269169090e+000

6.96440450636895e+004,-1.70970524121774e+001,-1.23364615498375e+000

7.06162397032520e+004,-1.70970634675116e+001,-1.25086667672262e+000

7.16020056742374e+004,-1.70970748336174e+001,-1.26832756519198e+000

7.26015324253724e+004,-1.70970865192297e+001,-1.28603217481842e+000

7.36150120499896e+004,-1.70970985333289e+001,-1.30398390681342e+000

7.46426393229441e+004,-1.70971108851477e+001,-1.32218620982477e+000

7.56846117380472e+004,-1.70971235841783e+001,-1.34064258059688e+000

7.67411295460207e+004,-1.70971366401795e+001,-1.35935656464119e+000

7.78123957929823e+004,-1.70971500631844e+001,-1.37833175691337e+000

7.88986163594682e+004,-1.70971638635082e+001,-1.39757180250160e+000

7.99999999999995e+004,-1.70971780517554e+001,-1.41708039732625e+000

8.11167583832018e+004,-1.70971926388291e+001,-1.43686128884479e+000

8.22491061324848e+004,-1.70972076359383e+001,-1.45691827677073e+000

8.33972608672892e+004,-1.70972230546071e+001,-1.47725521379872e+000

8.45614432449099e+004,-1.70972389066833e+001,-1.49787600634450e+000

8.57418770029029e+004,-1.70972552043478e+001,-1.51878461528843e+000

8.69387890020841e+004,-1.70972719601234e+001,-1.53998505673663e+000

8.81524092701283e+004,-1.70972891868850e+001,-1.56148140278657e+000

8.93829710457770e+004,-1.70973068978689e+001,-1.58327778230689e+000

9.06307108236633e+004,-1.70973251066837e+001,-1.60537838172624e+000

9.18958683997622e+004,-1.70973438273198e+001,-1.62778744583401e+000

9.31786869174758e+004,-1.70973630741610e+001,-1.65050927859079e+000

9.44794129143618e+004,-1.70973828619949e+001,-1.67354824395228e+000

9.57982963695136e+004,-1.70974032060248e+001,-1.69690876670155e+000

9.71355907516031e+004,-1.70974241218808e+001,-1.72059533329494e+000

9.84915530675926e+004,-1.70974456256322e+001,-1.74461249271924e+000

9.98664439121282e+004,-1.70974677337995e+001,-1.76896485736016e+000

1.01260527517622e+005,-1.70974904633675e+001,-1.79365710388309e+000

1.02674071805032e+005,-1.70975138317978e+001,-1.81869397412586e+000

1.04107348435354e+005,-1.70975378570425e+001,-1.84408027600347e+000

1.05560632861831e+005,-1.70975625575581e+001,-1.86982088442628e+000

1.07034204382888e+005,-1.70975879523192e+001,-1.89592074222883e+000

1.08528346195813e+005,-1.70976140608335e+001,-1.92238486111436e+000

1.10043345451179e+005,-1.70976409031565e+001,-1.94921832260913e+000

1.11579493308032e+005,-1.70976684999068e+001,-1.97642627903246e+000

1.13137084989847e+005,-1.70976968722820e+001,-2.00401395447796e+000

1.14716419841265e+005,-1.70977260420752e+001,-2.03198664580928e+000

1.16317801385624e+005,-1.70977560316912e+001,-2.06034972367005e+000

1.17941537383287e+005,-1.70977868641641e+001,-2.08910863350618e+000

1.19587939890794e+005,-1.70978185631746e+001,-2.11826889660332e+000

1.21257325320831e+005,-1.70978511530684e+001,-2.14783611113789e+000

1.22950014503040e+005,-1.70978846588747e+001,-2.17781595324274e+000

1.24666332745679e+005,-1.70979191063253e+001,-2.20821417808712e+000

1.26406609898139e+005,-1.70979545218746e+001,-2.23903662097185e+000

1.28171180414339e+005,-1.70979909327196e+001,-2.27028919843891e+000

1.29960383416997e+005,-1.70980283668206e+001,-2.30197790939584e+000

1.31774562762811e+005,-1.70980668529229e+001,-2.33410883625718e+000

1.33614067108538e+005,-1.70981064205787e+001,-2.36668814609888e+000

1.35479249978003e+005,-1.70981471001697e+001,-2.39972209183037e+000

1.37370469830040e+005,-1.70981889229302e+001,-2.43321701338250e+000

1.39288090127379e+005,-1.70982319209711e+001,-2.46717933890910e+000

1.41232479406504e+005,-1.70982761273047e+001,-2.50161558600932e+000

1.43204011348474e+005,-1.70983215758694e+001,-2.53653236296180e+000

1.45203064850745e+005,-1.70983683015563e+001,-2.57193636997857e+000

1.47230024099979e+005,-1.70984163402352e+001,-2.60783440047540e+000

1.49285278645888e+005,-1.70984657287826e+001,-2.64423334235794e+000

1.51369223476094e+005,-1.70985165051096e+001,-2.68114017932782e+000

1.53482259092041e+005,-1.70985687081908e+001,-2.71856199220306e+000

1.55624791585964e+005,-1.70986223780943e+001,-2.75650596025905e+000

1.57797232718936e+005,-1.70986775560122e+001,-2.79497936258629e+000

1.59999999999999e+005,-1.70987342842920e+001,-2.83398957946693e+000

1.62233516766403e+005,-1.70987926064688e+001,-2.87354409376850e+000

1.64498212264969e+005,-1.70988525672992e+001,-2.91365049235884e+000

1.66794521734578e+005,-1.70989142127944e+001,-2.95431646753756e+000

1.69122886489819e+005,-1.70989775902563e+001,-2.99554981848769e+000

1.71483754005805e+005,-1.70990427483132e+001,-3.03735845274650e+000

1.73877578004168e+005,-1.70991097369564e+001,-3.07975038769736e+000

1.76304818540256e+005,-1.70991786075795e+001,-3.12273375207783e+000

1.78765942091554e+005,-1.70992494130163e+001,-3.16631678751318e+000

1.81261421647326e+005,-1.70993222075819e+001,-3.21050785006493e+000

1.83791736799524e+005,-1.70993970471138e+001,-3.25531541180391e+000

1.86357373834951e+005,-1.70994739890146e+001,-3.30074806240214e+000

1.88958825828723e+005,-1.70995530922955e+001,-3.34681451074609e+000

1.91596592739027e+005,-1.70996344176214e+001,-3.39352358657244e+000

1.94271181503206e+005,-1.70997180273570e+001,-3.44088424212308e+000

1.96983106135185e+005,-1.70998039856144e+001,-3.48890555382508e+000

1.99732887824256e+005,-1.70998923583017e+001,-3.53759672398943e+000

2.02521055035243e+005,-1.70999832131732e+001,-3.58696708253482e+000

2.05348143610063e+005,-1.71000766198810e+001,-3.63702608873257e+000

2.08214696870707e+005,-1.71001726500280e+001,-3.68778333297419e+000

2.11121265723661e+005,-1.71002713772219e+001,-3.73924853856352e+000

2.14068408765776e+005,-1.71003728771318e+001,-3.79143156353055e+000

2.17056692391625e+005,-1.71004772275450e+001,-3.84434240246988e+000

2.20086690902357e+005,-1.71005845084265e+001,-3.89799118840265e+000

2.23158986616063e+005,-1.71006948019795e+001,-3.95238819466252e+000

2.26274169979693e+005,-1.71008081927078e+001,-4.00754383680679e+000

2.29432839682530e+005,-1.71009247674799e+001,-4.06346867455062e+000

2.32635602771247e+005,-1.71010446155948e+001,-4.12017341372791e+000

2.35883074766574e+005,-1.71011678288498e+001,-4.17766890827551e+000

2.39175879781588e+005,-1.71012945016098e+001,-4.23596616224530e+000

2.42514650641661e+005,-1.71014247308790e+001,-4.29507633183883e+000

2.45900029006080e+005,-1.71015586163742e+001,-4.35501072747071e+000

2.49332665491357e+005,-1.71016962606001e+001,-4.41578081585680e+000

2.52813219796278e+005,-1.71018377689271e+001,-4.47739822212832e+000

2.56342360828676e+005,-1.71019832496708e+001,-4.53987473197424e+000

2.59920766833993e+005,-1.71021328141736e+001,-4.60322229380930e+000

2.63549125525621e+005,-1.71022865768891e+001,-4.66745302096993e+000

2.67228134217075e+005,-1.71024446554685e+001,-4.73257919393710e+000

2.70958499956006e+005,-1.71026071708489e+001,-4.79861326258770e+000

2.74740939660078e+005,-1.71027742473449e+001,-4.86556784847269e+000

2.78576180254757e+005,-1.71029460127421e+001,-4.93345574712476e+000

2.82464958813007e+005,-1.71031225983934e+001,-5.00228993039299e+000

2.86408022696948e+005,-1.71033041393177e+001,-5.07208354880804e+000

2.90406129701488e+005,-1.71034907743017e+001,-5.14284993397390e+000

2.94460048199957e+005,-1.71036826460037e+001,-5.21460260099150e+000

2.98570557291775e+005,-1.71038799010616e+001,-5.28735525090912e+000

3.02738446952187e+005,-1.71040826902021e+001,-5.36112177320421e+000

3.06964518184081e+005,-1.71042911683544e+001,-5.43591624829438e+000

3.11249583171928e+005,-1.71045054947661e+001,-5.51175295007799e+000

3.15594465437872e+005,-1.71047258331223e+001,-5.58864634850633e+000

3.19999999999997e+005,-1.71049523516685e+001,-5.66661111218445e+000

3.24467033532806e+005,-1.71051852233362e+001,-5.74566211100428e+000

3.28996424529938e+005,-1.71054246258724e+001,-5.82581441880773e+000

3.33589043469155e+005,-1.71056707419718e+001,-5.90708331608085e+000

3.38245772979638e+005,-1.71059237594139e+001,-5.98948429267974e+000

3.42967508011610e+005,-1.71061838712023e+001,-6.07303305058707e+000

3.47755156008335e+005,-1.71064512757088e+001,-6.15774550670105e+000

3.52609637080511e+005,-1.71067261768211e+001,-6.24363779565516e+000

3.57531884183106e+005,-1.71070087840943e+001,-6.33072627267090e+000

3.62522843294651e+005,-1.71072993129064e+001,-6.41902751644068e+000

3.67583473599047e+005,-1.71075979846184e+001,-6.50855833204531e+000

3.72714747669902e+005,-1.71079050267383e+001,-6.59933575390135e+000

3.77917651657445e+005,-1.71082206730898e+001,-6.69137704874230e+000

3.83193185478053e+005,-1.71085451639846e+001,-6.78469971863152e+000

3.88542363006410e+005,-1.71088787464009e+001,-6.87932150400783e+000

3.93966212270369e+005,-1.71092216741652e+001,-6.97526038676385e+000

3.99465775648511e+005,-1.71095742081394e+001,-7.07253459335607e+000

4.05042110070485e+005,-1.71099366164133e+001,-7.17116259794881e+000

4.10696287220124e+005,-1.71103091745013e+001,-7.27116312558977e+000

4.16429393741414e+005,-1.71106921655451e+001,-7.37255515541906e+000

4.22242531447321e+005,-1.71110858805214e+001,-7.47535792390936e+000

4.28136817531551e+005,-1.71114906184551e+001,-7.57959092814068e+000

4.34113384783250e+005,-1.71119066866379e+001,-7.68527392910620e+000

4.40173381804713e+005,-1.71123344008531e+001,-7.79242695505035e+000

4.46317973232124e+005,-1.71127740856056e+001,-7.90107030484038e+000

4.52548339959385e+005,-1.71132260743587e+001,-8.01122455136889e+000

4.58865679365059e+005,-1.71136907097764e+001,-8.12291054498937e+000

4.65271205542494e+005,-1.71141683439723e+001,-8.23614941698261e+000

4.71766149533147e+005,-1.71146593387647e+001,-8.35096258305548e+000

4.78351759563174e+005,-1.71151640659390e+001,-8.46737174687077e+000

4.85029301283321e+005,-1.71156829075155e+001,-8.58539890360784e+000

4.91800058012158e+005,-1.71162162560257e+001,-8.70506634355517e+000

4.98665330982714e+005,-1.71167645147944e+001,-8.82639665573169e+000

5.05626439592555e+005,-1.71173280982295e+001,-8.94941273154001e+000

5.12684721657352e+005,-1.71179074321197e+001,-9.07413776844790e+000

5.19841533667984e+005,-1.71185029539385e+001,-9.20059527370017e+000

5.27098251051240e+005,-1.71191151131571e+001,-9.32880906805851e+000

5.34456268434150e+005,-1.71197443715647e+001,-9.45880328957028e+000

5.41916999912011e+005,-1.71203912035966e+001,-9.59060239736443e+000

