Freq.,VOut,OutRef

1.00000000000000e+004,-2.45331860487133e+001,-1.82338415218510e-001

1.01395947979003e+004,-2.45331864868968e+001,-1.84883761142562e-001

1.02811382665607e+004,-2.45331869373993e+001,-1.87464638623086e-001

1.04246576084112e+004,-2.45331874005669e+001,-1.90081543656833e-001

1.05701804056138e+004,-2.45331878767561e+001,-1.92734979160892e-001

1.07177346253629e+004,-2.45331883663326e+001,-1.95425455076591e-001

1.08673486252606e+004,-2.45331888696730e+001,-1.98153488461120e-001

1.10190511587661e+004,-2.45331893871641e+001,-2.00919603589261e-001

1.11728713807222e+004,-2.45331899192039e+001,-2.03724332054855e-001

1.13288388529580e+004,-2.45331904662012e+001,-2.06568212872779e-001

1.14869835499703e+004,-2.45331910285767e+001,-2.09451792579708e-001

1.16473358646846e+004,-2.45331916067626e+001,-2.12375625343560e-001

1.18099266142953e+004,-2.45331922012034e+001,-2.15340273066880e-001

1.19747870461893e+004,-2.45331928123562e+001,-2.18346305495333e-001

1.21419488439505e+004,-2.45331934406908e+001,-2.21394300327857e-001

1.23114441334492e+004,-2.45331940866901e+001,-2.24484843328032e-001

1.24833054890161e+004,-2.45331947508509e+001,-2.27618528434220e-001

1.26575659397028e+004,-2.45331954336836e+001,-2.30795957877990e-001

1.28342589756290e+004,-2.45331961357133e+001,-2.34017742294207e-001

1.30134185544193e+004,-2.45331968574798e+001,-2.37284500843508e-001

1.31950791077289e+004,-2.45331975995376e+001,-2.40596861329072e-001

1.33792755478611e+004,-2.45331983624573e+001,-2.43955460316984e-001

1.35660432744767e+004,-2.45331991468257e+001,-2.47360943257524e-001

1.37554181813974e+004,-2.45331999532454e+001,-2.50813964613339e-001

1.39474366635040e+004,-2.45332007823366e+001,-2.54315187979485e-001

1.41421356237309e+004,-2.45332016347364e+001,-2.57865286216643e-001

1.43395524801583e+004,-2.45332025111004e+001,-2.61464941574834e-001

1.45397251732031e+004,-2.45332034121022e+001,-2.65114845829084e-001

1.47426921729110e+004,-2.45332043384344e+001,-2.68815700409984e-001

1.49484924863494e+004,-2.45332052908092e+001,-2.72568216538947e-001

1.51571656651040e+004,-2.45332062699586e+001,-2.76373115365394e-001

1.53687518128801e+004,-2.45332072766354e+001,-2.80231128104661e-001

1.55832915932100e+004,-2.45332083116137e+001,-2.84142996176144e-001

1.58008262372675e+004,-2.45332093756887e+001,-2.88109471352992e-001

1.60213975517924e+004,-2.45332104696788e+001,-2.92131315897259e-001

1.62450479271247e+004,-2.45332115944250e+001,-2.96209302712977e-001

1.64718203453514e+004,-2.45332127507917e+001,-3.00344215492555e-001

1.67017583885674e+004,-2.45332139396681e+001,-3.04536848866672e-001

1.69349062472505e+004,-2.45332151619680e+001,-3.08788008557896e-001

1.71713087287550e+004,-2.45332164186311e+001,-3.13098511534830e-001

1.74110112659224e+004,-2.45332177106234e+001,-3.17469186169536e-001

1.76540599258131e+004,-2.45332190389382e+001,-3.21900872396753e-001

1.79005014185594e+004,-2.45332204045967e+001,-3.26394421874074e-001

1.81503831063432e+004,-2.45332218086486e+001,-3.30950698147383e-001

1.84037530124975e+004,-2.45332232521734e+001,-3.35570576815143e-001

1.86606598307361e+004,-2.45332247362807e+001,-3.40254945697795e-001

1.89211529345119e+004,-2.45332262621115e+001,-3.45004705006973e-001

1.91852823865052e+004,-2.45332278308387e+001,-3.49820767520493e-001

1.94530989482457e+004,-2.45332294436683e+001,-3.54704058755183e-001

1.97246540898671e+004,-2.45332311018401e+001,-3.59655517145905e-001

1.99999999999999e+004,-2.45332328066288e+001,-3.64676094227084e-001

2.02791895958005e+004,-2.45332345593451e+001,-3.69766754812555e-001

2.05622765331213e+004,-2.45332363613363e+001,-3.74928477182850e-001

2.08493152168224e+004,-2.45332382139876e+001,-3.80162253273787e-001

2.11403608112276e+004,-2.45332401187232e+001,-3.85469088865379e-001

2.14354692507258e+004,-2.45332420770075e+001,-3.90850003774552e-001

2.17346972505211e+004,-2.45332440903459e+001,-3.96306032053101e-001

2.20381023175322e+004,-2.45332461602859e+001,-4.01838222185672e-001

2.23457427614443e+004,-2.45332482884189e+001,-4.07447637289865e-001

2.26576777059159e+004,-2.45332504763809e+001,-4.13135355320432e-001

2.29739670999406e+004,-2.45332527258539e+001,-4.18902469278646e-001

2.32946717293690e+004,-2.45332550385670e+001,-4.24750087420277e-001

2.36198532285905e+004,-2.45332574162982e+001,-4.30679333467500e-001

2.39495740923785e+004,-2.45332598608753e+001,-4.36691346827786e-001

2.42838976879009e+004,-2.45332623741773e+001,-4.42787282810405e-001

2.46228882668982e+004,-2.45332649581366e+001,-4.48968312847532e-001

2.49666109780322e+004,-2.45332676147395e+001,-4.55235624721199e-001

2.53151318794055e+004,-2.45332703460280e+001,-4.61590422790880e-001

2.56685179512580e+004,-2.45332731541018e+001,-4.68033928224703e-001

2.60268371088386e+004,-2.45332760411196e+001,-4.74567379232842e-001

2.63901582154578e+004,-2.45332790093007e+001,-4.81192031305993e-001

2.67585510957221e+004,-2.45332820609268e+001,-4.87909157457239e-001

2.71320865489533e+004,-2.45332851983437e+001,-4.94720048465487e-001

2.75108363627948e+004,-2.45332884239633e+001,-5.01626013123143e-001

2.78948733270080e+004,-2.45332917402651e+001,-5.08628378488183e-001

2.82842712474618e+004,-2.45332951497984e+001,-5.15728490138714e-001

2.86791049603164e+004,-2.45332986551842e+001,-5.22927712430332e-001

2.90794503464061e+004,-2.45333022591171e+001,-5.30227428759163e-001

2.94853843458219e+004,-2.45333059643674e+001,-5.37629041827368e-001

2.98969849726987e+004,-2.45333097737834e+001,-5.45133973911256e-001

3.03143313302078e+004,-2.45333136902937e+001,-5.52743667134972e-001

3.07375036257601e+004,-2.45333177169085e+001,-5.60459583748964e-001

3.11665831864199e+004,-2.45333218567234e+001,-5.68283206406620e-001

3.16016524745350e+004,-2.45333261129205e+001,-5.76216038454124e-001

3.20427951035848e+004,-2.45333304887716e+001,-5.84259604213632e-001

3.24900958542493e+004,-2.45333349876405e+001,-5.92415449278881e-001

3.29436406907028e+004,-2.45333396129853e+001,-6.00685140812577e-001

3.34035167771346e+004,-2.45333443683615e+001,-6.09070267844007e-001

3.38698124945009e+004,-2.45333492574246e+001,-6.17572441576605e-001

3.43426174575100e+004,-2.45333542839327e+001,-6.26193295695490e-001

3.48220225318448e+004,-2.45333594517496e+001,-6.34934486682674e-001

3.53081198516260e+004,-2.45333647648478e+001,-6.43797694133042e-001

3.58010028371187e+004,-2.45333702273112e+001,-6.52784621077135e-001

3.63007662126863e+004,-2.45333758433389e+001,-6.61896994308426e-001

3.68075060249948e+004,-2.45333816172476e+001,-6.71136564714982e-001

3.73213196614721e+004,-2.45333875534756e+001,-6.80505107613158e-001

3.78423058690237e+004,-2.45333936565861e+001,-6.90004423089644e-001

3.83705647730104e+004,-2.45333999312701e+001,-6.99636336348356e-001

3.89061978964912e+004,-2.45334063823507e+001,-7.09402698056908e-001

3.94493081797342e+004,-2.45334130147869e+001,-7.19305384703546e-001

3.99999999999998e+004,-2.45334198336765e+001,-7.29346298957947e-001

4.05583791916010e+004,-2.45334268442609e+001,-7.39527370033718e-001

4.11245530662425e+004,-2.45334340519289e+001,-7.49850554059946e-001

4.16986304336447e+004,-2.45334414622205e+001,-7.60317834456527e-001

4.22807216224550e+004,-2.45334490808318e+001,-7.70931222312176e-001

4.28709385014515e+004,-2.45334569136186e+001,-7.81692756772866e-001

4.34693945010421e+004,-2.45334649666015e+001,-7.92604505430757e-001

4.40762046350642e+004,-2.45334732459702e+001,-8.03668564721537e-001

4.46914855228886e+004,-2.45334817580887e+001,-8.14887060325207e-001

4.53153554118317e+004,-2.45334905094994e+001,-8.26262147574569e-001

4.59479341998812e+004,-2.45334995069289e+001,-8.37796011867208e-001

4.65893434587380e+004,-2.45335087572928e+001,-8.49490869085498e-001

4.72397064571810e+004,-2.45335182677010e+001,-8.61348966019828e-001

4.78991481847569e+004,-2.45335280454632e+001,-8.73372580800120e-001

4.85677953758016e+004,-2.45335380980947e+001,-8.85564023331747e-001

4.92457765337964e+004,-2.45335484333219e+001,-8.97925635737934e-001

4.99332219560642e+004,-2.45335590590885e+001,-9.10459792808402e-001

5.06302637588109e+004,-2.45335699835610e+001,-9.23168902455226e-001

5.13370359025159e+004,-2.45335812151361e+001,-9.36055406171240e-001

5.20536742176771e+004,-2.45335927624460e+001,-9.49121779501078e-001

5.27803164309155e+004,-2.45336046343656e+001,-9.62370532512025e-001

5.35171021914442e+004,-2.45336168400193e+001,-9.75804210276877e-001

5.42641730979066e+004,-2.45336293887878e+001,-9.89425393359397e-001

5.50216727255895e+004,-2.45336422903156e+001,-1.00323669830879e+000

5.57897466540159e+004,-2.45336555545180e+001,-1.01724077816172e+000

5.65685424949235e+004,-2.45336691915893e+001,-1.03144032294690e+000

5.73582099206328e+004,-2.45336832120098e+001,-1.04583806020407e+000

5.81589006928121e+004,-2.45336976265548e+001,-1.06043675550105e+000

5.89707686916437e+004,-2.45337124463022e+001,-1.07523921296654e+000

5.97939699453972e+004,-2.45337276826409e+001,-1.09024827582480e+000

6.06286626604156e+004,-2.45337433472803e+001,-1.10546682693927e+000

6.14750072515201e+004,-2.45337594522588e+001,-1.12089778936366e+000

6.23331663728396e+004,-2.45337760099527e+001,-1.13654412690146e+000

6.32033049490698e+004,-2.45337930330864e+001,-1.15240884467240e+000

6.40855902071694e+004,-2.45338105347419e+001,-1.16849498968574e+000

6.49801917084985e+004,-2.45338285283684e+001,-1.18480565142389e+000

6.58872813814055e+004,-2.45338470277933e+001,-1.20134396243204e+000

6.68070335542691e+004,-2.45338660472326e+001,-1.21811309891550e+000

6.77396249890018e+004,-2.45338856013015e+001,-1.23511628134873e+000

6.86852349150199e+004,-2.45339057050260e+001,-1.25235677508732e+000

6.96440450636895e+004,-2.45339263738541e+001,-1.26983789099462e+000

7.06162397032520e+004,-2.45339476236681e+001,-1.28756298607118e+000

7.16020056742374e+004,-2.45339694707964e+001,-1.30553546409622e+000

7.26015324253724e+004,-2.45339919320259e+001,-1.32375877627782e+000

7.36150120499896e+004,-2.45340150246156e+001,-1.34223642191025e+000

7.46426393229441e+004,-2.45340387663090e+001,-1.36097194904224e+000

7.56846117380472e+004,-2.45340631753482e+001,-1.37996895515270e+000

7.67411295460207e+004,-2.45340882704878e+001,-1.39923108783780e+000

7.78123957929823e+004,-2.45341140710092e+001,-1.41876204550479e+000

7.88986163594682e+004,-2.45341405967356e+001,-1.43856557807767e+000

7.99999999999995e+004,-2.45341678680468e+001,-1.45864548771225e+000

8.11167583832018e+004,-2.45341959058952e+001,-1.47900562951827e+000

8.22491061324848e+004,-2.45342247318219e+001,-1.49964991229538e+000

8.33972608672892e+004,-2.45342543679729e+001,-1.52058229927692e+000

8.45614432449099e+004,-2.45342848371162e+001,-1.54180680888336e+000

8.57418770029029e+004,-2.45343161626593e+001,-1.56332751548795e+000

8.69387890020841e+004,-2.45343483686675e+001,-1.58514855019069e+000

8.81524092701283e+004,-2.45343814798816e+001,-1.60727410160503e+000

8.93829710457770e+004,-2.45344155217374e+001,-1.62970841665297e+000

9.06307108236633e+004,-2.45344505203849e+001,-1.65245580137326e+000

9.18958683997622e+004,-2.45344865027090e+001,-1.67552062173832e+000

9.31786869174758e+004,-2.45345234963488e+001,-1.69890730448519e+000

9.44794129143618e+004,-2.45345615297204e+001,-1.72262033795333e+000

9.57982963695136e+004,-2.45346006320373e+001,-1.74666427293922e+000

9.71355907516031e+004,-2.45346408333334e+001,-1.77104372355844e+000

9.84915530675926e+004,-2.45346821644862e+001,-1.79576336812023e+000

9.98664439121282e+004,-2.45347246572400e+001,-1.82082795001537e+000

1.01260527517622e+005,-2.45347683442304e+001,-1.84624227861540e+000

1.02674071805032e+005,-2.45348132590093e+001,-1.87201123018258e+000

1.04107348435354e+005,-2.45348594360706e+001,-1.89813974879371e+000

1.05560632861831e+005,-2.45349069108766e+001,-1.92463284727664e+000

1.07034204382888e+005,-2.45349557198851e+001,-1.95149560815758e+000

1.08528346195813e+005,-2.45350059005774e+001,-1.97873318462309e+000

1.10043345451179e+005,-2.45350574914869e+001,-2.00635080149447e+000

1.11579493308032e+005,-2.45351105322287e+001,-2.03435375621301e+000

1.13137084989847e+005,-2.45351650635296e+001,-2.06274741984325e+000

1.14716419841265e+005,-2.45352211272597e+001,-2.09153723808468e+000

1.16317801385624e+005,-2.45352787664642e+001,-2.12072873230011e+000

1.17941537383287e+005,-2.45353380253962e+001,-2.15032750055644e+000

1.19587939890794e+005,-2.45353989495510e+001,-2.18033921867933e+000

1.21257325320831e+005,-2.45354615857001e+001,-2.21076964132366e+000

1.22950014503040e+005,-2.45355259819278e+001,-2.24162460305501e+000

1.24666332745679e+005,-2.45355921876673e+001,-2.27291001944867e+000

1.26406609898139e+005,-2.45356602537391e+001,-2.30463188820121e+000

1.28171180414339e+005,-2.45357302323892e+001,-2.33679629025784e+000

1.29960383416997e+005,-2.45358021773294e+001,-2.36940939095452e+000

1.31774562762811e+005,-2.45358761437783e+001,-2.40247744117438e+000

1.33614067108538e+005,-2.45359521885032e+001,-2.43600677852012e+000

1.35479249978003e+005,-2.45360303698640e+001,-2.47000382850265e+000

1.37370469830040e+005,-2.45361107478570e+001,-2.50447510574331e+000

1.39288090127379e+005,-2.45361933841614e+001,-2.53942721519292e+000

1.41232479406504e+005,-2.45362783421860e+001,-2.57486685336806e+000

1.43204011348474e+005,-2.45363656871176e+001,-2.61080080960088e+000

1.45203064850745e+005,-2.45364554859708e+001,-2.64723596730796e+000

1.47230024099979e+005,-2.45365478076390e+001,-2.68417930527332e+000

1.49285278645888e+005,-2.45366427229472e+001,-2.72163789894920e+000

1.51369223476094e+005,-2.45367403047057e+001,-2.75961892177513e+000

1.53482259092041e+005,-2.45368406277656e+001,-2.79812964651054e+000

1.55624791585964e+005,-2.45369437690761e+001,-2.83717744658799e+000

1.57797232718936e+005,-2.45370498077427e+001,-2.87676979748212e+000

1.59999999999999e+005,-2.45371588250880e+001,-2.91691427809647e+000

1.62233516766403e+005,-2.45372709047131e+001,-2.95761857216807e+000

1.64498212264969e+005,-2.45373861325613e+001,-2.99889046969067e+000

1.66794521734578e+005,-2.45375045969837e+001,-3.04073786835459e+000

1.69122886489819e+005,-2.45376263888067e+001,-3.08316877500610e+000

1.71483754005805e+005,-2.45377516014001e+001,-3.12619130712545e+000

1.73877578004168e+005,-2.45378803307489e+001,-3.16981369432289e+000

1.76304818540256e+005,-2.45380126755263e+001,-3.21404427985317e+000

1.78765942091554e+005,-2.45381487371681e+001,-3.25889152215054e+000

1.81261421647326e+005,-2.45382886199499e+001,-3.30436399638203e+000

1.83791736799524e+005,-2.45384324310667e+001,-3.35047039601903e+000

1.86357373834951e+005,-2.45385802807139e+001,-3.39721953443122e+000

1.88958825828723e+005,-2.45387322821709e+001,-3.44462034649723e+000

1.91596592739027e+005,-2.45388885518869e+001,-3.49268189023766e+000

1.94271181503206e+005,-2.45390492095697e+001,-3.54141334846586e+000

1.96983106135185e+005,-2.45392143782758e+001,-3.59082403046160e+000

1.99732887824256e+005,-2.45393841845040e+001,-3.64092337366264e+000

2.02521055035243e+005,-2.45395587582910e+001,-3.69172094537795e+000

2.05348143610063e+005,-2.45397382333099e+001,-3.74322644452248e+000

2.08214696870707e+005,-2.45399227469713e+001,-3.79544970337079e+000

2.11121265723661e+005,-2.45401124405273e+001,-3.84840068933390e+000

2.14068408765776e+005,-2.45403074591780e+001,-3.90208950675582e+000

2.17056692391625e+005,-2.45405079521817e+001,-3.95652639873194e+000

2.20086690902357e+005,-2.45407140729669e+001,-4.01172174894876e+000

2.23158986616063e+005,-2.45409259792488e+001,-4.06768608354515e+000

2.26274169979693e+005,-2.45411438331477e+001,-4.12443007299601e+000

2.29432839682530e+005,-2.45413678013116e+001,-4.18196453401668e+000

2.32635602771247e+005,-2.45415980550415e+001,-4.24030043149050e+000

2.35883074766574e+005,-2.45418347704208e+001,-4.29944888041690e+000

2.39175879781588e+005,-2.45420781284474e+001,-4.35942114788354e+000

2.42514650641661e+005,-2.45423283151700e+001,-4.42022865505941e+000

2.45900029006080e+005,-2.45425855218279e+001,-4.48188297921138e+000

2.49332665491357e+005,-2.45428499449948e+001,-4.54439585574122e+000

2.52813219796278e+005,-2.45431217867264e+001,-4.60777918024837e+000

2.56342360828676e+005,-2.45434012547117e+001,-4.67204501061252e+000

2.59920766833993e+005,-2.45436885624292e+001,-4.73720556909939e+000

2.63549125525621e+005,-2.45439839293061e+001,-4.80327324449119e+000

2.67228134217075e+005,-2.45442875808835e+001,-4.87026059423744e+000

2.70958499956006e+005,-2.45445997489843e+001,-4.93818034662981e+000

2.74740939660078e+005,-2.45449206718869e+001,-5.00704540299976e+000

2.78576180254757e+005,-2.45452505945031e+001,-5.07686883993876e+000

2.82464958813007e+005,-2.45455897685611e+001,-5.14766391154099e+000

2.86408022696948e+005,-2.45459384527925e+001,-5.21944405167037e+000

2.90406129701488e+005,-2.45462969131259e+001,-5.29222287624813e+000

2.94460048199957e+005,-2.45466654228845e+001,-5.36601418556502e+000

2.98570557291775e+005,-2.45470442629891e+001,-5.44083196661494e+000

3.02738446952187e+005,-2.45474337221672e+001,-5.51669039545267e+000

3.06964518184081e+005,-2.45478340971672e+001,-5.59360383957153e+000

3.11249583171928e+005,-2.45482456929784e+001,-5.67158686030658e+000

3.15594465437872e+005,-2.45486688230568e+001,-5.75065421525750e+000

3.19999999999997e+005,-2.45491038095574e+001,-5.83082086073486e+000

3.24467033532806e+005,-2.45495509835718e+001,-5.91210195422856e+000

3.28996424529938e+005,-2.45500106853734e+001,-5.99451285689635e+000

3.33589043469155e+005,-2.45504832646674e+001,-6.07806913607632e+000

3.38245772979638e+005,-2.45509690808493e+001,-6.16278656781788e+000

3.42967508011610e+005,-2.45514685032686e+001,-6.24868113943687e+000

3.47755156008335e+005,-2.45519819115010e+001,-6.33576905208812e+000

3.52609637080511e+005,-2.45525096956259e+001,-6.42406672336149e+000

3.57531884183106e+005,-2.45530522565132e+001,-6.51359078989518e+000

3.62522843294651e+005,-2.45536100061162e+001,-6.60435811001130e+000

3.67583473599047e+005,-2.45541833677728e+001,-6.69638576636844e+000

3.72714747669902e+005,-2.45547727765146e+001,-6.78969106863437e+000

3.77917651657445e+005,-2.45553786793837e+001,-6.88429155617739e+000

3.83193185478053e+005,-2.45560015357579e+001,-6.98020500077402e+000

3.88542363006410e+005,-2.45566418176846e+001,-7.07744940933585e+000

3.93966212270369e+005,-2.45573000102233e+001,-7.17604302665117e+000

3.99465775648511e+005,-2.45579766117965e+001,-7.27600433814460e+000

4.05042110070485e+005,-2.45586721345499e+001,-7.37735207265086e+000

4.10696287220124e+005,-2.45593871047223e+001,-7.48010520520366e+000

4.16429393741414e+005,-2.45601220630245e+001,-7.58428295983812e+000

4.22242531447321e+005,-2.45608775650278e+001,-7.68990481240761e+000

4.28136817531551e+005,-2.45616541815629e+001,-7.79699049341124e+000

4.34113384783250e+005,-2.45624524991282e+001,-7.90555999083412e+000

4.40173381804713e+005,-2.45632731203096e+001,-8.01563355299678e+000

4.46317973232124e+005,-2.45641166642096e+001,-8.12723169141540e+000

4.52548339959385e+005,-2.45649837668883e+001,-8.24037518366929e+000

4.58865679365059e+005,-2.45658750818144e+001,-8.35508507627639e+000

4.65271205542494e+005,-2.45667912803288e+001,-8.47138268757369e+000

4.71766149533147e+005,-2.45677330521184e+001,-8.58928961060434e+000

4.78351759563174e+005,-2.45687011057026e+001,-8.70882771600602e+000

4.85029301283321e+005,-2.45696961689317e+001,-8.83001915490274e+000

4.91800058012158e+005,-2.45707189894970e+001,-8.95288636179721e+000

4.98665330982714e+005,-2.45717703354541e+001,-9.07745205746155e+000

5.05626439592555e+005,-2.45728509957585e+001,-9.20373925182611e+000

5.12684721657352e+005,-2.45739617808146e+001,-9.33177124686369e+000

5.19841533667984e+005,-2.45751035230379e+001,-9.46157163946779e+000

5.27098251051240e+005,-2.45762770774303e+001,-9.59316432432292e+000

5.34456268434150e+005,-2.45774833221699e+001,-9.72657349676555e+000

5.41916999912011e+005,-2.45787231592144e+001,-9.86182365563190e+000

