Freq.,VOut,OutRef

1.00000000000000e+004,-1.24565170412081e+001,-1.57471321302056e-001

1.01395947979003e+004,-1.24565170163905e+001,-1.59669539474014e-001

1.02811382665607e+004,-1.24565169908752e+001,-1.61898443646600e-001

1.04246576084112e+004,-1.24565169646426e+001,-1.64158462181318e-001

1.05701804056138e+004,-1.24565169376725e+001,-1.66450029420032e-001

1.07177346253629e+004,-1.24565169099441e+001,-1.68773585766967e-001

1.08673486252606e+004,-1.24565168814362e+001,-1.71129577773599e-001

1.10190511587661e+004,-1.24565168521267e+001,-1.73518458226973e-001

1.11728713807222e+004,-1.24565168219935e+001,-1.75940686231475e-001

1.13288388529580e+004,-1.24565167910129e+001,-1.78396727305898e-001

1.14869835499703e+004,-1.24565167591614e+001,-1.80887053461334e-001

1.16473358646846e+004,-1.24565167264145e+001,-1.83412143301909e-001

1.18099266142953e+004,-1.24565166927469e+001,-1.85972482111916e-001

1.19747870461893e+004,-1.24565166581330e+001,-1.88568561948813e-001

1.21419488439505e+004,-1.24565166225457e+001,-1.91200881741638e-001

1.23114441334492e+004,-1.24565165859581e+001,-1.93869947381514e-001

1.24833054890161e+004,-1.24565165483416e+001,-1.96576271824053e-001

1.26575659397028e+004,-1.24565165096679e+001,-1.99320375181698e-001

1.28342589756290e+004,-1.24565164699068e+001,-2.02102784832480e-001

1.30134185544193e+004,-1.24565164290280e+001,-2.04924035511542e-001

1.31950791077289e+004,-1.24565163869998e+001,-2.07784669423690e-001

1.33792755478611e+004,-1.24565163437901e+001,-2.10685236338305e-001

1.35660432744767e+004,-1.24565162993656e+001,-2.13626293701550e-001

1.37554181813974e+004,-1.24565162536922e+001,-2.16608406740447e-001

1.39474366635040e+004,-1.24565162067347e+001,-2.19632148573400e-001

1.41421356237309e+004,-1.24565161584572e+001,-2.22698100318329e-001

1.43395524801583e+004,-1.24565161088223e+001,-2.25806851206094e-001

1.45397251732031e+004,-1.24565160577922e+001,-2.28958998691684e-001

1.47426921729110e+004,-1.24565160053273e+001,-2.32155148573233e-001

1.49484924863494e+004,-1.24565159513875e+001,-2.35395915101695e-001

1.51571656651040e+004,-1.24565158959313e+001,-2.38681921105668e-001

1.53687518128801e+004,-1.24565158389160e+001,-2.42013798106843e-001

1.55832915932100e+004,-1.24565157802978e+001,-2.45392186443886e-001

1.58008262372675e+004,-1.24565157200315e+001,-2.48817735393247e-001

1.60213975517924e+004,-1.24565156580710e+001,-2.52291103295339e-001

1.62450479271247e+004,-1.24565155943687e+001,-2.55812957680305e-001

1.64718203453514e+004,-1.24565155288756e+001,-2.59383975397927e-001

1.67017583885674e+004,-1.24565154615410e+001,-2.63004842747171e-001

1.69349062472505e+004,-1.24565153923136e+001,-2.66676255604416e-001

1.71713087287550e+004,-1.24565153211400e+001,-2.70398919562967e-001

1.74110112659224e+004,-1.24565152479654e+001,-2.74173550065825e-001

1.76540599258131e+004,-1.24565151727336e+001,-2.78000872543065e-001

1.79005014185594e+004,-1.24565150953870e+001,-2.81881622549635e-001

1.81503831063432e+004,-1.24565150158657e+001,-2.85816545911943e-001

1.84037530124975e+004,-1.24565149341089e+001,-2.89806398865667e-001

1.86606598307361e+004,-1.24565148500536e+001,-2.93851948204070e-001

1.89211529345119e+004,-1.24565147636353e+001,-2.97953971424024e-001

1.91852823865052e+004,-1.24565146747875e+001,-3.02113256876960e-001

1.94530989482457e+004,-1.24565145834420e+001,-3.06330603918713e-001

1.97246540898671e+004,-1.24565144895284e+001,-3.10606823064514e-001

1.99999999999999e+004,-1.24565143929746e+001,-3.14942736144280e-001

2.02791895958005e+004,-1.24565142937064e+001,-3.19339176459779e-001

2.05622765331213e+004,-1.24565141916475e+001,-3.23796988946226e-001

2.08493152168224e+004,-1.24565140867194e+001,-3.28317030333157e-001

2.11403608112276e+004,-1.24565139788415e+001,-3.32900169310556e-001

2.14354692507258e+004,-1.24565138679308e+001,-3.37547286694682e-001

2.17346972505211e+004,-1.24565137539021e+001,-3.42259275598841e-001

2.20381023175322e+004,-1.24565136366678e+001,-3.47037041602052e-001

2.23457427614443e+004,-1.24565135161376e+001,-3.51881502927313e-001

2.26576777059159e+004,-1.24565133922189e+001,-3.56793590614880e-001

2.29739670999406e+004,-1.24565132648166e+001,-3.61774248701456e-001

2.32946717293690e+004,-1.24565131338327e+001,-3.66824434403530e-001

2.36198532285905e+004,-1.24565129991664e+001,-3.71945118300125e-001

2.39495740923785e+004,-1.24565128607144e+001,-3.77137284517652e-001

2.42838976879009e+004,-1.24565127183700e+001,-3.82401930924163e-001

2.46228882668982e+004,-1.24565125720241e+001,-3.87740069314301e-001

2.49666109780322e+004,-1.24565124215639e+001,-3.93152725610094e-001

2.53151318794055e+004,-1.24565122668739e+001,-3.98640940053837e-001

2.56685179512580e+004,-1.24565121078352e+001,-4.04205767409849e-001

2.60268371088386e+004,-1.24565119443255e+001,-4.09848277166915e-001

2.63901582154578e+004,-1.24565117762192e+001,-4.15569553744280e-001

2.67585510957221e+004,-1.24565116033870e+001,-4.21370696698588e-001

2.71320865489533e+004,-1.24565114256961e+001,-4.27252820937977e-001

2.75108363627948e+004,-1.24565112430099e+001,-4.33217056933469e-001

2.78948733270080e+004,-1.24565110551879e+001,-4.39264550937392e-001

2.82842712474618e+004,-1.24565108620859e+001,-4.45396465204953e-001

2.86791049603164e+004,-1.24565106635553e+001,-4.51613978215523e-001

2.90794503464061e+004,-1.24565104594436e+001,-4.57918284900102e-001

2.94853843458219e+004,-1.24565102495940e+001,-4.64310596871199e-001

2.98969849726987e+004,-1.24565100338450e+001,-4.70792142656501e-001

3.03143313302078e+004,-1.24565098120308e+001,-4.77364167933183e-001

3.07375036257601e+004,-1.24565095839811e+001,-4.84027935767983e-001

3.11665831864199e+004,-1.24565093495204e+001,-4.90784726861037e-001

3.16016524745350e+004,-1.24565091084687e+001,-4.97635839790286e-001

3.20427951035848e+004,-1.24565088606406e+001,-5.04582591263854e-001

3.24900958542493e+004,-1.24565086058455e+001,-5.11626316369630e-001

3.29436406907028e+004,-1.24565083438877e+001,-5.18768368834947e-001

3.34035167771346e+004,-1.24565080745660e+001,-5.26010121284085e-001

3.38698124945009e+004,-1.24565077976732e+001,-5.33352965504717e-001

3.43426174575100e+004,-1.24565075129965e+001,-5.40798312714504e-001

3.48220225318448e+004,-1.24565072203171e+001,-5.48347593831554e-001

3.53081198516260e+004,-1.24565069194101e+001,-5.56002259750269e-001

3.58010028371187e+004,-1.24565066100443e+001,-5.63763781619540e-001

3.63007662126863e+004,-1.24565062919818e+001,-5.71633651127321e-001

3.68075060249948e+004,-1.24565059649782e+001,-5.79613380785762e-001

3.73213196614721e+004,-1.24565056287822e+001,-5.87704504221334e-001

3.78423058690237e+004,-1.24565052831355e+001,-5.95908576472177e-001

3.83705647730104e+004,-1.24565049277722e+001,-6.04227174284830e-001

3.89061978964912e+004,-1.24565045624195e+001,-6.12661896417833e-001

3.94493081797342e+004,-1.24565041867964e+001,-6.21214363950664e-001

3.99999999999998e+004,-1.24565038006143e+001,-6.29886220592598e-001

4.05583791916010e+004,-1.24565034035765e+001,-6.38679133000059e-001

4.11245530662425e+004,-1.24565029953777e+001,-6.47594791098778e-001

4.16986304336447e+004,-1.24565025757044e+001,-6.56634908404979e-001

4.22807216224550e+004,-1.24565021442339e+001,-6.65801222358807e-001

4.28709385014515e+004,-1.24565017006346e+001,-6.75095494655850e-001

4.34693945010421e+004,-1.24565012445659e+001,-6.84519511584665e-001

4.40762046350642e+004,-1.24565007756770e+001,-6.94075084374779e-001

4.46914855228886e+004,-1.24565002936078e+001,-7.03764049539739e-001

4.53153554118317e+004,-1.24564997979876e+001,-7.13588269234637e-001

4.59479341998812e+004,-1.24564992884360e+001,-7.23549631609427e-001

4.65893434587380e+004,-1.24564987645609e+001,-7.33650051177812e-001

4.72397064571810e+004,-1.24564982259601e+001,-7.43891469179048e-001

4.78991481847569e+004,-1.24564976722197e+001,-7.54275853956295e-001

4.85677953758016e+004,-1.24564971029141e+001,-7.64805201332273e-001

4.92457765337964e+004,-1.24564965176059e+001,-7.75481534994222e-001

4.99332219560642e+004,-1.24564959158455e+001,-7.86306906881523e-001

5.06302637588109e+004,-1.24564952971702e+001,-7.97283397583037e-001

5.13370359025159e+004,-1.24564946611050e+001,-8.08413116733424e-001

5.20536742176771e+004,-1.24564940071609e+001,-8.19698203423376e-001

5.27803164309155e+004,-1.24564933348357e+001,-8.31140826605229e-001

5.35171021914442e+004,-1.24564926436126e+001,-8.42743185516200e-001

5.42641730979066e+004,-1.24564919329607e+001,-8.54507510095812e-001

5.50216727255895e+004,-1.24564912023339e+001,-8.66436061419624e-001

5.57897466540159e+004,-1.24564904511710e+001,-8.78531132129381e-001

5.65685424949235e+004,-1.24564896788949e+001,-8.90795046877396e-001

5.73582099206328e+004,-1.24564888849122e+001,-9.03230162772313e-001

5.81589006928121e+004,-1.24564880686130e+001,-9.15838869832080e-001

5.89707686916437e+004,-1.24564872293702e+001,-9.28623591443821e-001

5.97939699453972e+004,-1.24564863665390e+001,-9.41586784830721e-001

6.06286626604156e+004,-1.24564854794568e+001,-9.54730941523117e-001

6.14750072515201e+004,-1.24564845674419e+001,-9.68058587839527e-001

6.23331663728396e+004,-1.24564836297940e+001,-9.81572285370263e-001

6.32033049490698e+004,-1.24564826657927e+001,-9.95274631472408e-001

6.40855902071694e+004,-1.24564816746974e+001,-1.00916825976840e+000

6.49801917084985e+004,-1.24564806557471e+001,-1.02325584065163e+000

6.58872813814055e+004,-1.24564796081592e+001,-1.03754008180119e+000

6.68070335542691e+004,-1.24564785311288e+001,-1.05202372870421e+000

6.77396249890018e+004,-1.24564774238288e+001,-1.06670956518022e+000

6.86852349150199e+004,-1.24564762854090e+001,-1.08160041391964e+000

6.96440450636895e+004,-1.24564751149948e+001,-1.09669913702619e+000

7.06162397032520e+004,-1.24564739116875e+001,-1.11200863656704e+000

7.16020056742374e+004,-1.24564726745630e+001,-1.12753185513054e+000

7.26015324253724e+004,-1.24564714026712e+001,-1.14327177639431e+000

7.36150120499896e+004,-1.24564700950355e+001,-1.15923142569734e+000

7.46426393229441e+004,-1.24564687506518e+001,-1.17541387062250e+000

7.56846117380472e+004,-1.24564673684877e+001,-1.19182222158762e+000

7.67411295460207e+004,-1.24564659474820e+001,-1.20845963244290e+000

7.78123957929823e+004,-1.24564644865435e+001,-1.22532930107873e+000

7.88986163594682e+004,-1.24564629845508e+001,-1.24243447003997e+000

7.99999999999995e+004,-1.24564614403505e+001,-1.25977842715066e+000

8.11167583832018e+004,-1.24564598527572e+001,-1.27736450614676e+000

8.22491061324848e+004,-1.24564582205521e+001,-1.29519608731689e+000

8.33972608672892e+004,-1.24564565424821e+001,-1.31327659815429e+000

8.45614432449099e+004,-1.24564548172593e+001,-1.33160951401469e+000

8.57418770029029e+004,-1.24564530435592e+001,-1.35019835878719e+000

8.69387890020841e+004,-1.24564512200205e+001,-1.36904670557045e+000

8.81524092701283e+004,-1.24564493452435e+001,-1.38815817736197e+000

8.93829710457770e+004,-1.24564474177894e+001,-1.40753644775478e+000

9.06307108236633e+004,-1.24564454361788e+001,-1.42718524164535e+000

9.18958683997622e+004,-1.24564433988911e+001,-1.44710833594912e+000

9.31786869174758e+004,-1.24564413043629e+001,-1.46730956032950e+000

9.44794129143618e+004,-1.24564391509870e+001,-1.48779279793350e+000

9.57982963695136e+004,-1.24564369371109e+001,-1.50856198614109e+000

9.71355907516031e+004,-1.24564346610363e+001,-1.52962111732139e+000

9.84915530675926e+004,-1.24564323210166e+001,-1.55097423960318e+000

9.98664439121282e+004,-1.24564299152568e+001,-1.57262545765377e+000

1.01260527517622e+005,-1.24564274419113e+001,-1.59457893346831e+000

1.02674071805032e+005,-1.24564248990828e+001,-1.61683888717328e+000

1.04107348435354e+005,-1.24564222848208e+001,-1.63940959783883e+000

1.05560632861831e+005,-1.24564195971204e+001,-1.66229540430099e+000

1.07034204382888e+005,-1.24564168339200e+001,-1.68550070600090e+000

1.08528346195813e+005,-1.24564139931007e+001,-1.70902996382887e+000

1.10043345451179e+005,-1.24564110724841e+001,-1.73288770098584e+000

1.11579493308032e+005,-1.24564080698305e+001,-1.75707850385453e+000

1.13137084989847e+005,-1.24564049828379e+001,-1.78160702288250e+000

1.14716419841265e+005,-1.24564018091395e+001,-1.80647797347845e+000

1.16317801385624e+005,-1.24563985463023e+001,-1.83169613692130e+000

1.17941537383287e+005,-1.24563951918252e+001,-1.85726636128147e+000

1.19587939890794e+005,-1.24563917431370e+001,-1.88319356235452e+000

1.21257325320831e+005,-1.24563881975946e+001,-1.90948272461013e+000

1.22950014503040e+005,-1.24563845524808e+001,-1.93613890215115e+000

1.24666332745679e+005,-1.24563808050024e+001,-1.96316721968950e+000

1.26406609898139e+005,-1.24563769522880e+001,-1.99057287353297e+000

1.28171180414339e+005,-1.24563729913859e+001,-2.01836113258846e+000

1.29960383416997e+005,-1.24563689192618e+001,-2.04653733937628e+000

1.31774562762811e+005,-1.24563647327963e+001,-2.07510691106161e+000

1.33614067108538e+005,-1.24563604287830e+001,-2.10407534049967e+000

1.35479249978003e+005,-1.24563560039258e+001,-2.13344819729370e+000

1.37370469830040e+005,-1.24563514548362e+001,-2.16323112887111e+000

1.39288090127379e+005,-1.24563467780312e+001,-2.19342986157134e+000

1.41232479406504e+005,-1.24563419699302e+001,-2.22405020175205e+000

1.43204011348474e+005,-1.24563370268527e+001,-2.25509803690909e+000

1.45203064850745e+005,-1.24563319450153e+001,-2.28657933681219e+000

1.47230024099979e+005,-1.24563267205287e+001,-2.31850015465856e+000

1.49285278645888e+005,-1.24563213493952e+001,-2.35086662823982e+000

1.51369223476094e+005,-1.24563158275052e+001,-2.38368498112777e+000

1.53482259092041e+005,-1.24563101506346e+001,-2.41696152387625e+000

1.55624791585964e+005,-1.24563043144409e+001,-2.45070265523910e+000

1.57797232718936e+005,-1.24562983144609e+001,-2.48491486340660e+000

1.59999999999999e+005,-1.24562921461063e+001,-2.51960472725865e+000

1.62233516766403e+005,-1.24562858046611e+001,-2.55477891763509e+000

1.64498212264969e+005,-1.24562792852777e+001,-2.59044419862522e+000

1.66794521734578e+005,-1.24562725829730e+001,-2.62660742887543e+000

1.69122886489819e+005,-1.24562656926253e+001,-2.66327556291324e+000

1.71483754005805e+005,-1.24562586089698e+001,-2.70045565249323e+000

1.73877578004168e+005,-1.24562513265950e+001,-2.73815484795964e+000

1.76304818540256e+005,-1.24562438399387e+001,-2.77638039962923e+000

1.78765942091554e+005,-1.24562361432836e+001,-2.81513965919332e+000

1.81261421647326e+005,-1.24562282307532e+001,-2.85444008113973e+000

1.83791736799524e+005,-1.24562200963074e+001,-2.89428922419583e+000

1.86357373834951e+005,-1.24562117337376e+001,-2.93469475279088e+000

1.88958825828723e+005,-1.24562031366629e+001,-2.97566443853794e+000

1.91596592739027e+005,-1.24561942985245e+001,-3.01720616174103e+000

1.94271181503206e+005,-1.24561852125813e+001,-3.05932791291883e+000

1.96983106135185e+005,-1.24561758719046e+001,-3.10203779435300e+000

1.99732887824256e+005,-1.24561662693734e+001,-3.14534402165681e+000

2.02521055035243e+005,-1.24561563976683e+001,-3.18925492536869e+000

2.05348143610063e+005,-1.24561462492670e+001,-3.23377895256424e+000

2.08214696870707e+005,-1.24561358164380e+001,-3.27892466849523e+000

2.11121265723661e+005,-1.24561250912354e+001,-3.32470075824989e+000

2.14068408765776e+005,-1.24561140654925e+001,-3.37111602843632e+000

2.17056692391625e+005,-1.24561027308162e+001,-3.41817940889233e+000

2.20086690902357e+005,-1.24560910785807e+001,-3.46589995441632e+000

2.23158986616063e+005,-1.24560790999208e+001,-3.51428684652619e+000

2.26274169979693e+005,-1.24560667857261e+001,-3.56334939524029e+000

2.29432839682530e+005,-1.24560541266334e+001,-3.61309704088624e+000

2.32635602771247e+005,-1.24560411130205e+001,-3.66353935593445e+000

2.35883074766574e+005,-1.24560277349988e+001,-3.71468604685764e+000

2.39175879781588e+005,-1.24560139824063e+001,-3.76654695601800e+000

2.42514650641661e+005,-1.24559998448000e+001,-3.81913206357993e+000

2.45900029006080e+005,-1.24559853114481e+001,-3.87245148945123e+000

2.49332665491357e+005,-1.24559703713225e+001,-3.92651549525228e+000

2.52813219796278e+005,-1.24559550130907e+001,-3.98133448631205e+000

2.56342360828676e+005,-1.24559392251075e+001,-4.03691901369514e+000

2.59920766833993e+005,-1.24559229954062e+001,-4.09327977625506e+000

2.63549125525621e+005,-1.24559063116907e+001,-4.15042762271933e+000

2.67228134217075e+005,-1.24558891613260e+001,-4.20837355380344e+000

2.70958499956006e+005,-1.24558715313291e+001,-4.26712872435620e+000

2.74740939660078e+005,-1.24558534083599e+001,-4.32670444553411e+000

2.78576180254757e+005,-1.24558347787113e+001,-4.38711218700984e+000

2.82464958813007e+005,-1.24558156282999e+001,-4.44836357920952e+000

2.86408022696948e+005,-1.24557959426552e+001,-4.51047041558565e+000

2.90406129701488e+005,-1.24557757069096e+001,-4.57344465491962e+000

2.94460048199957e+005,-1.24557549057878e+001,-4.63729842366035e+000

2.98570557291775e+005,-1.24557335235960e+001,-4.70204401829408e+000

3.02738446952187e+005,-1.24557115442104e+001,-4.76769390775193e+000

3.06964518184081e+005,-1.24556889510663e+001,-4.83426073584891e+000

3.11249583171928e+005,-1.24556657271459e+001,-4.90175732376072e+000

3.15594465437872e+005,-1.24556418549663e+001,-4.97019667253593e+000

3.19999999999997e+005,-1.24556173165677e+001,-5.03959196564388e+000

3.24467033532806e+005,-1.24555920935005e+001,-5.10995657156121e+000

3.28996424529938e+005,-1.24555661668119e+001,-5.18130404639583e+000

3.33589043469155e+005,-1.24555395170337e+001,-5.25364813654720e+000

3.38245772979638e+005,-1.24555121241676e+001,-5.32700278140919e+000

3.42967508011610e+005,-1.24554839676726e+001,-5.40138211610880e+000

3.47755156008335e+005,-1.24554550264494e+001,-5.47680047428812e+000

3.52609637080511e+005,-1.24554252788271e+001,-5.55327239092450e+000

3.57531884183106e+005,-1.24553947025476e+001,-5.63081260519459e+000

3.62522843294651e+005,-1.24553632747503e+001,-5.70943606337894e+000

3.67583473599047e+005,-1.24553309719571e+001,-5.78915792180978e+000

3.72714747669902e+005,-1.24552977700558e+001,-5.86999354986252e+000

3.77917651657445e+005,-1.24552636442844e+001,-5.95195853299164e+000

3.83193185478053e+005,-1.24552285692135e+001,-6.03506867581148e+000

3.88542363006410e+005,-1.24551925187303e+001,-6.11934000522143e+000

3.93966212270369e+005,-1.24551554660204e+001,-6.20478877358009e+000

3.99465775648511e+005,-1.24551173835500e+001,-6.29143146192427e+000

4.05042110070485e+005,-1.24550782430479e+001,-6.37928478323718e+000

4.10696287220124e+005,-1.24550380154869e+001,-6.46836568576462e+000

4.16429393741414e+005,-1.24549966710644e+001,-6.55869135638221e+000

4.22242531447321e+005,-1.24549541791829e+001,-6.65027922401101e+000

4.28136817531551e+005,-1.24549105084306e+001,-6.74314696308533e+000

4.34113384783250e+005,-1.24548656265607e+001,-6.83731249707374e+000

4.40173381804713e+005,-1.24548195004708e+001,-6.93279400205066e+000

4.46317973232124e+005,-1.24547720961815e+001,-7.02960991032415e+000

4.52548339959385e+005,-1.24547233788151e+001,-7.12777891411695e+000

4.58865679365059e+005,-1.24546733125735e+001,-7.22731996930371e+000

4.65271205542494e+005,-1.24546218607158e+001,-7.32825229920549e+000

4.71766149533147e+005,-1.24545689855350e+001,-7.43059539844070e+000

4.78351759563174e+005,-1.24545146483351e+001,-7.53436903683602e+000

4.85029301283321e+005,-1.24544588094072e+001,-7.63959326339542e+000

4.91800058012158e+005,-1.24544014280053e+001,-7.74628841033156e+000

4.98665330982714e+005,-1.24543424623215e+001,-7.85447509715787e+000

5.05626439592555e+005,-1.24542818694608e+001,-7.96417423484340e+000

5.12684721657352e+005,-1.24542196054159e+001,-8.07540703003225e+000

5.19841533667984e+005,-1.24541556250411e+001,-8.18819498932776e+000

5.27098251051240e+005,-1.24540898820258e+001,-8.30255992364237e+000

5.34456268434150e+005,-1.24540223288675e+001,-8.41852395261638e+000

5.41916999912011e+005,-1.24539529168451e+001,-8.53610950910314e+000

