Freq.,VOut,OutRef

1.00000000000000e+004,-2.28906069354719e+001,-3.14247933034808e-001

1.01395947979003e+004,-2.28906081666389e+001,-3.18634653896911e-001

1.02811382665607e+004,-2.28906094324183e+001,-3.23082610386145e-001

1.04246576084112e+004,-2.28906107337833e+001,-3.27592657290236e-001

1.05701804056138e+004,-2.28906120717343e+001,-3.32165661326809e-001

1.07177346253629e+004,-2.28906134472998e+001,-3.36802501312423e-001

1.08673486252606e+004,-2.28906148615373e+001,-3.41504068328981e-001

1.10190511587661e+004,-2.28906163155339e+001,-3.46271265896915e-001

1.11728713807222e+004,-2.28906178104074e+001,-3.51105010146815e-001

1.13288388529580e+004,-2.28906193473071e+001,-3.56006229996537e-001

1.14869835499703e+004,-2.28906209274144e+001,-3.60975867330099e-001

1.16473358646846e+004,-2.28906225519440e+001,-3.66014877178190e-001

1.18099266142953e+004,-2.28906242221447e+001,-3.71124227900643e-001

1.19747870461893e+004,-2.28906259393004e+001,-3.76304901373214e-001

1.21419488439505e+004,-2.28906277047314e+001,-3.81557893176920e-001

1.23114441334492e+004,-2.28906295197947e+001,-3.86884212787155e-001

1.24833054890161e+004,-2.28906313858856e+001,-3.92284883771537e-001

1.26575659397028e+004,-2.28906333044386e+001,-3.97760943981048e-001

1.28342589756290e+004,-2.28906352769288e+001,-4.03313445753610e-001

1.30134185544193e+004,-2.28906373048722e+001,-4.08943456115578e-001

1.31950791077289e+004,-2.28906393898280e+001,-4.14652056983987e-001

1.33792755478611e+004,-2.28906415333989e+001,-4.20440345378173e-001

1.35660432744767e+004,-2.28906437372327e+001,-4.26309433627106e-001

1.37554181813974e+004,-2.28906460030237e+001,-4.32260449585350e-001

1.39474366635040e+004,-2.28906483325134e+001,-4.38294536849062e-001

1.41421356237309e+004,-2.28906507274929e+001,-4.44412854973631e-001

1.43395524801583e+004,-2.28906531898031e+001,-4.50616579700397e-001

1.45397251732031e+004,-2.28906557213369e+001,-4.56906903178028e-001

1.47426921729110e+004,-2.28906583240403e+001,-4.63285034194655e-001

1.49484924863494e+004,-2.28906609999141e+001,-4.69752198408128e-001

1.51571656651040e+004,-2.28906637510154e+001,-4.76309638582794e-001

1.53687518128801e+004,-2.28906665794589e+001,-4.82958614827232e-001

1.55832915932100e+004,-2.28906694874190e+001,-4.89700404835346e-001

1.58008262372675e+004,-2.28906724771310e+001,-4.96536304133929e-001

1.60213975517924e+004,-2.28906755508933e+001,-5.03467626329630e-001

1.62450479271247e+004,-2.28906787110687e+001,-5.10495703361197e-001

1.64718203453514e+004,-2.28906819600863e+001,-5.17621885757662e-001

1.67017583885674e+004,-2.28906853004439e+001,-5.24847542893019e-001

1.69349062472505e+004,-2.28906887347093e+001,-5.32174063252825e-001

1.71713087287550e+004,-2.28906922655223e+001,-5.39602854700183e-001

1.74110112659224e+004,-2.28906958955971e+001,-5.47135344745795e-001

1.76540599258131e+004,-2.28906996277243e+001,-5.54772980819720e-001

1.79005014185594e+004,-2.28907034647726e+001,-5.62517230552906e-001

1.81503831063432e+004,-2.28907074096918e+001,-5.70369582056545e-001

1.84037530124975e+004,-2.28907114655142e+001,-5.78331544208458e-001

1.86606598307361e+004,-2.28907156353575e+001,-5.86404646942574e-001

1.89211529345119e+004,-2.28907199224271e+001,-5.94590441542125e-001

1.91852823865052e+004,-2.28907243300185e+001,-6.02890500937581e-001

1.94530989482457e+004,-2.28907288615198e+001,-6.11306420009856e-001

1.97246540898671e+004,-2.28907335204142e+001,-6.19839815894392e-001

1.99999999999999e+004,-2.28907383102830e+001,-6.28492328291861e-001

2.02791895958005e+004,-2.28907432348082e+001,-6.37265619784427e-001

2.05622765331213e+004,-2.28907482977752e+001,-6.46161376151766e-001

2.08493152168224e+004,-2.28907535030757e+001,-6.55181306698242e-001

2.11403608112276e+004,-2.28907588547109e+001,-6.64327144577964e-001

2.14354692507258e+004,-2.28907643567947e+001,-6.73600647127803e-001

2.17346972505211e+004,-2.28907700135561e+001,-6.83003596206243e-001

2.20381023175322e+004,-2.28907758293436e+001,-6.92537798532282e-001

2.23457427614443e+004,-2.28907818086274e+001,-7.02205086035295e-001

2.26576777059159e+004,-2.28907879560036e+001,-7.12007316203662e-001

2.29739670999406e+004,-2.28907942761975e+001,-7.21946372441789e-001

2.32946717293690e+004,-2.28908007740672e+001,-7.32024164433105e-001

2.36198532285905e+004,-2.28908074546073e+001,-7.42242628503624e-001

2.39495740923785e+004,-2.28908143229529e+001,-7.52603727994862e-001

2.42838976879009e+004,-2.28908213843832e+001,-7.63109453640205e-001

2.46228882668982e+004,-2.28908286443260e+001,-7.73761823946305e-001

2.49666109780322e+004,-2.28908361083616e+001,-7.84562885579892e-001

2.53151318794055e+004,-2.28908437822272e+001,-7.95514713760439e-001

2.56685179512580e+004,-2.28908516718212e+001,-8.06619412657775e-001

2.60268371088386e+004,-2.28908597832077e+001,-8.17879115796848e-001

2.63901582154578e+004,-2.28908681226214e+001,-8.29295986463707e-001

2.67585510957221e+004,-2.28908766964722e+001,-8.40872218122971e-001

2.71320865489533e+004,-2.28908855113500e+001,-8.52610034837487e-001

2.75108363627948e+004,-2.28908945740302e+001,-8.64511691692925e-001

2.78948733270080e+004,-2.28909038914783e+001,-8.76579475232130e-001

2.82842712474618e+004,-2.28909134708559e+001,-8.88815703891808e-001

2.86791049603164e+004,-2.28909233195257e+001,-9.01222728447180e-001

2.90794503464061e+004,-2.28909334450571e+001,-9.13802932462612e-001

2.94853843458219e+004,-2.28909438552328e+001,-9.26558732747199e-001

2.98969849726987e+004,-2.28909545580538e+001,-9.39492579819074e-001

3.03143313302078e+004,-2.28909655617460e+001,-9.52606958373223e-001

3.07375036257601e+004,-2.28909768747667e+001,-9.65904387758614e-001

3.11665831864199e+004,-2.28909885058106e+001,-9.79387422460268e-001

3.16016524745350e+004,-2.28910004638170e+001,-9.93058652587099e-001

3.20427951035848e+004,-2.28910127579763e+001,-1.00692070436903e+000

3.24900958542493e+004,-2.28910253977371e+001,-1.02097624066113e+000

3.29436406907028e+004,-2.28910383928138e+001,-1.03522796144874e+000

3.34035167771346e+004,-2.28910517531934e+001,-1.04967860436955e+000

3.38698124945009e+004,-2.28910654891440e+001,-1.06433094523318e+000

3.43426174575100e+004,-2.28910796112219e+001,-1.07918779855496e+000

3.48220225318448e+004,-2.28910941302802e+001,-1.09425201809276e+000

3.53081198516260e+004,-2.28911090574769e+001,-1.10952649739425e+000

3.58010028371187e+004,-2.28911244042838e+001,-1.12501417034853e+000

3.63007662126863e+004,-2.28911401824947e+001,-1.14071801174924e+000

3.68075060249948e+004,-2.28911564042350e+001,-1.15664103786143e+000

3.73213196614721e+004,-2.28911730819707e+001,-1.17278630699972e+000

3.78423058690237e+004,-2.28911902285184e+001,-1.18915692011116e+000

3.83705647730104e+004,-2.28912078570544e+001,-1.20575602137044e+000

3.89061978964912e+004,-2.28912259811255e+001,-1.22258679877744e+000

3.94493081797342e+004,-2.28912446146591e+001,-1.23965248476930e+000

3.99999999999998e+004,-2.28912637719739e+001,-1.25695635683587e+000

4.05583791916010e+004,-2.28912834677908e+001,-1.27450173814700e+000

4.11245530662425e+004,-2.28913037172445e+001,-1.29229199818579e+000

4.16986304336447e+004,-2.28913245358948e+001,-1.31033055339298e+000

4.22807216224550e+004,-2.28913459397387e+001,-1.32862086781878e+000

4.28709385014515e+004,-2.28913679452226e+001,-1.34716645378428e+000

4.34693945010421e+004,-2.28913905692551e+001,-1.36597087255028e+000

4.40762046350642e+004,-2.28914138292195e+001,-1.38503773499914e+000

4.46914855228886e+004,-2.28914377429878e+001,-1.40437070232067e+000

4.53153554118317e+004,-2.28914623289339e+001,-1.42397348671240e+000

4.59479341998812e+004,-2.28914876059480e+001,-1.44384985208660e+000

4.65893434587380e+004,-2.28915135934506e+001,-1.46400361478743e+000

4.72397064571810e+004,-2.28915403114082e+001,-1.48443864431872e+000

4.78991481847569e+004,-2.28915677803478e+001,-1.50515886408051e+000

4.85677953758016e+004,-2.28915960213734e+001,-1.52616825211726e+000

4.92457765337964e+004,-2.28916250561812e+001,-1.54747084187488e+000

4.99332219560642e+004,-2.28916549070773e+001,-1.56907072296780e+000

5.06302637588109e+004,-2.28916855969943e+001,-1.59097204195871e+000

5.13370359025159e+004,-2.28917171495085e+001,-1.61317900314703e+000

5.20536742176771e+004,-2.28917495888588e+001,-1.63569586936799e+000

5.27803164309155e+004,-2.28917829399647e+001,-1.65852696280377e+000

5.35171021914442e+004,-2.28918172284454e+001,-1.68167666580585e+000

5.42641730979066e+004,-2.28918524806398e+001,-1.70514942172601e+000

5.50216727255895e+004,-2.28918887236264e+001,-1.72894973576311e+000

5.57897466540159e+004,-2.28919259852440e+001,-1.75308217581585e+000

5.65685424949235e+004,-2.28919642941133e+001,-1.77755137335208e+000

5.73582099206328e+004,-2.28920036796585e+001,-1.80236202428772e+000

5.81589006928121e+004,-2.28920441721303e+001,-1.82751888987586e+000

5.89707686916437e+004,-2.28920858026284e+001,-1.85302679761245e+000

5.97939699453972e+004,-2.28921286031259e+001,-1.87889064214962e+000

6.06286626604156e+004,-2.28921726064936e+001,-1.90511538622337e+000

6.14750072515201e+004,-2.28922178465251e+001,-1.93170606159502e+000

6.23331663728396e+004,-2.28922643579627e+001,-1.95866777000297e+000

6.32033049490698e+004,-2.28923121765241e+001,-1.98600568412808e+000

6.40855902071694e+004,-2.28923613389294e+001,-2.01372504857356e+000

6.49801917084985e+004,-2.28924118829297e+001,-2.04183118085589e+000

6.58872813814055e+004,-2.28924638473358e+001,-2.07032947241002e+000

6.68070335542691e+004,-2.28925172720476e+001,-2.09922538960865e+000

6.77396249890018e+004,-2.28925721980849e+001,-2.12852447479413e+000

6.86852349150199e+004,-2.28926286676190e+001,-2.15823234732451e+000

6.96440450636895e+004,-2.28926867240043e+001,-2.18835470463371e+000

7.06162397032520e+004,-2.28927464118122e+001,-2.21889732330695e+000

7.16020056742374e+004,-2.28928077768645e+001,-2.24986606016741e+000

7.26015324253724e+004,-2.28928708662690e+001,-2.28126685338112e+000

7.36150120499896e+004,-2.28929357284551e+001,-2.31310572357425e+000

7.46426393229441e+004,-2.28930024132111e+001,-2.34538877496518e+000

7.56846117380472e+004,-2.28930709717219e+001,-2.37812219651376e+000

7.67411295460207e+004,-2.28931414566085e+001,-2.41131226308265e+000

7.78123957929823e+004,-2.28932139219679e+001,-2.44496533661683e+000

7.88986163594682e+004,-2.28932884234146e+001,-2.47908786733672e+000

7.99999999999995e+004,-2.28933650181230e+001,-2.51368639494855e+000

8.11167583832018e+004,-2.28934437648707e+001,-2.54876754986990e+000

8.22491061324848e+004,-2.28935247240842e+001,-2.58433805447038e+000

8.33972608672892e+004,-2.28936079578840e+001,-2.62040472433118e+000

8.45614432449099e+004,-2.28936935301328e+001,-2.65697446951864e+000

8.57418770029029e+004,-2.28937815064838e+001,-2.69405429587527e+000

8.69387890020841e+004,-2.28938719544309e+001,-2.73165130632798e+000

8.81524092701283e+004,-2.28939649433600e+001,-2.76977270221399e+000

8.93829710457770e+004,-2.28940605446023e+001,-2.80842578462124e+000

9.06307108236633e+004,-2.28941588314878e+001,-2.84761795575011e+000

9.18958683997622e+004,-2.28942598794024e+001,-2.88735672028858e+000

9.31786869174758e+004,-2.28943637658442e+001,-2.92764968680898e+000

9.44794129143618e+004,-2.28944705704832e+001,-2.96850456918021e+000

9.57982963695136e+004,-2.28945803752214e+001,-3.00992918799920e+000

9.71355907516031e+004,-2.28946932642560e+001,-3.05193147203963e+000

9.84915530675926e+004,-2.28948093241422e+001,-3.09451945972122e+000

9.98664439121282e+004,-2.28949286438604e+001,-3.13770130059526e+000

1.01260527517622e+005,-2.28950513148827e+001,-3.18148525685125e+000

1.02674071805032e+005,-2.28951774312432e+001,-3.22587970484078e+000

1.04107348435354e+005,-2.28953070896091e+001,-3.27089313662205e+000

1.05560632861831e+005,-2.28954403893542e+001,-3.31653416152324e+000

1.07034204382888e+005,-2.28955774326345e+001,-3.36281150772550e+000

1.08528346195813e+005,-2.28957183244653e+001,-3.40973402386618e+000

1.10043345451179e+005,-2.28958631728016e+001,-3.45731068066120e+000

1.11579493308032e+005,-2.28960120886195e+001,-3.50555057254869e+000

1.13137084989847e+005,-2.28961651860003e+001,-3.55446291935259e+000

1.14716419841265e+005,-2.28963225822175e+001,-3.60405706796562e+000

1.16317801385624e+005,-2.28964843978248e+001,-3.65434249405580e+000

1.17941537383287e+005,-2.28966507567483e+001,-3.70532880379019e+000

1.19587939890794e+005,-2.28968217863798e+001,-3.75702573558302e+000

1.21257325320831e+005,-2.28969976176733e+001,-3.80944316186283e+000

1.22950014503040e+005,-2.28971783852441e+001,-3.86259109086192e+000

1.24666332745679e+005,-2.28973642274706e+001,-3.91647966842730e+000

1.26406609898139e+005,-2.28975552865988e+001,-3.97111917985338e+000

1.28171180414339e+005,-2.28977517088498e+001,-4.02652005173567e+000

1.29960383416997e+005,-2.28979536445300e+001,-4.08269285384836e+000

1.31774562762811e+005,-2.28981612481450e+001,-4.13964830104159e+000

1.33614067108538e+005,-2.28983746785154e+001,-4.19739725516345e+000

1.35479249978003e+005,-2.28985940988974e+001,-4.25595072700257e+000

1.37370469830040e+005,-2.28988196771048e+001,-4.31531987825411e+000

1.39288090127379e+005,-2.28990515856363e+001,-4.37551602350851e+000

1.41232479406504e+005,-2.28992900018046e+001,-4.43655063226268e+000

1.43204011348474e+005,-2.28995351078701e+001,-4.49843533095426e+000

1.45203064850745e+005,-2.28997870911776e+001,-4.56118190501893e+000

1.47230024099979e+005,-2.29000461442973e+001,-4.62480230097075e+000

1.49285278645888e+005,-2.29003124651694e+001,-4.68930862850557e+000

1.51369223476094e+005,-2.29005862572521e+001,-4.75471316262851e+000

1.53482259092041e+005,-2.29008677296745e+001,-4.82102834580354e+000

1.55624791585964e+005,-2.29011570973931e+001,-4.88826679012765e+000

1.57797232718936e+005,-2.29014545813526e+001,-4.95644127952766e+000

1.59999999999999e+005,-2.29017604086514e+001,-5.02556477198117e+000

1.62233516766403e+005,-2.29020748127111e+001,-5.09565040176057e+000

1.64498212264969e+005,-2.29023980334508e+001,-5.16671148170067e+000

1.66794521734578e+005,-2.29027303174659e+001,-5.23876150549099e+000

1.69122886489819e+005,-2.29030719182126e+001,-5.31181414998934e+000

1.71483754005805e+005,-2.29034230961959e+001,-5.38588327756159e+000

1.73877578004168e+005,-2.29037841191638e+001,-5.46098293844303e+000

1.76304818540256e+005,-2.29041552623064e+001,-5.53712737312410e+000

1.78765942091554e+005,-2.29045368084601e+001,-5.61433101475927e+000

1.81261421647326e+005,-2.29049290483174e+001,-5.69260849159950e+000

1.83791736799524e+005,-2.29053322806430e+001,-5.77197462944743e+000

1.86357373834951e+005,-2.29057468124940e+001,-5.85244445413660e+000

1.88958825828723e+005,-2.29061729594478e+001,-5.93403319403235e+000

1.91596592739027e+005,-2.29066110458351e+001,-6.01675628255688e+000

1.94271181503206e+005,-2.29070614049792e+001,-6.10062936073628e+000

1.96983106135185e+005,-2.29075243794414e+001,-6.18566827976974e+000

1.99732887824256e+005,-2.29080003212740e+001,-6.27188910362189e+000

2.02521055035243e+005,-2.29084895922783e+001,-6.35930811163640e+000

2.05348143610063e+005,-2.29089925642711e+001,-6.44794180117153e+000

2.08214696870707e+005,-2.29095096193566e+001,-6.53780689025696e+000

2.11121265723661e+005,-2.29100411502074e+001,-6.62892032027177e+000

2.14068408765776e+005,-2.29105875603505e+001,-6.72129925864409e+000

2.17056692391625e+005,-2.29111492644631e+001,-6.81496110156882e+000

2.20086690902357e+005,-2.29117266886743e+001,-6.90992347674782e+000

2.23158986616063e+005,-2.29123202708759e+001,-7.00620424614845e+000

2.26274169979693e+005,-2.29129304610408e+001,-7.10382150878028e+000

2.29432839682530e+005,-2.29135577215494e+001,-7.20279360349209e+000

2.32635602771247e+005,-2.29142025275250e+001,-7.30313911178525e+000

2.35883074766574e+005,-2.29148653671774e+001,-7.40487686064505e+000

2.39175879781588e+005,-2.29155467421558e+001,-7.50802592538920e+000

2.42514650641661e+005,-2.29162471679103e+001,-7.61260563253103e+000

2.45900029006080e+005,-2.29169671740629e+001,-7.71863556265911e+000

2.49332665491357e+005,-2.29177073047882e+001,-7.82613555333098e+000

2.52813219796278e+005,-2.29184681192032e+001,-7.93512570198024e+000

2.56342360828676e+005,-2.29192501917674e+001,-8.04562636883735e+000

2.59920766833993e+005,-2.29200541126935e+001,-8.15765817986084e+000

2.63549125525621e+005,-2.29208804883672e+001,-8.27124202968079e+000

2.67228134217075e+005,-2.29217299417788e+001,-8.38639908455145e+000

2.70958499956006e+005,-2.29226031129650e+001,-8.50315078531271e+000

2.74740939660078e+005,-2.29235006594619e+001,-8.62151885035946e+000

2.78576180254757e+005,-2.29244232567691e+001,-8.74152527861701e+000

2.82464958813007e+005,-2.29253715988255e+001,-8.86319235252129e+000

2.86408022696948e+005,-2.29263463984971e+001,-8.98654264100390e+000

2.90406129701488e+005,-2.29273483880760e+001,-9.11159900247824e+000

2.94460048199957e+005,-2.29283783197923e+001,-9.23838458782700e+000

2.98570557291775e+005,-2.29294369663385e+001,-9.36692284338911e+000

3.02738446952187e+005,-2.29305251214060e+001,-9.49723751394377e+000

3.06964518184081e+005,-2.29316436002356e+001,-9.62935264569044e+000

3.11249583171928e+005,-2.29327932401800e+001,-9.76329258922330e+000

3.15594465437872e+005,-2.29339749012805e+001,-9.89908200249739e+000

3.19999999999997e+005,-2.29351894668578e+001,-1.00367458537843e+001

3.24467033532806e+005,-2.29364378441156e+001,-1.01763094246174e+001

3.28996424529938e+005,-2.29377209647596e+001,-1.03177983127213e+001

3.33589043469155e+005,-2.29390397856302e+001,-1.04612384349259e+001

3.38245772979638e+005,-2.29403952893503e+001,-1.06066560300608e+001

3.42967508011610e+005,-2.29417884849879e+001,-1.07540776618287e+001

3.47755156008335e+005,-2.29432204087340e+001,-1.09035302216551e+001

3.52609637080511e+005,-2.29446921245963e+001,-1.10550409315106e+001

3.57531884183106e+005,-2.29462047251075e+001,-1.12086373467039e+001

3.62522843294651e+005,-2.29477593320510e+001,-1.13643473586428e+001

3.67583473599047e+005,-2.29493570972017e+001,-1.15221991975583e+001

3.72714747669902e+005,-2.29509992030839e+001,-1.16822214351912e+001

3.77917651657445e+005,-2.29526868637450e+001,-1.18444429874357e+001

3.83193185478053e+005,-2.29544213255472e+001,-1.20088931169374e+001

3.88542363006410e+005,-2.29562038679753e+001,-1.21756014356421e+001

3.93966212270369e+005,-2.29580358044618e+001,-1.23445979072913e+001

3.99465775648511e+005,-2.29599184832307e+001,-1.25159128498611e+001

4.05042110070485e+005,-2.29618532881571e+001,-1.26895769379397e+001

4.10696287220124e+005,-2.29638416396462e+001,-1.28656212050390e+001

4.16429393741414e+005,-2.29658849955294e+001,-1.30440770458381e+001

4.22242531447321e+005,-2.29679848519789e+001,-1.32249762183512e+001

4.28136817531551e+005,-2.29701427444410e+001,-1.34083508460166e+001

4.34113384783250e+005,-2.29723602485867e+001,-1.35942334197028e+001

4.40173381804713e+005,-2.29746389812822e+001,-1.37826567996251e+001

4.46317973232124e+005,-2.29769806015772e+001,-1.39736542171681e+001

4.52548339959385e+005,-2.29793868117120e+001,-1.41672592766093e+001

4.58865679365059e+005,-2.29818593581439e+001,-1.43635059567368e+001

4.65271205542494e+005,-2.29844000325919e+001,-1.45624286123575e+001

4.71766149533147e+005,-2.29870106731004e+001,-1.47640619756868e+001

4.78351759563174e+005,-2.29896931651222e+001,-1.49684411576174e+001

4.85029301283321e+005,-2.29924494426193e+001,-1.51756016488577e+001

4.91800058012158e+005,-2.29952814891835e+001,-1.53855793209348e+001

4.98665330982714e+005,-2.29981913391751e+001,-1.55984104270550e+001

5.05626439592555e+005,-2.30011810788806e+001,-1.58141316028156e+001

5.12684721657352e+005,-2.30042528476881e+001,-1.60327798667598e+001

5.19841533667984e+005,-2.30074088392814e+001,-1.62543926207682e+001

5.27098251051240e+005,-2.30106513028521e+001,-1.64790076502792e+001

5.34456268434150e+005,-2.30139825443296e+001,-1.67066631243304e+001

5.41916999912011e+005,-2.30174049276278e+001,-1.69373975954139e+001

