Freq.,VOut,OutRef

1.00000000000000e+004,-4.19165020005490e+001,-4.04976428312672e-001

1.01395947979003e+004,-4.19165044348746e+001,-4.10629644750523e-001

1.02811382665607e+004,-4.19165069376372e+001,-4.16361775287194e-001

1.04246576084112e+004,-4.19165095107608e+001,-4.22173921444120e-001

1.05701804056138e+004,-4.19165121562232e+001,-4.28067200115899e-001

1.07177346253629e+004,-4.19165148760584e+001,-4.34042743782909e-001

1.08673486252606e+004,-4.19165176723570e+001,-4.40101700733382e-001

1.10190511587661e+004,-4.19165205472686e+001,-4.46245235279150e-001

1.11728713807222e+004,-4.19165235030033e+001,-4.52474527982755e-001

1.13288388529580e+004,-4.19165265418332e+001,-4.58790775882117e-001

1.14869835499703e+004,-4.19165296660943e+001,-4.65195192720312e-001

1.16473358646846e+004,-4.19165328781884e+001,-4.71689009179715e-001

1.18099266142953e+004,-4.19165361805846e+001,-4.78273473118177e-001

1.19747870461893e+004,-4.19165395758215e+001,-4.84949849806596e-001

1.21419488439505e+004,-4.19165430665092e+001,-4.91719422175060e-001

1.23114441334492e+004,-4.19165466553310e+001,-4.98583491056051e-001

1.24833054890161e+004,-4.19165503450456e+001,-5.05543375436410e-001

1.26575659397028e+004,-4.19165541384894e+001,-5.12600412708845e-001

1.28342589756290e+004,-4.19165580385784e+001,-5.19755958930258e-001

1.30134185544193e+004,-4.19165620483108e+001,-5.27011389080294e-001

1.31950791077289e+004,-4.19165661707687e+001,-5.34368097326108e-001

1.33792755478611e+004,-4.19165704091213e+001,-5.41827497290196e-001

1.35660432744767e+004,-4.19165747666264e+001,-5.49391022322229e-001

1.37554181813974e+004,-4.19165792466338e+001,-5.57060125771191e-001

1.39474366635040e+004,-4.19165838525871e+001,-5.64836281268281e-001

1.41421356237309e+004,-4.19165885880271e+001,-5.72720983006855e-001

1.43395524801583e+004,-4.19165934565938e+001,-5.80715746030157e-001

1.45397251732031e+004,-4.19165984620297e+001,-5.88822106522428e-001

1.47426921729110e+004,-4.19166036081824e+001,-5.97041622102518e-001

1.49484924863494e+004,-4.19166088990076e+001,-6.05375872123845e-001

1.51571656651040e+004,-4.19166143385724e+001,-6.13826457976493e-001

1.53687518128801e+004,-4.19166199310581e+001,-6.22395003394357e-001

1.55832915932100e+004,-4.19166256807636e+001,-6.31083154768073e-001

1.58008262372675e+004,-4.19166315921084e+001,-6.39892581459475e-001

1.60213975517924e+004,-4.19166376696366e+001,-6.48824976122055e-001

1.62450479271247e+004,-4.19166439180197e+001,-6.57882055025336e-001

1.64718203453514e+004,-4.19166503420608e+001,-6.67065558384701e-001

1.67017583885674e+004,-4.19166569466977e+001,-6.76377250695202e-001

1.69349062472505e+004,-4.19166637370072e+001,-6.85818921068933e-001

1.71713087287550e+004,-4.19166707182088e+001,-6.95392383579002e-001

1.74110112659224e+004,-4.19166778956688e+001,-7.05099477606237e-001

1.76540599258131e+004,-4.19166852749039e+001,-7.14942068194019e-001

1.79005014185594e+004,-4.19166928615864e+001,-7.24922046403133e-001

1.81503831063432e+004,-4.19167006615477e+001,-7.35041329676851e-001

1.84037530124975e+004,-4.19167086807832e+001,-7.45301862206466e-001

1.86606598307361e+004,-4.19167169254568e+001,-7.55705615304453e-001

1.89211529345119e+004,-4.19167254019058e+001,-7.66254587783299e-001

1.91852823865052e+004,-4.19167341166454e+001,-7.76950806336912e-001

1.94530989482457e+004,-4.19167430763740e+001,-7.87796325931110e-001

1.97246540898671e+004,-4.19167522879783e+001,-7.98793230194937e-001

1.99999999999999e+004,-4.19167617585386e+001,-8.09943631821846e-001

2.02791895958005e+004,-4.19167714953342e+001,-8.21249672973357e-001

2.05622765331213e+004,-4.19167815058487e+001,-8.32713525689976e-001

2.08493152168224e+004,-4.19167917977765e+001,-8.44337392306740e-001

2.11403608112276e+004,-4.19168023790279e+001,-8.56123505875658e-001

2.14354692507258e+004,-4.19168132577358e+001,-8.68074130592491e-001

2.17346972505211e+004,-4.19168244422614e+001,-8.80191562231640e-001

2.20381023175322e+004,-4.19168359412010e+001,-8.92478128583816e-001

2.23457427614443e+004,-4.19168477633925e+001,-9.04936189903832e-001

2.26576777059159e+004,-4.19168599179223e+001,-9.17568139360450e-001

2.29739670999406e+004,-4.19168724141321e+001,-9.30376403496379e-001

2.32946717293690e+004,-4.19168852616259e+001,-9.43363442690902e-001

2.36198532285905e+004,-4.19168984702779e+001,-9.56531751631645e-001

2.39495740923785e+004,-4.19169120502397e+001,-9.69883859792390e-001

2.42838976879009e+004,-4.19169260119482e+001,-9.83422331915273e-001

2.46228882668982e+004,-4.19169403661337e+001,-9.97149768503012e-001

2.49666109780322e+004,-4.19169551238278e+001,-1.01106880631647e+000

2.53151318794055e+004,-4.19169702963722e+001,-1.02518211887721e+000

2.56685179512580e+004,-4.19169858954275e+001,-1.03949241698011e+000

2.60268371088386e+004,-4.19170019329818e+001,-1.05400244921125e+000

2.63901582154578e+004,-4.19170184213601e+001,-1.06871500247385e+000

2.67585510957221e+004,-4.19170353732339e+001,-1.08363290251913e+000

2.71320865489533e+004,-4.19170528016304e+001,-1.09875901448948e+000

2.75108363627948e+004,-4.19170707199434e+001,-1.11409624346211e+000

2.78948733270080e+004,-4.19170891419424e+001,-1.12964753500740e+000

2.82842712474618e+004,-4.19171080817846e+001,-1.14541587574889e+000

2.86791049603164e+004,-4.19171275540242e+001,-1.16140429393626e+000

2.90794503464061e+004,-4.19171475736248e+001,-1.17761586002120e+000

2.94853843458219e+004,-4.19171681559705e+001,-1.19405368724421e+000

2.98969849726987e+004,-4.19171893168773e+001,-1.21072093223042e+000

3.03143313302078e+004,-4.19172110726061e+001,-1.22762079558917e+000

3.07375036257601e+004,-4.19172334398741e+001,-1.24475652252715e+000

3.11665831864199e+004,-4.19172564358685e+001,-1.26213140346638e+000

3.16016524745350e+004,-4.19172800782593e+001,-1.27974877467148e+000

3.20427951035848e+004,-4.19173043852131e+001,-1.29761201888659e+000

3.24900958542493e+004,-4.19173293754067e+001,-1.31572456597959e+000

3.29436406907028e+004,-4.19173550680415e+001,-1.33408989359599e+000

3.34035167771346e+004,-4.19173814828586e+001,-1.35271152782202e+000

3.38698124945009e+004,-4.19174086401536e+001,-1.37159304385517e+000

3.43426174575100e+004,-4.19174365607921e+001,-1.39073806668646e+000

3.48220225318448e+004,-4.19174652662261e+001,-1.41015027178972e+000

3.53081198516260e+004,-4.19174947785098e+001,-1.42983338582188e+000

3.58010028371187e+004,-4.19175251203173e+001,-1.44979118733165e+000

3.63007662126863e+004,-4.19175563149595e+001,-1.47002750747797e+000

3.68075060249948e+004,-4.19175883864019e+001,-1.49054623076003e+000

3.73213196614721e+004,-4.19176213592835e+001,-1.51135129575488e+000

3.78423058690237e+004,-4.19176552589349e+001,-1.53244669586580e+000

3.83705647730104e+004,-4.19176901113985e+001,-1.55383648008206e+000

3.89061978964912e+004,-4.19177259434479e+001,-1.57552475374757e+000

3.94493081797342e+004,-4.19177627826089e+001,-1.59751567933997e+000

3.99999999999998e+004,-4.19178006571801e+001,-1.61981347726155e+000

4.05583791916010e+004,-4.19178395962548e+001,-1.64242242664067e+000

4.11245530662425e+004,-4.19178796297436e+001,-1.66534686614132e+000

4.16986304336447e+004,-4.19179207883968e+001,-1.68859119478837e+000

4.22807216224550e+004,-4.19179631038282e+001,-1.71215987279987e+000

4.28709385014515e+004,-4.19180066085394e+001,-1.73605742243290e+000

4.34693945010421e+004,-4.19180513359446e+001,-1.76028842883952e+000

4.40762046350642e+004,-4.19180973203962e+001,-1.78485754093560e+000

4.46914855228886e+004,-4.19181445972110e+001,-1.80976947228005e+000

4.53153554118317e+004,-4.19181932026976e+001,-1.83502900196638e+000

4.59479341998812e+004,-4.19182431741837e+001,-1.86064097552725e+000

4.65893434587380e+004,-4.19182945500450e+001,-1.88661030584909e+000

4.72397064571810e+004,-4.19183473697346e+001,-1.91294197410076e+000

4.78991481847569e+004,-4.19184016738131e+001,-1.93964103067444e+000

4.85677953758016e+004,-4.19184575039794e+001,-1.96671259613765e+000

4.92457765337964e+004,-4.19185149031033e+001,-1.99416186220033e+000

4.99332219560642e+004,-4.19185739152574e+001,-2.02199409269235e+000

5.06302637588109e+004,-4.19186345857516e+001,-2.05021462455660e+000

5.13370359025159e+004,-4.19186969611672e+001,-2.07882886885285e+000

5.20536742176771e+004,-4.19187610893929e+001,-2.10784231177666e+000

5.27803164309155e+004,-4.19188270196613e+001,-2.13726051569173e+000

5.35171021914442e+004,-4.19188948025862e+001,-2.16708912017460e+000

5.42641730979066e+004,-4.19189644902021e+001,-2.19733384307436e+000

5.50216727255895e+004,-4.19190361360031e+001,-2.22800048158670e+000

5.57897466540159e+004,-4.19191097949842e+001,-2.25909491334086e+000

5.65685424949235e+004,-4.19191855236834e+001,-2.29062309750191e+000

5.73582099206328e+004,-4.19192633802247e+001,-2.32259107588676e+000

5.81589006928121e+004,-4.19193434243626e+001,-2.35500497409619e+000

5.89707686916437e+004,-4.19194257175276e+001,-2.38787100265995e+000

5.97939699453972e+004,-4.19195103228733e+001,-2.42119545819786e+000

6.06286626604156e+004,-4.19195973053243e+001,-2.45498472459695e+000

6.14750072515201e+004,-4.19196867316264e+001,-2.48924527420088e+000

6.23331663728396e+004,-4.19197786703965e+001,-2.52398366901877e+000

6.32033049490698e+004,-4.19198731921760e+001,-2.55920656194724e+000

6.40855902071694e+004,-4.19199703694839e+001,-2.59492069800839e+000

6.49801917084985e+004,-4.19200702768724e+001,-2.63113291560475e+000

6.58872813814055e+004,-4.19201729909837e+001,-2.66785014779009e+000

6.68070335542691e+004,-4.19202785906084e+001,-2.70507942355603e+000

6.77396249890018e+004,-4.19203871567455e+001,-2.74282786913547e+000

6.86852349150199e+004,-4.19204987726641e+001,-2.78110270932316e+000

6.96440450636895e+004,-4.19206135239669e+001,-2.81991126881295e+000

7.06162397032520e+004,-4.19207314986555e+001,-2.85926097355093e+000

7.16020056742374e+004,-4.19208527871969e+001,-2.89915935210788e+000

7.26015324253724e+004,-4.19209774825929e+001,-2.93961403706696e+000

7.36150120499896e+004,-4.19211056804506e+001,-2.98063276643023e+000

7.46426393229441e+004,-4.19212374790553e+001,-3.02222338504306e+000

7.56846117380472e+004,-4.19213729794448e+001,-3.06439384603465e+000

7.67411295460207e+004,-4.19215122854866e+001,-3.10715221227881e+000

7.78123957929823e+004,-4.19216555039569e+001,-3.15050665787186e+000

7.88986163594682e+004,-4.19218027446213e+001,-3.19446546962810e+000

7.99999999999995e+004,-4.19219541203183e+001,-3.23903704859533e+000

8.11167583832018e+004,-4.19221097470453e+001,-3.28422991158850e+000

8.22491061324848e+004,-4.19222697440462e+001,-3.33005269274095e+000

8.33972608672892e+004,-4.19224342339019e+001,-3.37651414507699e+000

8.45614432449099e+004,-4.19226033426237e+001,-3.42362314210178e+000

8.57418770029029e+004,-4.19227771997481e+001,-3.47138867941038e+000

8.69387890020841e+004,-4.19229559384354e+001,-3.51981987631834e+000

8.81524092701283e+004,-4.19231396955707e+001,-3.56892597750873e+000

8.93829710457770e+004,-4.19233286118669e+001,-3.61871635470235e+000

9.06307108236633e+004,-4.19235228319718e+001,-3.66920050834416e+000

9.18958683997622e+004,-4.19237225045774e+001,-3.72038806931328e+000

9.31786869174758e+004,-4.19239277825319e+001,-3.77228880065003e+000

9.44794129143618e+004,-4.19241388229557e+001,-3.82491259930516e+000

9.57982963695136e+004,-4.19243557873598e+001,-3.87826949790931e+000

9.71355907516031e+004,-4.19245788417677e+001,-3.93236966656133e+000

9.84915530675926e+004,-4.19248081568409e+001,-3.98722341463914e+000

9.98664439121282e+004,-4.19250439080073e+001,-4.04284119263026e+000

1.01260527517622e+005,-4.19252862755939e+001,-4.09923359398363e+000

1.02674071805032e+005,-4.19255354449620e+001,-4.15641135698132e+000

1.04107348435354e+005,-4.19257916066473e+001,-4.21438536663265e+000

1.05560632861831e+005,-4.19260549565028e+001,-4.27316665658780e+000

1.07034204382888e+005,-4.19263256958466e+001,-4.33276641107451e+000

1.08528346195813e+005,-4.19266040316128e+001,-4.39319596685350e+000

1.10043345451179e+005,-4.19268901765069e+001,-4.45446681519708e+000

1.11579493308032e+005,-4.19271843491657e+001,-4.51659060388807e+000

1.13137084989847e+005,-4.19274867743212e+001,-4.57957913924084e+000

1.14716419841265e+005,-4.19277976829687e+001,-4.64344438814209e+000

1.16317801385624e+005,-4.19281173125404e+001,-4.70819848011499e+000

1.17941537383287e+005,-4.19284459070825e+001,-4.77385370940317e+000

1.19587939890794e+005,-4.19287837174382e+001,-4.84042253707638e+000

1.21257325320831e+005,-4.19291310014346e+001,-4.90791759315803e+000

1.22950014503040e+005,-4.19294880240758e+001,-4.97635167877323e+000

1.24666332745679e+005,-4.19298550577400e+001,-5.04573776831867e+000

1.26406609898139e+005,-4.19302323823832e+001,-5.11608901165288e+000

1.28171180414339e+005,-4.19306202857470e+001,-5.18741873630837e+000

1.29960383416997e+005,-4.19310190635732e+001,-5.25974044972436e+000

1.31774562762811e+005,-4.19314290198232e+001,-5.33306784150044e+000

1.33614067108538e+005,-4.19318504669042e+001,-5.40741478567068e+000

1.35479249978003e+005,-4.19322837259006e+001,-5.48279534299878e+000

1.37370469830040e+005,-4.19327291268125e+001,-5.55922376329300e+000

1.39288090127379e+005,-4.19331870087991e+001,-5.63671448774210e+000

1.41232479406504e+005,-4.19336577204306e+001,-5.71528215127047e+000

1.43204011348474e+005,-4.19341416199450e+001,-5.79494158491352e+000

1.45203064850745e+005,-4.19346390755127e+001,-5.87570781821248e+000

1.47230024099979e+005,-4.19351504655080e+001,-5.95759608162794e+000

1.49285278645888e+005,-4.19356761787875e+001,-6.04062180897300e+000

1.51369223476094e+005,-4.19362166149759e+001,-6.12480063986458e+000

1.53482259092041e+005,-4.19367721847600e+001,-6.21014842219269e+000

1.55624791585964e+005,-4.19373433101893e+001,-6.29668121460830e+000

1.57797232718936e+005,-4.19379304249854e+001,-6.38441528902716e+000

1.59999999999999e+005,-4.19385339748591e+001,-6.47336713315215e+000

1.62233516766403e+005,-4.19391544178364e+001,-6.56355345301075e+000

1.64498212264969e+005,-4.19397922245920e+001,-6.65499117550891e+000

1.66794521734578e+005,-4.19404478787921e+001,-6.74769745100054e+000

1.69122886489819e+005,-4.19411218774464e+001,-6.84168965587065e+000

1.71483754005805e+005,-4.19418147312686e+001,-6.93698539513377e+000

1.73877578004168e+005,-4.19425269650468e+001,-7.03360250504460e+000

1.76304818540256e+005,-4.19432591180229e+001,-7.13155905572204e+000

1.78765942091554e+005,-4.19440117442824e+001,-7.23087335378514e+000

1.81261421647326e+005,-4.19447854131534e+001,-7.33156394499909e+000

1.83791736799524e+005,-4.19455807096169e+001,-7.43364961693236e+000

1.86357373834951e+005,-4.19463982347265e+001,-7.53714940162253e+000

1.88958825828723e+005,-4.19472386060396e+001,-7.64208257825076e+000

1.91596592739027e+005,-4.19481024580590e+001,-7.74846867582268e+000

1.94271181503206e+005,-4.19489904426860e+001,-7.85632747585634e+000

1.96983106135185e+005,-4.19499032296851e+001,-7.96567901507404e+000

1.99732887824256e+005,-4.19508415071596e+001,-8.07654358809945e+000

2.02521055035243e+005,-4.19518059820402e+001,-8.18894175015470e+000

2.05348143610063e+005,-4.19527973805847e+001,-8.30289431976186e+000

2.08214696870707e+005,-4.19538164488914e+001,-8.41842238144070e+000

2.11121265723661e+005,-4.19548639534239e+001,-8.53554728840684e+000

2.14068408765776e+005,-4.19559406815498e+001,-8.65429066526642e+000

2.17056692391625e+005,-4.19570474420921e+001,-8.77467441070412e+000

2.20086690902357e+005,-4.19581850658948e+001,-8.89672070016648e+000

2.23158986616063e+005,-4.19593544064014e+001,-9.02045198853527e+000

2.26274169979693e+005,-4.19605563402478e+001,-9.14589101279087e+000

2.29432839682530e+005,-4.19617917678701e+001,-9.27306079466329e+000

2.32635602771247e+005,-4.19630616141262e+001,-9.40198464326853e+000

2.35883074766574e+005,-4.19643668289325e+001,-9.53268615772841e+000

2.39175879781588e+005,-4.19657083879162e+001,-9.66518922977134e+000

2.42514650641661e+005,-4.19670872930822e+001,-9.79951804631122e+000

2.45900029006080e+005,-4.19685045734967e+001,-9.93569709200411e+000

2.49332665491357e+005,-4.19699612859860e+001,-1.00737511517767e+001

2.52813219796278e+005,-4.19714585158519e+001,-1.02137053133264e+001

2.56342360828676e+005,-4.19729973776037e+001,-1.03555849695900e+001

2.59920766833993e+005,-4.19745790157069e+001,-1.04994158211770e+001

2.63549125525621e+005,-4.19762046053490e+001,-1.06452238787645e+001

2.67228134217075e+005,-4.19778753532224e+001,-1.07930354654524e+001

2.70958499956006e+005,-4.19795924983256e+001,-1.09428772190724e+001

2.74740939660078e+005,-4.19813573127819e+001,-1.10947760944510e+001

2.78576180254757e+005,-4.19831711026756e+001,-1.12487593656195e+001

2.82464958813007e+005,-4.19850352089081e+001,-1.14048546279695e+001

2.86408022696948e+005,-4.19869510080708e+001,-1.15630898003493e+001

2.90406129701488e+005,-4.19889199133386e+001,-1.17234931270974e+001

2.94460048199957e+005,-4.19909433753813e+001,-1.18860931800078e+001

2.98570557291775e+005,-4.19930228832947e+001,-1.20509188602251e+001

3.02738446952187e+005,-4.19951599655517e+001,-1.22179994000622e+001

3.06964518184081e+005,-4.19973561909723e+001,-1.23873643647381e+001

3.11249583171928e+005,-4.19996131697142e+001,-1.25590436540293e+001

3.15594465437872e+005,-4.20019325542831e+001,-1.27330675038315e+001

3.19999999999997e+005,-4.20043160405637e+001,-1.29094664876246e+001

3.24467033532806e+005,-4.20067653688707e+001,-1.30882715178374e+001

3.28996424529938e+005,-4.20092823250205e+001,-1.32695138471047e+001

3.33589043469155e+005,-4.20118687414238e+001,-1.34532250694130e+001

3.38245772979638e+005,-4.20145264981984e+001,-1.36394371211273e+001

3.42967508011610e+005,-4.20172575243038e+001,-1.38281822818930e+001

3.47755156008335e+005,-4.20200637986955e+001,-1.40194931754082e+001

3.52609637080511e+005,-4.20229473515013e+001,-1.42134027700583e+001

3.57531884183106e+005,-4.20259102652179e+001,-1.44099443794064e+001

3.62522843294651e+005,-4.20289546759283e+001,-1.46091516625333e+001

3.67583473599047e+005,-4.20320827745408e+001,-1.48110586242198e+001

3.72714747669902e+005,-4.20352968080482e+001,-1.50156996149631e+001

3.77917651657445e+005,-4.20385990808074e+001,-1.52231093308222e+001

3.83193185478053e+005,-4.20419919558404e+001,-1.54333228130806e+001

3.88542363006410e+005,-4.20454778561545e+001,-1.56463754477235e+001

3.93966212270369e+005,-4.20490592660838e+001,-1.58623029647166e+001

3.99465775648511e+005,-4.20527387326493e+001,-1.60811414370815e+001

4.05042110070485e+005,-4.20565188669395e+001,-1.63029272797577e+001

4.10696287220124e+005,-4.20604023455094e+001,-1.65276972482429e+001

4.16429393741414e+005,-4.20643919117988e+001,-1.67554884370030e+001

4.22242531447321e+005,-4.20684903775685e+001,-1.69863382776418e+001

4.28136817531551e+005,-4.20727006243545e+001,-1.72202845368231e+001

4.34113384783250e+005,-4.20770256049390e+001,-1.74573653139330e+001

4.40173381804713e+005,-4.20814683448383e+001,-1.76976190384754e+001

4.46317973232124e+005,-4.20860319438064e+001,-1.79410844671900e+001

4.52548339959385e+005,-4.20907195773537e+001,-1.81878006808818e+001

4.58865679365059e+005,-4.20955344982798e+001,-1.84378070809545e+001

4.65271205542494e+005,-4.21004800382196e+001,-1.86911433856352e+001

4.71766149533147e+005,-4.21055596092022e+001,-1.89478496258819e+001

4.78351759563174e+005,-4.21107767052203e+001,-1.92079661409616e+001

4.85029301283321e+005,-4.21161349038103e+001,-1.94715335736917e+001

4.91800058012158e+005,-4.21216378676411e+001,-1.97385928653295e+001

4.98665330982714e+005,-4.21272893461102e+001,-2.00091852501041e+001

5.05626439592555e+005,-4.21330931769463e+001,-2.02833522493764e+001

5.12684721657352e+005,-4.21390532878165e+001,-2.05611356654185e+001

5.19841533667984e+005,-4.21451736979358e+001,-2.08425775748014e+001

5.27098251051240e+005,-4.21514585196789e+001,-2.11277203213802e+001

5.34456268434150e+005,-4.21579119601909e+001,-2.14166065088664e+001

5.41916999912011e+005,-4.21645383229951e+001,-2.17092789929775e+001

