Freq.,VOut,OutRef

1.00000000000000e+004,-1.95429885461338e+001,-6.80258926541662e-002

1.01395947979003e+004,-1.95429885928435e+001,-6.89754985936114e-002

1.02811382665607e+004,-1.95429886408662e+001,-6.99383605331505e-002

1.04246576084112e+004,-1.95429886902390e+001,-7.09146635189289e-002

1.05701804056138e+004,-1.95429887410000e+001,-7.19045951789611e-002

1.07177346253629e+004,-1.95429887931879e+001,-7.29083457650909e-002

1.08673486252606e+004,-1.95429888468430e+001,-7.39261081802480e-002

1.10190511587661e+004,-1.95429889020069e+001,-7.49580780206277e-002

1.11728713807222e+004,-1.95429889587213e+001,-7.60044536174125e-002

1.13288388529580e+004,-1.95429890170303e+001,-7.70654360654682e-002

1.14869835499703e+004,-1.95429890769785e+001,-7.81412292685790e-002

1.16473358646846e+004,-1.95429891386121e+001,-7.92320399769339e-002

1.18099266142953e+004,-1.95429892019785e+001,-8.03380778266307e-002

1.19747870461893e+004,-1.95429892671265e+001,-8.14595553796434e-002

1.21419488439505e+004,-1.95429893341059e+001,-8.25966881673393e-002

1.23114441334492e+004,-1.95429894029683e+001,-8.37496947277448e-002

1.24833054890161e+004,-1.95429894737668e+001,-8.49187966490325e-002

1.26575659397028e+004,-1.95429895465557e+001,-8.61042186145390e-002

1.28342589756290e+004,-1.95429896213909e+001,-8.73061884435175e-002

1.30134185544193e+004,-1.95429896983301e+001,-8.85249371337741e-002

1.31950791077289e+004,-1.95429897774322e+001,-8.97606989104549e-002

1.33792755478611e+004,-1.95429898587584e+001,-9.10137112652472e-002

1.35660432744767e+004,-1.95429899423708e+001,-9.22842150083876e-002

1.37554181813974e+004,-1.95429900283339e+001,-9.35724543093643e-002

1.39474366635040e+004,-1.95429901167137e+001,-9.48786767466304e-002

1.41421356237309e+004,-1.95429902075783e+001,-9.62031333540682e-002

1.43395524801583e+004,-1.95429903009974e+001,-9.75460786722949e-002

1.45397251732031e+004,-1.95429903970430e+001,-9.89077707911741e-002

1.47426921729110e+004,-1.95429904957886e+001,-1.00288471408703e-001

1.49484924863494e+004,-1.95429905973103e+001,-1.01688445870397e-001

1.51571656651040e+004,-1.95429907016863e+001,-1.03107963229093e-001

1.53687518128801e+004,-1.95429908089967e+001,-1.04547296292072e-001

1.55832915932100e+004,-1.95429909193239e+001,-1.06006721676792e-001

1.58008262372675e+004,-1.95429910327529e+001,-1.07486519860354e-001

1.60213975517924e+004,-1.95429911493708e+001,-1.08986975234598e-001

1.62450479271247e+004,-1.95429912692672e+001,-1.10508376163746e-001

1.64718203453514e+004,-1.95429913925344e+001,-1.12051015034715e-001

1.67017583885674e+004,-1.95429915192673e+001,-1.13615188316396e-001

1.69349062472505e+004,-1.95429916495627e+001,-1.15201196620098e-001

1.71713087287550e+004,-1.95429917835217e+001,-1.16809344745935e-001

1.74110112659224e+004,-1.95429919212464e+001,-1.18439941757363e-001

1.76540599258131e+004,-1.95429920628433e+001,-1.20093301025259e-001

1.79005014185594e+004,-1.95429922084209e+001,-1.21769740298912e-001

1.81503831063432e+004,-1.95429923580913e+001,-1.23469581760888e-001

1.84037530124975e+004,-1.95429925119696e+001,-1.25193152092562e-001

1.86606598307361e+004,-1.95429926701738e+001,-1.26940782536773e-001

1.89211529345119e+004,-1.95429928328257e+001,-1.28712808956998e-001

1.91852823865052e+004,-1.95429930000505e+001,-1.30509571907155e-001

1.94530989482457e+004,-1.95429931719766e+001,-1.32331416694843e-001

1.97246540898671e+004,-1.95429933487362e+001,-1.34178693447880e-001

1.99999999999999e+004,-1.95429935304651e+001,-1.36051757182118e-001

2.02791895958005e+004,-1.95429937173033e+001,-1.37950967867476e-001

2.05622765331213e+004,-1.95429939093941e+001,-1.39876690500994e-001

2.08493152168224e+004,-1.95429941068852e+001,-1.41829295173274e-001

2.11403608112276e+004,-1.95429943099285e+001,-1.43809157142775e-001

2.14354692507258e+004,-1.95429945186804e+001,-1.45816656902057e-001

2.17346972505211e+004,-1.95429947333009e+001,-1.47852180261159e-001

2.20381023175322e+004,-1.95429949539552e+001,-1.49916118411232e-001

2.23457427614443e+004,-1.95429951808129e+001,-1.52008868006422e-001

2.26576777059159e+004,-1.95429954140484e+001,-1.54130831236455e-001

2.29739670999406e+004,-1.95429956538411e+001,-1.56282415905316e-001

2.32946717293690e+004,-1.95429959003753e+001,-1.58464035511627e-001

2.36198532285905e+004,-1.95429961538404e+001,-1.60676109323740e-001

2.39495740923785e+004,-1.95429964144314e+001,-1.62919062463808e-001

2.42838976879009e+004,-1.95429966823486e+001,-1.65193325988116e-001

2.46228882668982e+004,-1.95429969577980e+001,-1.67499336969864e-001

2.49666109780322e+004,-1.95429972409913e+001,-1.69837538584682e-001

2.53151318794055e+004,-1.95429975321462e+001,-1.72208380192559e-001

2.56685179512580e+004,-1.95429978314866e+001,-1.74612317427269e-001

2.60268371088386e+004,-1.95429981392426e+001,-1.77049812283457e-001

2.63901582154578e+004,-1.95429984556507e+001,-1.79521333203899e-001

2.67585510957221e+004,-1.95429987809542e+001,-1.82027355171224e-001

2.71320865489533e+004,-1.95429991154032e+001,-1.84568359796772e-001

2.75108363627948e+004,-1.95429994592549e+001,-1.87144835416020e-001

2.78948733270080e+004,-1.95429998127736e+001,-1.89757277181401e-001

2.82842712474618e+004,-1.95430001762310e+001,-1.92406187156411e-001

2.86791049603164e+004,-1.95430005499064e+001,-1.95092074414116e-001

2.90794503464061e+004,-1.95430009340873e+001,-1.97815455132136e-001

2.94853843458219e+004,-1.95430013290690e+001,-2.00576852694372e-001

2.98969849726987e+004,-1.95430017351550e+001,-2.03376797790501e-001

3.03143313302078e+004,-1.95430021526578e+001,-2.06215828517666e-001

3.07375036257601e+004,-1.95430025818979e+001,-2.09094490486202e-001

3.11665831864199e+004,-1.95430030232056e+001,-2.12013336919914e-001

3.16016524745350e+004,-1.95430034769202e+001,-2.14972928766448e-001

3.20427951035848e+004,-1.95430039433904e+001,-2.17973834803562e-001

3.24900958542493e+004,-1.95430044229748e+001,-2.21016631748786e-001

3.29436406907028e+004,-1.95430049160420e+001,-2.24101904370001e-001

3.34035167771346e+004,-1.95430054229712e+001,-2.27230245597445e-001

3.38698124945009e+004,-1.95430059441520e+001,-2.30402256638530e-001

3.43426174575100e+004,-1.95430064799851e+001,-2.33618547091615e-001

3.48220225318448e+004,-1.95430070308826e+001,-2.36879735065507e-001

3.53081198516260e+004,-1.95430075972678e+001,-2.40186447297802e-001

3.58010028371187e+004,-1.95430081795761e+001,-2.43539319272759e-001

3.63007662126863e+004,-1.95430087782553e+001,-2.46938995346295e-001

3.68075060249948e+004,-1.95430093937656e+001,-2.50386128869206e-001

3.73213196614721e+004,-1.95430100265801e+001,-2.53881382311158e-001

3.78423058690237e+004,-1.95430106771853e+001,-2.57425427390283e-001

3.83705647730104e+004,-1.95430113460814e+001,-2.61018945200333e-001

3.89061978964912e+004,-1.95430120337827e+001,-2.64662626341011e-001

3.94493081797342e+004,-1.95430127408178e+001,-2.68357171055241e-001

3.99999999999998e+004,-1.95430134677302e+001,-2.72103289357219e-001

4.05583791916010e+004,-1.95430142150786e+001,-2.75901701174051e-001

4.11245530662425e+004,-1.95430149834378e+001,-2.79753136480657e-001

4.16986304336447e+004,-1.95430157733984e+001,-2.83658335441328e-001

4.22807216224550e+004,-1.95430165855677e+001,-2.87618048553545e-001

4.28709385014515e+004,-1.95430174205699e+001,-2.91633036789754e-001

4.34693945010421e+004,-1.95430182790471e+001,-2.95704071743971e-001

4.40762046350642e+004,-1.95430191616592e+001,-2.99831935781746e-001

4.46914855228886e+004,-1.95430200690847e+001,-3.04017422187339e-001

4.53153554118317e+004,-1.95430210020211e+001,-3.08261335320380e-001

4.59479341998812e+004,-1.95430219611858e+001,-3.12564490766374e-001

4.65893434587380e+004,-1.95430229473161e+001,-3.16927715495500e-001

4.72397064571810e+004,-1.95430239611700e+001,-3.21351848021935e-001

4.78991481847569e+004,-1.95430250035268e+001,-3.25837738563382e-001

4.85677953758016e+004,-1.95430260751882e+001,-3.30386249204187e-001

4.92457765337964e+004,-1.95430271769777e+001,-3.34998254064369e-001

4.99332219560642e+004,-1.95430283097423e+001,-3.39674639463413e-001

5.06302637588109e+004,-1.95430294743531e+001,-3.44416304091689e-001

5.13370359025159e+004,-1.95430306717052e+001,-3.49224159184824e-001

5.20536742176771e+004,-1.95430319027190e+001,-3.54099128697827e-001

5.27803164309155e+004,-1.95430331683410e+001,-3.59042149481502e-001

5.35171021914442e+004,-1.95430344695440e+001,-3.64054171463666e-001

5.42641730979066e+004,-1.95430358073284e+001,-3.69136157831139e-001

5.50216727255895e+004,-1.95430371827225e+001,-3.74289085214605e-001

5.57897466540159e+004,-1.95430385967840e+001,-3.79513943876405e-001

5.65685424949235e+004,-1.95430400505993e+001,-3.84811737903153e-001

5.73582099206328e+004,-1.95430415452865e+001,-3.90183485392666e-001

5.81589006928121e+004,-1.95430430819946e+001,-3.95630218655402e-001

5.89707686916437e+004,-1.95430446619049e+001,-4.01152984409874e-001

5.97939699453972e+004,-1.95430462862318e+001,-4.06752843985591e-001

6.06286626604156e+004,-1.95430479562240e+001,-4.12430873523803e-001

6.14750072515201e+004,-1.95430496731655e+001,-4.18188164187560e-001

6.23331663728396e+004,-1.95430514383760e+001,-4.24025822369473e-001

6.32033049490698e+004,-1.95430532532124e+001,-4.29944969904886e-001

6.40855902071694e+004,-1.95430551190701e+001,-4.35946744285805e-001

6.49801917084985e+004,-1.95430570373833e+001,-4.42032298882659e-001

6.58872813814055e+004,-1.95430590096267e+001,-4.48202803162367e-001

6.68070335542691e+004,-1.95430610373164e+001,-4.54459442914967e-001

6.77396249890018e+004,-1.95430631220111e+001,-4.60803420480825e-001

6.86852349150199e+004,-1.95430652653136e+001,-4.67235954980525e-001

6.96440450636895e+004,-1.95430674688712e+001,-4.73758282552851e-001

7.06162397032520e+004,-1.95430697343781e+001,-4.80371656585842e-001

7.16020056742374e+004,-1.95430720635758e+001,-4.87077347963206e-001

7.26015324253724e+004,-1.95430744582547e+001,-4.93876645305975e-001

7.36150120499896e+004,-1.95430769202557e+001,-5.00770855219576e-001

7.46426393229441e+004,-1.95430794514716e+001,-5.07761302545072e-001

7.56846117380472e+004,-1.95430820538479e+001,-5.14849330615794e-001

7.67411295460207e+004,-1.95430847293852e+001,-5.22036301511046e-001

7.78123957929823e+004,-1.95430874801403e+001,-5.29323596321454e-001

7.88986163594682e+004,-1.95430903082279e+001,-5.36712615411528e-001

7.99999999999995e+004,-1.95430932158217e+001,-5.44204778690986e-001

8.11167583832018e+004,-1.95430962051569e+001,-5.51801525885838e-001

8.22491061324848e+004,-1.95430992785316e+001,-5.59504316813809e-001

8.33972608672892e+004,-1.95431024383081e+001,-5.67314631668103e-001

8.45614432449099e+004,-1.95431056869156e+001,-5.75233971296879e-001

8.57418770029029e+004,-1.95431090268511e+001,-5.83263857496126e-001

8.69387890020841e+004,-1.95431124606821e+001,-5.91405833298794e-001

8.81524092701283e+004,-1.95431159910484e+001,-5.99661463270897e-001

8.93829710457770e+004,-1.95431196206635e+001,-6.08032333814571e-001

9.06307108236633e+004,-1.95431233523176e+001,-6.16520053469472e-001

9.18958683997622e+004,-1.95431271888794e+001,-6.25126253223000e-001

9.31786869174758e+004,-1.95431311332978e+001,-6.33852586823902e-001

9.44794129143618e+004,-1.95431351886049e+001,-6.42700731099316e-001

9.57982963695136e+004,-1.95431393579182e+001,-6.51672386274676e-001

9.71355907516031e+004,-1.95431436444423e+001,-6.60769276304594e-001

9.84915530675926e+004,-1.95431480514724e+001,-6.69993149198145e-001

9.98664439121282e+004,-1.95431525823959e+001,-6.79345777358822e-001

1.01260527517622e+005,-1.95431572406959e+001,-6.88828957921797e-001

1.02674071805032e+005,-1.95431620299530e+001,-6.98444513101065e-001

1.04107348435354e+005,-1.95431669538487e+001,-7.08194290536662e-001

1.05560632861831e+005,-1.95431720161677e+001,-7.18080163651920e-001

1.07034204382888e+005,-1.95431772208014e+001,-7.28104032010653e-001

1.08528346195813e+005,-1.95431825717504e+001,-7.38267821683377e-001

1.10043345451179e+005,-1.95431880731278e+001,-7.48573485614466e-001

1.11579493308032e+005,-1.95431937291622e+001,-7.59023004000209e-001

1.13137084989847e+005,-1.95431995442013e+001,-7.69618384665346e-001

1.14716419841265e+005,-1.95432055227148e+001,-7.80361663450750e-001

1.16317801385624e+005,-1.95432116692981e+001,-7.91254904602354e-001

1.17941537383287e+005,-1.95432179886758e+001,-8.02300201168267e-001

1.19587939890794e+005,-1.95432244857053e+001,-8.13499675398218e-001

1.21257325320831e+005,-1.95432311653804e+001,-8.24855479154369e-001

1.22950014503040e+005,-1.95432380328354e+001,-8.36369794319349e-001

1.24666332745679e+005,-1.95432450933489e+001,-8.48044833218070e-001

1.26406609898139e+005,-1.95432523523477e+001,-8.59882839041128e-001

1.28171180414339e+005,-1.95432598154114e+001,-8.71886086273841e-001

1.29960383416997e+005,-1.95432674882763e+001,-8.84056881133499e-001

1.31774562762811e+005,-1.95432753768398e+001,-8.96397562011515e-001

1.33614067108538e+005,-1.95432834871652e+001,-9.08910499920861e-001

1.35479249978003e+005,-1.95432918254862e+001,-9.21598098951100e-001

1.37370469830040e+005,-1.95433003982117e+001,-9.34462796729531e-001

1.39288090127379e+005,-1.95433092119306e+001,-9.47507064887942e-001

1.41232479406504e+005,-1.95433182734172e+001,-9.60733409536260e-001

1.43204011348474e+005,-1.95433275896359e+001,-9.74144371743335e-001

1.45203064850745e+005,-1.95433371677472e+001,-9.87742528022762e-001

1.47230024099979e+005,-1.95433470151126e+001,-1.00153049082756e+000

1.49285278645888e+005,-1.95433571393004e+001,-1.01551090905159e+000

1.51369223476094e+005,-1.95433675480920e+001,-1.02968646853377e+000

1.53482259092041e+005,-1.95433782494869e+001,-1.04405989257629e+000

1.55624791585964e+005,-1.95433892517100e+001,-1.05863394246388e+000

1.57797232718936e+005,-1.95434005632169e+001,-1.07341141799357e+000

1.59999999999999e+005,-1.95434121927010e+001,-1.08839515801071e+000

1.62233516766403e+005,-1.95434241491001e+001,-1.10358804095170e+000

1.64498212264969e+005,-1.95434364416031e+001,-1.11899298539678e+000

1.66794521734578e+005,-1.95434490796570e+001,-1.13461295062742e+000

1.69122886489819e+005,-1.95434620729744e+001,-1.15045093719351e+000

1.71483754005805e+005,-1.95434754315408e+001,-1.16650998748739e+000

1.73877578004168e+005,-1.95434891656223e+001,-1.18279318632545e+000

1.76304818540256e+005,-1.95435032857735e+001,-1.19930366153993e+000

1.78765942091554e+005,-1.95435178028456e+001,-1.21604458457601e+000

1.81261421647326e+005,-1.95435327279946e+001,-1.23301917109914e+000

1.83791736799524e+005,-1.95435480726901e+001,-1.25023068160999e+000

1.86357373834951e+005,-1.95435638487239e+001,-1.26768242206787e+000

1.88958825828723e+005,-1.95435800682192e+001,-1.28537774452398e+000

1.91596592739027e+005,-1.95435967436399e+001,-1.30332004776051e+000

1.94271181503206e+005,-1.95436138877997e+001,-1.32151277794186e+000

1.96983106135185e+005,-1.95436315138730e+001,-1.33995942927300e+000

1.99732887824256e+005,-1.95436496354037e+001,-1.35866354466683e+000

2.02521055035243e+005,-1.95436682663166e+001,-1.37762871642207e+000

2.05348143610063e+005,-1.95436874209276e+001,-1.39685858690897e+000

2.08214696870707e+005,-1.95437071139548e+001,-1.41635684926455e+000

2.11121265723661e+005,-1.95437273605300e+001,-1.43612724809941e+000

2.14068408765776e+005,-1.95437481762098e+001,-1.45617358021214e+000

2.17056692391625e+005,-1.95437695769880e+001,-1.47649969531339e+000

2.20086690902357e+005,-1.95437915793077e+001,-1.49710949676195e+000

2.23158986616063e+005,-1.95438142000739e+001,-1.51800694230947e+000

2.26274169979693e+005,-1.95438374566664e+001,-1.53919604485502e+000

2.29432839682530e+005,-1.95438613669534e+001,-1.56068087321180e+000

2.32635602771247e+005,-1.95438859493050e+001,-1.58246555288141e+000

2.35883074766574e+005,-1.95439112226071e+001,-1.60455426684265e+000

2.39175879781588e+005,-1.95439372062762e+001,-1.62695125634781e+000

2.42514650641661e+005,-1.95439639202744e+001,-1.64966082173168e+000

2.45900029006080e+005,-1.95439913851240e+001,-1.67268732323055e+000

2.49332665491357e+005,-1.95440196219241e+001,-1.69603518181327e+000

2.52813219796278e+005,-1.95440486523663e+001,-1.71970888002287e+000

2.56342360828676e+005,-1.95440784987514e+001,-1.74371296283151e+000

2.59920766833993e+005,-1.95441091840063e+001,-1.76805203850433e+000

2.63549125525621e+005,-1.95441407317021e+001,-1.79273077947654e+000

2.67228134217075e+005,-1.95441731660717e+001,-1.81775392324434e+000

2.70958499956006e+005,-1.95442065120285e+001,-1.84312627326328e+000

2.74740939660078e+005,-1.95442407951854e+001,-1.86885269986410e+000

2.78576180254757e+005,-1.95442760418745e+001,-1.89493814117831e+000

2.82464958813007e+005,-1.95443122791676e+001,-1.92138760407457e+000

2.86408022696948e+005,-1.95443495348963e+001,-1.94820616511340e+000

2.90406129701488e+005,-1.95443878376736e+001,-1.97539897150836e+000

2.94460048199957e+005,-1.95444272169161e+001,-2.00297124210546e+000

2.98570557291775e+005,-1.95444677028660e+001,-2.03092826837200e+000

3.02738446952187e+005,-1.95445093266148e+001,-2.05927541540217e+000

3.06964518184081e+005,-1.95445521201265e+001,-2.08801812293372e+000

3.11249583171928e+005,-1.95445961162627e+001,-2.11716190637960e+000

3.15594465437872e+005,-1.95446413488071e+001,-2.14671235787310e+000

3.19999999999997e+005,-1.95446878524921e+001,-2.17667514732738e+000

3.24467033532806e+005,-1.95447356630244e+001,-2.20705602350985e+000

3.28996424529938e+005,-1.95447848171134e+001,-2.23786081512947e+000

3.33589043469155e+005,-1.95448353524984e+001,-2.26909543193990e+000

3.38245772979638e+005,-1.95448873079782e+001,-2.30076586585720e+000

3.42967508011610e+005,-1.95449407234399e+001,-2.33287819209366e+000

3.47755156008335e+005,-1.95449956398902e+001,-2.36543857030377e+000

3.52609637080511e+005,-1.95450520994864e+001,-2.39845324574953e+000

3.57531884183106e+005,-1.95451101455685e+001,-2.43192855047834e+000

3.62522843294651e+005,-1.95451698226926e+001,-2.46587090451756e+000

3.67583473599047e+005,-1.95452311766649e+001,-2.50028681708626e+000

3.72714747669902e+005,-1.95452942545763e+001,-2.53518288782087e+000

3.77917651657445e+005,-1.95453591048390e+001,-2.57056580801976e+000

3.83193185478053e+005,-1.95454257772230e+001,-2.60644236190165e+000

3.88542363006410e+005,-1.95454943228941e+001,-2.64281942788319e+000

3.93966212270369e+005,-1.95455647944535e+001,-2.67970397987171e+000

3.99465775648511e+005,-1.95456372459770e+001,-2.71710308857623e+000

4.05042110070485e+005,-1.95457117330575e+001,-2.75502392283522e+000

4.10696287220124e+005,-1.95457883128460e+001,-2.79347375096285e+000

4.16429393741414e+005,-1.95458670440965e+001,-2.83245994211124e+000

4.22242531447321e+005,-1.95459479872099e+001,-2.87198996765174e+000

4.28136817531551e+005,-1.95460312042805e+001,-2.91207140257591e+000

4.34113384783250e+005,-1.95461167591430e+001,-2.95271192691096e+000

4.40173381804713e+005,-1.95462047174218e+001,-2.99391932715762e+000

4.46317973232124e+005,-1.95462951465799e+001,-3.03570149774573e+000

4.52548339959385e+005,-1.95463881159715e+001,-3.07806644250628e+000

4.58865679365059e+005,-1.95464836968939e+001,-3.12102227616713e+000

4.65271205542494e+005,-1.95465819626422e+001,-3.16457722586408e+000

4.71766149533147e+005,-1.95466829885651e+001,-3.20873963267441e+000

4.78351759563174e+005,-1.95467868521219e+001,-3.25351795316781e+000

4.85029301283321e+005,-1.95468936329416e+001,-3.29892076098033e+000

4.91800058012158e+005,-1.95470034128839e+001,-3.34495674840516e+000

4.98665330982714e+005,-1.95471162761005e+001,-3.39163472800684e+000

5.05626439592555e+005,-1.95472323090998e+001,-3.43896363425504e+000

5.12684721657352e+005,-1.95473516008123e+001,-3.48695252517754e+000

5.19841533667984e+005,-1.95474742426581e+001,-3.53561058403832e+000

5.27098251051240e+005,-1.95476003286166e+001,-3.58494712103238e+000

5.34456268434150e+005,-1.95477299552974e+001,-3.63497157500598e+000

5.41916999912011e+005,-1.95478632220140e+001,-3.68569351519539e+000

