Freq.,VOut,OutRef

1.00000000000000e+004,-2.52544552348438e+001,-1.68267172570276e-001

1.01395947979003e+004,-2.52544556149455e+001,-1.70616091958542e-001

1.02811382665607e+004,-2.52544560057334e+001,-1.72997800919511e-001

1.04246576084112e+004,-2.52544564075077e+001,-1.75412757174517e-001

1.05701804056138e+004,-2.52544568205774e+001,-1.77861424833350e-001

1.07177346253629e+004,-2.52544572452600e+001,-1.80344274483990e-001

1.08673486252606e+004,-2.52544576818821e+001,-1.82861783283307e-001

1.10190511587661e+004,-2.52544581307792e+001,-1.85414435048895e-001

1.11728713807222e+004,-2.52544585922965e+001,-1.88002720352110e-001

1.13288388529580e+004,-2.52544590667887e+001,-1.90627136612732e-001

1.14869835499703e+004,-2.52544595546207e+001,-1.93288188192715e-001

1.16473358646846e+004,-2.52544600561676e+001,-1.95986386494153e-001

1.18099266142953e+004,-2.52544605718148e+001,-1.98722250060313e-001

1.19747870461893e+004,-2.52544611019586e+001,-2.01496304671015e-001

1.21419488439505e+004,-2.52544616470067e+001,-2.04309083444145e-001

1.23114441334492e+004,-2.52544622073784e+001,-2.07161126940150e-001

1.24833054890161e+004,-2.52544627835040e+001,-2.10052983267052e-001

1.26575659397028e+004,-2.52544633758266e+001,-2.12985208182097e-001

1.28342589756290e+004,-2.52544639848017e+001,-2.15958365198709e-001

1.30134185544193e+004,-2.52544646108973e+001,-2.18973025699235e-001

1.31950791077289e+004,-2.52544652545947e+001,-2.22029769040465e-001

1.33792755478611e+004,-2.52544659163889e+001,-2.25129182665014e-001

1.35660432744767e+004,-2.52544665967885e+001,-2.28271862218332e-001

1.37554181813974e+004,-2.52544672963167e+001,-2.31458411657826e-001

1.39474366635040e+004,-2.52544680155112e+001,-2.34689443371692e-001

1.41421356237309e+004,-2.52544687549248e+001,-2.37965578297687e-001

1.43395524801583e+004,-2.52544695151261e+001,-2.41287446039758e-001

1.45397251732031e+004,-2.52544702966994e+001,-2.44655684989916e-001

1.47426921729110e+004,-2.52544711002457e+001,-2.48070942452214e-001

1.49484924863494e+004,-2.52544719263825e+001,-2.51533874765727e-001

1.51571656651040e+004,-2.52544727757450e+001,-2.55045147431424e-001

1.53687518128801e+004,-2.52544736489863e+001,-2.58605435238030e-001

1.55832915932100e+004,-2.52544745467774e+001,-2.62215422395804e-001

1.58008262372675e+004,-2.52544754698089e+001,-2.65875802662998e-001

1.60213975517924e+004,-2.52544764187899e+001,-2.69587279484546e-001

1.62450479271247e+004,-2.52544773944505e+001,-2.73350566120277e-001

1.64718203453514e+004,-2.52544783975402e+001,-2.77166385790212e-001

1.67017583885674e+004,-2.52544794288305e+001,-2.81035471806660e-001

1.69349062472505e+004,-2.52544804891140e+001,-2.84958567718666e-001

1.71713087287550e+004,-2.52544815792059e+001,-2.88936427452827e-001

1.74110112659224e+004,-2.52544826999442e+001,-2.92969815461326e-001

1.76540599258131e+004,-2.52544838521904e+001,-2.97059506864752e-001

1.79005014185594e+004,-2.52544850368305e+001,-3.01206287603111e-001

1.81503831063432e+004,-2.52544862547751e+001,-3.05410954587427e-001

1.84037530124975e+004,-2.52544875069603e+001,-3.09674315852427e-001

1.86606598307361e+004,-2.52544887943490e+001,-3.13997190709188e-001

1.89211529345119e+004,-2.52544901179306e+001,-3.18380409908317e-001

1.91852823865052e+004,-2.52544914787229e+001,-3.22824815791906e-001

1.94530989482457e+004,-2.52544928777719e+001,-3.27331262462537e-001

1.97246540898671e+004,-2.52544943161530e+001,-3.31900615942391e-001

1.99999999999999e+004,-2.52544957949721e+001,-3.36533754342657e-001

2.02791895958005e+004,-2.52544973153660e+001,-3.41231568029666e-001

2.05622765331213e+004,-2.52544988785035e+001,-3.45994959798440e-001

2.08493152168224e+004,-2.52545004855861e+001,-3.50824845044577e-001

2.11403608112276e+004,-2.52545021378495e+001,-3.55722151939971e-001

2.14354692507258e+004,-2.52545038365638e+001,-3.60687821611500e-001

2.17346972505211e+004,-2.52545055830347e+001,-3.65722808322144e-001

2.20381023175322e+004,-2.52545073786050e+001,-3.70828079654659e-001

2.23457427614443e+004,-2.52545092246549e+001,-3.76004616694583e-001

2.26576777059159e+004,-2.52545111226036e+001,-3.81253414223272e-001

2.29739670999406e+004,-2.52545130739102e+001,-3.86575480905101e-001

2.32946717293690e+004,-2.52545150800745e+001,-3.91971839482924e-001

2.36198532285905e+004,-2.52545171426390e+001,-3.97443526973609e-001

2.39495740923785e+004,-2.52545192631891e+001,-4.02991594868740e-001

2.42838976879009e+004,-2.52545214433551e+001,-4.08617109334459e-001

2.46228882668982e+004,-2.52545236848127e+001,-4.14321151418706e-001

2.49666109780322e+004,-2.52545259892853e+001,-4.20104817255944e-001

2.53151318794055e+004,-2.52545283585442e+001,-4.25969218280396e-001

2.56685179512580e+004,-2.52545307944110e+001,-4.31915481436869e-001

2.60268371088386e+004,-2.52545332987578e+001,-4.37944749400663e-001

2.63901582154578e+004,-2.52545358735101e+001,-4.44058180792933e-001

2.67585510957221e+004,-2.52545385206471e+001,-4.50256950405374e-001

2.71320865489533e+004,-2.52545412422038e+001,-4.56542249426420e-001

2.75108363627948e+004,-2.52545440402721e+001,-4.62915285668367e-001

2.78948733270080e+004,-2.52545469170032e+001,-4.69377283800387e-001

2.82842712474618e+004,-2.52545498746084e+001,-4.75929485582583e-001

2.86791049603164e+004,-2.52545529153613e+001,-4.82573150106361e-001

2.90794503464061e+004,-2.52545560415995e+001,-4.89309554033422e-001

2.94853843458219e+004,-2.52545592557259e+001,-4.96139991843846e-001

2.98969849726987e+004,-2.52545625602115e+001,-5.03065776081714e-001

3.03143313302078e+004,-2.52545659575964e+001,-5.10088237609457e-001

3.07375036257601e+004,-2.52545694504924e+001,-5.17208725861488e-001

3.11665831864199e+004,-2.52545730415844e+001,-5.24428609105108e-001

3.16016524745350e+004,-2.52545767336329e+001,-5.31749274701482e-001

3.20427951035848e+004,-2.52545805294760e+001,-5.39172129372785e-001

3.24900958542493e+004,-2.52545844320317e+001,-5.46698599472771e-001

3.29436406907028e+004,-2.52545884442998e+001,-5.54330131258009e-001

3.34035167771346e+004,-2.52545925693646e+001,-5.62068191169854e-001

3.38698124945009e+004,-2.52545968103971e+001,-5.69914266110822e-001

3.43426174575100e+004,-2.52546011706573e+001,-5.77869863733820e-001

3.48220225318448e+004,-2.52546056534970e+001,-5.85936512729864e-001

3.53081198516260e+004,-2.52546102623621e+001,-5.94115763122349e-001

3.58010028371187e+004,-2.52546150007954e+001,-6.02409186562288e-001

3.63007662126863e+004,-2.52546198724393e+001,-6.10818376632765e-001

3.68075060249948e+004,-2.52546248810385e+001,-6.19344949153069e-001

3.73213196614721e+004,-2.52546300304432e+001,-6.27990542488497e-001

3.78423058690237e+004,-2.52546353246116e+001,-6.36756817865926e-001

3.83705647730104e+004,-2.52546407676132e+001,-6.45645459691697e-001

3.89061978964912e+004,-2.52546463636320e+001,-6.54658175873972e-001

3.94493081797342e+004,-2.52546521169695e+001,-6.63796698152553e-001

3.99999999999998e+004,-2.52546580320480e+001,-6.73062782429258e-001

4.05583791916010e+004,-2.52546641134144e+001,-6.82458209104680e-001

4.11245530662425e+004,-2.52546703657433e+001,-6.91984783420511e-001

4.16986304336447e+004,-2.52546767938405e+001,-7.01644335806623e-001

4.22807216224550e+004,-2.52546834026472e+001,-7.11438722229446e-001

4.28709385014515e+004,-2.52546901972432e+001,-7.21369824550002e-001

4.34693945010421e+004,-2.52546971828512e+001,-7.31439550884011e-001

4.40762046350642e+004,-2.52547043648408e+001,-7.41649835968387e-001

4.46914855228886e+004,-2.52547117487323e+001,-7.52002641531246e-001

4.53153554118317e+004,-2.52547193402014e+001,-7.62499956669097e-001

4.59479341998812e+004,-2.52547271450832e+001,-7.73143798226093e-001

4.65893434587380e+004,-2.52547351693769e+001,-7.83936211183768e-001

4.72397064571810e+004,-2.52547434192501e+001,-7.94879269050640e-001

4.78991481847569e+004,-2.52547519010439e+001,-8.05975074260356e-001

4.85677953758016e+004,-2.52547606212778e+001,-8.17225758574472e-001

4.92457765337964e+004,-2.52547695866543e+001,-8.28633483491180e-001

4.99332219560642e+004,-2.52547788040643e+001,-8.40200440659442e-001

5.06302637588109e+004,-2.52547882805924e+001,-8.51928852298972e-001

5.13370359025159e+004,-2.52547980235226e+001,-8.63820971625570e-001

5.20536742176771e+004,-2.52548080403430e+001,-8.75879083283678e-001

5.27803164309155e+004,-2.52548183387527e+001,-8.88105503783099e-001

5.35171021914442e+004,-2.52548289266671e+001,-9.00502581942875e-001

5.42641730979066e+004,-2.52548398122238e+001,-9.13072699341731e-001

5.50216727255895e+004,-2.52548510037893e+001,-9.25818270772757e-001

5.57897466540159e+004,-2.52548625099654e+001,-9.38741744707753e-001

5.65685424949235e+004,-2.52548743395952e+001,-9.51845603764355e-001

5.73582099206328e+004,-2.52548865017707e+001,-9.65132365182399e-001

5.81589006928121e+004,-2.52548990058393e+001,-9.78604581304687e-001

5.89707686916437e+004,-2.52549118614110e+001,-9.92264840066789e-001

5.97939699453972e+004,-2.52549250783660e+001,-1.00611576549096e+000

6.06286626604156e+004,-2.52549386668622e+001,-1.02016001818934e+000

6.14750072515201e+004,-2.52549526373428e+001,-1.03440029587260e+000

6.23331663728396e+004,-2.52549670005445e+001,-1.04883933386539e+000

6.32033049490698e+004,-2.52549817675058e+001,-1.06347990563065e+000

6.40855902071694e+004,-2.52549969495755e+001,-1.07832482329941e+000

6.49801917084985e+004,-2.52550125584210e+001,-1.09337693820921e+000

6.58872813814055e+004,-2.52550286060379e+001,-1.10863914144790e+000

6.68070335542691e+004,-2.52550451047585e+001,-1.12411436440750e+000

6.77396249890018e+004,-2.52550620672620e+001,-1.13980557934454e+000

6.86852349150199e+004,-2.52550795065838e+001,-1.15571579994711e+000

6.96440450636895e+004,-2.52550974361253e+001,-1.17184808191211e+000

7.06162397032520e+004,-2.52551158696649e+001,-1.18820552352758e+000

7.16020056742374e+004,-2.52551348213678e+001,-1.20479126626593e+000

7.26015324253724e+004,-2.52551543057974e+001,-1.22160849538341e+000

7.36150120499896e+004,-2.52551743379261e+001,-1.23866044052711e+000

7.46426393229441e+004,-2.52551949331472e+001,-1.25595037635395e+000

7.56846117380472e+004,-2.52552161072865e+001,-1.27348162315386e+000

7.67411295460207e+004,-2.52552378766140e+001,-1.29125754748468e+000

7.78123957929823e+004,-2.52552602578575e+001,-1.30928156281301e+000

7.88986163594682e+004,-2.52552832682143e+001,-1.32755713016716e+000

7.99999999999995e+004,-2.52553069253650e+001,-1.34608775879617e+000

8.11167583832018e+004,-2.52553312474867e+001,-1.36487700683939e+000

8.22491061324848e+004,-2.52553562532675e+001,-1.38392848200512e+000

8.33972608672892e+004,-2.52553819619203e+001,-1.40324584225715e+000

8.45614432449099e+004,-2.52554083931978e+001,-1.42283279651311e+000

8.57418770029029e+004,-2.52554355674074e+001,-1.44269310535077e+000

8.69387890020841e+004,-2.52554635054272e+001,-1.46283058172378e+000

8.81524092701283e+004,-2.52554922287216e+001,-1.48324909168816e+000

8.93829710457770e+004,-2.52555217593581e+001,-1.50395255513821e+000

9.06307108236633e+004,-2.52555521200238e+001,-1.52494494655309e+000

9.18958683997622e+004,-2.52555833340432e+001,-1.54623029575187e+000

9.31786869174758e+004,-2.52556154253959e+001,-1.56781268866115e+000

9.44794129143618e+004,-2.52556484187350e+001,-1.58969626809154e+000

9.57982963695136e+004,-2.52556823394061e+001,-1.61188523452528e+000

9.71355907516031e+004,-2.52557172134663e+001,-1.63438384691449e+000

9.84915530675926e+004,-2.52557530677050e+001,-1.65719642349091e+000

9.98664439121282e+004,-2.52557899296634e+001,-1.68032734258500e+000

1.01260527517622e+005,-2.52558278276567e+001,-1.70378104345788e+000

1.02674071805032e+005,-2.52558667907947e+001,-1.72756202714371e+000

1.04107348435354e+005,-2.52559068490049e+001,-1.75167485730414e+000

1.05560632861831e+005,-2.52559480330551e+001,-1.77612416109308e+000

1.07034204382888e+005,-2.52559903745772e+001,-1.80091463003401e+000

1.08528346195813e+005,-2.52560339060911e+001,-1.82605102090982e+000

1.10043345451179e+005,-2.52560786610295e+001,-1.85153815666379e+000

1.11579493308032e+005,-2.52561246737643e+001,-1.87738092731176e+000

1.13137084989847e+005,-2.52561719796319e+001,-1.90358429086967e+000

1.14716419841265e+005,-2.52562206149611e+001,-1.93015327428942e+000

1.16317801385624e+005,-2.52562706171003e+001,-1.95709297441123e+000

1.17941537383287e+005,-2.52563220244463e+001,-1.98440855892724e+000

1.19587939890794e+005,-2.52563748764740e+001,-2.01210526735605e+000

1.21257325320831e+005,-2.52564292137659e+001,-2.04018841203426e+000

1.22950014503040e+005,-2.52564850780440e+001,-2.06866337911809e+000

1.24666332745679e+005,-2.52565425122010e+001,-2.09753562960009e+000

1.26406609898139e+005,-2.52566015603334e+001,-2.12681070033863e+000

1.28171180414339e+005,-2.52566622677753e+001,-2.15649420510130e+000

1.29960383416997e+005,-2.52567246811329e+001,-2.18659183562302e+000

1.31774562762811e+005,-2.52567888483204e+001,-2.21710936267617e+000

1.33614067108538e+005,-2.52568548185963e+001,-2.24805263715783e+000

1.35479249978003e+005,-2.52569226426011e+001,-2.27942759118880e+000

1.37370469830040e+005,-2.52569923723963e+001,-2.31124023922926e+000

1.39288090127379e+005,-2.52570640615039e+001,-2.34349667920695e+000

1.41232479406504e+005,-2.52571377649471e+001,-2.37620309366335e+000

1.43204011348474e+005,-2.52572135392930e+001,-2.40936575091087e+000

1.45203064850745e+005,-2.52572914426951e+001,-2.44299100621014e+000

1.47230024099979e+005,-2.52573715349381e+001,-2.47708530295822e+000

1.49285278645888e+005,-2.52574538774833e+001,-2.51165517389578e+000

1.51369223476094e+005,-2.52575385335157e+001,-2.54670724232705e+000

1.53482259092041e+005,-2.52576255679923e+001,-2.58224822335941e+000

1.55624791585964e+005,-2.52577150476911e+001,-2.61828492515606e+000

1.57797232718936e+005,-2.52578070412628e+001,-2.65482425020594e+000

1.59999999999999e+005,-2.52579016192825e+001,-2.69187319661066e+000

1.62233516766403e+005,-2.52579988543040e+001,-2.72943885938741e+000

1.64498212264969e+005,-2.52580988209147e+001,-2.76752843178960e+000

1.66794521734578e+005,-2.52582015957929e+001,-2.80614920664372e+000

1.69122886489819e+005,-2.52583072577655e+001,-2.84530857770382e+000

1.71483754005805e+005,-2.52584158878689e+001,-2.88501404102274e+000

1.73877578004168e+005,-2.52585275694099e+001,-2.92527319634248e+000

1.76304818540256e+005,-2.52586423880299e+001,-2.96609374850078e+000

1.78765942091554e+005,-2.52587604317692e+001,-3.00748350885562e+000

1.81261421647326e+005,-2.52588817911349e+001,-3.04945039672939e+000

1.83791736799524e+005,-2.52590065591690e+001,-3.09200244087023e+000

1.86357373834951e+005,-2.52591348315194e+001,-3.13514778093109e+000

1.88958825828723e+005,-2.52592667065128e+001,-3.17889466896944e+000

1.91596592739027e+005,-2.52594022852292e+001,-3.22325147096418e+000

1.94271181503206e+005,-2.52595416715786e+001,-3.26822666835182e+000

1.96983106135185e+005,-2.52596849723802e+001,-3.31382885958277e+000

1.99732887824256e+005,-2.52598322974432e+001,-3.36006676169594e+000

2.02521055035243e+005,-2.52599837596504e+001,-3.40694921191269e+000

2.05348143610063e+005,-2.52601394750433e+001,-3.45448516925234e+000

2.08214696870707e+005,-2.52602995629110e+001,-3.50268371616457e+000

2.11121265723661e+005,-2.52604641458795e+001,-3.55155406018498e+000

2.14068408765776e+005,-2.52606333500057e+001,-3.60110553560842e+000

2.17056692391625e+005,-2.52608073048719e+001,-3.65134760518364e+000

2.20086690902357e+005,-2.52609861436847e+001,-3.70228986182834e+000

2.23158986616063e+005,-2.52611700033752e+001,-3.75394203036571e+000

2.26274169979693e+005,-2.52613590247030e+001,-3.80631396927958e+000

2.29432839682530e+005,-2.52615533523623e+001,-3.85941567249300e+000

2.32635602771247e+005,-2.52617531350914e+001,-3.91325727116640e+000

2.35883074766574e+005,-2.52619585257850e+001,-3.96784903551765e+000

2.39175879781588e+005,-2.52621696816097e+001,-4.02320137666252e+000

2.42514650641661e+005,-2.52623867641224e+001,-4.07932484847852e+000

2.45900029006080e+005,-2.52626099393923e+001,-4.13623014948800e+000

2.49332665491357e+005,-2.52628393781260e+001,-4.19392812476526e+000

2.52813219796278e+005,-2.52630752557961e+001,-4.25242976786357e+000

2.56342360828676e+005,-2.52633177527733e+001,-4.31174622276581e+000

2.59920766833993e+005,-2.52635670544622e+001,-4.37188878585549e+000

2.63549125525621e+005,-2.52638233514406e+001,-4.43286890791181e+000

2.67228134217075e+005,-2.52640868396026e+001,-4.49469819612541e+000

2.70958499956006e+005,-2.52643577203060e+001,-4.55738841613704e+000

2.74740939660078e+005,-2.52646362005233e+001,-4.62095149409866e+000

2.78576180254757e+005,-2.52649224929968e+001,-4.68539951875700e+000

2.82464958813007e+005,-2.52652168163984e+001,-4.75074474355966e+000

2.86408022696948e+005,-2.52655193954927e+001,-4.81699958878341e+000

2.90406129701488e+005,-2.52658304613059e+001,-4.88417664368505e+000

2.94460048199957e+005,-2.52661502512984e+001,-4.95228866867578e+000

2.98570557291775e+005,-2.52664790095417e+001,-5.02134859751699e+000

3.02738446952187e+005,-2.52668169869015e+001,-5.09136953953924e+000

3.06964518184081e+005,-2.52671644412239e+001,-5.16236478188363e+000

3.11249583171928e+005,-2.52675216375285e+001,-5.23434779176615e+000

3.15594465437872e+005,-2.52678888482050e+001,-5.30733221876375e+000

3.19999999999997e+005,-2.52682663532164e+001,-5.38133189712372e+000

3.24467033532806e+005,-2.52686544403066e+001,-5.45636084809450e+000

3.28996424529938e+005,-2.52690534052147e+001,-5.53243328227959e+000

3.33589043469155e+005,-2.52694635518939e+001,-5.60956360201315e+000

3.38245772979638e+005,-2.52698851927369e+001,-5.68776640375765e+000

3.42967508011610e+005,-2.52703186488072e+001,-5.76705648052375e+000

3.47755156008335e+005,-2.52707642500767e+001,-5.84744882431144e+000

3.52609637080511e+005,-2.52712223356693e+001,-5.92895862857261e+000

3.57531884183106e+005,-2.52716932541110e+001,-6.01160129069572e+000

3.62522843294651e+005,-2.52721773635872e+001,-6.09539241451054e+000

3.67583473599047e+005,-2.52726750322059e+001,-6.18034781281418e+000

3.72714747669902e+005,-2.52731866382689e+001,-6.26648350991765e+000

3.77917651657445e+005,-2.52737125705492e+001,-6.35381574421251e+000

3.83193185478053e+005,-2.52742532285759e+001,-6.44236097075777e+000

3.88542363006410e+005,-2.52748090229275e+001,-6.53213586388491e+000

3.93966212270369e+005,-2.52753803755316e+001,-6.62315731982400e+000

3.99465775648511e+005,-2.52759677199734e+001,-6.71544245934669e+000

4.05042110070485e+005,-2.52765715018116e+001,-6.80900863042875e+000

4.10696287220124e+005,-2.52771921789030e+001,-6.90387341092888e+000

4.16429393741414e+005,-2.52778302217352e+001,-7.00005461128607e+000

4.22242531447321e+005,-2.52784861137687e+001,-7.09757027723228e+000

4.28136817531551e+005,-2.52791603517862e+001,-7.19643869252188e+000

4.34113384783250e+005,-2.52798534462531e+001,-7.29667838167620e+000

4.40173381804713e+005,-2.52805659216854e+001,-7.39830811274213e+000

4.46317973232124e+005,-2.52812983170280e+001,-7.50134690006529e+000

4.52548339959385e+005,-2.52820511860428e+001,-7.60581400707558e+000

4.58865679365059e+005,-2.52828250977060e+001,-7.71172894908552e+000

4.65271205542494e+005,-2.52836206366162e+001,-7.81911149609923e+000

4.71766149533147e+005,-2.52844384034123e+001,-7.92798167563243e+000

4.78351759563174e+005,-2.52852790152028e+001,-8.03835977554110e+000

4.85029301283321e+005,-2.52861431060047e+001,-8.15026634685876e+000

4.91800058012158e+005,-2.52870313271949e+001,-8.26372220664135e+000

4.98665330982714e+005,-2.52879443479714e+001,-8.37874844081703e+000

5.05626439592555e+005,-2.52888828558274e+001,-8.49536640704190e+000

5.12684721657352e+005,-2.52898475570362e+001,-8.61359773755790e+000

5.19841533667984e+005,-2.52908391771485e+001,-8.73346434205433e+000

5.27098251051240e+005,-2.52918584615020e+001,-8.85498841052846e+000

5.34456268434150e+005,-2.52929061757436e+001,-8.97819241614582e+000

5.41916999912011e+005,-2.52939831063641e+001,-9.10309911809836e+000

