Freq.,VOut,OutRef

1.00000000000000e+004,-2.27654916484618e+001,-3.26425030018153e-001

1.01395947979003e+004,-2.27654929700300e+001,-3.30981734899096e-001

1.02811382665607e+004,-2.27654943287521e+001,-3.35602048215083e-001

1.04246576084112e+004,-2.27654957256726e+001,-3.40286857872496e-001

1.05701804056138e+004,-2.27654971618655e+001,-3.45037064170569e-001

1.07177346253629e+004,-2.27654986384348e+001,-3.49853579976944e-001

1.08673486252606e+004,-2.27655001565156e+001,-3.54737330899520e-001

1.10190511587661e+004,-2.27655017172749e+001,-3.59689255464884e-001

1.11728713807222e+004,-2.27655033219126e+001,-3.64710305300450e-001

1.13288388529580e+004,-2.27655049716623e+001,-3.69801445315433e-001

1.14869835499703e+004,-2.27655066677920e+001,-3.74963653887550e-001

1.16473358646846e+004,-2.27655084116058e+001,-3.80197923049884e-001

1.18099266142953e+004,-2.27655102044443e+001,-3.85505258680831e-001

1.19747870461893e+004,-2.27655120476855e+001,-3.90886680699640e-001

1.21419488439505e+004,-2.27655139427465e+001,-3.96343223260764e-001

1.23114441334492e+004,-2.27655158910842e+001,-4.01875934951595e-001

1.24833054890161e+004,-2.27655178941961e+001,-4.07485878996344e-001

1.26575659397028e+004,-2.27655199536223e+001,-4.13174133456971e-001

1.28342589756290e+004,-2.27655220709460e+001,-4.18941791443740e-001

1.30134185544193e+004,-2.27655242477946e+001,-4.24789961323394e-001

1.31950791077289e+004,-2.27655264858417e+001,-4.30719766930566e-001

1.33792755478611e+004,-2.27655287868077e+001,-4.36732347786562e-001

1.35660432744767e+004,-2.27655311524615e+001,-4.42828859316783e-001

1.37554181813974e+004,-2.27655335846217e+001,-4.49010473071174e-001

1.39474366635040e+004,-2.27655360851577e+001,-4.55278376952822e-001

1.41421356237309e+004,-2.27655386559921e+001,-4.61633775441775e-001

1.43395524801583e+004,-2.27655412991009e+001,-4.68077889830007e-001

1.45397251732031e+004,-2.27655440165159e+001,-4.74611958453992e-001

1.47426921729110e+004,-2.27655468103263e+001,-4.81237236931303e-001

1.49484924863494e+004,-2.27655496826796e+001,-4.87954998404816e-001

1.51571656651040e+004,-2.27655526357838e+001,-4.94766533786329e-001

1.53687518128801e+004,-2.27655556719092e+001,-5.01673152001189e-001

1.55832915932100e+004,-2.27655587933895e+001,-5.08676180244373e-001

1.58008262372675e+004,-2.27655620026244e+001,-5.15776964232200e-001

1.60213975517924e+004,-2.27655653020808e+001,-5.22976868460691e-001

1.62450479271247e+004,-2.27655686942951e+001,-5.30277276469303e-001

1.64718203453514e+004,-2.27655721818748e+001,-5.37679591106321e-001

1.67017583885674e+004,-2.27655757675011e+001,-5.45185234794671e-001

1.69349062472505e+004,-2.27655794539300e+001,-5.52795649810610e-001

1.71713087287550e+004,-2.27655832439955e+001,-5.60512298556205e-001

1.74110112659224e+004,-2.27655871406110e+001,-5.68336663841323e-001

1.76540599258131e+004,-2.27655911467718e+001,-5.76270249168743e-001

1.79005014185594e+004,-2.27655952655575e+001,-5.84314579023369e-001

1.81503831063432e+004,-2.27655995001341e+001,-5.92471199162134e-001

1.84037530124975e+004,-2.27656038537568e+001,-6.00741676913341e-001

1.86606598307361e+004,-2.27656083297722e+001,-6.09127601476296e-001

1.89211529345119e+004,-2.27656129316209e+001,-6.17630584226845e-001

1.91852823865052e+004,-2.27656176628405e+001,-6.26252259025484e-001

1.94530989482457e+004,-2.27656225270675e+001,-6.34994282532755e-001

1.97246540898671e+004,-2.27656275280412e+001,-6.43858334524360e-001

1.99999999999999e+004,-2.27656326696059e+001,-6.52846118216144e-001

2.02791895958005e+004,-2.27656379557135e+001,-6.61959360590236e-001

2.05622765331213e+004,-2.27656433904274e+001,-6.71199812725036e-001

2.08493152168224e+004,-2.27656489779253e+001,-6.80569250132231e-001

2.11403608112276e+004,-2.27656547225020e+001,-6.90069473098311e-001

2.14354692507258e+004,-2.27656606285732e+001,-6.99702307027247e-001

2.17346972505211e+004,-2.27656667006788e+001,-7.09469602793664e-001

2.20381023175322e+004,-2.27656729434860e+001,-7.19373237095230e-001

2.23457427614443e+004,-2.27656793617936e+001,-7.29415112815084e-001

2.26576777059159e+004,-2.27656859605350e+001,-7.39597159384227e-001

2.29739670999406e+004,-2.27656927447824e+001,-7.49921333153572e-001

2.32946717293690e+004,-2.27656997197505e+001,-7.60389617767934e-001

2.36198532285905e+004,-2.27657068908006e+001,-7.71004024546945e-001

2.39495740923785e+004,-2.27657142634446e+001,-7.81766592871359e-001

2.42838976879009e+004,-2.27657218433495e+001,-7.92679390571572e-001

2.46228882668982e+004,-2.27657296363415e+001,-8.03744514326448e-001

2.49666109780322e+004,-2.27657376484104e+001,-8.14964090065315e-001

2.53151318794055e+004,-2.27657458857146e+001,-8.26340273374061e-001

2.56685179512580e+004,-2.27657543545856e+001,-8.37875249907677e-001

2.60268371088386e+004,-2.27657630615327e+001,-8.49571235812535e-001

2.63901582154578e+004,-2.27657720132481e+001,-8.61430478147429e-001

2.67585510957221e+004,-2.27657812166122e+001,-8.73455255316452e-001

2.71320865489533e+004,-2.27657906786988e+001,-8.85647877504047e-001

2.75108363627948e+004,-2.27658004067806e+001,-8.98010687119365e-001

2.78948733270080e+004,-2.27658104083344e+001,-9.10546059242865e-001

2.82842712474618e+004,-2.27658206910473e+001,-9.23256402083910e-001

2.86791049603164e+004,-2.27658312628227e+001,-9.36144157438325e-001

2.90794503464061e+004,-2.27658421317857e+001,-9.49211801160820e-001

2.94853843458219e+004,-2.27658533062899e+001,-9.62461843634671e-001

2.98969849726987e+004,-2.27658647949239e+001,-9.75896830255480e-001

3.03143313302078e+004,-2.27658766065172e+001,-9.89519341916867e-001

3.07375036257601e+004,-2.27658887501479e+001,-1.00333199550602e+000

3.11665831864199e+004,-2.27659012351490e+001,-1.01733744440214e+000

3.16016524745350e+004,-2.27659140711157e+001,-1.03153837898787e+000

3.20427951035848e+004,-2.27659272679132e+001,-1.04593752716025e+000

3.24900958542493e+004,-2.27659408356834e+001,-1.06053765485674e+000

3.29436406907028e+004,-2.27659547848538e+001,-1.07534156658054e+000

3.34035167771346e+004,-2.27659691261444e+001,-1.09035210594073e+000

3.38698124945009e+004,-2.27659838705768e+001,-1.10557215619315e+000

3.43426174575100e+004,-2.27659990294822e+001,-1.12100464079409e+000

3.48220225318448e+004,-2.27660146145101e+001,-1.13665252395826e+000

3.53081198516260e+004,-2.27660306376375e+001,-1.15251881122596e+000

3.58010028371187e+004,-2.27660471111779e+001,-1.16860655003713e+000

3.63007662126863e+004,-2.27660640477909e+001,-1.18491883031504e+000

3.68075060249948e+004,-2.27660814604916e+001,-1.20145878505562e+000

3.73213196614721e+004,-2.27660993626610e+001,-1.21822959092670e+000

3.78423058690237e+004,-2.27661177680559e+001,-1.23523446887571e+000

3.83705647730104e+004,-2.27661366908199e+001,-1.25247668474316e+000

3.89061978964912e+004,-2.27661561454936e+001,-1.26995954988875e+000

3.94493081797342e+004,-2.27661761470266e+001,-1.28768642182140e+000

3.99999999999998e+004,-2.27661967107883e+001,-1.30566070484204e+000

4.05583791916010e+004,-2.27662178525797e+001,-1.32388585069326e+000

4.11245530662425e+004,-2.27662395886462e+001,-1.34236535921668e+000

4.16986304336447e+004,-2.27662619356891e+001,-1.36110277902344e+000

4.22807216224550e+004,-2.27662849108793e+001,-1.38010170816834e+000

4.28709385014515e+004,-2.27663085318700e+001,-1.39936579483828e+000

4.34693945010421e+004,-2.27663328168101e+001,-1.41889873804721e+000

4.40762046350642e+004,-2.27663577843587e+001,-1.43870428834142e+000

4.46914855228886e+004,-2.27663834536987e+001,-1.45878624851498e+000

4.53153554118317e+004,-2.27664098445523e+001,-1.47914847433338e+000

4.59479341998812e+004,-2.27664369771952e+001,-1.49979487526982e+000

4.65893434587380e+004,-2.27664648724731e+001,-1.52072941524798e+000

4.72397064571810e+004,-2.27664935518170e+001,-1.54195611339864e+000

4.78991481847569e+004,-2.27665230372599e+001,-1.56347904482427e+000

4.85677953758016e+004,-2.27665533514536e+001,-1.58530234137517e+000

4.92457765337964e+004,-2.27665845176862e+001,-1.60743019243379e+000

4.99332219560642e+004,-2.27666165598998e+001,-1.62986684571495e+000

5.06302637588109e+004,-2.27666495027092e+001,-1.65261660807035e+000

5.13370359025159e+004,-2.27666833714201e+001,-1.67568384631032e+000

5.20536742176771e+004,-2.27667181920491e+001,-1.69907298803207e+000

5.27803164309155e+004,-2.27667539913434e+001,-1.72278852246122e+000

5.35171021914442e+004,-2.27667907968012e+001,-1.74683500130536e+000

5.42641730979066e+004,-2.27668286366931e+001,-1.77121703961706e+000

5.50216727255895e+004,-2.27668675400834e+001,-1.79593931667155e+000

5.57897466540159e+004,-2.27669075368526e+001,-1.82100657685316e+000

5.65685424949235e+004,-2.27669486577201e+001,-1.84642363055589e+000

5.73582099206328e+004,-2.27669909342678e+001,-1.87219535509602e+000

5.81589006928121e+004,-2.27670343989644e+001,-1.89832669563588e+000

5.89707686916437e+004,-2.27670790851901e+001,-1.92482266612135e+000

5.97939699453972e+004,-2.27671250272625e+001,-1.95168835023070e+000

6.06286626604156e+004,-2.27671722604620e+001,-1.97892890233836e+000

6.14750072515201e+004,-2.27672208210600e+001,-2.00654954848907e+000

6.23331663728396e+004,-2.27672707463457e+001,-2.03455558738729e+000

6.32033049490698e+004,-2.27673220746552e+001,-2.06295239139846e+000

6.40855902071694e+004,-2.27673748454006e+001,-2.09174540756434e+000

6.49801917084985e+004,-2.27674290990999e+001,-2.12094015863271e+000

6.58872813814055e+004,-2.27674848774087e+001,-2.15054224409906e+000

6.68070335542691e+004,-2.27675422231514e+001,-2.18055734126394e+000

6.77396249890018e+004,-2.27676011803543e+001,-2.21099120630340e+000

6.86852349150199e+004,-2.27676617942789e+001,-2.24184967535400e+000

6.96440450636895e+004,-2.27677241114570e+001,-2.27313866561320e+000

7.06162397032520e+004,-2.27677881797260e+001,-2.30486417645235e+000

7.16020056742374e+004,-2.27678540482654e+001,-2.33703229054672e+000

7.26015324253724e+004,-2.27679217676344e+001,-2.36964917501912e+000

7.36150120499896e+004,-2.27679913898108e+001,-2.40272108259905e+000

7.46426393229441e+004,-2.27680629682301e+001,-2.43625435279743e+000

7.56846117380472e+004,-2.27681365578272e+001,-2.47025541309664e+000

7.67411295460207e+004,-2.27682122150774e+001,-2.50473078015629e+000

7.78123957929823e+004,-2.27682899980402e+001,-2.53968706103500e+000

7.88986163594682e+004,-2.27683699664033e+001,-2.57513095442798e+000

7.99999999999995e+004,-2.27684521815284e+001,-2.61106925192078e+000

8.11167583832018e+004,-2.27685367064974e+001,-2.64750883926093e+000

8.22491061324848e+004,-2.27686236061613e+001,-2.68445669764351e+000

8.33972608672892e+004,-2.27687129471895e+001,-2.72191990501576e+000

8.45614432449099e+004,-2.27688047981199e+001,-2.75990563739847e+000

8.57418770029029e+004,-2.27688992294122e+001,-2.79842117022317e+000

8.69387890020841e+004,-2.27689963135008e+001,-2.83747387968781e+000

8.81524092701283e+004,-2.27690961248505e+001,-2.87707124413008e+000

8.93829710457770e+004,-2.27691987400127e+001,-2.91722084541800e+000

9.06307108236633e+004,-2.27693042376842e+001,-2.95793037035829e+000

9.18958683997622e+004,-2.27694126987671e+001,-2.99920761212356e+000

9.31786869174758e+004,-2.27695242064299e+001,-3.04106047169735e+000

9.44794129143618e+004,-2.27696388461711e+001,-3.08349695933761e+000

9.57982963695136e+004,-2.27697567058843e+001,-3.12652519605892e+000

9.71355907516031e+004,-2.27698778759249e+001,-3.17015341513373e+000

9.84915530675926e+004,-2.27700024491790e+001,-3.21438996361262e+000

9.98664439121282e+004,-2.27701305211336e+001,-3.25924330386390e+000

1.01260527517622e+005,-2.27702621899495e+001,-3.30472201513195e+000

1.02674071805032e+005,-2.27703975565358e+001,-3.35083479511626e+000

1.04107348435354e+005,-2.27705367246261e+001,-3.39759046156963e+000

1.05560632861831e+005,-2.27706798008581e+001,-3.44499795391597e+000

1.07034204382888e+005,-2.27708268948535e+001,-3.49306633488981e+000

1.08528346195813e+005,-2.27709781193019e+001,-3.54180479219356e+000

1.10043345451179e+005,-2.27711335900459e+001,-3.59122264017800e+000

1.11579493308032e+005,-2.27712934261687e+001,-3.64132932154199e+000

1.13137084989847e+005,-2.27714577500848e+001,-3.69213440905322e+000

1.14716419841265e+005,-2.27716266876323e+001,-3.74364760728972e+000

1.16317801385624e+005,-2.27718003681683e+001,-3.79587875440386e+000

1.17941537383287e+005,-2.27719789246666e+001,-3.84883782390601e+000

1.19587939890794e+005,-2.27721624938186e+001,-3.90253492647103e+000

1.21257325320831e+005,-2.27723512161363e+001,-3.95698031176527e+000

1.22950014503040e+005,-2.27725452360584e+001,-4.01218437029762e+000

1.24666332745679e+005,-2.27727447020596e+001,-4.06815763528925e+000

1.26406609898139e+005,-2.27729497667627e+001,-4.12491078456847e+000

1.28171180414339e+005,-2.27731605870533e+001,-4.18245464248682e+000

1.29960383416997e+005,-2.27733773241986e+001,-4.24080018185653e+000

1.31774562762811e+005,-2.27736001439686e+001,-4.29995852591265e+000

1.33614067108538e+005,-2.27738292167610e+001,-4.35994095029613e+000

1.35479249978003e+005,-2.27740647177293e+001,-4.42075888506025e+000

1.37370469830040e+005,-2.27743068269150e+001,-4.48242391670055e+000

1.39288090127379e+005,-2.27745557293825e+001,-4.54494779020682e+000

1.41232479406504e+005,-2.27748116153581e+001,-4.60834241113932e+000

1.43204011348474e+005,-2.27750746803732e+001,-4.67261984772690e+000

1.45203064850745e+005,-2.27753451254107e+001,-4.73779233298973e+000

1.47230024099979e+005,-2.27756231570557e+001,-4.80387226688479e+000

1.49285278645888e+005,-2.27759089876502e+001,-4.87087221847497e+000

1.51369223476094e+005,-2.27762028354524e+001,-4.93880492812133e+000

1.53482259092041e+005,-2.27765049247996e+001,-5.00768330969921e+000

1.55624791585964e+005,-2.27768154862761e+001,-5.07752045283899e+000

1.57797232718936e+005,-2.27771347568855e+001,-5.14832962518792e+000

1.59999999999999e+005,-2.27774629802269e+001,-5.22012427469855e+000

1.62233516766403e+005,-2.27778004066776e+001,-5.29291803193851e+000

1.64498212264969e+005,-2.27781472935790e+001,-5.36672471242542e+000

1.66794521734578e+005,-2.27785039054280e+001,-5.44155831898433e+000

1.69122886489819e+005,-2.27788705140742e+001,-5.51743304412982e+000

1.71483754005805e+005,-2.27792473989215e+001,-5.59436327247078e+000

1.73877578004168e+005,-2.27796348471355e+001,-5.67236358313874e+000

1.76304818540256e+005,-2.27800331538567e+001,-5.75144875223972e+000

1.78765942091554e+005,-2.27804426224189e+001,-5.83163375532996e+000

1.81261421647326e+005,-2.27808635645734e+001,-5.91293376991354e+000

1.83791736799524e+005,-2.27812963007203e+001,-5.99536417796349e+000

1.86357373834951e+005,-2.27817411601439e+001,-6.07894056846630e+000

1.88958825828723e+005,-2.27821984812564e+001,-6.16367873998852e+000

1.91596592739027e+005,-2.27826686118468e+001,-6.24959470326525e+000

1.94271181503206e+005,-2.27831519093368e+001,-6.33670468381200e+000

1.96983106135185e+005,-2.27836487410436e+001,-6.42502512455785e+000

1.99732887824256e+005,-2.27841594844493e+001,-6.51457268849963e+000

2.02521055035243e+005,-2.27846845274772e+001,-6.60536426137850e+000

2.05348143610063e+005,-2.27852242687765e+001,-6.69741695437743e+000

2.08214696870707e+005,-2.27857791180129e+001,-6.79074810683778e+000

2.11121265723661e+005,-2.27863494961680e+001,-6.88537528899836e+000

2.14068408765776e+005,-2.27869358358456e+001,-6.98131630475203e+000

2.17056692391625e+005,-2.27875385815872e+001,-7.07858919442359e+000

2.20086690902357e+005,-2.27881581901940e+001,-7.17721223756496e+000

2.23158986616063e+005,-2.27887951310588e+001,-7.27720395576925e+000

2.26274169979693e+005,-2.27894498865058e+001,-7.37858311550253e+000

2.29432839682530e+005,-2.27901229521390e+001,-7.48136873095219e+000

2.32635602771247e+005,-2.27908148371999e+001,-7.58558006689249e+000

2.35883074766574e+005,-2.27915260649339e+001,-7.69123664156497e+000

2.39175879781588e+005,-2.27922571729673e+001,-7.79835822957380e+000

2.42514650641661e+005,-2.27930087136920e+001,-7.90696486479630e+000

2.45900029006080e+005,-2.27937812546616e+001,-8.01707684330528e+000

2.49332665491357e+005,-2.27945753789969e+001,-8.12871472630438e+000

2.52813219796278e+005,-2.27953916858016e+001,-8.24189934307539e+000

2.56342360828676e+005,-2.27962307905883e+001,-8.35665179393500e+000

2.59920766833993e+005,-2.27970933257160e+001,-8.47299345320122e+000

2.63549125525621e+005,-2.27979799408377e+001,-8.59094597216807e+000

2.67228134217075e+005,-2.27988913033594e+001,-8.71053128208749e+000

2.70958499956006e+005,-2.27998280989105e+001,-8.83177159715630e+000

2.74740939660078e+005,-2.28007910318263e+001,-8.95468941750826e+000

2.78576180254757e+005,-2.28017808256412e+001,-9.07930753220876e+000

2.82464958813007e+005,-2.28027982235955e+001,-9.20564902225117e+000

2.86408022696948e+005,-2.28038439891535e+001,-9.33373726355314e+000

2.90406129701488e+005,-2.28049189065344e+001,-9.46359592995146e+000

2.94460048199957e+005,-2.28060237812565e+001,-9.59524899619330e+000

2.98570557291775e+005,-2.28071594406938e+001,-9.72872074092242e+000

3.02738446952187e+005,-2.28083267346466e+001,-9.86403574965858e+000

3.06964518184081e+005,-2.28095265359254e+001,-1.00012189177678e+001

3.11249583171928e+005,-2.28107597409486e+001,-1.01402954534219e+001

3.15594465437872e+005,-2.28120272703541e+001,-1.02812908805443e+001

3.19999999999997e+005,-2.28133300696261e+001,-1.04242310417409e+001

3.24467033532806e+005,-2.28146691097354e+001,-1.05691421012135e+001

3.28996424529938e+005,-2.28160453877953e+001,-1.07160505476519e+001

3.33589043469155e+005,-2.28174599277321e+001,-1.08649831971044e+001

3.38245772979638e+005,-2.28189137809717e+001,-1.10159671958218e+001

3.42967508011610e+005,-2.28204080271404e+001,-1.11690300230745e+001

3.47755156008335e+005,-2.28219437747833e+001,-1.13241994939365e+001

3.52609637080511e+005,-2.28235221620971e+001,-1.14815037620369e+001

3.57531884183106e+005,-2.28251443576803e+001,-1.16409713222733e+001

3.62522843294651e+005,-2.28268115612993e+001,-1.18026310134843e+001

3.67583473599047e+005,-2.28285250046718e+001,-1.19665120210780e+001

3.72714747669902e+005,-2.28302859522662e+001,-1.21326438796138e+001

3.77917651657445e+005,-2.28320957021194e+001,-1.23010564753307e+001

3.83193185478053e+005,-2.28339555866706e+001,-1.24717800486224e+001

3.88542363006410e+005,-2.28358669736143e+001,-1.26448451964520e+001

3.93966212270369e+005,-2.28378312667689e+001,-1.28202828747040e+001

3.99465775648511e+005,-2.28398499069655e+001,-1.29981244004674e+001

4.05042110070485e+005,-2.28419243729529e+001,-1.31784014542482e+001

4.10696287220124e+005,-2.28440561823217e+001,-1.33611460821039e+001

4.16429393741414e+005,-2.28462468924469e+001,-1.35463906976965e+001

4.22242531447321e+005,-2.28484981014484e+001,-1.37341680842598e+001

4.28136817531551e+005,-2.28508114491703e+001,-1.39245113964734e+001

4.34113384783250e+005,-2.28531886181789e+001,-1.41174541622412e+001

4.40173381804713e+005,-2.28556313347797e+001,-1.43130302843663e+001

4.46317973232124e+005,-2.28581413700522e+001,-1.45112740421186e+001

4.52548339959385e+005,-2.28607205409051e+001,-1.47122200926868e+001

4.58865679365059e+005,-2.28633707111483e+001,-1.49159034725121e+001

4.65271205542494e+005,-2.28660937925855e+001,-1.51223595984943e+001

4.71766149533147e+005,-2.28688917461247e+001,-1.53316242690653e+001

4.78351759563174e+005,-2.28717665829068e+001,-1.55437336651237e+001

4.85029301283321e+005,-2.28747203654540e+001,-1.57587243508225e+001

4.91800058012158e+005,-2.28777552088357e+001,-1.59766332742040e+001

4.98665330982714e+005,-2.28808732818526e+001,-1.61974977676737e+001

5.05626439592555e+005,-2.28840768082395e+001,-1.64213555483082e+001

5.12684721657352e+005,-2.28873680678852e+001,-1.66482447179844e+001

5.19841533667984e+005,-2.28907493980702e+001,-1.68782037633290e+001

5.27098251051240e+005,-2.28942231947211e+001,-1.71112715554747e+001

5.34456268434150e+005,-2.28977919136829e+001,-1.73474873496177e+001

5.41916999912011e+005,-2.29014580720058e+001,-1.75868907843679e+001

