Freq.,VOut,OutRef

1.00000000000000e+004,-1.52709153165668e+001,-1.18675755915547e-001

1.01395947979003e+004,-1.52709153788923e+001,-1.20332407484351e-001

1.02811382665607e+004,-1.52709154429697e+001,-1.22012185037671e-001

1.04246576084112e+004,-1.52709155088489e+001,-1.23715411399631e-001

1.05701804056138e+004,-1.52709155765800e+001,-1.25442413904860e-001

1.07177346253629e+004,-1.52709156462153e+001,-1.27193524454887e-001

1.08673486252606e+004,-1.52709157178083e+001,-1.28969079584190e-001

1.10190511587661e+004,-1.52709157914141e+001,-1.30769420527162e-001

1.11728713807222e+004,-1.52709158670892e+001,-1.32594893279460e-001

1.13288388529580e+004,-1.52709159448918e+001,-1.34445848668104e-001

1.14869835499703e+004,-1.52709160248818e+001,-1.36322642415552e-001

1.16473358646846e+004,-1.52709161071206e+001,-1.38225635212552e-001

1.18099266142953e+004,-1.52709161916715e+001,-1.40155192783167e-001

1.19747870461893e+004,-1.52709162785994e+001,-1.42111685957040e-001

1.21419488439505e+004,-1.52709163679712e+001,-1.44095490740124e-001

1.23114441334492e+004,-1.52709164598554e+001,-1.46106988389008e-001

1.24833054890161e+004,-1.52709165543231e+001,-1.48146565478870e-001

1.26575659397028e+004,-1.52709166514464e+001,-1.50214613985160e-001

1.28342589756290e+004,-1.52709167513003e+001,-1.52311531351547e-001

1.30134185544193e+004,-1.52709168539616e+001,-1.54437720572409e-001

1.31950791077289e+004,-1.52709169595088e+001,-1.56593590267703e-001

1.33792755478611e+004,-1.52709170680236e+001,-1.58779554757718e-001

1.35660432744767e+004,-1.52709171795890e+001,-1.60996034151407e-001

1.37554181813974e+004,-1.52709172942910e+001,-1.63243454419487e-001

1.39474366635040e+004,-1.52709174122177e+001,-1.65522247478601e-001

1.41421356237309e+004,-1.52709175334598e+001,-1.67832851276440e-001

1.43395524801583e+004,-1.52709176581104e+001,-1.70175709872848e-001

1.45397251732031e+004,-1.52709177862655e+001,-1.72551273526484e-001

1.47426921729110e+004,-1.52709179180234e+001,-1.74959998782287e-001

1.49484924863494e+004,-1.52709180534856e+001,-1.77402348557372e-001

1.51571656651040e+004,-1.52709181927561e+001,-1.79878792230677e-001

1.53687518128801e+004,-1.52709183359421e+001,-1.82389805734871e-001

1.55832915932100e+004,-1.52709184831535e+001,-1.84935871644819e-001

1.58008262372675e+004,-1.52709186345037e+001,-1.87517479271481e-001

1.60213975517924e+004,-1.52709187901088e+001,-1.90135124758767e-001

1.62450479271247e+004,-1.52709189500886e+001,-1.92789311173465e-001

1.64718203453514e+004,-1.52709191145659e+001,-1.95480548607296e-001

1.67017583885674e+004,-1.52709192836676e+001,-1.98209354269268e-001

1.69349062472505e+004,-1.52709194575232e+001,-2.00976252592728e-001

1.71713087287550e+004,-1.52709196362664e+001,-2.03781775328860e-001

1.74110112659224e+004,-1.52709198200349e+001,-2.06626461651447e-001

1.76540599258131e+004,-1.52709200089699e+001,-2.09510858261666e-001

1.79005014185594e+004,-1.52709202032164e+001,-2.12435519493582e-001

1.81503831063432e+004,-1.52709204029241e+001,-2.15401007416407e-001

1.84037530124975e+004,-1.52709206082462e+001,-2.18407891948083e-001

1.86606598307361e+004,-1.52709208193405e+001,-2.21456750961431e-001

1.89211529345119e+004,-1.52709210363698e+001,-2.24548170393642e-001

1.91852823865052e+004,-1.52709212595004e+001,-2.27682744365805e-001

1.94530989482457e+004,-1.52709214889041e+001,-2.30861075288387e-001

1.97246540898671e+004,-1.52709217247572e+001,-2.34083773983843e-001

1.99999999999999e+004,-1.52709219672409e+001,-2.37351459799115e-001

2.02791895958005e+004,-1.52709222165419e+001,-2.40664760727472e-001

2.05622765331213e+004,-1.52709224728516e+001,-2.44024313529448e-001

2.08493152168224e+004,-1.52709227363672e+001,-2.47430763852898e-001

2.11403608112276e+004,-1.52709230072911e+001,-2.50884766360332e-001

2.14354692507258e+004,-1.52709232858318e+001,-2.54386984849665e-001

2.17346972505211e+004,-1.52709235722032e+001,-2.57938092389032e-001

2.20381023175322e+004,-1.52709238666257e+001,-2.61538771438373e-001

2.23457427614443e+004,-1.52709241693253e+001,-2.65189713987231e-001

2.26576777059159e+004,-1.52709244805351e+001,-2.68891621681369e-001

2.29739670999406e+004,-1.52709248004941e+001,-2.72645205964861e-001

2.32946717293690e+004,-1.52709251294484e+001,-2.76451188209662e-001

2.36198532285905e+004,-1.52709254676507e+001,-2.80310299859684e-001

2.39495740923785e+004,-1.52709258153614e+001,-2.84223282567286e-001

2.42838976879009e+004,-1.52709261728473e+001,-2.88190888340261e-001

2.46228882668982e+004,-1.52709265403835e+001,-2.92213879681722e-001

2.49666109780322e+004,-1.52709269182525e+001,-2.96293029739138e-001

2.53151318794055e+004,-1.52709273067448e+001,-3.00429122452729e-001

2.56685179512580e+004,-1.52709277061590e+001,-3.04622952705236e-001

2.60268371088386e+004,-1.52709281168023e+001,-3.08875326476021e-001

2.63901582154578e+004,-1.52709285389903e+001,-3.13187060995267e-001

2.67585510957221e+004,-1.52709289730475e+001,-3.17558984900567e-001

2.71320865489533e+004,-1.52709294193077e+001,-3.21991938395653e-001

2.75108363627948e+004,-1.52709298781139e+001,-3.26486773415213e-001

2.78948733270080e+004,-1.52709303498188e+001,-3.31044353782897e-001

2.82842712474618e+004,-1.52709308347851e+001,-3.35665555383564e-001

2.86791049603164e+004,-1.52709313333856e+001,-3.40351266326089e-001

2.90794503464061e+004,-1.52709318460035e+001,-3.45102387119204e-001

2.94853843458219e+004,-1.52709323730330e+001,-3.49919830838752e-001

2.98969849726987e+004,-1.52709329148794e+001,-3.54804523308135e-001

3.03143313302078e+004,-1.52709334719589e+001,-3.59757403274675e-001

3.07375036257601e+004,-1.52709340446999e+001,-3.64779422588447e-001

3.11665831864199e+004,-1.52709346335429e+001,-3.69871546386778e-001

3.16016524745350e+004,-1.52709352389402e+001,-3.75034753279862e-001

3.20427951035848e+004,-1.52709358613576e+001,-3.80270035536900e-001

3.24900958542493e+004,-1.52709365012734e+001,-3.85578399279400e-001

3.29436406907028e+004,-1.52709371591794e+001,-3.90960864673500e-001

3.34035167771346e+004,-1.52709378355817e+001,-3.96418466123861e-001

3.38698124945009e+004,-1.52709385309999e+001,-4.01952252476892e-001

3.43426174575100e+004,-1.52709392459690e+001,-4.07563287216371e-001

3.48220225318448e+004,-1.52709399810384e+001,-4.13252648674496e-001

3.53081198516260e+004,-1.52709407367732e+001,-4.19021430234235e-001

3.58010028371187e+004,-1.52709415137545e+001,-4.24870740539333e-001

3.63007662126863e+004,-1.52709423125794e+001,-4.30801703711859e-001

3.68075060249948e+004,-1.52709431338622e+001,-4.36815459563323e-001

3.73213196614721e+004,-1.52709439782341e+001,-4.42913163815593e-001

3.78423058690237e+004,-1.52709448463444e+001,-4.49095988323705e-001

3.83705647730104e+004,-1.52709457388603e+001,-4.55365121300223e-001

3.89061978964912e+004,-1.52709466564681e+001,-4.61721767542216e-001

3.94493081797342e+004,-1.52709475998728e+001,-4.68167148666807e-001

3.99999999999998e+004,-1.52709485698002e+001,-4.74702503340067e-001

4.05583791916010e+004,-1.52709495669956e+001,-4.81329087520663e-001

4.11245530662425e+004,-1.52709505922256e+001,-4.88048174697077e-001

4.16986304336447e+004,-1.52709516462785e+001,-4.94861056134775e-001

4.22807216224550e+004,-1.52709527299644e+001,-5.01769041123026e-001

4.28709385014515e+004,-1.52709538441165e+001,-5.08773457227155e-001

4.34693945010421e+004,-1.52709549895913e+001,-5.15875650542855e-001

4.40762046350642e+004,-1.52709561672693e+001,-5.23076985956005e-001

4.46914855228886e+004,-1.52709573780560e+001,-5.30378847402319e-001

4.53153554118317e+004,-1.52709586228820e+001,-5.37782638136925e-001

4.59479341998812e+004,-1.52709599027043e+001,-5.45289781002210e-001

4.65893434587380e+004,-1.52709612185068e+001,-5.52901718699306e-001

4.72397064571810e+004,-1.52709625713010e+001,-5.60619914068620e-001

4.78991481847569e+004,-1.52709639621268e+001,-5.68445850368772e-001

4.85677953758016e+004,-1.52709653920534e+001,-5.76381031561842e-001

4.92457765337964e+004,-1.52709668621801e+001,-5.84426982602602e-001

4.99332219560642e+004,-1.52709683736369e+001,-5.92585249731741e-001

5.06302637588109e+004,-1.52709699275859e+001,-6.00857400772181e-001

5.13370359025159e+004,-1.52709715252215e+001,-6.09245025431006e-001

5.20536742176771e+004,-1.52709731677719e+001,-6.17749735604530e-001

5.27803164309155e+004,-1.52709748564999e+001,-6.26373165687025e-001

5.35171021914442e+004,-1.52709765927036e+001,-6.35116972887079e-001

5.42641730979066e+004,-1.52709783777175e+001,-6.43982837543776e-001

5.50216727255895e+004,-1.52709802129141e+001,-6.52972463449845e-001

5.57897466540159e+004,-1.52709820997039e+001,-6.62087578179581e-001

5.65685424949235e+004,-1.52709840395375e+001,-6.71329933420765e-001

5.73582099206328e+004,-1.52709860339060e+001,-6.80701305310155e-001

5.81589006928121e+004,-1.52709880843425e+001,-6.90203494775875e-001

5.89707686916437e+004,-1.52709901924233e+001,-6.99838327882302e-001

5.97939699453972e+004,-1.52709923597689e+001,-7.09607656181618e-001

6.06286626604156e+004,-1.52709945880454e+001,-7.19513357069042e-001

6.14750072515201e+004,-1.52709968789655e+001,-7.29557334144214e-001

6.23331663728396e+004,-1.52709992342906e+001,-7.39741517574281e-001

6.32033049490698e+004,-1.52710016558310e+001,-7.50067864468458e-001

6.40855902071694e+004,-1.52710041454483e+001,-7.60538359251364e-001

6.49801917084985e+004,-1.52710067050563e+001,-7.71155014043851e-001

6.58872813814055e+004,-1.52710093366225e+001,-7.81919869051622e-001

6.68070335542691e+004,-1.52710120421700e+001,-7.92834992954994e-001

6.77396249890018e+004,-1.52710148237782e+001,-8.03902483307628e-001

6.86852349150199e+004,-1.52710176835857e+001,-8.15124466937803e-001

6.96440450636895e+004,-1.52710206237907e+001,-8.26503100358769e-001

7.06162397032520e+004,-1.52710236466532e+001,-8.38040570181909e-001

7.16020056742374e+004,-1.52710267544970e+001,-8.49739093535831e-001

7.26015324253724e+004,-1.52710299497112e+001,-8.61600918493046e-001

7.36150120499896e+004,-1.52710332347517e+001,-8.73628324503027e-001

7.46426393229441e+004,-1.52710366121437e+001,-8.85823622827141e-001

7.56846117380472e+004,-1.52710400844835e+001,-8.98189156983685e-001

7.67411295460207e+004,-1.52710436544401e+001,-9.10727303199006e-001

7.78123957929823e+004,-1.52710473247577e+001,-9.23440470862286e-001

7.88986163594682e+004,-1.52710510982578e+001,-9.36331102988102e-001

7.99999999999995e+004,-1.52710549778407e+001,-9.49401676687088e-001

8.11167583832018e+004,-1.52710589664886e+001,-9.62654703640110e-001

8.22491061324848e+004,-1.52710630672675e+001,-9.76092730580327e-001

8.33972608672892e+004,-1.52710672833296e+001,-9.89718339783237e-001

8.45614432449099e+004,-1.52710716179156e+001,-1.00353414956195e+000

8.57418770029029e+004,-1.52710760743573e+001,-1.01754281476929e+000

8.69387890020841e+004,-1.52710806560802e+001,-1.03174702730789e+000

8.81524092701283e+004,-1.52710853666061e+001,-1.04614951664798e+000

8.93829710457770e+004,-1.52710902095557e+001,-1.06075305034907e+000

9.06307108236633e+004,-1.52710951886515e+001,-1.07556043459336e+000

9.18958683997622e+004,-1.52711003077208e+001,-1.09057451472249e+000

9.31786869174758e+004,-1.52711055706982e+001,-1.10579817578564e+000

9.44794129143618e+004,-1.52711109816291e+001,-1.12123434309140e+000

9.57982963695136e+004,-1.52711165446725e+001,-1.13688598277097e+000

9.71355907516031e+004,-1.52711222641043e+001,-1.15275610234567e+000

9.84915530675926e+004,-1.52711281443206e+001,-1.16884775130555e+000

9.98664439121282e+004,-1.52711341898412e+001,-1.18516402169314e+000

1.01260527517622e+005,-1.52711404053127e+001,-1.20170804869883e+000

1.02674071805032e+005,-1.52711467955122e+001,-1.21848301126045e+000

1.04107348435354e+005,-1.52711533653516e+001,-1.23549213267423e+000

1.05560632861831e+005,-1.52711601198803e+001,-1.25273868121344e+000

1.07034204382888e+005,-1.52711670642899e+001,-1.27022597075428e+000

1.08528346195813e+005,-1.52711742039178e+001,-1.28795736141353e+000

1.10043345451179e+005,-1.52711815442515e+001,-1.30593626019123e+000

1.11579493308032e+005,-1.52711890909327e+001,-1.32416612162534e+000

1.13137084989847e+005,-1.52711968497615e+001,-1.34265044845446e+000

1.14716419841265e+005,-1.52712048267011e+001,-1.36139279228937e+000

1.16317801385624e+005,-1.52712130278825e+001,-1.38039675429390e+000

1.17941537383287e+005,-1.52712214596087e+001,-1.39966598587593e+000

1.19587939890794e+005,-1.52712301283600e+001,-1.41920418938832e+000

1.21257325320831e+005,-1.52712390407988e+001,-1.43901511883774e+000

1.22950014503040e+005,-1.52712482037745e+001,-1.45910258060555e+000

1.24666332745679e+005,-1.52712576243295e+001,-1.47947043417598e+000

1.26406609898139e+005,-1.52712673097036e+001,-1.50012259287891e+000

1.28171180414339e+005,-1.52712772673402e+001,-1.52106302463779e+000

1.29960383416997e+005,-1.52712875048921e+001,-1.54229575273058e+000

1.31774562762811e+005,-1.52712980302267e+001,-1.56382485656225e+000

1.33614067108538e+005,-1.52713088514330e+001,-1.58565447244527e+000

1.35479249978003e+005,-1.52713199768269e+001,-1.60778879439333e+000

1.37370469830040e+005,-1.52713314149581e+001,-1.63023207492542e+000

1.39288090127379e+005,-1.52713431746166e+001,-1.65298862587915e+000

1.41232479406504e+005,-1.52713552648394e+001,-1.67606281923834e+000

1.43204011348474e+005,-1.52713676949173e+001,-1.69945908797073e+000

1.45203064850745e+005,-1.52713804744023e+001,-1.72318192687683e+000

1.47230024099979e+005,-1.52713936131146e+001,-1.74723589345072e+000

1.49285278645888e+005,-1.52714071211506e+001,-1.77162560875409e+000

1.51369223476094e+005,-1.52714210088901e+001,-1.79635575829976e+000

1.53482259092041e+005,-1.52714352870047e+001,-1.82143109295107e+000

1.55624791585964e+005,-1.52714499664657e+001,-1.84685642982988e+000

1.57797232718936e+005,-1.52714650585528e+001,-1.87263665323953e+000

1.59999999999999e+005,-1.52714805748626e+001,-1.89877671560027e+000

1.62233516766403e+005,-1.52714965273173e+001,-1.92528163839737e+000

1.64498212264969e+005,-1.52715129281742e+001,-1.95215651314191e+000

1.66794521734578e+005,-1.52715297900349e+001,-1.97940650234552e+000

1.69122886489819e+005,-1.52715471258550e+001,-2.00703684050829e+000

1.71483754005805e+005,-1.52715649489540e+001,-2.03505283512067e+000

1.73877578004168e+005,-1.52715832730259e+001,-2.06345986767850e+000

1.76304818540256e+005,-1.52716021121488e+001,-2.09226339471255e+000

1.78765942091554e+005,-1.52716214807967e+001,-2.12146894883297e+000

1.81261421647326e+005,-1.52716413938500e+001,-2.15108213978646e+000

1.83791736799524e+005,-1.52716618666071e+001,-2.18110865552981e+000

1.86357373834951e+005,-1.52716829147962e+001,-2.21155426331636e+000

1.88958825828723e+005,-1.52717045545870e+001,-2.24242481080016e+000

1.91596592739027e+005,-1.52717268026036e+001,-2.27372622715244e+000

1.94271181503206e+005,-1.52717496759369e+001,-2.30546452419505e+000

1.96983106135185e+005,-1.52717731921578e+001,-2.33764579754949e+000

1.99732887824256e+005,-1.52717973693307e+001,-2.37027622780155e+000

2.02521055035243e+005,-1.52718222260272e+001,-2.40336208168168e+000

2.05348143610063e+005,-1.52718477813407e+001,-2.43690971326165e+000

2.08214696870707e+005,-1.52718740549005e+001,-2.47092556516884e+000

2.11121265723661e+005,-1.52719010668873e+001,-2.50541616981526e+000

2.14068408765776e+005,-1.52719288380481e+001,-2.54038815064546e+000

2.17056692391625e+005,-1.52719573897130e+001,-2.57584822339959e+000

2.20086690902357e+005,-1.52719867438107e+001,-2.61180319739532e+000

2.23158986616063e+005,-1.52720169228854e+001,-2.64825997682774e+000

2.26274169979693e+005,-1.52720479501148e+001,-2.68522556208475e+000

2.29432839682530e+005,-1.52720798493267e+001,-2.72270705108306e+000

2.32635602771247e+005,-1.52721126450182e+001,-2.76071164062117e+000

2.35883074766574e+005,-1.52721463623740e+001,-2.79924662775051e+000

2.39175879781588e+005,-1.52721810272858e+001,-2.83831941116772e+000

2.42514650641661e+005,-1.52722166663719e+001,-2.87793749262186e+000

2.45900029006080e+005,-1.52722533069982e+001,-2.91810847834545e+000

2.49332665491357e+005,-1.52722909772981e+001,-2.95884008050204e+000

2.52813219796278e+005,-1.52723297061951e+001,-3.00014011865380e+000

2.56342360828676e+005,-1.52723695234241e+001,-3.04201652125129e+000

2.59920766833993e+005,-1.52724104595547e+001,-3.08447732714041e+000

2.63549125525621e+005,-1.52724525460142e+001,-3.12753068709287e+000

2.67228134217075e+005,-1.52724958151119e+001,-3.17118486535541e+000

2.70958499956006e+005,-1.52725403000635e+001,-3.21544824122122e+000

2.74740939660078e+005,-1.52725860350169e+001,-3.26032931062234e+000

2.78576180254757e+005,-1.52726330550779e+001,-3.30583668774375e+000

2.82464958813007e+005,-1.52726813963371e+001,-3.35197910666000e+000

2.86408022696948e+005,-1.52727310958978e+001,-3.39876542299264e+000

2.90406129701488e+005,-1.52727821919038e+001,-3.44620461559161e+000

2.94460048199957e+005,-1.52728347235691e+001,-3.49430578823856e+000

2.98570557291775e+005,-1.52728887312074e+001,-3.54307817137421e+000

3.02738446952187e+005,-1.52729442562629e+001,-3.59253112384701e+000

3.06964518184081e+005,-1.52730013413424e+001,-3.64267413468851e+000

3.11249583171928e+005,-1.52730600302471e+001,-3.69351682490965e+000

3.15594465437872e+005,-1.52731203680066e+001,-3.74506894932394e+000

3.19999999999997e+005,-1.52731824009131e+001,-3.79734039839253e+000

3.24467033532806e+005,-1.52732461765565e+001,-3.85034120009691e+000

3.28996424529938e+005,-1.52733117438607e+001,-3.90408152183511e+000

3.33589043469155e+005,-1.52733791531211e+001,-3.95857167234324e+000

3.38245772979638e+005,-1.52734484560430e+001,-4.01382210364407e+000

3.42967508011610e+005,-1.52735197057806e+001,-4.06984341302050e+000

3.47755156008335e+005,-1.52735929569777e+001,-4.12664634501637e+000

3.52609637080511e+005,-1.52736682658094e+001,-4.18424179346363e+000

3.57531884183106e+005,-1.52737456900246e+001,-4.24264080353674e+000

3.62522843294651e+005,-1.52738252889904e+001,-4.30185457383388e+000

3.67583473599047e+005,-1.52739071237368e+001,-4.36189445848721e+000

3.72714747669902e+005,-1.52739912570031e+001,-4.42277196929994e+000

3.77917651657445e+005,-1.52740777532861e+001,-4.48449877791286e+000

3.83193185478053e+005,-1.52741666788887e+001,-4.54708671799830e+000

3.88542363006410e+005,-1.52742581019703e+001,-4.61054778748475e+000

3.93966212270369e+005,-1.52743520925988e+001,-4.67489415080976e+000

3.99465775648511e+005,-1.52744487228037e+001,-4.74013814120296e+000

4.05042110070485e+005,-1.52745480666305e+001,-4.80629226299984e+000

4.10696287220124e+005,-1.52746502001975e+001,-4.87336919398465e+000

4.16429393741414e+005,-1.52747552017528e+001,-4.94138178776528e+000

4.22242531447321e+005,-1.52748631517342e+001,-5.01034307617921e+000

4.28136817531551e+005,-1.52749741328298e+001,-5.08026627173023e+000

4.34113384783250e+005,-1.52750882300411e+001,-5.15116477005776e+000

4.40173381804713e+005,-1.52752055307469e+001,-5.22305215243794e+000

4.46317973232124e+005,-1.52753261247694e+001,-5.29594218831809e+000

4.52548339959385e+005,-1.52754501044428e+001,-5.36984883788269e+000

4.58865679365059e+005,-1.52755775646825e+001,-5.44478625465441e+000

4.65271205542494e+005,-1.52757086030570e+001,-5.52076878812750e+000

4.71766149533147e+005,-1.52758433198619e+001,-5.59781098643543e+000

4.78351759563174e+005,-1.52759818181952e+001,-5.67592759905355e+000

4.85029301283321e+005,-1.52761242040355e+001,-5.75513357953588e+000

4.91800058012158e+005,-1.52762705863219e+001,-5.83544408828704e+000

4.98665330982714e+005,-1.52764210770358e+001,-5.91687449536980e+000

5.05626439592555e+005,-1.52765757912859e+001,-5.99944038334899e+000

5.12684721657352e+005,-1.52767348473943e+001,-6.08315755017024e+000

5.19841533667984e+005,-1.52768983669859e+001,-6.16804201207629e+000

5.27098251051240e+005,-1.52770664750799e+001,-6.25411000656073e+000

5.34456268434150e+005,-1.52772393001835e+001,-6.34137799535682e+000

5.41916999912011e+005,-1.52774169743891e+001,-6.42986266746657e+000

