Freq.,VOut,OutRef

1.00000000000000e+004,-5.98743430438380e+000,-5.59988116365452e-002

1.01395947979003e+004,-5.98743427266100e+000,-5.67805260133595e-002

1.02811382665607e+004,-5.98743424004644e+000,-5.75731527199917e-002

1.04246576084112e+004,-5.98743420651501e+000,-5.83768440868240e-002

1.05701804056138e+004,-5.98743417204072e+000,-5.91917545726733e-002

1.07177346253629e+004,-5.98743413659724e+000,-6.00180407895151e-002

1.08673486252606e+004,-5.98743410015747e+000,-6.08558615359950e-002

1.10190511587661e+004,-5.98743406269325e+000,-6.17053778292159e-002

1.11728713807222e+004,-5.98743402417551e+000,-6.25667529350109e-002

1.13288388529580e+004,-5.98743398457517e+000,-6.34401523929674e-002

1.14869835499703e+004,-5.98743394386125e+000,-6.43257440601682e-002

1.16473358646846e+004,-5.98743390200304e+000,-6.52236981302919e-002

1.18099266142953e+004,-5.98743385896782e+000,-6.61341871798683e-002

1.19747870461893e+004,-5.98743381472284e+000,-6.70573861885022e-002

1.21419488439505e+004,-5.98743376923387e+000,-6.79934725826626e-002

1.23114441334492e+004,-5.98743372246592e+000,-6.89426262635674e-002

1.24833054890161e+004,-5.98743367438329e+000,-6.99050296425534e-002

1.26575659397028e+004,-5.98743362494871e+000,-7.08808676808819e-002

1.28342589756290e+004,-5.98743357412464e+000,-7.18703279165835e-002

1.30134185544193e+004,-5.98743352187133e+000,-7.28736005132452e-002

1.31950791077289e+004,-5.98743346814934e+000,-7.38908782799702e-002

1.33792755478611e+004,-5.98743341291676e+000,-7.49223567257130e-002

1.35660432744767e+004,-5.98743335613151e+000,-7.59682340828051e-002

1.37554181813974e+004,-5.98743329774975e+000,-7.70287113537393e-002

1.39474366635040e+004,-5.98743323772679e+000,-7.81039923453470e-002

1.41421356237309e+004,-5.98743317601633e+000,-7.91942837110763e-002

1.43395524801583e+004,-5.98743311257071e+000,-8.02997949898895e-002

1.45397251732031e+004,-5.98743304734171e+000,-8.14207386405612e-002

1.47426921729110e+004,-5.98743298027879e+000,-8.25573300943435e-002

1.49484924863494e+004,-5.98743291133021e+000,-8.37097877877234e-002

1.51571656651040e+004,-5.98743284044350e+000,-8.48783332025242e-002

1.53687518128801e+004,-5.98743276756393e+000,-8.60631909170247e-002

1.55832915932100e+004,-5.98743269263527e+000,-8.72645886442674e-002

1.58008262372675e+004,-5.98743261560002e+000,-8.84827572741271e-002

1.60213975517924e+004,-5.98743253639925e+000,-8.97179309182687e-002

1.62450479271247e+004,-5.98743245497167e+000,-9.09703469615908e-002

1.64718203453514e+004,-5.98743237125501e+000,-9.22402460973163e-002

1.67017583885674e+004,-5.98743228518466e+000,-9.35278723826243e-002

1.69349062472505e+004,-5.98743219669439e+000,-9.48334732802996e-002

1.71713087287550e+004,-5.98743210571659e+000,-9.61572997049172e-002

1.74110112659224e+004,-5.98743201218097e+000,-9.74996060783540e-002

1.76540599258131e+004,-5.98743191601553e+000,-9.88606503726282e-002

1.79005014185594e+004,-5.98743181714677e+000,-1.00240694157261e-001

1.81503831063432e+004,-5.98743171549836e+000,-1.01640002658460e-001

1.84037530124975e+004,-5.98743161099215e+000,-1.03058844802200e-001

1.86606598307361e+004,-5.98743150354787e+000,-1.04497493269127e-001

1.89211529345119e+004,-5.98743139308300e+000,-1.05956224545518e-001

1.91852823865052e+004,-5.98743127951239e+000,-1.07435318979429e-001

1.94530989482457e+004,-5.98743116274901e+000,-1.08935060829150e-001

1.97246540898671e+004,-5.98743104270304e+000,-1.10455738323725e-001

1.99999999999999e+004,-5.98743091928208e+000,-1.11997643715767e-001

2.02791895958005e+004,-5.98743079239122e+000,-1.13561073336753e-001

2.05622765331213e+004,-5.98743066193293e+000,-1.15146327655450e-001

2.08493152168224e+004,-5.98743052780709e+000,-1.16753711333304e-001

2.11403608112276e+004,-5.98743038991049e+000,-1.18383533286630e-001

2.14354692507258e+004,-5.98743024813703e+000,-1.20036106744604e-001

2.17346972505211e+004,-5.98743010237763e+000,-1.21711749308392e-001

2.20381023175322e+004,-5.98742995252053e+000,-1.23410783010113e-001

2.23457427614443e+004,-5.98742979845044e+000,-1.25133534380388e-001

2.26576777059159e+004,-5.98742964004869e+000,-1.26880334509055e-001

2.29739670999406e+004,-5.98742947719382e+000,-1.28651519103719e-001

2.32946717293690e+004,-5.98742930976036e+000,-1.30447428562718e-001

2.36198532285905e+004,-5.98742913761988e+000,-1.32268408032391e-001

2.39495740923785e+004,-5.98742896063984e+000,-1.34114807480506e-001

2.42838976879009e+004,-5.98742877868402e+000,-1.35986981760252e-001

2.46228882668982e+004,-5.98742859161288e+000,-1.37885290674527e-001

2.49666109780322e+004,-5.98742839928251e+000,-1.39810099052607e-001

2.53151318794055e+004,-5.98742820154493e+000,-1.41761776816190e-001

2.56685179512580e+004,-5.98742799824825e+000,-1.43740699050366e-001

2.60268371088386e+004,-5.98742778923601e+000,-1.45747246076884e-001

2.63901582154578e+004,-5.98742757434779e+000,-1.47781803524937e-001

2.67585510957221e+004,-5.98742735341811e+000,-1.49844762410051e-001

2.71320865489533e+004,-5.98742712627753e+000,-1.51936519202522e-001

2.75108363627948e+004,-5.98742689275090e+000,-1.54057475911952e-001

2.78948733270080e+004,-5.98742665265910e+000,-1.56208040155624e-001

2.82842712474618e+004,-5.98742640581720e+000,-1.58388625244196e-001

2.86791049603164e+004,-5.98742615203585e+000,-1.60599650254784e-001

2.90794503464061e+004,-5.98742589111980e+000,-1.62841540117066e-001

2.94853843458219e+004,-5.98742562286838e+000,-1.65114725693335e-001

2.98969849726987e+004,-5.98742534707524e+000,-1.67419643860027e-001

3.03143313302078e+004,-5.98742506352867e+000,-1.69756737590100e-001

3.07375036257601e+004,-5.98742477201047e+000,-1.72126456043557e-001

3.11665831864199e+004,-5.98742447229667e+000,-1.74529254648368e-001

3.16016524745350e+004,-5.98742416415677e+000,-1.76965595191532e-001

3.20427951035848e+004,-5.98742384735376e+000,-1.79435945907122e-001

3.24900958542493e+004,-5.98742352164450e+000,-1.81940781562053e-001

3.29436406907028e+004,-5.98742318677816e+000,-1.84480583556432e-001

3.34035167771346e+004,-5.98742284249756e+000,-1.87055840006417e-001

3.38698124945009e+004,-5.98742248853785e+000,-1.89667045844791e-001

3.43426174575100e+004,-5.98742212462700e+000,-1.92314702911823e-001

3.48220225318448e+004,-5.98742175048524e+000,-1.94999320054732e-001

3.53081198516260e+004,-5.98742136582512e+000,-1.97721413222316e-001

3.58010028371187e+004,-5.98742097035053e+000,-2.00481505570401e-001

3.63007662126863e+004,-5.98742056375793e+000,-2.03280127551656e-001

3.68075060249948e+004,-5.98742014573427e+000,-2.06117817030413e-001

3.73213196614721e+004,-5.98741971595854e+000,-2.08995119374776e-001

3.78423058690237e+004,-5.98741927410024e+000,-2.11912587568503e-001

3.83705647730104e+004,-5.98741881981959e+000,-2.14870782315221e-001

3.89061978964912e+004,-5.98741835276750e+000,-2.17870272144964e-001

3.94493081797342e+004,-5.98741787258473e+000,-2.20911633525962e-001

3.99999999999998e+004,-5.98741737890228e+000,-2.23995450972440e-001

4.05583791916010e+004,-5.98741687134062e+000,-2.27122317159104e-001

4.11245530662425e+004,-5.98741634950951e+000,-2.30292833035233e-001

4.16986304336447e+004,-5.98741581300775e+000,-2.33507607939045e-001

4.22807216224550e+004,-5.98741526142309e+000,-2.36767259714150e-001

4.28709385014515e+004,-5.98741469433117e+000,-2.40072414832677e-001

4.34693945010421e+004,-5.98741411129627e+000,-2.43423708508343e-001

4.40762046350642e+004,-5.98741351187019e+000,-2.46821784825054e-001

4.46914855228886e+004,-5.98741289559199e+000,-2.50267296858405e-001

4.53153554118317e+004,-5.98741226198785e+000,-2.53760906801036e-001

4.59479341998812e+004,-5.98741161057090e+000,-2.57303286088592e-001

4.65893434587380e+004,-5.98741094084022e+000,-2.60895115532042e-001

4.72397064571810e+004,-5.98741025228093e+000,-2.64537085446319e-001

4.78991481847569e+004,-5.98740954436377e+000,-2.68229895782679e-001

4.85677953758016e+004,-5.98740881654436e+000,-2.71974256265796e-001

4.92457765337964e+004,-5.98740806826340e+000,-2.75770886525964e-001

4.99332219560642e+004,-5.98740729894542e+000,-2.79620516242823e-001

5.06302637588109e+004,-5.98740650799923e+000,-2.83523885279907e-001

5.13370359025159e+004,-5.98740569481660e+000,-2.87481743831894e-001

5.20536742176771e+004,-5.98740485877246e+000,-2.91494852565723e-001

5.27803164309155e+004,-5.98740399922412e+000,-2.95563982767678e-001

5.35171021914442e+004,-5.98740311551078e+000,-2.99689916492164e-001

5.42641730979066e+004,-5.98740220695310e+000,-3.03873446711312e-001

5.50216727255895e+004,-5.98740127285247e+000,-3.08115377468878e-001

5.57897466540159e+004,-5.98740031249100e+000,-3.12416524031703e-001

5.65685424949235e+004,-5.98739932513038e+000,-3.16777713049519e-001

5.73582099206328e+004,-5.98739831001144e+000,-3.21199782714174e-001

5.81589006928121e+004,-5.98739726635385e+000,-3.25683582917557e-001

5.89707686916437e+004,-5.98739619335534e+000,-3.30229975417412e-001

5.97939699453972e+004,-5.98739509019110e+000,-3.34839834002393e-001

6.06286626604156e+004,-5.98739395601299e+000,-3.39514044661101e-001

6.14750072515201e+004,-5.98739278994900e+000,-3.44253505751258e-001

6.23331663728396e+004,-5.98739159110281e+000,-3.49059128172103e-001

6.32033049490698e+004,-5.98739035855291e+000,-3.53931835539670e-001

6.40855902071694e+004,-5.98738909135171e+000,-3.58872564366012e-001

6.49801917084985e+004,-5.98738778852505e+000,-3.63882264237826e-001

6.58872813814055e+004,-5.98738644907125e+000,-3.68961897999825e-001

6.68070335542691e+004,-5.98738507196078e+000,-3.74112441938068e-001

6.77396249890018e+004,-5.98738365613493e+000,-3.79334885970043e-001

6.86852349150199e+004,-5.98738220050531e+000,-3.84630233833611e-001

6.96440450636895e+004,-5.98738070395281e+000,-3.89999503281200e-001

7.06162397032520e+004,-5.98737916532723e+000,-3.95443726272450e-001

7.16020056742374e+004,-5.98737758344547e+000,-4.00963949178390e-001

7.26015324253724e+004,-5.98737595709156e+000,-4.06561232976992e-001

7.36150120499896e+004,-5.98737428501526e+000,-4.12236653459836e-001

7.46426393229441e+004,-5.98737256593124e+000,-4.17991301437986e-001

7.56846117380472e+004,-5.98737079851800e+000,-4.23826282953436e-001

7.67411295460207e+004,-5.98736898141657e+000,-4.29742719491745e-001

7.78123957929823e+004,-5.98736711323045e+000,-4.35741748193524e-001

7.88986163594682e+004,-5.98736519252329e+000,-4.41824522079327e-001

7.99999999999995e+004,-5.98736321781863e+000,-4.47992210267536e-001

8.11167583832018e+004,-5.98736118759845e+000,-4.54245998199679e-001

8.22491061324848e+004,-5.98735910030200e+000,-4.60587087870265e-001

8.33972608672892e+004,-5.98735695432476e+000,-4.67016698055056e-001

8.45614432449099e+004,-5.98735474801695e+000,-4.73536064548604e-001

8.57418770029029e+004,-5.98735247968264e+000,-4.80146440398922e-001

8.69387890020841e+004,-5.98735014757805e+000,-4.86849096151207e-001

8.81524092701283e+004,-5.98734774991042e+000,-4.93645320090887e-001

8.93829710457770e+004,-5.98734528483665e+000,-5.00536418491250e-001

9.06307108236633e+004,-5.98734275046168e+000,-5.07523715865883e-001

9.18958683997622e+004,-5.98734014483733e+000,-5.14608555222246e-001

9.31786869174758e+004,-5.98733746596054e+000,-5.21792298321087e-001

9.44794129143618e+004,-5.98733471177216e+000,-5.29076325936777e-001

9.57982963695136e+004,-5.98733188015472e+000,-5.36462038126229e-001

9.71355907516031e+004,-5.98732896893178e+000,-5.43950854493472e-001

9.84915530675926e+004,-5.98732597586533e+000,-5.51544214467263e-001

9.98664439121282e+004,-5.98732289865449e+000,-5.59243577576632e-001

1.01260527517622e+005,-5.98731973493387e+000,-5.67050423729849e-001

1.02674071805032e+005,-5.98731648227140e+000,-5.74966253502537e-001

1.04107348435354e+005,-5.98731313816674e+000,-5.82992588423191e-001

1.05560632861831e+005,-5.98730970004931e+000,-5.91130971268014e-001

1.07034204382888e+005,-5.98730616527616e+000,-5.99382966357491e-001

1.08528346195813e+005,-5.98730253113016e+000,-6.07750159856736e-001

1.10043345451179e+005,-5.98729879481765e+000,-6.16234160082027e-001

1.11579493308032e+005,-5.98729495346642e+000,-6.24836597809985e-001

1.13137084989847e+005,-5.98729100412391e+000,-6.33559126588614e-001

1.14716419841265e+005,-5.98728694375410e+000,-6.42403423061278e-001

1.16317801385624e+005,-5.98728276923588e+000,-6.51371187284291e-001

1.17941537383287e+005,-5.98727847736021e+000,-6.60464143057476e-001

1.19587939890794e+005,-5.98727406482808e+000,-6.69684038253757e-001

1.21257325320831e+005,-5.98726952824761e+000,-6.79032645157103e-001

1.22950014503040e+005,-5.98726486413155e+000,-6.88511760803535e-001

1.24666332745679e+005,-5.98726006889484e+000,-6.98123207325938e-001

1.26406609898139e+005,-5.98725513885128e+000,-7.07868832307868e-001

1.28171180414339e+005,-5.98725007021139e+000,-7.17750509135787e-001

1.29960383416997e+005,-5.98724485907894e+000,-7.27770137362352e-001

1.31774562762811e+005,-5.98723950144843e+000,-7.37929643070285e-001

1.33614067108538e+005,-5.98723399320141e+000,-7.48230979246423e-001

1.35479249978003e+005,-5.98722833010411e+000,-7.58676126153582e-001

1.37370469830040e+005,-5.98722250780338e+000,-7.69267091716179e-001

1.39288090127379e+005,-5.98721652182384e+000,-7.80005911904839e-001

1.41232479406504e+005,-5.98721036756444e+000,-7.90894651127825e-001

1.43204011348474e+005,-5.98720404029462e+000,-8.01935402631807e-001

1.45203064850745e+005,-5.98719753515093e+000,-8.13130288901972e-001

1.47230024099979e+005,-5.98719084713327e+000,-8.24481462072656e-001

1.49285278645888e+005,-5.98718397110086e+000,-8.35991104342858e-001

1.51369223476094e+005,-5.98717690176866e+000,-8.47661428393771e-001

1.53482259092041e+005,-5.98716963370276e+000,-8.59494677819720e-001

1.55624791585964e+005,-5.98716216131683e+000,-8.71493127556001e-001

1.57797232718936e+005,-5.98715447886740e+000,-8.83659084320477e-001

1.59999999999999e+005,-5.98714658044947e+000,-8.95994887057967e-001

1.62233516766403e+005,-5.98713845999228e+000,-9.08502907389278e-001

1.64498212264969e+005,-5.98713011125429e+000,-9.21185550070903e-001

1.66794521734578e+005,-5.98712152781859e+000,-9.34045253457424e-001

1.69122886489819e+005,-5.98711270308787e+000,-9.47084489972262e-001

1.71483754005805e+005,-5.98710363027945e+000,-9.60305766584035e-001

1.73877578004168e+005,-5.98709430242011e+000,-9.73711625289824e-001

1.76304818540256e+005,-5.98708471234047e+000,-9.87304643607526e-001

1.78765942091554e+005,-5.98707485266975e+000,-1.00108743507094e+000

1.81261421647326e+005,-5.98706471583010e+000,-1.01506264973485e+000

1.83791736799524e+005,-5.98705429403052e+000,-1.02923297468737e+000

1.86357373834951e+005,-5.98704357926114e+000,-1.04360113456696e+000

1.88958825828723e+005,-5.98703256328703e+000,-1.05816989208918e+000

1.91596592739027e+005,-5.98702123764174e+000,-1.07294204858056e+000

1.94271181503206e+005,-5.98700959362104e+000,-1.08792044451763e+000

1.96983106135185e+005,-5.98699762227593e+000,-1.10310796007790e+000

1.99732887824256e+005,-5.98698531440595e+000,-1.11850751569435e+000

2.02521055035243e+005,-5.98697266055213e+000,-1.13412207262019e+000

2.05348143610063e+005,-5.98695965098979e+000,-1.14995463349965e+000

2.08214696870707e+005,-5.98694627572076e+000,-1.16600824295069e+000

2.11121265723661e+005,-5.98693252446604e+000,-1.18228598815103e+000

2.14068408765776e+005,-5.98691838665775e+000,-1.19879099943549e+000

2.17056692391625e+005,-5.98690385143102e+000,-1.21552645090178e+000

2.20086690902357e+005,-5.98688890761579e+000,-1.23249556102249e+000

2.23158986616063e+005,-5.98687354372806e+000,-1.24970159326900e+000

2.26274169979693e+005,-5.98685774796107e+000,-1.26714785674210e+000

2.29432839682530e+005,-5.98684150817648e+000,-1.28483770681146e+000

2.32635602771247e+005,-5.98682481189465e+000,-1.30277454576617e+000

2.35883074766574e+005,-5.98680764628550e+000,-1.32096182347096e+000

2.39175879781588e+005,-5.98678999815837e+000,-1.33940303803603e+000

2.42514650641661e+005,-5.98677185395201e+000,-1.35810173649238e+000

2.45900029006080e+005,-5.98675319972411e+000,-1.37706151548000e+000

2.49332665491357e+005,-5.98673402114060e+000,-1.39628602194403e+000

2.52813219796278e+005,-5.98671430346491e+000,-1.41577895383901e+000

2.56342360828676e+005,-5.98669403154610e+000,-1.43554406084966e+000

2.59920766833993e+005,-5.98667318980791e+000,-1.45558514511263e+000

2.63549125525621e+005,-5.98665176223630e+000,-1.47590606195702e+000

2.67228134217075e+005,-5.98662973236740e+000,-1.49651072064988e+000

2.70958499956006e+005,-5.98660708327476e+000,-1.51740308515545e+000

2.74740939660078e+005,-5.98658379755655e+000,-1.53858717490274e+000

2.78576180254757e+005,-5.98655985732192e+000,-1.56006706556680e+000

2.82464958813007e+005,-5.98653524417773e+000,-1.58184688985784e+000

2.86408022696948e+005,-5.98650993921389e+000,-1.60393083832560e+000

2.90406129701488e+005,-5.98648392298930e+000,-1.62632316017118e+000

2.94460048199957e+005,-5.98645717551681e+000,-1.64902816407318e+000

2.98570557291775e+005,-5.98642967624767e+000,-1.67205021902541e+000

3.02738446952187e+005,-5.98640140405622e+000,-1.69539375518417e+000

3.06964518184081e+005,-5.98637233722324e+000,-1.71906326473149e+000

3.11249583171928e+005,-5.98634245341970e+000,-1.74306330274712e+000

3.15594465437872e+005,-5.98631172968937e+000,-1.76739848809562e+000

3.19999999999997e+005,-5.98628014243122e+000,-1.79207350432489e+000

3.24467033532806e+005,-5.98624766738156e+000,-1.81709310057771e+000

3.28996424529938e+005,-5.98621427959531e+000,-1.84246209251631e+000

3.33589043469155e+005,-5.98617995342676e+000,-1.86818536326152e+000

3.38245772979638e+005,-5.98614466251026e+000,-1.89426786434263e+000

3.42967508011610e+005,-5.98610837973964e+000,-1.92071461666481e+000

3.47755156008335e+005,-5.98607107724767e+000,-1.94753071148656e+000

3.52609637080511e+005,-5.98603272638468e+000,-1.97472131141404e+000

3.57531884183106e+005,-5.98599329769661e+000,-2.00229165140825e+000

3.62522843294651e+005,-5.98595276090251e+000,-2.03024703980734e+000

3.67583473599047e+005,-5.98591108487121e+000,-2.05859285936443e+000

3.72714747669902e+005,-5.98586823759760e+000,-2.08733456829856e+000

3.77917651657445e+005,-5.98582418617820e+000,-2.11647770136214e+000

3.83193185478053e+005,-5.98577889678568e+000,-2.14602787092532e+000

3.88542363006410e+005,-5.98573233464344e+000,-2.17599076807184e+000

3.93966212270369e+005,-5.98568446399854e+000,-2.20637216371597e+000

3.99465775648511e+005,-5.98563524809461e+000,-2.23717790973194e+000

4.05042110070485e+005,-5.98558464914366e+000,-2.26841394010160e+000

4.10696287220124e+005,-5.98553262829718e+000,-2.30008627207799e+000

4.16429393741414e+005,-5.98547914561649e+000,-2.33220100736645e+000

4.22242531447321e+005,-5.98542416004203e+000,-2.36476433332339e+000

4.28136817531551e+005,-5.98536762936213e+000,-2.39778252417086e+000

4.34113384783250e+005,-5.98530951018077e+000,-2.43126194223123e+000

4.40173381804713e+005,-5.98524975788435e+000,-2.46520903917811e+000

4.46317973232124e+005,-5.98518832660729e+000,-2.49963035730776e+000

4.52548339959385e+005,-5.98512516919777e+000,-2.53453253082525e+000

4.58865679365059e+005,-5.98506023718075e+000,-2.56992228715585e+000

4.65271205542494e+005,-5.98499348072178e+000,-2.60580644826873e+000

4.71766149533147e+005,-5.98492484858837e+000,-2.64219193202569e+000

4.78351759563174e+005,-5.98485428811119e+000,-2.67908575354737e+000

4.85029301283321e+005,-5.98478174514376e+000,-2.71649502659997e+000

4.91800058012158e+005,-5.98470716402104e+000,-2.75442696500322e+000

4.98665330982714e+005,-5.98463048751722e+000,-2.79288888405787e+000

5.05626439592555e+005,-5.98455165680176e+000,-2.83188820199675e+000

5.12684721657352e+005,-5.98447061139471e+000,-2.87143244145516e+000

5.19841533667984e+005,-5.98438728912056e+000,-2.91152923096512e+000

5.27098251051240e+005,-5.98430162606081e+000,-2.95218630647006e+000

5.34456268434150e+005,-5.98421355650522e+000,-2.99341151286488e+000

5.41916999912011e+005,-5.98412301290185e+000,-3.03521280555614e+000

