Freq.,VOut,OutRef

1.00000000000000e+004,-1.93009145054105e+001,-2.89350228435069e-001

1.01395947979003e+004,-1.93009153309672e+001,-2.93389397095293e-001

1.02811382665607e+004,-1.93009161797333e+001,-2.97484950024574e-001

1.04246576084112e+004,-1.93009170523614e+001,-3.01637674298203e-001

1.05701804056138e+004,-1.93009179495221e+001,-3.05848367981184e-001

1.07177346253629e+004,-1.93009188719052e+001,-3.10117840276431e-001

1.08673486252606e+004,-1.93009198202199e+001,-3.14446911681752e-001

1.10190511587661e+004,-1.93009207951950e+001,-3.18836414149175e-001

1.11728713807222e+004,-1.93009217975803e+001,-3.23287191241356e-001

1.13288388529580e+004,-1.93009228281461e+001,-3.27800098299044e-001

1.14869835499703e+004,-1.93009238876849e+001,-3.32376002597643e-001

1.16473358646846e+004,-1.93009249770110e+001,-3.37015783523245e-001

1.18099266142953e+004,-1.93009260969619e+001,-3.41720332732449e-001

1.19747870461893e+004,-1.93009272483986e+001,-3.46490554329937e-001

1.21419488439505e+004,-1.93009284322063e+001,-3.51327365039543e-001

1.23114441334492e+004,-1.93009296492949e+001,-3.56231694381020e-001

1.24833054890161e+004,-1.93009309006003e+001,-3.61204484847757e-001

1.26575659397028e+004,-1.93009321870842e+001,-3.66246692089576e-001

1.28342589756290e+004,-1.93009335097356e+001,-3.71359285095481e-001

1.30134185544193e+004,-1.93009348695714e+001,-3.76543246378354e-001

1.31950791077289e+004,-1.93009362676369e+001,-3.81799572165505e-001

1.33792755478611e+004,-1.93009377050069e+001,-3.87129272590273e-001

1.35660432744767e+004,-1.93009391827863e+001,-3.92533371883815e-001

1.37554181813974e+004,-1.93009407021113e+001,-3.98012908574603e-001

1.39474366635040e+004,-1.93009422641496e+001,-4.03568935686687e-001

1.41421356237309e+004,-1.93009438701022e+001,-4.09202520940921e-001

1.43395524801583e+004,-1.93009455212035e+001,-4.14914746962106e-001

1.45397251732031e+004,-1.93009472187230e+001,-4.20706711484575e-001

1.47426921729110e+004,-1.93009489639656e+001,-4.26579527566105e-001

1.49484924863494e+004,-1.93009507582726e+001,-4.32534323799533e-001

1.51571656651040e+004,-1.93009526030238e+001,-4.38572244528857e-001

1.53687518128801e+004,-1.93009544996371e+001,-4.44694450071304e-001

1.55832915932100e+004,-1.93009564495706e+001,-4.50902116938334e-001

1.58008262372675e+004,-1.93009584543232e+001,-4.57196438063406e-001

1.60213975517924e+004,-1.93009605154360e+001,-4.63578623029509e-001

1.62450479271247e+004,-1.93009626344934e+001,-4.70049898301369e-001

1.64718203453514e+004,-1.93009648131246e+001,-4.76611507461818e-001

1.67017583885674e+004,-1.93009670530042e+001,-4.83264711451336e-001

1.69349062472505e+004,-1.93009693558540e+001,-4.90010788809121e-001

1.71713087287550e+004,-1.93009717234445e+001,-4.96851035917359e-001

1.74110112659224e+004,-1.93009741575955e+001,-5.03786767253820e-001

1.76540599258131e+004,-1.93009766601783e+001,-5.10819315639966e-001

1.79005014185594e+004,-1.93009792331166e+001,-5.17950032501071e-001

1.81503831063432e+004,-1.93009818783884e+001,-5.25180288122037e-001

1.84037530124975e+004,-1.93009845980272e+001,-5.32511471912919e-001

1.86606598307361e+004,-1.93009873941235e+001,-5.39944992675456e-001

1.89211529345119e+004,-1.93009902688267e+001,-5.47482278872467e-001

1.91852823865052e+004,-1.93009932243467e+001,-5.55124778902716e-001

1.94530989482457e+004,-1.93009962629554e+001,-5.62873961379847e-001

1.97246540898671e+004,-1.93009993869887e+001,-5.70731315412585e-001

1.99999999999999e+004,-1.93010025988481e+001,-5.78698350892323e-001

2.02791895958005e+004,-1.93010059010023e+001,-5.86776598782959e-001

2.05622765331213e+004,-1.93010092959900e+001,-5.94967611412064e-001

2.08493152168224e+004,-1.93010127864209e+001,-6.03272962773091e-001

2.11403608112276e+004,-1.93010163749780e+001,-6.11694248824523e-001

2.14354692507258e+004,-1.93010200644198e+001,-6.20233087797954e-001

2.17346972505211e+004,-1.93010238575825e+001,-6.28891120507585e-001

2.20381023175322e+004,-1.93010277573818e+001,-6.37670010664933e-001

2.23457427614443e+004,-1.93010317668155e+001,-6.46571445199236e-001

2.26576777059159e+004,-1.93010358889655e+001,-6.55597134581972e-001

2.29739670999406e+004,-1.93010401270006e+001,-6.64748813152219e-001

2.32946717293690e+004,-1.93010444841785e+001,-6.74028239452589e-001

2.36198532285905e+004,-1.93010489638485e+001,-6.83437196564951e-001

2.39495740923785e+004,-1.93010535694539e+001,-6.92977492453330e-001

2.42838976879009e+004,-1.93010583045351e+001,-7.02650960310526e-001

2.46228882668982e+004,-1.93010631727318e+001,-7.12459458910572e-001

2.49666109780322e+004,-1.93010681777861e+001,-7.22404872963969e-001

2.53151318794055e+004,-1.93010733235451e+001,-7.32489113481411e-001

2.56685179512580e+004,-1.93010786139642e+001,-7.42714118138963e-001

2.60268371088386e+004,-1.93010840531102e+001,-7.53081851648920e-001

2.63901582154578e+004,-1.93010896451637e+001,-7.63594306140665e-001

2.67585510957221e+004,-1.93010953944233e+001,-7.74253501537161e-001

2.71320865489533e+004,-1.93011013053080e+001,-7.85061485948224e-001

2.75108363627948e+004,-1.93011073823613e+001,-7.96020336058925e-001

2.78948733270080e+004,-1.93011136302544e+001,-8.07132157530177e-001

2.82842712474618e+004,-1.93011200537896e+001,-8.18399085402865e-001

2.86791049603164e+004,-1.93011266579044e+001,-8.29823284505642e-001

2.90794503464061e+004,-1.93011334476748e+001,-8.41406949871628e-001

2.94853843458219e+004,-1.93011404283199e+001,-8.53152307158440e-001

2.98969849726987e+004,-1.93011476052051e+001,-8.65061613075902e-001

3.03143313302078e+004,-1.93011549838468e+001,-8.77137155817930e-001

3.07375036257601e+004,-1.93011625699164e+001,-8.89381255501384e-001

3.11665831864199e+004,-1.93011703692446e+001,-9.01796264611785e-001

3.16016524745350e+004,-1.93011783878261e+001,-9.14384568453327e-001

3.20427951035848e+004,-1.93011866318242e+001,-9.27148585605998e-001

3.24900958542493e+004,-1.93011951075750e+001,-9.40090768390661e-001

3.29436406907028e+004,-1.93012038215933e+001,-9.53213603336986e-001

3.34035167771346e+004,-1.93012127805764e+001,-9.66519611662081e-001

3.38698124945009e+004,-1.93012219914102e+001,-9.80011349752157e-001

3.43426174575100e+004,-1.93012314611739e+001,-9.93691409653145e-001

3.48220225318448e+004,-1.93012411971460e+001,-1.00756241956724e+000

3.53081198516260e+004,-1.93012512068090e+001,-1.02162704435649e+000

3.58010028371187e+004,-1.93012614978563e+001,-1.03588798605307e+000

3.63007662126863e+004,-1.93012720781971e+001,-1.05034798437717e+000

3.68075060249948e+004,-1.93012829559630e+001,-1.06500981726194e+000

3.73213196614721e+004,-1.93012941395141e+001,-1.07987630138534e+000

3.78423058690237e+004,-1.93013056374455e+001,-1.09495029270878e+000

3.83705647730104e+004,-1.93013174585938e+001,-1.11023468702557e+000

3.89061978964912e+004,-1.93013296120439e+001,-1.12573242051466e+000

3.94493081797342e+004,-1.93013421071360e+001,-1.14144647030180e+000

3.99999999999998e+004,-1.93013549534728e+001,-1.15737985503189e+000

4.05583791916010e+004,-1.93013681609270e+001,-1.17353563544335e+000

4.11245530662425e+004,-1.93013817396484e+001,-1.18991691495781e+000

4.16986304336447e+004,-1.93013957000722e+001,-1.20652684027041e+000

4.22807216224550e+004,-1.93014100529269e+001,-1.22336860195455e+000

4.28709385014515e+004,-1.93014248092423e+001,-1.24044543507095e+000

4.34693945010421e+004,-1.93014399803583e+001,-1.25776061978635e+000

4.40762046350642e+004,-1.93014555779332e+001,-1.27531748200230e+000

4.46914855228886e+004,-1.93014716139532e+001,-1.29311939398978e+000

4.53153554118317e+004,-1.93014881007409e+001,-1.31116977503484e+000

4.59479341998812e+004,-1.93015050509655e+001,-1.32947209209162e+000

4.65893434587380e+004,-1.93015224776520e+001,-1.34802986044611e+000

4.72397064571810e+004,-1.93015403941912e+001,-1.36684664438746e+000

4.78991481847569e+004,-1.93015588143505e+001,-1.38592605788867e+000

4.85677953758016e+004,-1.93015777522838e+001,-1.40527176529847e+000

4.92457765337964e+004,-1.93015972225426e+001,-1.42488748203984e+000

4.99332219560642e+004,-1.93016172400876e+001,-1.44477697532090e+000

5.06302637588109e+004,-1.93016378202993e+001,-1.46494406485389e+000

5.13370359025159e+004,-1.93016589789907e+001,-1.48539262358410e+000

5.20536742176771e+004,-1.93016807324189e+001,-1.50612657843017e+000

5.27803164309155e+004,-1.93017030972976e+001,-1.52714991103305e+000

5.35171021914442e+004,-1.93017260908101e+001,-1.54846665851575e+000

5.42641730979066e+004,-1.93017497306223e+001,-1.57008091425449e+000

5.50216727255895e+004,-1.93017740348966e+001,-1.59199682865809e+000

5.57897466540159e+004,-1.93017990223052e+001,-1.61421860996102e+000

5.65685424949235e+004,-1.93018247120450e+001,-1.63675052502505e+000

5.73582099206328e+004,-1.93018511238522e+001,-1.65959690015261e+000

5.81589006928121e+004,-1.93018782780171e+001,-1.68276212191190e+000

5.89707686916437e+004,-1.93019061954000e+001,-1.70625063797201e+000

5.97939699453972e+004,-1.93019348974471e+001,-1.73006695795159e+000

6.06286626604156e+004,-1.93019644062069e+001,-1.75421565427530e+000

6.14750072515201e+004,-1.93019947443471e+001,-1.77870136304751e+000

6.23331663728396e+004,-1.93020259351720e+001,-1.80352878493242e+000

6.32033049490698e+004,-1.93020580026404e+001,-1.82870268604925e+000

6.40855902071694e+004,-1.93020909713838e+001,-1.85422789888040e+000

6.49801917084985e+004,-1.93021248667254e+001,-1.88010932318843e+000

6.58872813814055e+004,-1.93021597146996e+001,-1.90635192694900e+000

6.68070335542691e+004,-1.93021955420716e+001,-1.93296074729479e+000

6.77396249890018e+004,-1.93022323763583e+001,-1.95994089147373e+000

6.86852349150199e+004,-1.93022702458493e+001,-1.98729753781727e+000

6.96440450636895e+004,-1.93023091796279e+001,-2.01503593672623e+000

7.06162397032520e+004,-1.93023492075945e+001,-2.04316141166470e+000

7.16020056742374e+004,-1.93023903604888e+001,-2.07167936017293e+000

7.26015324253724e+004,-1.93024326699132e+001,-2.10059525489012e+000

7.36150120499896e+004,-1.93024761683575e+001,-2.12991464459206e+000

7.46426393229441e+004,-1.93025208892233e+001,-2.15964315524306e+000

7.56846117380472e+004,-1.93025668668499e+001,-2.18978649106296e+000

7.67411295460207e+004,-1.93026141365403e+001,-2.22035043560641e+000

7.78123957929823e+004,-1.93026627345884e+001,-2.25134085285877e+000

7.88986163594682e+004,-1.93027126983068e+001,-2.28276368834544e+000

7.99999999999995e+004,-1.93027640660550e+001,-2.31462497025704e+000

8.11167583832018e+004,-1.93028168772692e+001,-2.34693081058888e+000

8.22491061324848e+004,-1.93028711724919e+001,-2.37968740629696e+000

8.33972608672892e+004,-1.93029269934037e+001,-2.41290104046776e+000

8.45614432449099e+004,-1.93029843828543e+001,-2.44657808350494e+000

8.57418770029029e+004,-1.93030433848956e+001,-2.48072499433234e+000

8.69387890020841e+004,-1.93031040448156e+001,-2.51534832161150e+000

8.81524092701283e+004,-1.93031664091725e+001,-2.55045470497673e+000

8.93829710457770e+004,-1.93032305258307e+001,-2.58605087628656e+000

9.06307108236633e+004,-1.93032964439972e+001,-2.62214366089083e+000

9.18958683997622e+004,-1.93033642142591e+001,-2.65873997891571e+000

9.31786869174758e+004,-1.93034338886222e+001,-2.69584684656608e+000

9.44794129143618e+004,-1.93035055205509e+001,-2.73347137744322e+000

9.57982963695136e+004,-1.93035791650086e+001,-2.77162078388284e+000

9.71355907516031e+004,-1.93036548785003e+001,-2.81030237830843e+000

9.84915530675926e+004,-1.93037327191149e+001,-2.84952357460280e+000

9.98664439121282e+004,-1.93038127465702e+001,-2.88929188949968e+000

1.01260527517622e+005,-1.93038950222577e+001,-2.92961494399072e+000

1.02674071805032e+005,-1.93039796092903e+001,-2.97050046475372e+000

1.04107348435354e+005,-1.93040665725494e+001,-3.01195628559737e+000

1.05560632861831e+005,-1.93041559787353e+001,-3.05399034892630e+000

1.07034204382888e+005,-1.93042478964171e+001,-3.09661070722459e+000

1.08528346195813e+005,-1.93043423960857e+001,-3.13982552455930e+000

1.10043345451179e+005,-1.93044395502069e+001,-3.18364307810286e+000

1.11579493308032e+005,-1.93045394332768e+001,-3.22807175967564e+000

1.13137084989847e+005,-1.93046421218784e+001,-3.27312007730779e+000

1.14716419841265e+005,-1.93047476947398e+001,-3.31879665682314e+000

1.16317801385624e+005,-1.93048562327944e+001,-3.36511024344127e+000

1.17941537383287e+005,-1.93049678192419e+001,-3.41206970340137e+000

1.19587939890794e+005,-1.93050825396118e+001,-3.45968402560695e+000

1.21257325320831e+005,-1.93052004818286e+001,-3.50796232329186e+000

1.22950014503040e+005,-1.93053217362778e+001,-3.55691383570636e+000

1.24666332745679e+005,-1.93054463958757e+001,-3.60654792982586e+000

1.26406609898139e+005,-1.93055745561386e+001,-3.65687410208201e+000

1.28171180414339e+005,-1.93057063152563e+001,-3.70790198011262e+000

1.29960383416997e+005,-1.93058417741660e+001,-3.75964132453814e+000

1.31774562762811e+005,-1.93059810366290e+001,-3.81210203075661e+000

1.33614067108538e+005,-1.93061242093090e+001,-3.86529413076321e+000

1.35479249978003e+005,-1.93062714018536e+001,-3.91922779499236e+000

1.37370469830040e+005,-1.93064227269766e+001,-3.97391333418163e+000

1.39288090127379e+005,-1.93065783005434e+001,-4.02936120126142e+000

1.41232479406504e+005,-1.93067382416592e+001,-4.08558199326445e+000

1.43204011348474e+005,-1.93069026727584e+001,-4.14258645326169e+000

1.45203064850745e+005,-1.93070717196971e+001,-4.20038547232140e+000

1.47230024099979e+005,-1.93072455118489e+001,-4.25899009149067e+000

1.49285278645888e+005,-1.93074241822017e+001,-4.31841150380374e+000

1.51369223476094e+005,-1.93076078674587e+001,-4.37866105631193e+000

1.53482259092041e+005,-1.93077967081409e+001,-4.43975025214058e+000

1.55624791585964e+005,-1.93079908486936e+001,-4.50169075256910e+000

1.57797232718936e+005,-1.93081904375949e+001,-4.56449437913588e+000

1.59999999999999e+005,-1.93083956274673e+001,-4.62817311576994e+000

1.62233516766403e+005,-1.93086065751932e+001,-4.69273911094589e+000

1.64498212264969e+005,-1.93088234420318e+001,-4.75820467986592e+000

1.66794521734578e+005,-1.93090463937415e+001,-4.82458230666571e+000

1.69122886489819e+005,-1.93092756007035e+001,-4.89188464664803e+000

1.71483754005805e+005,-1.93095112380501e+001,-4.96012452854034e+000

1.73877578004168e+005,-1.93097534857958e+001,-5.02931495678028e+000

1.76304818540256e+005,-1.93100025289725e+001,-5.09946911382525e+000

1.78765942091554e+005,-1.93102585577677e+001,-5.17060036249021e+000

1.81261421647326e+005,-1.93105217676672e+001,-5.24272224831082e+000

1.83791736799524e+005,-1.93107923596012e+001,-5.31584850193362e+000

1.86357373834951e+005,-1.93110705400941e+001,-5.38999304153214e+000

1.88958825828723e+005,-1.93113565214193e+001,-5.46516997525059e+000

1.91596592739027e+005,-1.93116505217569e+001,-5.54139360367397e+000

1.94271181503206e+005,-1.93119527653570e+001,-5.61867842232475e+000

1.96983106135185e+005,-1.93122634827061e+001,-5.69703912418738e+000

1.99732887824256e+005,-1.93125829106987e+001,-5.77649060225868e+000

2.02521055035243e+005,-1.93129112928139e+001,-5.85704795212588e+000

2.05348143610063e+005,-1.93132488792956e+001,-5.93872647457209e+000

2.08214696870707e+005,-1.93135959273384e+001,-6.02154167820792e+000

2.11121265723661e+005,-1.93139527012783e+001,-6.10550928213071e+000

2.14068408765776e+005,-1.93143194727882e+001,-6.19064521861076e+000

2.17056692391625e+005,-1.93146965210791e+001,-6.27696563580436e+000

2.20086690902357e+005,-1.93150841331061e+001,-6.36448690049449e+000

2.23158986616063e+005,-1.93154826037803e+001,-6.45322560085696e+000

2.26274169979693e+005,-1.93158922361860e+001,-6.54319854925451e+000

2.29432839682530e+005,-1.93163133418042e+001,-6.63442278505762e+000

2.32635602771247e+005,-1.93167462407413e+001,-6.72691557749078e+000

2.35883074766574e+005,-1.93171912619641e+001,-6.82069442850671e+000

2.39175879781588e+005,-1.93176487435412e+001,-6.91577707568501e+000

2.42514650641661e+005,-1.93181190328907e+001,-7.01218149515824e+000

2.45900029006080e+005,-1.93186024870343e+001,-7.10992590456354e+000

2.49332665491357e+005,-1.93190994728575e+001,-7.20902876601862e+000

2.52813219796278e+005,-1.93196103673780e+001,-7.30950878912500e+000

2.56342360828676e+005,-1.93201355580195e+001,-7.41138493399413e+000

2.59920766833993e+005,-1.93206754428939e+001,-7.51467641429938e+000

2.63549125525621e+005,-1.93212304310897e+001,-7.61940270035237e+000

2.67228134217075e+005,-1.93218009429690e+001,-7.72558352220185e+000

2.70958499956006e+005,-1.93223874104713e+001,-7.83323887275765e+000

2.74740939660078e+005,-1.93229902774254e+001,-7.94238901093578e+000

2.78576180254757e+005,-1.93236099998697e+001,-8.05305446482800e+000

2.82464958813007e+005,-1.93242470463798e+001,-8.16525603489089e+000

2.86408022696948e+005,-1.93249018984052e+001,-8.27901479715827e+000

2.90406129701488e+005,-1.93255750506149e+001,-8.39435210647267e+000

2.94460048199957e+005,-1.93262670112502e+001,-8.51128959973823e+000

2.98570557291775e+005,-1.93269783024886e+001,-8.62984919919108e+000

3.02738446952187e+005,-1.93277094608149e+001,-8.75005311568981e+000

3.06964518184081e+005,-1.93284610374028e+001,-8.87192385202254e+000

3.11249583171928e+005,-1.93292335985060e+001,-8.99548420623095e+000

3.15594465437872e+005,-1.93300277258582e+001,-9.12075727495055e+000

3.19999999999997e+005,-1.93308440170843e+001,-9.24776645676538e+000

3.24467033532806e+005,-1.93316830861205e+001,-9.37653545557610e+000

3.28996424529938e+005,-1.93325455636461e+001,-9.50708828398215e+000

3.33589043469155e+005,-1.93334320975245e+001,-9.63944926667333e+000

3.38245772979638e+005,-1.93343433532560e+001,-9.77364304383410e+000

3.42967508011610e+005,-1.93352800144416e+001,-9.90969457455452e+000

3.47755156008335e+005,-1.93362427832573e+001,-1.00476291402505e+001

3.52609637080511e+005,-1.93372323809405e+001,-1.01874723480894e+001

3.57531884183106e+005,-1.93382495482882e+001,-1.03292501344203e+001

3.62522843294651e+005,-1.93392950461660e+001,-1.04729887682077e+001

3.67583473599047e+005,-1.93403696560309e+001,-1.06187148544659e+001

3.72714747669902e+005,-1.93414741804651e+001,-1.07664553376937e+001

3.77917651657445e+005,-1.93426094437227e+001,-1.09162375053065e+001

3.83193185478053e+005,-1.93437762922894e+001,-1.10680889910637e+001

3.88542363006410e+005,-1.93449755954551e+001,-1.12220377784909e+001

3.93966212270369e+005,-1.93462082458998e+001,-1.13781122042926e+001

3.99465775648511e+005,-1.93474751602923e+001,-1.15363409617551e+001

4.05042110070485e+005,-1.93487772799036e+001,-1.16967531041358e+001

4.10696287220124e+005,-1.93501155712332e+001,-1.18593780480379e+001

4.16429393741414e+005,-1.93514910266500e+001,-1.20242455767661e+001

4.22242531447321e+005,-1.93529046650473e+001,-1.21913858436622e+001

4.28136817531551e+005,-1.93543575325121e+001,-1.23608293754178e+001

4.34113384783250e+005,-1.93558507030096e+001,-1.25326070753595e+001

4.40173381804713e+005,-1.93573852790817e+001,-1.27067502267060e+001

4.46317973232124e+005,-1.93589623925612e+001,-1.28832904957914e+001

4.52548339959385e+005,-1.93605832053010e+001,-1.30622599352544e+001

4.58865679365059e+005,-1.93622489099188e+001,-1.32436909871866e+001

4.65271205542494e+005,-1.93639607305569e+001,-1.34276164862387e+001

4.71766149533147e+005,-1.93657199236585e+001,-1.36140696626812e+001

4.78351759563174e+005,-1.93675277787586e+001,-1.38030841454132e+001

4.85029301283321e+005,-1.93693856192925e+001,-1.39946939649180e+001

4.91800058012158e+005,-1.93712948034186e+001,-1.41889335561600e+001

4.98665330982714e+005,-1.93732567248591e+001,-1.43858377614188e+001

5.05626439592555e+005,-1.93752728137554e+001,-1.45854418330568e+001

5.12684721657352e+005,-1.93773445375413e+001,-1.47877814362139e+001

5.19841533667984e+005,-1.93794734018314e+001,-1.49928926514270e+001

5.27098251051240e+005,-1.93816609513266e+001,-1.52008119771668e+001

5.34456268434150e+005,-1.93839087707364e+001,-1.54115763322892e+001

5.41916999912011e+005,-1.93862184857165e+001,-1.56252230583939e+001

