Freq.,VOut,OutRef

1.00000000000000e+004,-5.75054251082973e-001,-8.57987198492269e-002

1.01395947979003e+004,-5.75054239226296e-001,-8.69964254040452e-002

1.02811382665607e+004,-5.75054227036353e-001,-8.82108503072772e-002

1.04246576084112e+004,-5.75054214503634e-001,-8.94422279535796e-002

1.05701804056138e+004,-5.75054201618651e-001,-9.06907949935327e-002

1.07177346253629e+004,-5.75054188371391e-001,-9.19567913826280e-002

1.08673486252606e+004,-5.75054174751657e-001,-9.32404604261578e-002

1.10190511587661e+004,-5.75054160749048e-001,-9.45420488244769e-002

1.11728713807222e+004,-5.75054146352765e-001,-9.58618067232206e-002

1.13288388529580e+004,-5.75054131551827e-001,-9.71999877583914e-002

1.14869835499703e+004,-5.75054116334714e-001,-9.85568491087099e-002

1.16473358646846e+004,-5.75054100689704e-001,-9.99326515414899e-002

1.18099266142953e+004,-5.75054084604974e-001,-1.01327659463853e-001

1.19747870461893e+004,-5.75054068068079e-001,-1.02742140974669e-001

1.21419488439505e+004,-5.75054051066151e-001,-1.04176367916390e-001

1.23114441334492e+004,-5.75054033586231e-001,-1.05630615924478e-001

1.24833054890161e+004,-5.75054015614949e-001,-1.07105164482196e-001

1.26575659397028e+004,-5.75053997138427e-001,-1.08600296975506e-001

1.28342589756290e+004,-5.75053978142441e-001,-1.10116300745617e-001

1.30134185544193e+004,-5.75053958612457e-001,-1.11653467144420e-001

1.31950791077289e+004,-5.75053938533252e-001,-1.13212091592768e-001

1.33792755478611e+004,-5.75053917889681e-001,-1.14792473632300e-001

1.35660432744767e+004,-5.75053896665744e-001,-1.16394916988565e-001

1.37554181813974e+004,-5.75053874845092e-001,-1.18019729626789e-001

1.39474366635040e+004,-5.75053852411008e-001,-1.19667223810282e-001

1.41421356237309e+004,-5.75053829346144e-001,-1.21337716162434e-001

1.43395524801583e+004,-5.75053805632916e-001,-1.23031527724932e-001

1.45397251732031e+004,-5.75053781253026e-001,-1.24748984022826e-001

1.47426921729110e+004,-5.75053756187581e-001,-1.26490415125528e-001

1.49484924863494e+004,-5.75053730417578e-001,-1.28256155707322e-001

1.51571656651040e+004,-5.75053703923096e-001,-1.30046545117227e-001

1.53687518128801e+004,-5.75053676683732e-001,-1.31861927440044e-001

1.55832915932100e+004,-5.75053648678512e-001,-1.33702651564952e-001

1.58008262372675e+004,-5.75053619886036e-001,-1.35569071249783e-001

1.60213975517924e+004,-5.75053590284040e-001,-1.37461545192216e-001

1.62450479271247e+004,-5.75053559849853e-001,-1.39380437095905e-001

1.64718203453514e+004,-5.75053528559992e-001,-1.41326115743016e-001

1.67017583885674e+004,-5.75053496390520e-001,-1.43298955062235e-001

1.69349062472505e+004,-5.75053463316618e-001,-1.45299334203421e-001

1.71713087287550e+004,-5.75053429312935e-001,-1.47327637607934e-001

1.74110112659224e+004,-5.75053394353223e-001,-1.49384255085498e-001

1.76540599258131e+004,-5.75053358410629e-001,-1.51469581885750e-001

1.79005014185594e+004,-5.75053321457666e-001,-1.53584018776209e-001

1.81503831063432e+004,-5.75053283465716e-001,-1.55727972119805e-001

1.84037530124975e+004,-5.75053244405722e-001,-1.57901853950730e-001

1.86606598307361e+004,-5.75053204247550e-001,-1.60106082056504e-001

1.89211529345119e+004,-5.75053162960424e-001,-1.62341080055314e-001

1.91852823865052e+004,-5.75053120512581e-001,-1.64607277479535e-001

1.94530989482457e+004,-5.75053076871297e-001,-1.66905109858450e-001

1.97246540898671e+004,-5.75053032003198e-001,-1.69235018798818e-001

1.99999999999999e+004,-5.75052985873623e-001,-1.71597452074765e-001

2.02791895958005e+004,-5.75052938447163e-001,-1.73992863709555e-001

2.05622765331213e+004,-5.75052889687351e-001,-1.76421714064807e-001

2.08493152168224e+004,-5.75052839556835e-001,-1.78884469927463e-001

2.11403608112276e+004,-5.75052788016880e-001,-1.81381604603206e-001

2.14354692507258e+004,-5.75052735027926e-001,-1.83913598002589e-001

2.17346972505211e+004,-5.75052680549274e-001,-1.86480936736225e-001

2.20381023175322e+004,-5.75052624539081e-001,-1.89084114207281e-001

2.23457427614443e+004,-5.75052566954148e-001,-1.91723630707787e-001

2.26576777059159e+004,-5.75052507750313e-001,-1.94399993512073e-001

2.29739670999406e+004,-5.75052446882082e-001,-1.97113716976351e-001

2.32946717293690e+004,-5.75052384302589e-001,-1.99865322637855e-001

2.36198532285905e+004,-5.75052319963704e-001,-2.02655339313476e-001

2.39495740923785e+004,-5.75052253816102e-001,-2.05484303201727e-001

2.42838976879009e+004,-5.75052185808791e-001,-2.08352757987313e-001

2.46228882668982e+004,-5.75052115889616e-001,-2.11261254943441e-001

2.49666109780322e+004,-5.75052044004723e-001,-2.14210353039872e-001

2.53151318794055e+004,-5.75051970098806e-001,-2.17200619049317e-001

2.56685179512580e+004,-5.75051894115165e-001,-2.20232627655295e-001

2.60268371088386e+004,-5.75051815995416e-001,-2.23306961564352e-001

2.63901582154578e+004,-5.75051735679329e-001,-2.26424211618193e-001

2.67585510957221e+004,-5.75051653105321e-001,-2.29584976904922e-001

2.71320865489533e+004,-5.75051568209847e-001,-2.32789864876813e-001

2.75108363627948e+004,-5.75051480927716e-001,-2.36039491464959e-001

2.78948733270080e+004,-5.75051391191660e-001,-2.39334481200316e-001

2.82842712474618e+004,-5.75051298932888e-001,-2.42675467329638e-001

2.86791049603164e+004,-5.75051204080331e-001,-2.46063091941927e-001

2.90794503464061e+004,-5.75051106561077e-001,-2.49498006088144e-001

2.94853843458219e+004,-5.75051006300288e-001,-2.52980869907604e-001

2.98969849726987e+004,-5.75050903220811e-001,-2.56512352755417e-001

3.03143313302078e+004,-5.75050797243316e-001,-2.60093133331121e-001

3.07375036257601e+004,-5.75050688286497e-001,-2.63723899807235e-001

3.11665831864199e+004,-5.75050576266500e-001,-2.67405349964266e-001

3.16016524745350e+004,-5.75050461097151e-001,-2.71138191323140e-001

3.20427951035848e+004,-5.75050342690035e-001,-2.74923141280819e-001

3.24900958542493e+004,-5.75050220954000e-001,-2.78760927250083e-001

3.29436406907028e+004,-5.75050095795637e-001,-2.82652286796712e-001

3.34035167771346e+004,-5.75049967118557e-001,-2.86597967784206e-001

3.38698124945009e+004,-5.75049834823922e-001,-2.90598728514972e-001

3.43426174575100e+004,-5.75049698810031e-001,-2.94655337877273e-001

3.48220225318448e+004,-5.75049558972262e-001,-2.98768575493210e-001

3.53081198516260e+004,-5.75049415203203e-001,-3.02939231867477e-001

3.58010028371187e+004,-5.75049267392320e-001,-3.07168108540266e-001

3.63007662126863e+004,-5.75049115425863e-001,-3.11456018241941e-001

3.68075060249948e+004,-5.75048959187214e-001,-3.15803785046532e-001

3.73213196614721e+004,-5.75048798556053e-001,-3.20212244533658e-001

3.78423058690237e+004,-5.75048633409009e-001,-3.24682243946552e-001

3.83705647730104e+004,-5.75048463619156e-001,-3.29214642355427e-001

3.89061978964912e+004,-5.75048289055888e-001,-3.33810310823724e-001

3.94493081797342e+004,-5.75048109585028e-001,-3.38470132574151e-001

3.99999999999998e+004,-5.75047925068608e-001,-3.43195003159407e-001

4.05583791916010e+004,-5.75047735364804e-001,-3.47985830633336e-001

4.11245530662425e+004,-5.75047540327827e-001,-3.52843535726130e-001

4.16986304336447e+004,-5.75047339807654e-001,-3.57769052021738e-001

4.22807216224550e+004,-5.75047133650167e-001,-3.62763326136284e-001

4.28709385014515e+004,-5.75046921696939e-001,-3.67827317900124e-001

4.34693945010421e+004,-5.75046703784962e-001,-3.72962000543732e-001

4.40762046350642e+004,-5.75046479746776e-001,-3.78168360882337e-001

4.46914855228886e+004,-5.75046249410071e-001,-3.83447399508264e-001

4.53153554118317e+004,-5.75046012597828e-001,-3.88800130981041e-001

4.59479341998812e+004,-5.75045769128039e-001,-3.94227584023348e-001

4.65893434587380e+004,-5.75045518813485e-001,-3.99730801719102e-001

4.72397064571810e+004,-5.75045261461806e-001,-4.05310841713284e-001

4.78991481847569e+004,-5.75044996875106e-001,-4.10968776415304e-001

4.85677953758016e+004,-5.75044724849983e-001,-4.16705693206028e-001

4.92457765337964e+004,-5.75044445177352e-001,-4.22522694645113e-001

4.99332219560642e+004,-5.75044157642237e-001,-4.28420898684187e-001

5.06302637588109e+004,-5.75043862023640e-001,-4.34401438881204e-001

5.13370359025159e+004,-5.75043558094172e-001,-4.40465464619591e-001

5.20536742176771e+004,-5.75043245620330e-001,-4.46614141326418e-001

5.27803164309155e+004,-5.75042924361807e-001,-4.52848650699666e-001

5.35171021914442e+004,-5.75042594071709e-001,-4.59170190932666e-001

5.42641730979066e+004,-5.75042254496168e-001,-4.65579976945518e-001

5.50216727255895e+004,-5.75041905374031e-001,-4.72079240619836e-001

5.57897466540159e+004,-5.75041546437060e-001,-4.78669231032716e-001

5.65685424949235e+004,-5.75041177409258e-001,-4.85351214699655e-001

5.73582099206328e+004,-5.75040798006939e-001,-4.92126475816172e-001

5.81589006928121e+004,-5.75040407938461e-001,-4.98996316505359e-001

5.89707686916437e+004,-5.75040006903993e-001,-5.05962057067925e-001

5.97939699453972e+004,-5.75039594595285e-001,-5.13025036236084e-001

6.06286626604156e+004,-5.75039170695307e-001,-5.20186611431565e-001

6.14750072515201e+004,-5.75038734878299e-001,-5.27448159024843e-001

6.23331663728396e+004,-5.75038286809182e-001,-5.34811074601645e-001

6.32033049490698e+004,-5.75037826143563e-001,-5.42276773229614e-001

6.40855902071694e+004,-5.75037352527352e-001,-5.49846689731293e-001

6.49801917084985e+004,-5.75036865596434e-001,-5.57522278959758e-001

6.58872813814055e+004,-5.75036364976453e-001,-5.65305016078648e-001

6.68070335542691e+004,-5.75035850282736e-001,-5.73196396843708e-001

6.77396249890018e+004,-5.75035321119580e-001,-5.81197937893110e-001

6.86852349150199e+004,-5.75034777080124e-001,-5.89311177037979e-001

6.96440450636895e+004,-5.75034217746345e-001,-5.97537673556654e-001

7.06162397032520e+004,-5.75033642688175e-001,-6.05879008496241e-001

7.16020056742374e+004,-5.75033051463647e-001,-6.14336784975774e-001

7.26015324253724e+004,-5.75032443618201e-001,-6.22912628494670e-001

7.36150120499896e+004,-5.75031818684747e-001,-6.31608187244161e-001

7.46426393229441e+004,-5.75031176182826e-001,-6.40425132425911e-001

7.56846117380472e+004,-5.75030515618559e-001,-6.49365158571817e-001

7.67411295460207e+004,-5.75029836484267e-001,-6.58429983870238e-001

7.78123957929823e+004,-5.75029138257867e-001,-6.67621350496878e-001

7.88986163594682e+004,-5.75028420402698e-001,-6.76941024948510e-001

7.99999999999995e+004,-5.75027682366953e-001,-6.86390798383695e-001

8.11167583832018e+004,-5.75026923583308e-001,-6.95972486966665e-001

8.22491061324848e+004,-5.75026143468603e-001,-7.05687932215919e-001

8.33972608672892e+004,-5.75025341423171e-001,-7.15539001359449e-001

8.45614432449099e+004,-5.75024516830548e-001,-7.25527587692872e-001

8.57418770029029e+004,-5.75023669056875e-001,-7.35655610943778e-001

8.69387890020841e+004,-5.75022797450564e-001,-7.45925017640175e-001

8.81524092701283e+004,-5.75021901341664e-001,-7.56337781485828e-001

8.93829710457770e+004,-5.75020980041408e-001,-7.66895903738438e-001

9.06307108236633e+004,-5.75020032841675e-001,-7.77601413595727e-001

9.18958683997622e+004,-5.75019059014416e-001,-7.88456368584558e-001

9.31786869174758e+004,-5.75018057811171e-001,-7.99462854956813e-001

9.44794129143618e+004,-5.75017028462367e-001,-8.10622988090824e-001

9.57982963695136e+004,-5.75015970176858e-001,-8.21938912897766e-001

9.71355907516031e+004,-5.75014882141248e-001,-8.33412804234050e-001

9.84915530675926e+004,-5.75013763519333e-001,-8.45046867319419e-001

9.98664439121282e+004,-5.75012613451277e-001,-8.56843338161929e-001

1.01260527517622e+005,-5.75011431053227e-001,-8.68804483986072e-001

1.02674071805032e+005,-5.75010215416375e-001,-8.80932603670492e-001

1.04107348435354e+005,-5.75008965606473e-001,-8.93230028188731e-001

1.05560632861831e+005,-5.75007680662885e-001,-9.05699121058637e-001

1.07034204382888e+005,-5.75006359598113e-001,-9.18342278795740e-001

1.08528346195813e+005,-5.75005001396829e-001,-9.31161931374412e-001

1.10043345451179e+005,-5.75003605015255e-001,-9.44160542695591e-001

1.11579493308032e+005,-5.75002169380088e-001,-9.57340611060803e-001

1.13137084989847e+005,-5.75000693388108e-001,-9.70704669650840e-001

1.14716419841265e+005,-5.74999175904950e-001,-9.84255287014941e-001

1.16317801385624e+005,-5.74997615764394e-001,-9.97995067563944e-001

1.17941537383287e+005,-5.74996011767442e-001,-1.01192665207109e+000

1.19587939890794e+005,-5.74994362681433e-001,-1.02605271817970e+000

1.21257325320831e+005,-5.74992667239042e-001,-1.04037598091874e+000

1.22950014503040e+005,-5.74990924137360e-001,-1.05489919322449e+000

1.24666332745679e+005,-5.74989132036811e-001,-1.06962514647020e+000

1.26406609898139e+005,-5.74987289560217e-001,-1.08455667100304e+000

1.28171180414339e+005,-5.74985395291750e-001,-1.09969663668797e+000

1.29960383416997e+005,-5.74983447775717e-001,-1.11504795346080e+000

1.31774562762811e+005,-5.74981445515578e-001,-1.13061357188654e+000

1.33614067108538e+005,-5.74979386972680e-001,-1.14639648372834e+000

1.35479249978003e+005,-5.74977270565196e-001,-1.16239972252172e+000

1.37370469830040e+005,-5.74975094666888e-001,-1.17862636415891e+000

1.39288090127379e+005,-5.74972857605706e-001,-1.19507952748038e+000

1.41232479406504e+005,-5.74970557662742e-001,-1.21176237487445e+000

1.43204011348474e+005,-5.74968193070761e-001,-1.22867811288618e+000

1.45203064850745e+005,-5.74965762012858e-001,-1.24582999283375e+000

1.47230024099979e+005,-5.74963262621058e-001,-1.26322131143467e+000

1.49285278645888e+005,-5.74960692974999e-001,-1.28085541143898e+000

1.51369223476094e+005,-5.74958051100283e-001,-1.29873568227363e+000

1.53482259092041e+005,-5.74955334967084e-001,-1.31686556069335e+000

1.55624791585964e+005,-5.74952542488580e-001,-1.33524853144293e+000

1.57797232718936e+005,-5.74949671519241e-001,-1.35388812792740e+000

1.59999999999999e+005,-5.74946719853383e-001,-1.37278793289157e+000

1.62233516766403e+005,-5.74943685223299e-001,-1.39195157911012e+000

1.64498212264969e+005,-5.74940565297589e-001,-1.41138275008609e+000

1.66794521734578e+005,-5.74937357679372e-001,-1.43108518076012e+000

1.69122886489819e+005,-5.74934059904432e-001,-1.45106265822910e+000

1.71483754005805e+005,-5.74930669439420e-001,-1.47131902247492e+000

1.73877578004168e+005,-5.74927183679697e-001,-1.49185816710383e+000

1.76304818540256e+005,-5.74923599947534e-001,-1.51268404009575e+000

1.78765942091554e+005,-5.74919915490115e-001,-1.53380064456353e+000

1.81261421647326e+005,-5.74916127477111e-001,-1.55521203952486e+000

1.83791736799524e+005,-5.74912232998875e-001,-1.57692234068247e+000

1.86357373834951e+005,-5.74908229063968e-001,-1.59893572121664e+000

1.88958825828723e+005,-5.74904112596997e-001,-1.62125641258909e+000

1.91596592739027e+005,-5.74899880436117e-001,-1.64388870535738e+000

1.94271181503206e+005,-5.74895529330811e-001,-1.66683695000067e+000

1.96983106135185e+005,-5.74891055939280e-001,-1.69010555775773e+000

1.99732887824256e+005,-5.74886456825823e-001,-1.71369900147655e+000

2.02521055035243e+005,-5.74881728458315e-001,-1.73762181647519e+000

2.05348143610063e+005,-5.74876867205544e-001,-1.76187860141517e+000

2.08214696870707e+005,-5.74871869334225e-001,-1.78647401918771e+000

2.11121265723661e+005,-5.74866731006300e-001,-1.81141279781137e+000

2.14068408765776e+005,-5.74861448276153e-001,-1.83669973134209e+000

2.17056692391625e+005,-5.74856017087054e-001,-1.86233968079841e+000

2.20086690902357e+005,-5.74850433268790e-001,-1.88833757509573e+000

2.23158986616063e+005,-5.74844692533858e-001,-1.91469841199749e+000

2.26274169979693e+005,-5.74838790474444e-001,-1.94142725907737e+000

2.29432839682530e+005,-5.74832722559128e-001,-1.96852925469521e+000

2.32635602771247e+005,-5.74826484129216e-001,-1.99600960898843e+000

2.35883074766574e+005,-5.74820070395329e-001,-2.02387360487464e+000

2.39175879781588e+005,-5.74813476433702e-001,-2.05212659907056e+000

2.42514650641661e+005,-5.74806697182398e-001,-2.08077402312401e+000

2.45900029006080e+005,-5.74799727437420e-001,-2.10982138446145e+000

2.49332665491357e+005,-5.74792561848839e-001,-2.13927426744864e+000

2.52813219796278e+005,-5.74785194916535e-001,-2.16913833446804e+000

2.56342360828676e+005,-5.74777620986221e-001,-2.19941932700985e+000

2.59920766833993e+005,-5.74769834244831e-001,-2.23012306677982e+000

2.63549125525621e+005,-5.74761828716399e-001,-2.26125545682092e+000

2.67228134217075e+005,-5.74753598257297e-001,-2.29282248265227e+000

2.70958499956006e+005,-5.74745136551488e-001,-2.32483021342380e+000

2.74740939660078e+005,-5.74736437106010e-001,-2.35728480308577e+000

2.78576180254757e+005,-5.74727493245640e-001,-2.39019249157768e+000

2.82464958813007e+005,-5.74718298108078e-001,-2.42355960603023e+000

2.86408022696948e+005,-5.74708844638594e-001,-2.45739256198743e+000

2.90406129701488e+005,-5.74699125584657e-001,-2.49169786464413e+000

2.94460048199957e+005,-5.74689133490441e-001,-2.52648211010140e+000

2.98570557291775e+005,-5.74678860691120e-001,-2.56175198663966e+000

3.02738446952187e+005,-5.74668299306977e-001,-2.59751427601005e+000

3.06964518184081e+005,-5.74657441237557e-001,-2.63377585474302e+000

3.11249583171928e+005,-5.74646278155294e-001,-2.67054369547709e+000

3.15594465437872e+005,-5.74634801499344e-001,-2.70782486830436e+000

3.19999999999997e+005,-5.74623002468882e-001,-2.74562654213662e+000

3.24467033532806e+005,-5.74610872016655e-001,-2.78395598608968e+000

3.28996424529938e+005,-5.74598400841901e-001,-2.82282057088791e+000

3.33589043469155e+005,-5.74585579383274e-001,-2.86222777028851e+000

3.38245772979638e+005,-5.74572397811729e-001,-2.90218516252540e+000

3.42967508011610e+005,-5.74558846022894e-001,-2.94270043177428e+000

3.47755156008335e+005,-5.74544913629468e-001,-2.98378136963765e+000

3.52609637080511e+005,-5.74530589953345e-001,-3.02543587665161e+000

3.57531884183106e+005,-5.74515864017418e-001,-3.06767196381338e+000

3.62522843294651e+005,-5.74500724537366e-001,-3.11049775413048e+000

3.67583473599047e+005,-5.74485159912980e-001,-3.15392148419227e+000

3.72714747669902e+005,-5.74469158219444e-001,-3.19795150576345e+000

3.77917651657445e+005,-5.74452707198290e-001,-3.24259628740005e+000

3.83193185478053e+005,-5.74435794247979e-001,-3.28786441608874e+000

3.88542363006410e+005,-5.74418406414577e-001,-3.33376459890867e+000

3.93966212270369e+005,-5.74400530381738e-001,-3.38030566471778e+000

3.99465775648511e+005,-5.74382152460773e-001,-3.42749656586234e+000

4.05042110070485e+005,-5.74363258580125e-001,-3.47534637991130e+000

4.10696287220124e+005,-5.74343834274948e-001,-3.52386431141470e+000

4.16429393741414e+005,-5.74323864675982e-001,-3.57305969368761e+000

4.22242531447321e+005,-5.74303334498373e-001,-3.62294199061929e+000

4.28136817531551e+005,-5.74282228030198e-001,-3.67352079850774e+000

4.34113384783250e+005,-5.74260529120513e-001,-3.72480584792108e+000

4.40173381804713e+005,-5.74238221167188e-001,-3.77680700558480e+000

4.46317973232124e+005,-5.74215287104483e-001,-3.82953427629602e+000

4.52548339959385e+005,-5.74191709389998e-001,-3.88299780486564e+000

4.58865679365059e+005,-5.74167469991652e-001,-3.93720787808724e+000

4.65271205542494e+005,-5.74142550373982e-001,-3.99217492673492e+000

4.71766149533147e+005,-5.74116931484251e-001,-4.04790952758937e+000

4.78351759563174e+005,-5.74090593738102e-001,-4.10442240549261e+000

4.85029301283321e+005,-5.74063517004905e-001,-4.16172443543267e+000

4.91800058012158e+005,-5.74035680592510e-001,-4.21982664465790e+000

4.98665330982714e+005,-5.74007063231900e-001,-4.27874021482128e+000

5.05626439592555e+005,-5.73977643060991e-001,-4.33847648415598e+000

5.12684721657352e+005,-5.73947397608532e-001,-4.39904694968174e+000

5.19841533667984e+005,-5.73916303777081e-001,-4.46046326944288e+000

5.27098251051240e+005,-5.73884337825812e-001,-4.52273726477895e+000

5.34456268434150e+005,-5.73851475352696e-001,-4.58588092262767e+000

5.41916999912011e+005,-5.73817691276384e-001,-4.64990639786057e+000

