Freq.,VOut,OutRef

1.00000000000000e+004,-1.36930023619838e+001,-8.94855031898276e-002

1.01395947979003e+004,-1.36930023740049e+001,-9.07346742584091e-002

1.02811382665607e+004,-1.36930023863637e+001,-9.20012831060517e-002

1.04246576084112e+004,-1.36930023990702e+001,-9.32855731525584e-002

1.05701804056138e+004,-1.36930024121338e+001,-9.45877912206984e-002

1.07177346253629e+004,-1.36930024255648e+001,-9.59081875748278e-002

1.08673486252606e+004,-1.36930024393734e+001,-9.72470159749936e-002

1.10190511587661e+004,-1.36930024535703e+001,-9.86045337223585e-002

1.11728713807222e+004,-1.36930024681661e+001,-9.99810017123531e-002

1.13288388529580e+004,-1.36930024831722e+001,-1.01376684479066e-001

1.14869835499703e+004,-1.36930024986005e+001,-1.02791850249419e-001

1.16473358646846e+004,-1.36930025144622e+001,-1.04226770998975e-001

1.18099266142953e+004,-1.36930025307700e+001,-1.05681722494779e-001

1.19747870461893e+004,-1.36930025475363e+001,-1.07156984356351e-001

1.21419488439505e+004,-1.36930025647739e+001,-1.08652840105941e-001

1.23114441334492e+004,-1.36930025824962e+001,-1.10169577222810e-001

1.24833054890161e+004,-1.36930026007167e+001,-1.11707487200054e-001

1.26575659397028e+004,-1.36930026194493e+001,-1.13266865601805e-001

1.28342589756290e+004,-1.36930026387088e+001,-1.14848012113008e-001

1.30134185544193e+004,-1.36930026585097e+001,-1.16451230606869e-001

1.31950791077289e+004,-1.36930026788671e+001,-1.18076829196804e-001

1.33792755478611e+004,-1.36930026997970e+001,-1.19725120296509e-001

1.35660432744767e+004,-1.36930027213152e+001,-1.21396420682639e-001

1.37554181813974e+004,-1.36930027434384e+001,-1.23091051552360e-001

1.39474366635040e+004,-1.36930027661836e+001,-1.24809338586850e-001

1.41421356237309e+004,-1.36930027895682e+001,-1.26551612013527e-001

1.43395524801583e+004,-1.36930028136103e+001,-1.28318206670159e-001

1.45397251732031e+004,-1.36930028383283e+001,-1.30109462069135e-001

1.47426921729110e+004,-1.36930028637413e+001,-1.31925722460694e-001

1.49484924863494e+004,-1.36930028898686e+001,-1.33767336902057e-001

1.51571656651040e+004,-1.36930029167306e+001,-1.35634659322012e-001

1.53687518128801e+004,-1.36930029443477e+001,-1.37528048590630e-001

1.55832915932100e+004,-1.36930029727411e+001,-1.39447868589071e-001

1.58008262372675e+004,-1.36930030019329e+001,-1.41394488274878e-001

1.60213975517924e+004,-1.36930030319455e+001,-1.43368281756876e-001

1.62450479271247e+004,-1.36930030628016e+001,-1.45369628370146e-001

1.64718203453514e+004,-1.36930030945253e+001,-1.47398912739081e-001

1.67017583885674e+004,-1.36930031271410e+001,-1.49456524860591e-001

1.69349062472505e+004,-1.36930031606735e+001,-1.51542860177465e-001

1.71713087287550e+004,-1.36930031951488e+001,-1.53658319648537e-001

1.74110112659224e+004,-1.36930032305933e+001,-1.55803309831922e-001

1.76540599258131e+004,-1.36930032670343e+001,-1.57978242961646e-001

1.79005014185594e+004,-1.36930033044999e+001,-1.60183537025365e-001

1.81503831063432e+004,-1.36930033430186e+001,-1.62419615846398e-001

1.84037530124975e+004,-1.36930033826202e+001,-1.64686909163716e-001

1.86606598307361e+004,-1.36930034233353e+001,-1.66985852713878e-001

1.89211529345119e+004,-1.36930034651950e+001,-1.69316888319560e-001

1.91852823865052e+004,-1.36930035082316e+001,-1.71680463968315e-001

1.94530989482457e+004,-1.36930035524781e+001,-1.74077033901421e-001

1.97246540898671e+004,-1.36930035979685e+001,-1.76507058703906e-001

1.99999999999999e+004,-1.36930036447378e+001,-1.78971005386683e-001

2.02791895958005e+004,-1.36930036928221e+001,-1.81469347480770e-001

2.05622765331213e+004,-1.36930037422580e+001,-1.84002565130750e-001

2.08493152168224e+004,-1.36930037930838e+001,-1.86571145179114e-001

2.11403608112276e+004,-1.36930038453387e+001,-1.89175581266222e-001

2.14354692507258e+004,-1.36930038990626e+001,-1.91816373925255e-001

2.17346972505211e+004,-1.36930039542968e+001,-1.94494030674012e-001

2.20381023175322e+004,-1.36930040110839e+001,-1.97209066115872e-001

2.23457427614443e+004,-1.36930040694675e+001,-1.99962002038428e-001

2.26576777059159e+004,-1.36930041294925e+001,-2.02753367511767e-001

2.29739670999406e+004,-1.36930041912051e+001,-2.05583698992650e-001

2.32946717293690e+004,-1.36930042546526e+001,-2.08453540426748e-001

2.36198532285905e+004,-1.36930043198839e+001,-2.11363443351551e-001

2.39495740923785e+004,-1.36930043869490e+001,-2.14313967005090e-001

2.42838976879009e+004,-1.36930044558996e+001,-2.17305678432023e-001

2.46228882668982e+004,-1.36930045267887e+001,-2.20339152590655e-001

2.49666109780322e+004,-1.36930045996709e+001,-2.23414972467044e-001

2.53151318794055e+004,-1.36930046746019e+001,-2.26533729186542e-001

2.56685179512580e+004,-1.36930047516395e+001,-2.29696022124841e-001

2.60268371088386e+004,-1.36930048308431e+001,-2.32902459022934e-001

2.63901582154578e+004,-1.36930049122733e+001,-2.36153656109545e-001

2.67585510957221e+004,-1.36930049959928e+001,-2.39450238213256e-001

2.71320865489533e+004,-1.36930050820660e+001,-2.42792838883668e-001

2.75108363627948e+004,-1.36930051705592e+001,-2.46182100516606e-001

2.78948733270080e+004,-1.36930052615401e+001,-2.49618674475274e-001

2.82842712474618e+004,-1.36930053550789e+001,-2.53103221214474e-001

2.86791049603164e+004,-1.36930054512475e+001,-2.56636410408578e-001

2.90794503464061e+004,-1.36930055501197e+001,-2.60218921081520e-001

2.94853843458219e+004,-1.36930056517716e+001,-2.63851441735513e-001

2.98969849726987e+004,-1.36930057562813e+001,-2.67534670482717e-001

3.03143313302078e+004,-1.36930058637292e+001,-2.71269315182644e-001

3.07375036257601e+004,-1.36930059741980e+001,-2.75056093573217e-001

3.11665831864199e+004,-1.36930060877724e+001,-2.78895733415849e-001

3.16016524745350e+004,-1.36930062045398e+001,-2.82788972626739e-001

3.20427951035848e+004,-1.36930063245900e+001,-2.86736559426033e-001

3.24900958542493e+004,-1.36930064480154e+001,-2.90739252476844e-001

3.29436406907028e+004,-1.36930065749106e+001,-2.94797821034238e-001

3.34035167771346e+004,-1.36930067053734e+001,-2.98913045090513e-001

3.38698124945009e+004,-1.36930068395040e+001,-3.03085715526247e-001

3.43426174575100e+004,-1.36930069774056e+001,-3.07316634263461e-001

3.48220225318448e+004,-1.36930071191841e+001,-3.11606614417227e-001

3.53081198516260e+004,-1.36930072649486e+001,-3.15956480454009e-001

3.58010028371187e+004,-1.36930074148111e+001,-3.20367068349862e-001

3.63007662126863e+004,-1.36930075688869e+001,-3.24839225748870e-001

3.68075060249948e+004,-1.36930077272943e+001,-3.29373812129861e-001

3.73213196614721e+004,-1.36930078901552e+001,-3.33971698967952e-001

3.78423058690237e+004,-1.36930080575947e+001,-3.38633769904779e-001

3.83705647730104e+004,-1.36930082297417e+001,-3.43360920915990e-001

3.89061978964912e+004,-1.36930084067284e+001,-3.48154060485476e-001

3.94493081797342e+004,-1.36930085886909e+001,-3.53014109777859e-001

3.99999999999998e+004,-1.36930087757691e+001,-3.57942002819103e-001

4.05583791916010e+004,-1.36930089681067e+001,-3.62938686671429e-001

4.11245530662425e+004,-1.36930091658518e+001,-3.68005121617953e-001

4.16986304336447e+004,-1.36930093691564e+001,-3.73142281346928e-001

4.22807216224550e+004,-1.36930095781766e+001,-3.78351153139461e-001

4.28709385014515e+004,-1.36930097930731e+001,-3.83632738058708e-001

4.34693945010421e+004,-1.36930100140114e+001,-3.88988051140056e-001

4.40762046350642e+004,-1.36930102411610e+001,-3.94418121590423e-001

4.46914855228886e+004,-1.36930104746968e+001,-3.99923992982835e-001

4.53153554118317e+004,-1.36930107147981e+001,-4.05506723459430e-001

4.59479341998812e+004,-1.36930109616498e+001,-4.11167385930117e-001

4.65893434587380e+004,-1.36930112154415e+001,-4.16907068286259e-001

4.72397064571810e+004,-1.36930114763682e+001,-4.22726873602695e-001

4.78991481847569e+004,-1.36930117446307e+001,-4.28627920353333e-001

4.85677953758016e+004,-1.36930120204350e+001,-4.34611342626259e-001

4.92457765337964e+004,-1.36930123039934e+001,-4.40678290338720e-001

4.99332219560642e+004,-1.36930125955238e+001,-4.46829929462473e-001

5.06302637588109e+004,-1.36930128952503e+001,-4.53067442244523e-001

5.13370359025159e+004,-1.36930132034034e+001,-4.59392027434901e-001

5.20536742176771e+004,-1.36930135202199e+001,-4.65804900518343e-001

5.27803164309155e+004,-1.36930138459434e+001,-4.72307293946911e-001

5.35171021914442e+004,-1.36930141808243e+001,-4.78900457377084e-001

5.42641730979066e+004,-1.36930145251202e+001,-4.85585657908756e-001

5.50216727255895e+004,-1.36930148790956e+001,-4.92364180332291e-001

5.57897466540159e+004,-1.36930152430228e+001,-4.99237327369775e-001

5.65685424949235e+004,-1.36930156171814e+001,-5.06206419931454e-001

5.73582099206328e+004,-1.36930160018593e+001,-5.13272797364907e-001

5.81589006928121e+004,-1.36930163973520e+001,-5.20437817715161e-001

5.89707686916437e+004,-1.36930168039637e+001,-5.27702857984055e-001

5.97939699453972e+004,-1.36930172220069e+001,-5.35069314396755e-001

6.06286626604156e+004,-1.36930176518032e+001,-5.42538602667261e-001

6.14750072515201e+004,-1.36930180936828e+001,-5.50112158273363e-001

6.23331663728396e+004,-1.36930185479856e+001,-5.57791436731527e-001

6.32033049490698e+004,-1.36930190150606e+001,-5.65577913875883e-001

6.40855902071694e+004,-1.36930194952673e+001,-5.73473086141273e-001

6.49801917084985e+004,-1.36930199889745e+001,-5.81478470854206e-001

6.58872813814055e+004,-1.36930204965620e+001,-5.89595606519912e-001

6.68070335542691e+004,-1.36930210184200e+001,-5.97826053122053e-001

6.77396249890018e+004,-1.36930215549497e+001,-6.06171392419891e-001

6.86852349150199e+004,-1.36930221065634e+001,-6.14633228253614e-001

6.96440450636895e+004,-1.36930226736855e+001,-6.23213186850841e-001

7.06162397032520e+004,-1.36930232567519e+001,-6.31912917141487e-001

7.16020056742374e+004,-1.36930238562108e+001,-6.40734091073560e-001

7.26015324253724e+004,-1.36930244725232e+001,-6.49678403934421e-001

7.36150120499896e+004,-1.36930251061628e+001,-6.58747574675996e-001

7.46426393229441e+004,-1.36930257576168e+001,-6.67943346246698e-001

7.56846117380472e+004,-1.36930264273861e+001,-6.77267485924290e-001

7.67411295460207e+004,-1.36930271159856e+001,-6.86721785658302e-001

7.78123957929823e+004,-1.36930278239447e+001,-6.96308062411328e-001

7.88986163594682e+004,-1.36930285518077e+001,-7.06028158510259e-001

7.99999999999995e+004,-1.36930293001342e+001,-7.15883941999730e-001

8.11167583832018e+004,-1.36930300694997e+001,-7.25877307000513e-001

8.22491061324848e+004,-1.36930308604954e+001,-7.36010174075730e-001

8.33972608672892e+004,-1.36930316737297e+001,-7.46284490597115e-001

8.45614432449099e+004,-1.36930325098277e+001,-7.56702231120261e-001

8.57418770029029e+004,-1.36930333694324e+001,-7.67265397765425e-001

8.69387890020841e+004,-1.36930342532044e+001,-7.77976020600745e-001

8.81524092701283e+004,-1.36930351618235e+001,-7.88836158032620e-001

8.93829710457770e+004,-1.36930360959881e+001,-7.99847897201439e-001

9.06307108236633e+004,-1.36930370564164e+001,-8.11013354382749e-001

9.18958683997622e+004,-1.36930380438470e+001,-8.22334675395036e-001

9.31786869174758e+004,-1.36930390590389e+001,-8.33814036009786e-001

9.44794129143618e+004,-1.36930401027727e+001,-8.45453642371078e-001

9.57982963695136e+004,-1.36930411758510e+001,-8.57255731419433e-001

9.71355907516031e+004,-1.36930422790987e+001,-8.69222571322408e-001

9.84915530675926e+004,-1.36930434133640e+001,-8.81356461908723e-001

9.98664439121282e+004,-1.36930445795192e+001,-8.93659735111012e-001

1.01260527517622e+005,-1.36930457784606e+001,-9.06134755415411e-001

1.02674071805032e+005,-1.36930470111103e+001,-9.18783920313675e-001

1.04107348435354e+005,-1.36930482784159e+001,-9.31609660765204e-001

1.05560632861831e+005,-1.36930495813519e+001,-9.44614441663851e-001

1.07034204382888e+005,-1.36930509209199e+001,-9.57800762312560e-001

1.08528346195813e+005,-1.36930522981501e+001,-9.71171156900915e-001

1.10043345451179e+005,-1.36930537141013e+001,-9.84728194996665e-001

1.11579493308032e+005,-1.36930551698622e+001,-9.98474482034883e-001

1.13137084989847e+005,-1.36930566665521e+001,-1.01241265982156e+000

1.14716419841265e+005,-1.36930582053219e+001,-1.02654540704039e+000

1.16317801385624e+005,-1.36930597873546e+001,-1.04087543976748e+000

1.17941537383287e+005,-1.36930614138666e+001,-1.05540551199371e+000

1.19587939890794e+005,-1.36930630861087e+001,-1.07013841615336e+000

1.21257325320831e+005,-1.36930648053665e+001,-1.08507698366145e+000

1.22950014503040e+005,-1.36930665729621e+001,-1.10022408545719e+000

1.24666332745679e+005,-1.36930683902546e+001,-1.11558263255577e+000

1.26406609898139e+005,-1.36930702586412e+001,-1.13115557660926e+000

1.28171180414339e+005,-1.36930721795586e+001,-1.14694591047140e+000

1.29960383416997e+005,-1.36930741544838e+001,-1.16295666877385e+000

1.31774562762811e+005,-1.36930761849355e+001,-1.17919092851027e+000

1.33614067108538e+005,-1.36930782724749e+001,-1.19565180962669e+000

1.35479249978003e+005,-1.36930804187072e+001,-1.21234247562012e+000

1.37370469830040e+005,-1.36930826252825e+001,-1.22926613414921e+000

1.39288090127379e+005,-1.36930848938978e+001,-1.24642603764770e+000

1.41232479406504e+005,-1.36930872262975e+001,-1.26382548395134e+000

1.43204011348474e+005,-1.36930896242751e+001,-1.28146781693073e+000

1.45203064850745e+005,-1.36930920896743e+001,-1.29935642713500e+000

1.47230024099979e+005,-1.36930946243912e+001,-1.31749475244131e+000

1.49285278645888e+005,-1.36930972303748e+001,-1.33588627871793e+000

1.51369223476094e+005,-1.36930999096290e+001,-1.35453454049206e+000

1.53482259092041e+005,-1.36931026642142e+001,-1.37344312163102e+000

1.55624791585964e+005,-1.36931054962485e+001,-1.39261565602863e+000

1.57797232718936e+005,-1.36931084079097e+001,-1.41205582830590e+000

1.59999999999999e+005,-1.36931114014369e+001,-1.43176737451758e+000

1.62233516766403e+005,-1.36931144791321e+001,-1.45175408286979e+000

1.64498212264969e+005,-1.36931176433621e+001,-1.47201979444970e+000

1.66794521734578e+005,-1.36931208965603e+001,-1.49256840396213e+000

1.69122886489819e+005,-1.36931242412284e+001,-1.51340386047842e+000

1.71483754005805e+005,-1.36931276799385e+001,-1.53453016819563e+000

1.73877578004168e+005,-1.36931312153352e+001,-1.55595138720487e+000

1.76304818540256e+005,-1.36931348501372e+001,-1.57767163427389e+000

1.78765942091554e+005,-1.36931385871400e+001,-1.59969508363509e+000

1.81261421647326e+005,-1.36931424292176e+001,-1.62202596778974e+000

1.83791736799524e+005,-1.36931463793247e+001,-1.64466857832080e+000

1.86357373834951e+005,-1.36931504404992e+001,-1.66762726671751e+000

1.88958825828723e+005,-1.36931546158645e+001,-1.69090644521115e+000

1.91596592739027e+005,-1.36931589086320e+001,-1.71451058762374e+000

1.94271181503206e+005,-1.36931633221030e+001,-1.73844423022748e+000

1.96983106135185e+005,-1.36931678596721e+001,-1.76271197261494e+000

1.99732887824256e+005,-1.36931725248292e+001,-1.78731847858539e+000

2.02521055035243e+005,-1.36931773211624e+001,-1.81226847703967e+000

2.05348143610063e+005,-1.36931822523607e+001,-1.83756676288831e+000

2.08214696870707e+005,-1.36931873222171e+001,-1.86321819797359e+000

2.11121265723661e+005,-1.36931925346309e+001,-1.88922771200443e+000

2.14068408765776e+005,-1.36931978936113e+001,-1.91560030350211e+000

2.17056692391625e+005,-1.36932034032806e+001,-1.94234104076150e+000

2.20086690902357e+005,-1.36932090678765e+001,-1.96945506282550e+000

2.23158986616063e+005,-1.36932148917564e+001,-1.99694758047099e+000

2.26274169979693e+005,-1.36932208794001e+001,-2.02482387721229e+000

2.29432839682530e+005,-1.36932270354134e+001,-2.05308931031408e+000

2.32635602771247e+005,-1.36932333645318e+001,-2.08174931182180e+000

2.35883074766574e+005,-1.36932398716240e+001,-2.11080938960567e+000

2.39175879781588e+005,-1.36932465616956e+001,-2.14027512841885e+000

2.42514650641661e+005,-1.36932534398933e+001,-2.17015219096979e+000

2.45900029006080e+005,-1.36932605115084e+001,-2.20044631901083e+000

2.49332665491357e+005,-1.36932677819811e+001,-2.23116333444197e+000

2.52813219796278e+005,-1.36932752569048e+001,-2.26230914042815e+000

2.56342360828676e+005,-1.36932829420303e+001,-2.29388972253463e+000

2.59920766833993e+005,-1.36932908432702e+001,-2.32591114987618e+000

2.63549125525621e+005,-1.36932989667034e+001,-2.35837957628410e+000

2.67228134217075e+005,-1.36933073185801e+001,-2.39130124148742e+000

2.70958499956006e+005,-1.36933159053262e+001,-2.42468247231274e+000

2.74740939660078e+005,-1.36933247335486e+001,-2.45852968389914e+000

2.78576180254757e+005,-1.36933338100402e+001,-2.49284938093115e+000

2.82464958813007e+005,-1.36933431417848e+001,-2.52764815888811e+000

2.86408022696948e+005,-1.36933527359632e+001,-2.56293270531166e+000

2.90406129701488e+005,-1.36933625999580e+001,-2.59870980109010e+000

2.94460048199957e+005,-1.36933727413597e+001,-2.63498632176176e+000

2.98570557291775e+005,-1.36933831679727e+001,-2.67176923883503e+000

3.02738446952187e+005,-1.36933938878209e+001,-2.70906562112873e+000

3.06964518184081e+005,-1.36934049091541e+001,-2.74688263612951e+000

3.11249583171928e+005,-1.36934162404544e+001,-2.78522755136856e+000

3.15594465437872e+005,-1.36934278904427e+001,-2.82410773581899e+000

3.19999999999997e+005,-1.36934398680856e+001,-2.86353066130951e+000

3.24467033532806e+005,-1.36934521826019e+001,-2.90350390396188e+000

3.28996424529938e+005,-1.36934648434703e+001,-2.94403514564496e+000

3.33589043469155e+005,-1.36934778604362e+001,-2.98513217545084e+000

3.38245772979638e+005,-1.36934912435196e+001,-3.02680289119063e+000

3.42967508011610e+005,-1.36935050030224e+001,-3.06905530091317e+000

3.47755156008335e+005,-1.36935191495372e+001,-3.11189752444083e+000

3.52609637080511e+005,-1.36935336939544e+001,-3.15533779493155e+000

3.57531884183106e+005,-1.36935486474714e+001,-3.19938446045906e+000

3.62522843294651e+005,-1.36935640216010e+001,-3.24404598561693e+000

3.67583473599047e+005,-1.36935798281803e+001,-3.28933095314399e+000

3.72714747669902e+005,-1.36935960793798e+001,-3.33524806557367e+000

3.77917651657445e+005,-1.36936127877132e+001,-3.38180614690425e+000

3.83193185478053e+005,-1.36936299660463e+001,-3.42901414429543e+000

3.88542363006410e+005,-1.36936476276078e+001,-3.47688112978560e+000

3.93966212270369e+005,-1.36936657859989e+001,-3.52541630203446e+000

3.99465775648511e+005,-1.36936844552043e+001,-3.57462898808992e+000

4.05042110070485e+005,-1.36937036496028e+001,-3.62452864517939e+000

4.10696287220124e+005,-1.36937233839783e+001,-3.67512486252625e+000

4.16429393741414e+005,-1.36937436735314e+001,-3.72642736319107e+000

4.22242531447321e+005,-1.36937645338915e+001,-3.77844600593920e+000

4.28136817531551e+005,-1.36937859811282e+001,-3.83119078713421e+000

4.34113384783250e+005,-1.36938080317643e+001,-3.88467184265704e+000

4.40173381804713e+005,-1.36938307027885e+001,-3.93889944985326e+000

4.46317973232124e+005,-1.36938540116686e+001,-3.99388402950562e+000

4.52548339959385e+005,-1.36938779763648e+001,-4.04963614783618e+000

4.58865679365059e+005,-1.36939026153437e+001,-4.10616651853428e+000

4.65271205542494e+005,-1.36939279475931e+001,-4.16348600481461e+000

4.71766149533147e+005,-1.36939539926362e+001,-4.22160562150223e+000

4.78351759563174e+005,-1.36939807705468e+001,-4.28053653714786e+000

4.85029301283321e+005,-1.36940083019651e+001,-4.34029007617268e+000

4.91800058012158e+005,-1.36940366081139e+001,-4.40087772104171e+000

4.98665330982714e+005,-1.36940657108143e+001,-4.46231111446897e+000

5.05626439592555e+005,-1.36940956325038e+001,-4.52460206165221e+000

5.12684721657352e+005,-1.36941263962528e+001,-4.58776253253951e+000

5.19841533667984e+005,-1.36941580257829e+001,-4.65180466412743e+000

5.27098251051240e+005,-1.36941905454855e+001,-4.71674076278980e+000

5.34456268434150e+005,-1.36942239804405e+001,-4.78258330664157e+000

5.41916999912011e+005,-1.36942583564359e+001,-4.84934494793270e+000

