Freq.,VOut,OutRef

1.00000000000000e+004,-2.20551416239259e+001,-4.25025249460541e-001

1.01395947979003e+004,-2.20551437927477e+001,-4.30958341008052e-001

1.02811382665607e+004,-2.20551460225423e+001,-4.36974253735609e-001

1.04246576084112e+004,-2.20551483150238e+001,-4.43074143711736e-001

1.05701804056138e+004,-2.20551506719545e+001,-4.49259183140971e-001

1.07177346253629e+004,-2.20551530951463e+001,-4.55530560586295e-001

1.08673486252606e+004,-2.20551555864619e+001,-4.61889481201216e-001

1.10190511587661e+004,-2.20551581478165e+001,-4.68337166957306e-001

1.11728713807222e+004,-2.20551607811790e+001,-4.74874856881142e-001

1.13288388529580e+004,-2.20551634885739e+001,-4.81503807292592e-001

1.14869835499703e+004,-2.20551662720822e+001,-4.88225292044005e-001

1.16473358646846e+004,-2.20551691338439e+001,-4.95040602766704e-001

1.18099266142953e+004,-2.20551720760587e+001,-5.01951049117855e-001

1.19747870461893e+004,-2.20551751009885e+001,-5.08957959032410e-001

1.21419488439505e+004,-2.20551782109585e+001,-5.16062678977999e-001

1.23114441334492e+004,-2.20551814083593e+001,-5.23266574214177e-001

1.24833054890161e+004,-2.20551846956490e+001,-5.30571029051815e-001

1.26575659397028e+004,-2.20551880753545e+001,-5.37977447123369e-001

1.28342589756290e+004,-2.20551915500738e+001,-5.45487251647328e-001

1.30134185544193e+004,-2.20551951224779e+001,-5.53101885706110e-001

1.31950791077289e+004,-2.20551987953130e+001,-5.60822812519187e-001

1.33792755478611e+004,-2.20552025714026e+001,-5.68651515725911e-001

1.35660432744767e+004,-2.20552064536491e+001,-5.76589499671377e-001

1.37554181813974e+004,-2.20552104450369e+001,-5.84638289692073e-001

1.39474366635040e+004,-2.20552145486342e+001,-5.92799432411885e-001

1.41421356237309e+004,-2.20552187675954e+001,-6.01074496036159e-001

1.43395524801583e+004,-2.20552231051637e+001,-6.09465070654262e-001

1.45397251732031e+004,-2.20552275646732e+001,-6.17972768545267e-001

1.47426921729110e+004,-2.20552321495520e+001,-6.26599224485801e-001

1.49484924863494e+004,-2.20552368633245e+001,-6.35346096064562e-001

1.51571656651040e+004,-2.20552417096139e+001,-6.44215064000733e-001

1.53687518128801e+004,-2.20552466921457e+001,-6.53207832465304e-001

1.55832915932100e+004,-2.20552518147498e+001,-6.62326129409835e-001

1.58008262372675e+004,-2.20552570813637e+001,-6.71571706896558e-001

1.60213975517924e+004,-2.20552624960359e+001,-6.80946341434453e-001

1.62450479271247e+004,-2.20552680629285e+001,-6.90451834320913e-001

1.64718203453514e+004,-2.20552737863206e+001,-7.00090011987623e-001

1.67017583885674e+004,-2.20552796706115e+001,-7.09862726349681e-001

1.69349062472505e+004,-2.20552857203244e+001,-7.19771855161057e-001

1.71713087287550e+004,-2.20552919401094e+001,-7.29819302375725e-001

1.74110112659224e+004,-2.20552983347473e+001,-7.40006998512085e-001

1.76540599258131e+004,-2.20553049091536e+001,-7.50336901022978e-001

1.79005014185594e+004,-2.20553116683815e+001,-7.60810994672465e-001

1.81503831063432e+004,-2.20553186176267e+001,-7.71431291914111e-001

1.84037530124975e+004,-2.20553257622305e+001,-7.82199833279366e-001

1.86606598307361e+004,-2.20553331076846e+001,-7.93118687766502e-001

1.89211529345119e+004,-2.20553406596351e+001,-8.04189953239656e-001

1.91852823865052e+004,-2.20553484238866e+001,-8.15415756828858e-001

1.94530989482457e+004,-2.20553564064069e+001,-8.26798255339620e-001

1.97246540898671e+004,-2.20553646133317e+001,-8.38339635664533e-001

1.99999999999999e+004,-2.20553730509690e+001,-8.50042115203913e-001

2.02791895958005e+004,-2.20553817258040e+001,-8.61907942290675e-001

2.05622765331213e+004,-2.20553906445044e+001,-8.73939396620203e-001

2.08493152168224e+004,-2.20553998139252e+001,-8.86138789688284e-001

2.11403608112276e+004,-2.20554092411140e+001,-8.98508465233535e-001

2.14354692507258e+004,-2.20554189333166e+001,-9.11050799686084e-001

2.17346972505211e+004,-2.20554288979824e+001,-9.23768202623422e-001

2.20381023175322e+004,-2.20554391427701e+001,-9.36663117232427e-001

2.23457427614443e+004,-2.20554496755536e+001,-9.49738020776850e-001

2.26576777059159e+004,-2.20554605044283e+001,-9.62995425070141e-001

2.29739670999406e+004,-2.20554716377169e+001,-9.76437876960023e-001

2.32946717293690e+004,-2.20554830839762e+001,-9.90067958813079e-001

2.36198532285905e+004,-2.20554948520033e+001,-1.00388828901050e+000

2.39495740923785e+004,-2.20555069508426e+001,-1.01790152244984e+000

2.42838976879009e+004,-2.20555193897926e+001,-1.03211035105255e+000

2.46228882668982e+004,-2.20555321784134e+001,-1.04651750427800e+000

2.49666109780322e+004,-2.20555453265333e+001,-1.06112574964953e+000

2.53151318794055e+004,-2.20555588442571e+001,-1.07593789328007e+000

2.56685179512580e+004,-2.20555727419736e+001,-1.09095678041086e+000

2.60268371088386e+004,-2.20555870303633e+001,-1.10618529595692e+000

2.63901582154578e+004,-2.20556017204071e+001,-1.12162636505648e+000

2.67585510957221e+004,-2.20556168233942e+001,-1.13728295363198e+000

2.71320865489533e+004,-2.20556323509313e+001,-1.15315806895773e+000

2.75108363627948e+004,-2.20556483149510e+001,-1.16925476023358e+000

2.78948733270080e+004,-2.20556647277214e+001,-1.18557611916877e+000

2.82842712474618e+004,-2.20556816018552e+001,-1.20212528057323e+000

2.86791049603164e+004,-2.20556989503195e+001,-1.21890542295537e+000

2.90794503464061e+004,-2.20557167864459e+001,-1.23591976913122e+000

2.94853843458219e+004,-2.20557351239404e+001,-1.25317158683902e+000

2.98969849726987e+004,-2.20557539768941e+001,-1.27066418936522e+000

3.03143313302078e+004,-2.20557733597942e+001,-1.28840093617380e+000

3.07375036257601e+004,-2.20557932875347e+001,-1.30638523355269e+000

3.11665831864199e+004,-2.20558137754284e+001,-1.32462053525985e+000

3.16016524745350e+004,-2.20558348392179e+001,-1.34311034318510e+000

3.20427951035848e+004,-2.20558564950884e+001,-1.36185820801837e+000

3.24900958542493e+004,-2.20558787596798e+001,-1.38086772992598e+000

3.29436406907028e+004,-2.20559016500991e+001,-1.40014255923924e+000

3.34035167771346e+004,-2.20559251839345e+001,-1.41968639714960e+000

3.38698124945009e+004,-2.20559493792677e+001,-1.43950299641498e+000

3.43426174575100e+004,-2.20559742546887e+001,-1.45959616207561e+000

3.48220225318448e+004,-2.20559998293098e+001,-1.47996975217867e+000

3.53081198516260e+004,-2.20560261227798e+001,-1.50062767851467e+000

3.58010028371187e+004,-2.20560531552998e+001,-1.52157390736193e+000

3.63007662126863e+004,-2.20560809476383e+001,-1.54281246024239e+000

3.68075060249948e+004,-2.20561095211467e+001,-1.56434741468845e+000

3.73213196614721e+004,-2.20561388977767e+001,-1.58618290501790e+000

3.78423058690237e+004,-2.20561691000965e+001,-1.60832312312168e+000

3.83705647730104e+004,-2.20562001513077e+001,-1.63077231926179e+000

3.89061978964912e+004,-2.20562320752641e+001,-1.65353480288029e+000

3.94493081797342e+004,-2.20562648964890e+001,-1.67661494341786e+000

3.99999999999998e+004,-2.20562986401947e+001,-1.70001717114501e+000

4.05583791916010e+004,-2.20563333323014e+001,-1.72374597800539e+000

4.11245530662425e+004,-2.20563689994572e+001,-1.74780591846727e+000

4.16986304336447e+004,-2.20564056690588e+001,-1.77220161039080e+000

4.22807216224550e+004,-2.20564433692717e+001,-1.79693773590394e+000

4.28709385014515e+004,-2.20564821290527e+001,-1.82201904229181e+000

4.34693945010421e+004,-2.20565219781717e+001,-1.84745034289638e+000

4.40762046350642e+004,-2.20565629472341e+001,-1.87323651803189e+000

4.46914855228886e+004,-2.20566050677049e+001,-1.89938251590824e+000

4.53153554118317e+004,-2.20566483719326e+001,-1.92589335357005e+000

4.59479341998812e+004,-2.20566928931735e+001,-1.95277411784739e+000

4.65893434587380e+004,-2.20567386656179e+001,-1.98002996631883e+000

4.72397064571810e+004,-2.20567857244156e+001,-2.00766612828850e+000

4.78991481847569e+004,-2.20568341057034e+001,-2.03568790577578e+000

4.85677953758016e+004,-2.20568838466324e+001,-2.06410067451755e+000

4.92457765337964e+004,-2.20569349853962e+001,-2.09290988498647e+000

4.99332219560642e+004,-2.20569875612607e+001,-2.12212106341918e+000

5.06302637588109e+004,-2.20570416145939e+001,-2.15173981286165e+000

5.13370359025159e+004,-2.20570971868965e+001,-2.18177181422654e+000

5.20536742176771e+004,-2.20571543208341e+001,-2.21222282736626e+000

5.27803164309155e+004,-2.20572130602693e+001,-2.24309869215849e+000

5.35171021914442e+004,-2.20572734502959e+001,-2.27440532960783e+000

5.42641730979066e+004,-2.20573355372727e+001,-2.30614874296110e+000

5.50216727255895e+004,-2.20573993688593e+001,-2.33833501883904e+000

5.57897466540159e+004,-2.20574649940525e+001,-2.37097032838012e+000

5.65685424949235e+004,-2.20575324632238e+001,-2.40406092840331e+000

5.73582099206328e+004,-2.20576018281575e+001,-2.43761316258337e+000

5.81589006928121e+004,-2.20576731420908e+001,-2.47163346264289e+000

5.89707686916437e+004,-2.20577464597539e+001,-2.50612834955977e+000

5.97939699453972e+004,-2.20578218374123e+001,-2.54110443479110e+000

6.06286626604156e+004,-2.20578993329094e+001,-2.57656842151268e+000

6.14750072515201e+004,-2.20579790057108e+001,-2.61252710587552e+000

6.23331663728396e+004,-2.20580609169495e+001,-2.64898737827757e+000

6.32033049490698e+004,-2.20581451294730e+001,-2.68595622465357e+000

6.40855902071694e+004,-2.20582317078905e+001,-2.72344072778083e+000

6.49801917084985e+004,-2.20583207186228e+001,-2.76144806860267e+000

6.58872813814055e+004,-2.20584122299528e+001,-2.79998552756896e+000

6.68070335542691e+004,-2.20585063120772e+001,-2.83906048599346e+000

6.77396249890018e+004,-2.20586030371604e+001,-2.87868042743011e+000

6.86852349150199e+004,-2.20587024793894e+001,-2.91885293906582e+000

6.96440450636895e+004,-2.20588047150300e+001,-2.95958571313184e+000

7.06162397032520e+004,-2.20589098224855e+001,-3.00088654833368e+000

7.16020056742374e+004,-2.20590178823554e+001,-3.04276335129935e+000

7.26015324253724e+004,-2.20591289774978e+001,-3.08522413804483e+000

7.36150120499896e+004,-2.20592431930918e+001,-3.12827703546071e+000

7.46426393229441e+004,-2.20593606167024e+001,-3.17193028281559e+000

7.56846117380472e+004,-2.20594813383472e+001,-3.21619223328085e+000

7.67411295460207e+004,-2.20596054505646e+001,-3.26107135547140e+000

7.78123957929823e+004,-2.20597330484844e+001,-3.30657623501057e+000

7.88986163594682e+004,-2.20598642299000e+001,-3.35271557611059e+000

7.99999999999995e+004,-2.20599990953422e+001,-3.39949820317513e+000

8.11167583832018e+004,-2.20601377481562e+001,-3.44693306242189e+000

8.22491061324848e+004,-2.20602802945798e+001,-3.49502922352432e+000

8.33972608672892e+004,-2.20604268438236e+001,-3.54379588127545e+000

8.45614432449099e+004,-2.20605775081544e+001,-3.59324235727086e+000

8.57418770029029e+004,-2.20607324029796e+001,-3.64337810161370e+000

8.69387890020841e+004,-2.20608916469354e+001,-3.69421269464006e+000

8.81524092701283e+004,-2.20610553619762e+001,-3.74575584866547e+000

8.93829710457770e+004,-2.20612236734669e+001,-3.79801740975332e+000

9.06307108236633e+004,-2.20613967102779e+001,-3.85100735950442e+000

9.18958683997622e+004,-2.20615746048825e+001,-3.90473581686849e+000

9.31786869174758e+004,-2.20617574934573e+001,-3.95921303997716e+000

9.44794129143618e+004,-2.20619455159846e+001,-4.01444942799984e+000

9.57982963695136e+004,-2.20621388163586e+001,-4.07045552302088e+000

9.71355907516031e+004,-2.20623375424937e+001,-4.12724201193982e+000

9.84915530675926e+004,-2.20625418464364e+001,-4.18481972839309e+000

9.98664439121282e+004,-2.20627518844796e+001,-4.24319965470036e+000

1.01260527517622e+005,-2.20629678172808e+001,-4.30239292383181e+000

1.02674071805032e+005,-2.20631898099827e+001,-4.36241082139884e+000

1.04107348435354e+005,-2.20634180323379e+001,-4.42326478766846e+000

1.05560632861831e+005,-2.20636526588364e+001,-4.48496641960023e+000

1.07034204382888e+005,-2.20638938688368e+001,-4.54752747290688e+000

1.08528346195813e+005,-2.20641418467013e+001,-4.61095986413848e+000

1.10043345451179e+005,-2.20643967819339e+001,-4.67527567278989e+000

1.11579493308032e+005,-2.20646588693226e+001,-4.74048714343111e+000

1.13137084989847e+005,-2.20649283090858e+001,-4.80660668786385e+000

1.14716419841265e+005,-2.20652053070221e+001,-4.87364688729849e+000

1.16317801385624e+005,-2.20654900746643e+001,-4.94162049455795e+000

1.17941537383287e+005,-2.20657828294381e+001,-5.01054043630359e+000

1.19587939890794e+005,-2.20660837948243e+001,-5.08041981528589e+000

1.21257325320831e+005,-2.20663932005260e+001,-5.15127191261951e+000

1.22950014503040e+005,-2.20667112826402e+001,-5.22311019008101e+000

1.24666332745679e+005,-2.20670382838332e+001,-5.29594829243295e+000

1.26406609898139e+005,-2.20673744535227e+001,-5.36980004976968e+000

1.28171180414339e+005,-2.20677200480623e+001,-5.44467947988891e+000

1.29960383416997e+005,-2.20680753309331e+001,-5.52060079068655e+000

1.31774562762811e+005,-2.20684405729390e+001,-5.59757838257596e+000

1.33614067108538e+005,-2.20688160524082e+001,-5.67562685093091e+000

1.35479249978003e+005,-2.20692020553992e+001,-5.75476098855290e+000

1.37370469830040e+005,-2.20695988759135e+001,-5.83499578816134e+000

1.39288090127379e+005,-2.20700068161123e+001,-5.91634644490930e+000

1.41232479406504e+005,-2.20704261865411e+001,-5.99882835892030e+000

1.43204011348474e+005,-2.20708573063581e+001,-6.08245713785109e+000

1.45203064850745e+005,-2.20713005035701e+001,-6.16724859947605e+000

1.47230024099979e+005,-2.20717561152744e+001,-6.25321877429571e+000

1.49285278645888e+005,-2.20722244879068e+001,-6.34038390816724e+000

1.51369223476094e+005,-2.20727059774962e+001,-6.42876046495846e+000

1.53482259092041e+005,-2.20732009499264e+001,-6.51836512922394e+000

1.55624791585964e+005,-2.20737097812036e+001,-6.60921480890346e+000

1.57797232718936e+005,-2.20742328577328e+001,-6.70132663804167e+000

1.59999999999999e+005,-2.20747705765998e+001,-6.79471797953012e+000

1.62233516766403e+005,-2.20753233458610e+001,-6.88940642786974e+000

1.64498212264969e+005,-2.20758915848416e+001,-6.98540981195436e+000

1.66794521734578e+005,-2.20764757244402e+001,-7.08274619787469e+000

1.69122886489819e+005,-2.20770762074426e+001,-7.18143389174157e+000

1.71483754005805e+005,-2.20776934888430e+001,-7.28149144252890e+000

1.73877578004168e+005,-2.20783280361734e+001,-7.38293764493602e+000

1.76304818540256e+005,-2.20789803298422e+001,-7.48579154226653e+000

1.78765942091554e+005,-2.20796508634810e+001,-7.59007242932678e+000

1.81261421647326e+005,-2.20803401443004e+001,-7.69579985533964e+000

1.83791736799524e+005,-2.20810486934548e+001,-7.80299362687581e+000

1.86357373834951e+005,-2.20817770464168e+001,-7.91167381079909e+000

1.88958825828723e+005,-2.20825257533610e+001,-8.02186073722805e+000

1.91596592739027e+005,-2.20832953795574e+001,-8.13357500251005e+000

1.94271181503206e+005,-2.20840865057751e+001,-8.24683747220906e+000

1.96983106135185e+005,-2.20848997286955e+001,-8.36166928410541e+000

1.99732887824256e+005,-2.20857356613368e+001,-8.47809185120564e+000

2.02521055035243e+005,-2.20865949334886e+001,-8.59612686476346e+000

2.05348143610063e+005,-2.20874781921572e+001,-8.71579629730843e+000

2.08214696870707e+005,-2.20883861020224e+001,-8.83712240568322e+000

2.11121265723661e+005,-2.20893193459054e+001,-8.96012773408603e+000

2.14068408765776e+005,-2.20902786252481e+001,-9.08483511711922e+000

2.17056692391625e+005,-2.20912646606047e+001,-9.21126768284025e+000

2.20086690902357e+005,-2.20922781921445e+001,-9.33944885581580e+000

2.23158986616063e+005,-2.20933199801677e+001,-9.46940236017616e+000

2.26274169979693e+005,-2.20943908056335e+001,-9.60115222266835e+000

2.29432839682530e+005,-2.20954914707007e+001,-9.73472277570648e+000

2.32635602771247e+005,-2.20966227992816e+001,-9.87013866041812e+000

2.35883074766574e+005,-2.20977856376087e+001,-1.00074248296839e+001

2.39175879781588e+005,-2.20989808548157e+001,-1.01466065511685e+001

2.42514650641661e+005,-2.21002093435311e+001,-1.02877094103414e+001

2.45900029006080e+005,-2.21014720204870e+001,-1.04307593134858e+001

2.49332665491357e+005,-2.21027698271409e+001,-1.05757824906916e+001

2.52813219796278e+005,-2.21041037303130e+001,-1.07228054988313e+001

2.56342360828676e+005,-2.21054747228374e+001,-1.08718552245176e+001

2.59920766833993e+005,-2.21068838242289e+001,-1.10229588870372e+001

2.63549125525621e+005,-2.21083320813644e+001,-1.11761440412604e+001

2.67228134217075e+005,-2.21098205691803e+001,-1.13314385805231e+001

2.70958499956006e+005,-2.21113503913850e+001,-1.14888707394780e+001

2.74740939660078e+005,-2.21129226811873e+001,-1.16484690969125e+001

2.78576180254757e+005,-2.21145386020419e+001,-1.18102625785291e+001

2.82464958813007e+005,-2.21161993484097e+001,-1.19742804596865e+001

2.86408022696948e+005,-2.21179061465355e+001,-1.21405523680966e+001

2.90406129701488e+005,-2.21196602552428e+001,-1.23091082864747e+001

2.94460048199957e+005,-2.21214629667445e+001,-1.24799785551384e+001

2.98570557291775e+005,-2.21233156074717e+001,-1.26531938745529e+001

3.02738446952187e+005,-2.21252195389193e+001,-1.28287853078161e+001

3.06964518184081e+005,-2.21271761585092e+001,-1.30067842830822e+001

3.11249583171928e+005,-2.21291869004710e+001,-1.31872225959176e+001

3.15594465437872e+005,-2.21312532367413e+001,-1.33701324115849e+001

3.19999999999997e+005,-2.21333766778795e+001,-1.35555462672513e+001

3.24467033532806e+005,-2.21355587740033e+001,-1.37434970741153e+001

3.28996424529938e+005,-2.21378011157408e+001,-1.39340181194478e+001

3.33589043469155e+005,-2.21401053352023e+001,-1.41271430685423e+001

3.38245772979638e+005,-2.21424731069692e+001,-1.43229059665673e+001

3.42967508011610e+005,-2.21449061491026e+001,-1.45213412403188e+001

3.47755156008335e+005,-2.21474062241688e+001,-1.47224836998632e+001

3.52609637080511e+005,-2.21499751402845e+001,-1.49263685400679e+001

3.57531884183106e+005,-2.21526147521799e+001,-1.51330313420119e+001

3.62522843294651e+005,-2.21553269622802e+001,-1.53425080742706e+001

3.67583473599047e+005,-2.21581137218056e+001,-1.55548350940687e+001

3.72714747669902e+005,-2.21609770318893e+001,-1.57700491482937e+001

3.77917651657445e+005,-2.21639189447137e+001,-1.59881873743648e+001

3.83193185478053e+005,-2.21669415646648e+001,-1.62092873009480e+001

3.88542363006410e+005,-2.21700470495040e+001,-1.64333868485122e+001

3.93966212270369e+005,-2.21732376115572e+001,-1.66605243297178e+001

3.99465775648511e+005,-2.21765155189225e+001,-1.68907384496311e+001

4.05042110070485e+005,-2.21798830966927e+001,-1.71240683057552e+001

4.10696287220124e+005,-2.21833427281965e+001,-1.73605533878713e+001

4.16429393741414e+005,-2.21868968562544e+001,-1.76002335776812e+001

4.22242531447321e+005,-2.21905479844511e+001,-1.78431491482429e+001

4.28136817531551e+005,-2.21942986784230e+001,-1.80893407631904e+001

4.34113384783250e+005,-2.21981515671604e+001,-1.83388494757304e+001

4.40173381804713e+005,-2.22021093443233e+001,-1.85917167274048e+001

4.46317973232124e+005,-2.22061747695714e+001,-1.88479843466125e+001

4.52548339959385e+005,-2.22103506699062e+001,-1.91076945468793e+001

4.58865679365059e+005,-2.22146399410251e+001,-1.93708899248681e+001

4.65271205542494e+005,-2.22190455486865e+001,-1.96376134581189e+001

4.71766149533147e+005,-2.22235705300847e+001,-1.99079085025091e+001

4.78351759563174e+005,-2.22282179952345e+001,-2.01818187894253e+001

4.85029301283321e+005,-2.22329911283629e+001,-2.04593884226369e+001

4.91800058012158e+005,-2.22378931893077e+001,-2.07406618748588e+001

4.98665330982714e+005,-2.22429275149222e+001,-2.10256839839981e+001

5.05626439592555e+005,-2.22480975204830e+001,-2.13144999490703e+001

5.12684721657352e+005,-2.22534067011014e+001,-2.16071553257776e+001

5.19841533667984e+005,-2.22588586331352e+001,-2.19036960217387e+001

5.27098251051240e+005,-2.22644569756001e+001,-2.22041682913589e+001

5.34456268434150e+005,-2.22702054715793e+001,-2.25086187303329e+001

5.41916999912011e+005,-2.22761079496280e+001,-2.28170942697677e+001

