Freq.,VOut,OutRef

1.00000000000000e+004,-1.97278025987141e+001,-3.41221654456635e-001

1.01395947979003e+004,-1.97278037939487e+001,-3.45984914045189e-001

1.02811382665607e+004,-1.97278050227854e+001,-3.50814665529927e-001

1.04246576084112e+004,-1.97278062861690e+001,-3.55711837071762e-001

1.05701804056138e+004,-1.97278075850709e+001,-3.60677369786155e-001

1.07177346253629e+004,-1.97278089204894e+001,-3.65712217926927e-001

1.08673486252606e+004,-1.97278102934511e+001,-3.70817349066424e-001

1.10190511587661e+004,-1.97278117050116e+001,-3.75993744281552e-001

1.11728713807222e+004,-1.97278131562559e+001,-3.81242398343240e-001

1.13288388529580e+004,-1.97278146482998e+001,-3.86564319908281e-001

1.14869835499703e+004,-1.97278161822901e+001,-3.91960531710987e-001

1.16473358646846e+004,-1.97278177594063e+001,-3.97432070761309e-001

1.18099266142953e+004,-1.97278193808606e+001,-4.02979988543019e-001

1.19747870461893e+004,-1.97278210478994e+001,-4.08605351217294e-001

1.21419488439505e+004,-1.97278227618045e+001,-4.14309239824420e-001

1.23114441334492e+004,-1.97278245238933e+001,-4.20092750495330e-001

1.24833054890161e+004,-1.97278263355201e+001,-4.25956994659848e-001

1.26575659397028e+004,-1.97278281980781e+001,-4.31903099258556e-001

1.28342589756290e+004,-1.97278301129988e+001,-4.37932206963038e-001

1.30134185544193e+004,-1.97278320817544e+001,-4.44045476393713e-001

1.31950791077289e+004,-1.97278341058581e+001,-4.50244082341828e-001

1.33792755478611e+004,-1.97278361868662e+001,-4.56529215994556e-001

1.35660432744767e+004,-1.97278383263782e+001,-4.62902085165282e-001

1.37554181813974e+004,-1.97278405260391e+001,-4.69363914524958e-001

1.39474366635040e+004,-1.97278427875395e+001,-4.75915945837634e-001

1.41421356237309e+004,-1.97278451126181e+001,-4.82559438198261e-001

1.43395524801583e+004,-1.97278475030621e+001,-4.89295668274310e-001

1.45397251732031e+004,-1.97278499607094e+001,-4.96125930551746e-001

1.47426921729110e+004,-1.97278524874489e+001,-5.03051537584352e-001

1.49484924863494e+004,-1.97278550852231e+001,-5.10073820242908e-001

1.51571656651040e+004,-1.97278577560290e+001,-5.17194127974063e-001

1.53687518128801e+004,-1.97278605019197e+001,-5.24413829057277e-001

1.55832915932100e+004,-1.97278633250061e+001,-5.31734310868314e-001

1.58008262372675e+004,-1.97278662274581e+001,-5.39156980145988e-001

1.60213975517924e+004,-1.97278692115071e+001,-5.46683263261271e-001

1.62450479271247e+004,-1.97278722794468e+001,-5.54314606492533e-001

1.64718203453514e+004,-1.97278754336357e+001,-5.62052476301883e-001

1.67017583885674e+004,-1.97278786764985e+001,-5.69898359616625e-001

1.69349062472505e+004,-1.97278820105279e+001,-5.77853764116941e-001

1.71713087287550e+004,-1.97278854382868e+001,-5.85920218522708e-001

1.74110112659224e+004,-1.97278889624101e+001,-5.94099272888592e-001

1.76540599258131e+004,-1.97278925856070e+001,-6.02392498900476e-001

1.79005014185594e+004,-1.97278963106624e+001,-6.10801490178587e-001

1.81503831063432e+004,-1.97279001404399e+001,-6.19327862581560e-001

1.84037530124975e+004,-1.97279040778834e+001,-6.27973254518631e-001

1.86606598307361e+004,-1.97279081260196e+001,-6.36739327262154e-001

1.89211529345119e+004,-1.97279122879603e+001,-6.45627765268400e-001

1.91852823865052e+004,-1.97279165669048e+001,-6.54640276499297e-001

1.94530989482457e+004,-1.97279209661421e+001,-6.63778592751426e-001

1.97246540898671e+004,-1.97279254890539e+001,-6.73044469986641e-001

1.99999999999999e+004,-1.97279301391170e+001,-6.82439688670917e-001

2.02791895958005e+004,-1.97279349199056e+001,-6.91966054116208e-001

2.05622765331213e+004,-1.97279398350948e+001,-7.01625396824048e-001

2.08493152168224e+004,-1.97279448884628e+001,-7.11419572840041e-001

2.11403608112276e+004,-1.97279500838937e+001,-7.21350464108829e-001

2.14354692507258e+004,-1.97279554253813e+001,-7.31419978834141e-001

2.17346972505211e+004,-1.97279609170314e+001,-7.41630051846310e-001

2.20381023175322e+004,-1.97279665630652e+001,-7.51982644972949e-001

2.23457427614443e+004,-1.97279723678226e+001,-7.62479747415058e-001

2.26576777059159e+004,-1.97279783357655e+001,-7.73123376128981e-001

2.29739670999406e+004,-1.97279844714811e+001,-7.83915576213995e-001

2.32946717293690e+004,-1.97279907796856e+001,-7.94858421302715e-001

2.36198532285905e+004,-1.97279972652280e+001,-8.05954013959874e-001

2.39495740923785e+004,-1.97280039330931e+001,-8.17204486086888e-001

2.42838976879009e+004,-1.97280107884063e+001,-8.28611999327731e-001

2.46228882668982e+004,-1.97280178364367e+001,-8.40178745486771e-001

2.49666109780322e+004,-1.97280250826017e+001,-8.51906946945702e-001

2.53151318794055e+004,-1.97280325324710e+001,-8.63798857093391e-001

2.56685179512580e+004,-1.97280401917706e+001,-8.75856760754487e-001

2.60268371088386e+004,-1.97280480663876e+001,-8.88082974629794e-001

2.63901582154578e+004,-1.97280561623747e+001,-9.00479847738552e-001

2.67585510957221e+004,-1.97280644859545e+001,-9.13049761871160e-001

2.71320865489533e+004,-1.97280730435244e+001,-9.25795132043278e-001

2.75108363627948e+004,-1.97280818416620e+001,-9.38718406960103e-001

2.78948733270080e+004,-1.97280908871294e+001,-9.51822069485046e-001

2.82842712474618e+004,-1.97281001868790e+001,-9.65108637115925e-001

2.86791049603164e+004,-1.97281097480583e+001,-9.78580662467097e-001

2.90794503464061e+004,-1.97281195780159e+001,-9.92240733759131e-001

2.94853843458219e+004,-1.97281296843070e+001,-1.00609147531331e+000

2.98969849726987e+004,-1.97281400746989e+001,-1.02013554805629e+000

3.03143313302078e+004,-1.97281507571772e+001,-1.03437565002846e+000

3.07375036257601e+004,-1.97281617399522e+001,-1.04881451690024e+000

3.11665831864199e+004,-1.97281730314646e+001,-1.06345492249865e+000

3.16016524745350e+004,-1.97281846403926e+001,-1.07829967933475e+000

3.20427951035848e+004,-1.97281965756581e+001,-1.09335163914562e+000

3.24900958542493e+004,-1.97282088464337e+001,-1.10861369343806e+000

3.29436406907028e+004,-1.97282214621498e+001,-1.12408877404317e+000

3.34035167771346e+004,-1.97282344325020e+001,-1.13977985367712e+000

3.38698124945009e+004,-1.97282477674580e+001,-1.15568994651085e+000

3.43426174575100e+004,-1.97282614772659e+001,-1.17182210874629e+000

3.48220225318448e+004,-1.97282755724617e+001,-1.18817943920039e+000

3.53081198516260e+004,-1.97282900638774e+001,-1.20476507990046e+000

3.58010028371187e+004,-1.97283049626493e+001,-1.22158221668249e+000

3.63007662126863e+004,-1.97283202802269e+001,-1.23863407980213e+000

3.68075060249948e+004,-1.97283360283812e+001,-1.25592394455242e+000

3.73213196614721e+004,-1.97283522192139e+001,-1.27345513188938e+000

3.78423058690237e+004,-1.97283688651668e+001,-1.29123100906826e+000

3.83705647730104e+004,-1.97283859790315e+001,-1.30925499028518e+000

3.89061978964912e+004,-1.97284035739587e+001,-1.32753053733214e+000

3.94493081797342e+004,-1.97284216634687e+001,-1.34606116025734e+000

3.99999999999998e+004,-1.97284402614617e+001,-1.36485041803563e+000

4.05583791916010e+004,-1.97284593822284e+001,-1.38390191924916e+000

4.11245530662425e+004,-1.97284790404610e+001,-1.40321932277696e+000

4.16986304336447e+004,-1.97284992512645e+001,-1.42280633849281e+000

4.22807216224550e+004,-1.97285200301682e+001,-1.44266672797408e+000

4.28709385014515e+004,-1.97285413931376e+001,-1.46280430522086e+000

4.34693945010421e+004,-1.97285633565871e+001,-1.48322293738180e+000

4.40762046350642e+004,-1.97285859373918e+001,-1.50392654549490e+000

4.46914855228886e+004,-1.97286091529009e+001,-1.52491910523366e+000

4.53153554118317e+004,-1.97286330209512e+001,-1.54620464766573e+000

4.59479341998812e+004,-1.97286575598803e+001,-1.56778726002366e+000

4.65893434587380e+004,-1.97286827885411e+001,-1.58967108648181e+000

4.72397064571810e+004,-1.97287087263158e+001,-1.61186032894815e+000

4.78991481847569e+004,-1.97287353931314e+001,-1.63435924786434e+000

4.85677953758016e+004,-1.97287628094742e+001,-1.65717216301870e+000

4.92457765337964e+004,-1.97287909964061e+001,-1.68030345436736e+000

4.99332219560642e+004,-1.97288199755805e+001,-1.70375756287046e+000

5.06302637588109e+004,-1.97288497692591e+001,-1.72753899133712e+000

5.13370359025159e+004,-1.97288804003286e+001,-1.75165230528212e+000

5.20536742176771e+004,-1.97289118923185e+001,-1.77610213379627e+000

5.27803164309155e+004,-1.97289442694190e+001,-1.80089317042536e+000

5.35171021914442e+004,-1.97289775565001e+001,-1.82603017406411e+000

5.42641730979066e+004,-1.97290117791294e+001,-1.85151796986152e+000

5.50216727255895e+004,-1.97290469635930e+001,-1.87736145013758e+000

5.57897466540159e+004,-1.97290831369149e+001,-1.90356557531251e+000

5.65685424949235e+004,-1.97291203268780e+001,-1.93013537485049e+000

5.73582099206328e+004,-1.97291585620451e+001,-1.95707594821407e+000

5.81589006928121e+004,-1.97291978717811e+001,-1.98439246583265e+000

5.89707686916437e+004,-1.97292382862753e+001,-2.01209017008393e+000

5.97939699453972e+004,-1.97292798365645e+001,-2.04017437628844e+000

6.06286626604156e+004,-1.97293225545568e+001,-2.06865047371754e+000

6.14750072515201e+004,-1.97293664730560e+001,-2.09752392661554e+000

6.23331663728396e+004,-1.97294116257869e+001,-2.12680027523527e+000

6.32033049490698e+004,-1.97294580474206e+001,-2.15648513688779e+000

6.40855902071694e+004,-1.97295057736017e+001,-2.18658420700518e+000

6.49801917084985e+004,-1.97295548409750e+001,-2.21710326022069e+000

6.58872813814055e+004,-1.97296052872141e+001,-2.24804815145885e+000

6.68070335542691e+004,-1.97296571510494e+001,-2.27942481704530e+000

6.77396249890018e+004,-1.97297104722986e+001,-2.31123927582703e+000

6.86852349150199e+004,-1.97297652918965e+001,-2.34349763031054e+000

6.96440450636895e+004,-1.97298216519267e+001,-2.37620606781514e+000

7.06162397032520e+004,-1.97298795956535e+001,-2.40937086163894e+000

7.16020056742374e+004,-1.97299391675552e+001,-2.44299837224498e+000

7.26015324253724e+004,-1.97300004133577e+001,-2.47709504845874e+000

7.36150120499896e+004,-1.97300633800701e+001,-2.51166742868386e+000

7.46426393229441e+004,-1.97301281160197e+001,-2.54672214213538e+000

7.56846117380472e+004,-1.97301946708898e+001,-2.58226591008562e+000

7.67411295460207e+004,-1.97302630957571e+001,-2.61830554713034e+000

7.78123957929823e+004,-1.97303334431308e+001,-2.65484796246945e+000

7.88986163594682e+004,-1.97304057669928e+001,-2.69190016120630e+000

7.99999999999995e+004,-1.97304801228388e+001,-2.72946924566196e+000

8.11167583832018e+004,-1.97305565677206e+001,-2.76756241670935e+000

8.22491061324848e+004,-1.97306351602896e+001,-2.80618697512361e+000

8.33972608672892e+004,-1.97307159608419e+001,-2.84535032294984e+000

8.45614432449099e+004,-1.97307990313637e+001,-2.88505996489053e+000

8.57418770029029e+004,-1.97308844355787e+001,-2.92532350970933e+000

8.69387890020841e+004,-1.97309722389973e+001,-2.96614867165426e+000

8.81524092701283e+004,-1.97310625089655e+001,-3.00754327189935e+000

8.93829710457770e+004,-1.97311553147170e+001,-3.04951524000506e+000

9.06307108236633e+004,-1.97312507274254e+001,-3.09207261539799e+000

9.18958683997622e+004,-1.97313488202589e+001,-3.13522354886885e+000

9.31786869174758e+004,-1.97314496684354e+001,-3.17897630409091e+000

9.44794129143618e+004,-1.97315533492802e+001,-3.22333925915818e+000

9.57982963695136e+004,-1.97316599422846e+001,-3.26832090814258e+000

9.71355907516031e+004,-1.97317695291665e+001,-3.31392986267157e+000

9.84915530675926e+004,-1.97318821939323e+001,-3.36017485352659e+000

9.98664439121282e+004,-1.97319980229409e+001,-3.40706473226086e+000

1.01260527517622e+005,-1.97321171049694e+001,-3.45460847283898e+000

1.02674071805032e+005,-1.97322395312801e+001,-3.50281517329730e+000

1.04107348435354e+005,-1.97323653956905e+001,-3.55169405742428e+000

1.05560632861831e+005,-1.97324947946437e+001,-3.60125447646340e+000

1.07034204382888e+005,-1.97326278272822e+001,-3.65150591083781e+000

1.08528346195813e+005,-1.97327645955228e+001,-3.70245797189523e+000

1.10043345451179e+005,-1.97329052041339e+001,-3.75412040367553e+000

1.11579493308032e+005,-1.97330497608148e+001,-3.80650308470212e+000

1.13137084989847e+005,-1.97331983762775e+001,-3.85961602979252e+000

1.14716419841265e+005,-1.97333511643305e+001,-3.91346939189406e+000

1.16317801385624e+005,-1.97335082419646e+001,-3.96807346394083e+000

1.17941537383287e+005,-1.97336697294418e+001,-4.02343868073467e+000

1.19587939890794e+005,-1.97338357503862e+001,-4.07957562084947e+000

1.21257325320831e+005,-1.97340064318770e+001,-4.13649500855592e+000

1.22950014503040e+005,-1.97341819045452e+001,-4.19420771577495e+000

1.24666332745679e+005,-1.97343623026715e+001,-4.25272476404993e+000

1.26406609898139e+005,-1.97345477642884e+001,-4.31205732654525e+000

1.28171180414339e+005,-1.97347384312836e+001,-4.37221673006906e+000

1.29960383416997e+005,-1.97349344495073e+001,-4.43321445711967e+000

1.31774562762811e+005,-1.97351359688824e+001,-4.49506214795593e+000

1.33614067108538e+005,-1.97353431435166e+001,-4.55777160269352e+000

1.35479249978003e+005,-1.97355561318193e+001,-4.62135478342465e+000

1.37370469830040e+005,-1.97357750966202e+001,-4.68582381636398e+000

1.39288090127379e+005,-1.97360002052915e+001,-4.75119099401820e+000

1.41232479406504e+005,-1.97362316298744e+001,-4.81746877738240e+000

1.43204011348474e+005,-1.97364695472074e+001,-4.88466979816013e+000

1.45203064850745e+005,-1.97367141390597e+001,-4.95280686101070e+000

1.47230024099979e+005,-1.97369655922668e+001,-5.02189294582085e+000

1.49285278645888e+005,-1.97372240988711e+001,-5.09194121000231e+000

1.51369223476094e+005,-1.97374898562650e+001,-5.16296499081624e+000

1.53482259092041e+005,-1.97377630673394e+001,-5.23497780772190e+000

1.55624791585964e+005,-1.97380439406344e+001,-5.30799336475369e+000

1.57797232718936e+005,-1.97383326904957e+001,-5.38202555292168e+000

1.59999999999999e+005,-1.97386295372345e+001,-5.45708845264059e+000

1.62233516766403e+005,-1.97389347072916e+001,-5.53319633618363e+000

1.64498212264969e+005,-1.97392484334058e+001,-5.61036367016402e+000

1.66794521734578e+005,-1.97395709547880e+001,-5.68860511804120e+000

1.69122886489819e+005,-1.97399025172981e+001,-5.76793554265475e+000

1.71483754005805e+005,-1.97402433736285e+001,-5.84837000878434e+000

1.73877578004168e+005,-1.97405937834908e+001,-5.92992378573620e+000

1.76304818540256e+005,-1.97409540138091e+001,-6.01261234995544e+000

1.78765942091554e+005,-1.97413243389174e+001,-6.09645138766567e+000

1.81261421647326e+005,-1.97417050407625e+001,-6.18145679753418e+000

1.83791736799524e+005,-1.97420964091126e+001,-6.26764469336370e+000

1.86357373834951e+005,-1.97424987417710e+001,-6.35503140681054e+000

1.88958825828723e+005,-1.97429123447958e+001,-6.44363349012808e+000

1.91596592739027e+005,-1.97433375327255e+001,-6.53346771893728e+000

1.94271181503206e+005,-1.97437746288101e+001,-6.62455109502206e+000

1.96983106135185e+005,-1.97442239652487e+001,-6.71690084915087e+000

1.99732887824256e+005,-1.97446858834333e+001,-6.81053444392370e+000

2.02521055035243e+005,-1.97451607341990e+001,-6.90546957664364e+000

2.05348143610063e+005,-1.97456488780806e+001,-7.00172418221477e+000

2.08214696870707e+005,-1.97461506855761e+001,-7.09931643606361e+000

2.11121265723661e+005,-1.97466665374173e+001,-7.19826475708568e+000

2.14068408765776e+005,-1.97471968248468e+001,-7.29858781061560e+000

2.17056692391625e+005,-1.97477419499027e+001,-7.40030451142193e+000

2.20086690902357e+005,-1.97483023257110e+001,-7.50343402672446e+000

2.23158986616063e+005,-1.97488783767847e+001,-7.60799577923481e+000

2.26274169979693e+005,-1.97494705393314e+001,-7.71400945021999e+000

2.29432839682530e+005,-1.97500792615683e+001,-7.82149498258725e+000

2.32635602771247e+005,-1.97507050040460e+001,-7.93047258399137e+000

2.35883074766574e+005,-1.97513482399795e+001,-8.04096272996155e+000

2.39175879781588e+005,-1.97520094555887e+001,-8.15298616705032e+000

2.42514650641661e+005,-1.97526891504474e+001,-8.26656391600071e+000

2.45900029006080e+005,-1.97533878378402e+001,-8.38171727493360e+000

2.49332665491357e+005,-1.97541060451301e+001,-8.49846782255212e+000

2.52813219796278e+005,-1.97548443141337e+001,-8.61683742136488e+000

2.56342360828676e+005,-1.97556032015073e+001,-8.73684822092459e+000

2.59920766833993e+005,-1.97563832791413e+001,-8.85852266108309e+000

2.63549125525621e+005,-1.97571851345658e+001,-8.98188347526162e+000

2.67228134217075e+005,-1.97580093713653e+001,-9.10695369373355e+000

2.70958499956006e+005,-1.97588566096042e+001,-9.23375664692135e+000

2.74740939660078e+005,-1.97597274862627e+001,-9.36231596870406e+000

2.78576180254757e+005,-1.97606226556831e+001,-9.49265559973578e+000

2.82464958813007e+005,-1.97615427900279e+001,-9.62479979077332e+000

2.86408022696948e+005,-1.97624885797480e+001,-9.75877310601140e+000

2.90406129701488e+005,-1.97634607340630e+001,-9.89460042642460e+000

2.94460048199957e+005,-1.97644599814530e+001,-1.00323069531140e+001

2.98570557291775e+005,-1.97654870701620e+001,-1.01719182106580e+001

3.02738446952187e+005,-1.97665427687134e+001,-1.03134600504639e+001

3.06964518184081e+005,-1.97676278664383e+001,-1.04569586541205e+001

3.11249583171928e+005,-1.97687431740153e+001,-1.06024405367488e+001

3.15594465437872e+005,-1.97698895240242e+001,-1.07499325503488e+001

3.19999999999997e+005,-1.97710677715116e+001,-1.08994618871416e+001

3.24467033532806e+005,-1.97722787945704e+001,-1.10510560829026e+001

3.28996424529938e+005,-1.97735234949324e+001,-1.12047430202872e+001

3.33589043469155e+005,-1.97748027985745e+001,-1.13605509321417e+001

3.38245772979638e+005,-1.97761176563388e+001,-1.15185084048025e+001

3.42967508011610e+005,-1.97774690445672e+001,-1.16786443813768e+001

3.47755156008335e+005,-1.97788579657490e+001,-1.18409881650040e+001

3.52609637080511e+005,-1.97802854491846e+001,-1.20055694220969e+001

3.57531884183106e+005,-1.97817525516628e+001,-1.21724181855551e+001

3.62522843294651e+005,-1.97832603581534e+001,-1.23415648579527e+001

3.67583473599047e+005,-1.97848099825144e+001,-1.25130402146950e+001

3.72714747669902e+005,-1.97864025682156e+001,-1.26868754071400e+001

3.77917651657445e+005,-1.97880392890764e+001,-1.28631019656831e+001

3.83193185478053e+005,-1.97897213500198e+001,-1.30417518028022e+001

3.88542363006410e+005,-1.97914499878424e+001,-1.32228572160563e+001

3.93966212270369e+005,-1.97932264720001e+001,-1.34064508910373e+001

3.99465775648511e+005,-1.97950521054099e+001,-1.35925659042697e+001

4.05042110070485e+005,-1.97969282252681e+001,-1.37812357260544e+001

4.10696287220124e+005,-1.97988562038847e+001,-1.39724942232514e+001

4.16429393741414e+005,-1.98008374495347e+001,-1.41663756619996e+001

4.22242531447321e+005,-1.98028734073253e+001,-1.43629147103659e+001

4.28136817531551e+005,-1.98049655600807e+001,-1.45621464409223e+001

4.34113384783250e+005,-1.98071154292430e+001,-1.47641063332429e+001

4.40173381804713e+005,-1.98093245757896e+001,-1.49688302763195e+001

4.46317973232124e+005,-1.98115946011689e+001,-1.51763545708864e+001

4.52548339959385e+005,-1.98139271482511e+001,-1.53867159316536e+001

4.58865679365059e+005,-1.98163239022967e+001,-1.55999514894386e+001

4.65271205542494e+005,-1.98187865919423e+001,-1.58160987931946e+001

4.71766149533147e+005,-1.98213169902021e+001,-1.60351958119272e+001

4.78351759563174e+005,-1.98239169154867e+001,-1.62572809364944e+001

4.85029301283321e+005,-1.98265882326383e+001,-1.64823929812831e+001

4.91800058012158e+005,-1.98293328539826e+001,-1.67105711857564e+001

4.98665330982714e+005,-1.98321527403964e+001,-1.69418552158651e+001

5.05626439592555e+005,-1.98350499023919e+001,-1.71762851653153e+001

5.12684721657352e+005,-1.98380264012159e+001,-1.74139015566873e+001

5.19841533667984e+005,-1.98410843499655e+001,-1.76547453423967e+001

5.27098251051240e+005,-1.98442259147186e+001,-1.78988579054918e+001

5.34456268434150e+005,-1.98474533156784e+001,-1.81462810602783e+001

5.41916999912011e+005,-1.98507688283339e+001,-1.83970570527658e+001

