Freq.,VOut,OutRef

1.00000000000000e+004,-8.51703392763673e+000,-9.71348062439619e-002

1.01395947979003e+004,-8.51703384909724e+000,-9.84907580354839e-002

1.02811382665607e+004,-8.51703376834980e+000,-9.98656382261589e-002

1.04246576084112e+004,-8.51703368533202e+000,-1.01259711049665e-001

1.05701804056138e+004,-8.51703359998048e+000,-1.02673244422918e-001

1.07177346253629e+004,-8.51703351222942e+000,-1.04106510006974e-001

1.08673486252606e+004,-8.51703342201126e+000,-1.05559783254857e-001

1.10190511587661e+004,-8.51703332925669e+000,-1.07033343463917e-001

1.11728713807222e+004,-8.51703323389436e+000,-1.08527473830780e-001

1.13288388529580e+004,-8.51703313585120e+000,-1.10042461503445e-001

1.14869835499703e+004,-8.51703303505156e+000,-1.11578597641936e-001

1.16473358646846e+004,-8.51703293141831e+000,-1.13136177466534e-001

1.18099266142953e+004,-8.51703282487132e+000,-1.14715500324028e-001

1.19747870461893e+004,-8.51703271532876e+000,-1.16316869736604e-001

1.21419488439505e+004,-8.51703260270684e+000,-1.17940593460933e-001

1.23114441334492e+004,-8.51703248691853e+000,-1.19586983555870e-001

1.24833054890161e+004,-8.51703236787491e+000,-1.21256356433216e-001

1.26575659397028e+004,-8.51703224548463e+000,-1.22949032920501e-001

1.28342589756290e+004,-8.51703211965349e+000,-1.24665338326263e-001

1.30134185544193e+004,-8.51703199028475e+000,-1.26405602499567e-001

1.31950791077289e+004,-8.51703185727890e+000,-1.28170159894048e-001

1.33792755478611e+004,-8.51703172053382e+000,-1.29959349631455e-001

1.35660432744767e+004,-8.51703157994437e+000,-1.31773515568136e-001

1.37554181813974e+004,-8.51703143540247e+000,-1.33613006360545e-001

1.39474366635040e+004,-8.51703128679681e+000,-1.35478175533707e-001

1.41421356237309e+004,-8.51703113401333e+000,-1.37369381545074e-001

1.43395524801583e+004,-8.51703097693445e+000,-1.39286987858246e-001

1.45397251732031e+004,-8.51703081543958e+000,-1.41231363008747e-001

1.47426921729110e+004,-8.51703064940432e+000,-1.43202880679236e-001

1.49484924863494e+004,-8.51703047870133e+000,-1.45201919765700e-001

1.51571656651040e+004,-8.51703030319936e+000,-1.47228864455097e-001

1.53687518128801e+004,-8.51703012276315e+000,-1.49284104299952e-001

1.55832915932100e+004,-8.51702993725424e+000,-1.51368034286637e-001

1.58008262372675e+004,-8.51702974653013e+000,-1.53481054916707e-001

1.60213975517924e+004,-8.51702955044383e+000,-1.55623572285451e-001

1.62450479271247e+004,-8.51702934884496e+000,-1.57795998152810e-001

1.64718203453514e+004,-8.51702914157828e+000,-1.59998750030390e-001

1.67017583885674e+004,-8.51702892848463e+000,-1.62232251255287e-001

1.69349062472505e+004,-8.51702870940002e+000,-1.64496931077095e-001

1.71713087287550e+004,-8.51702848415622e+000,-1.66793224735085e-001

1.74110112659224e+004,-8.51702825258005e+000,-1.69121573545408e-001

1.76540599258131e+004,-8.51702801449320e+000,-1.71482424987060e-001

1.79005014185594e+004,-8.51702776971298e+000,-1.73876232781469e-001

1.81503831063432e+004,-8.51702751805104e+000,-1.76303456987211e-001

1.84037530124975e+004,-8.51702725931396e+000,-1.78764564084036e-001

1.86606598307361e+004,-8.51702699330271e+000,-1.81260027064884e-001

1.89211529345119e+004,-8.51702671981308e+000,-1.83790325522447e-001

1.91852823865052e+004,-8.51702643863452e+000,-1.86355945748708e-001

1.94530989482457e+004,-8.51702614955094e+000,-1.88957380821639e-001

1.97246540898671e+004,-8.51702585234017e+000,-1.91595130702913e-001

1.99999999999999e+004,-8.51702554677370e+000,-1.94269702333516e-001

2.02791895958005e+004,-8.51702523261668e+000,-1.96981609731498e-001

2.05622765331213e+004,-8.51702490962744e+000,-1.99731374091877e-001

2.08493152168224e+004,-8.51702457755779e+000,-2.02519523882931e-001

2.11403608112276e+004,-8.51702423615237e+000,-2.05346594952872e-001

2.14354692507258e+004,-8.51702388514889e+000,-2.08213130627906e-001

2.17346972505211e+004,-8.51702352427740e+000,-2.11119681820797e-001

2.20381023175322e+004,-8.51702315326039e+000,-2.14066807135558e-001

2.23457427614443e+004,-8.51702277181283e+000,-2.17055072972085e-001

2.26576777059159e+004,-8.51702237964124e+000,-2.20085053639673e-001

2.29739670999406e+004,-8.51702197644444e+000,-2.23157331462483e-001

2.32946717293690e+004,-8.51702156191210e+000,-2.26272496897352e-001

2.36198532285905e+004,-8.51702113572580e+000,-2.29431148640551e-001

2.39495740923785e+004,-8.51702069755790e+000,-2.32633893747754e-001

2.42838976879009e+004,-8.51702024707128e+000,-2.35881347750618e-001

2.46228882668982e+004,-8.51701978392004e+000,-2.39174134769621e-001

2.49666109780322e+004,-8.51701930774774e+000,-2.42512887643315e-001

2.53151318794055e+004,-8.51701881818859e+000,-2.45898248040109e-001

2.56685179512580e+004,-8.51701831486614e+000,-2.49330866589113e-001

2.60268371088386e+004,-8.51701779739346e+000,-2.52811403001323e-001

2.63901582154578e+004,-8.51701726537266e+000,-2.56340526198200e-001

2.67585510957221e+004,-8.51701671839494e+000,-2.59918914437956e-001

2.71320865489533e+004,-8.51701615603965e+000,-2.63547255449366e-001

2.75108363627948e+004,-8.51701557787444e+000,-2.67226246561468e-001

2.78948733270080e+004,-8.51701498345493e+000,-2.70956594837536e-001

2.82842712474618e+004,-8.51701437232412e+000,-2.74739017212440e-001

2.86791049603164e+004,-8.51701374401221e+000,-2.78574240629324e-001

2.90794503464061e+004,-8.51701309803612e+000,-2.82463002180752e-001

2.94853843458219e+004,-8.51701243389949e+000,-2.86406049246876e-001

2.98969849726987e+004,-8.51701175109135e+000,-2.90404139646022e-001

3.03143313302078e+004,-8.51701104908723e+000,-2.94458041770535e-001

3.07375036257601e+004,-8.51701032734717e+000,-2.98568534744740e-001

3.11665831864199e+004,-8.51700958531626e+000,-3.02736408568521e-001

3.16016524745350e+004,-8.51700882242436e+000,-3.06962464268045e-001

3.20427951035848e+004,-8.51700803808479e+000,-3.11247514055819e-001

3.24900958542493e+004,-8.51700723169461e+000,-3.15592381481819e-001

3.29436406907028e+004,-8.51700640263405e+000,-3.19997901592310e-001

3.34035167771346e+004,-8.51700555026552e+000,-3.24464921094387e-001

3.38698124945009e+004,-8.51700467393400e+000,-3.28994298512286e-001

3.43426174575100e+004,-8.51700377296565e+000,-3.33586904358458e-001

3.48220225318448e+004,-8.51700284666791e+000,-3.38243621297531e-001

3.53081198516260e+004,-8.51700189432859e+000,-3.42965344317471e-001

3.58010028371187e+004,-8.51700091521574e+000,-3.47752980899216e-001

3.63007662126863e+004,-8.51699990857660e+000,-3.52607451195103e-001

3.68075060249948e+004,-8.51699887363736e+000,-3.57529688202325e-001

3.73213196614721e+004,-8.51699780960228e+000,-3.62520637945267e-001

3.78423058690237e+004,-8.51699671565352e+000,-3.67581259654051e-001

3.83705647730104e+004,-8.51699559095003e+000,-3.72712525951488e-001

3.89061978964912e+004,-8.51699443462730e+000,-3.77915423039457e-001

3.94493081797342e+004,-8.51699324579624e+000,-3.83190950888635e-001

3.99999999999998e+004,-8.51699202354319e+000,-3.88540123429100e-001

4.05583791916010e+004,-8.51699076692834e+000,-3.93963968748814e-001

4.11245530662425e+004,-8.51698947498579e+000,-3.99463529287552e-001

4.16986304336447e+004,-8.51698814672232e+000,-4.05039862039966e-001

4.22807216224550e+004,-8.51698678111686e+000,-4.10694038757424e-001

4.28709385014515e+004,-8.51698537711964e+000,-4.16427146154764e-001

4.34693945010421e+004,-8.51698393365139e+000,-4.22240286118731e-001

4.40762046350642e+004,-8.51698244960229e+000,-4.28134575921389e-001

4.46914855228886e+004,-8.51698092383163e+000,-4.34111148432298e-001

4.53153554118317e+004,-8.51697935516657e+000,-4.40171152338103e-001

4.59479341998812e+004,-8.51697774240103e+000,-4.46315752364570e-001

4.65893434587380e+004,-8.51697608429540e+000,-4.52546129497384e-001

4.72397064571810e+004,-8.51697437957503e+000,-4.58863481211969e-001

4.78991481847569e+004,-8.51697262692938e+000,-4.65269021703240e-001

4.85677953758016e+004,-8.51697082501109e+000,-4.71763982119139e-001

4.92457765337964e+004,-8.51696897243506e+000,-4.78349610795469e-001

4.99332219560642e+004,-8.51696706777722e+000,-4.85027173498632e-001

5.06302637588109e+004,-8.51696510957339e+000,-4.91797953667973e-001

5.13370359025159e+004,-8.51696309631809e+000,-4.98663252663799e-001

5.20536742176771e+004,-8.51696102646387e+000,-5.05624390014460e-001

5.27803164309155e+004,-8.51695889841961e+000,-5.12682703673392e-001

5.35171021914442e+004,-8.51695671054928e+000,-5.19839550276328e-001

5.42641730979066e+004,-8.51695446117114e+000,-5.27096305400002e-001

5.50216727255895e+004,-8.51695214855601e+000,-5.34454363828695e-001

5.57897466540159e+004,-8.51694977092625e+000,-5.41915139821296e-001

5.65685424949235e+004,-8.51694732645396e+000,-5.49480067385614e-001

5.73582099206328e+004,-8.51694481326029e+000,-5.57150600550320e-001

5.81589006928121e+004,-8.51694222941321e+000,-5.64928213648919e-001

5.89707686916437e+004,-8.51693957292641e+000,-5.72814401601535e-001

5.97939699453972e+004,-8.51693684175795e+000,-5.80810680201271e-001

6.06286626604156e+004,-8.51693403380839e+000,-5.88918586407431e-001

6.14750072515201e+004,-8.51693114691914e+000,-5.97139678642140e-001

6.23331663728396e+004,-8.51692817887114e+000,-6.05475537087439e-001

6.32033049490698e+004,-8.51692512738291e+000,-6.13927763991111e-001

6.40855902071694e+004,-8.51692199010868e+000,-6.22497983975734e-001

6.49801917084985e+004,-8.51691876463694e+000,-6.31187844349362e-001

6.58872813814055e+004,-8.51691544848826e+000,-6.39999015424350e-001

6.68070335542691e+004,-8.51691203911356e+000,-6.48933190837260e-001

6.77396249890018e+004,-8.51690853389212e+000,-6.57992087875995e-001

6.86852349150199e+004,-8.51690493012951e+000,-6.67177447809684e-001

6.96440450636895e+004,-8.51690122505570e+000,-6.76491036223785e-001

7.06162397032520e+004,-8.51689741582250e+000,-6.85934643361221e-001

7.16020056742374e+004,-8.51689349950197e+000,-6.95510084464552e-001

7.26015324253724e+004,-8.51688947308373e+000,-7.05219200127585e-001

7.36150120499896e+004,-8.51688533347284e+000,-7.15063856648379e-001

7.46426393229441e+004,-8.51688107748726e+000,-7.25045946389599e-001

7.56846117380472e+004,-8.51687670185562e+000,-7.35167388141988e-001

7.67411295460207e+004,-8.51687220321449e+000,-7.45430127494553e-001

7.78123957929823e+004,-8.51686757810602e+000,-7.55836137207984e-001

7.88986163594682e+004,-8.51686282297509e+000,-7.66387417595881e-001

7.99999999999995e+004,-8.51685793416663e+000,-7.77085996909304e-001

8.11167583832018e+004,-8.51685290792293e+000,-7.87933931727037e-001

8.22491061324848e+004,-8.51684774038071e+000,-7.98933307351800e-001

8.33972608672892e+004,-8.51684242756778e+000,-8.10086238213699e-001

8.45614432449099e+004,-8.51683696540066e+000,-8.21394868274136e-001

8.57418770029029e+004,-8.51683134968089e+000,-8.32861371441538e-001

8.69387890020841e+004,-8.51682557609218e+000,-8.44487951988192e-001

8.81524092701283e+004,-8.51681964019676e+000,-8.56276844977027e-001

8.93829710457770e+004,-8.51681353743211e+000,-8.68230316690879e-001

9.06307108236633e+004,-8.51680726310776e+000,-8.80350665067581e-001

9.18958683997622e+004,-8.51680081240105e+000,-8.92640220147022e-001

9.31786869174758e+004,-8.51679418035396e+000,-9.05101344516090e-001

9.44794129143618e+004,-8.51678736186912e+000,-9.17736433765801e-001

9.57982963695136e+004,-8.51678035170586e+000,-9.30547916952679e-001

9.71355907516031e+004,-8.51677314447632e+000,-9.43538257066777e-001

9.84915530675926e+004,-8.51676573464104e+000,-9.56709951507376e-001

9.98664439121282e+004,-8.51675811650493e+000,-9.70065532563419e-001

1.01260527517622e+005,-8.51675028421307e+000,-9.83607567900832e-001

1.02674071805032e+005,-8.51674223174563e+000,-9.97338661060804e-001

1.04107348435354e+005,-8.51673395291382e+000,-1.01126145195857e+000

1.05560632861831e+005,-8.51672544135495e+000,-1.02537861739399e+000

1.07034204382888e+005,-8.51671669052747e+000,-1.03969287156707e+000

1.08528346195813e+005,-8.51670769370587e+000,-1.05420696660356e+000

1.10043345451179e+005,-8.51669844397583e+000,-1.06892369308265e+000

1.11579493308032e+005,-8.51668893422861e+000,-1.08384588057809e+000

1.13137084989847e+005,-8.51667915715579e+000,-1.09897639820226e+000

1.14716419841265e+005,-8.51666910524352e+000,-1.11431815516120e+000

1.16317801385624e+005,-8.51665877076672e+000,-1.12987410131571e+000

1.17941537383287e+005,-8.51664814578335e+000,-1.14564722775004e+000

1.19587939890794e+005,-8.51663722212824e+000,-1.16164056734957e+000

1.21257325320831e+005,-8.51662599140661e+000,-1.17785719538710e+000

1.22950014503040e+005,-8.51661444498800e+000,-1.19430023011540e+000

1.24666332745679e+005,-8.51660257399912e+000,-1.21097283337156e+000

1.26406609898139e+005,-8.51659036931775e+000,-1.22787821118416e+000

1.28171180414339e+005,-8.51657782156505e+000,-1.24501961439564e+000

1.29960383416997e+005,-8.51656492109887e+000,-1.26240033928887e+000

1.31774562762811e+005,-8.51655165800592e+000,-1.28002372822520e+000

1.33614067108538e+005,-8.51653802209458e+000,-1.29789317028863e+000

1.35479249978003e+005,-8.51652400288677e+000,-1.31601210194243e+000

1.37370469830040e+005,-8.51650958961010e+000,-1.33438400769215e+000

1.39288090127379e+005,-8.51649477118936e+000,-1.35301242076137e+000

1.41232479406504e+005,-8.51647953623840e+000,-1.37190092377208e+000

1.43204011348474e+005,-8.51646387305100e+000,-1.39105314944032e+000

1.45203064850745e+005,-8.51644776959223e+000,-1.41047278127672e+000

1.47230024099979e+005,-8.51643121348897e+000,-1.43016355430013e+000

1.49285278645888e+005,-8.51641419202041e+000,-1.45012925576182e+000

1.51369223476094e+005,-8.51639669210864e+000,-1.47037372587486e+000

1.53482259092041e+005,-8.51637870030818e+000,-1.49090085856153e+000

1.55624791585964e+005,-8.51636020279585e+000,-1.51171460220480e+000

1.57797232718936e+005,-8.51634118536028e+000,-1.53281896041381e+000

1.59999999999999e+005,-8.51632163339079e+000,-1.55421799279973e+000

1.62233516766403e+005,-8.51630153186649e+000,-1.57591581576091e+000

1.64498212264969e+005,-8.51628086534438e+000,-1.59791660328297e+000

1.66794521734578e+005,-8.51625961794780e+000,-1.62022458774557e+000

1.69122886489819e+005,-8.51623777335419e+000,-1.64284406074466e+000

1.71483754005805e+005,-8.51621531478252e+000,-1.66577937392375e+000

1.73877578004168e+005,-8.51619222498048e+000,-1.68903493981885e+000

1.76304818540256e+005,-8.51616848621116e+000,-1.71261523271425e+000

1.78765942091554e+005,-8.51614408023976e+000,-1.73652478951055e+000

1.81261421647326e+005,-8.51611898831908e+000,-1.76076821060661e+000

1.83791736799524e+005,-8.51609319117574e+000,-1.78535016079176e+000

1.86357373834951e+005,-8.51606666899508e+000,-1.81027537015209e+000

1.88958825828723e+005,-8.51603940140592e+000,-1.83554863499107e+000

1.91596592739027e+005,-8.51601136746529e+000,-1.86117481875940e+000

1.94271181503206e+005,-8.51598254564196e+000,-1.88715885300290e+000

1.96983106135185e+005,-8.51595291380039e+000,-1.91350573831980e+000

1.99732887824256e+005,-8.51592244918336e+000,-1.94022054533525e+000

2.02521055035243e+005,-8.51589112839495e+000,-1.96730841568688e+000

2.05348143610063e+005,-8.51585892738225e+000,-1.99477456302699e+000

2.08214696870707e+005,-8.51582582141719e+000,-2.02262427403759e+000

2.11121265723661e+005,-8.51579178507765e+000,-2.05086290945945e+000

2.14068408765776e+005,-8.51575679222776e+000,-2.07949590513872e+000

2.17056692391625e+005,-8.51572081599813e+000,-2.10852877308574e+000

2.20086690902357e+005,-8.51568382876518e+000,-2.13796710255061e+000

2.23158986616063e+005,-8.51564580212996e+000,-2.16781656111425e+000

2.26274169979693e+005,-8.51560670689673e+000,-2.19808289579361e+000

2.29432839682530e+005,-8.51556651305014e+000,-2.22877193416612e+000

2.32635602771247e+005,-8.51552518973272e+000,-2.25988958550672e+000

2.35883074766574e+005,-8.51548270522103e+000,-2.29144184194436e+000

2.39175879781588e+005,-8.51543902690158e+000,-2.32343477963265e+000

2.42514650641661e+005,-8.51539412124563e+000,-2.35587455994095e+000

2.45900029006080e+005,-8.51534795378408e+000,-2.38876743065785e+000

2.49332665491357e+005,-8.51530048908045e+000,-2.42211972721795e+000

2.52813219796278e+005,-8.51525169070443e+000,-2.45593787394123e+000

2.56342360828676e+005,-8.51520152120367e+000,-2.49022838529424e+000

2.59920766833993e+005,-8.51514994207534e+000,-2.52499786716742e+000

2.63549125525621e+005,-8.51509691373668e+000,-2.56025301817255e+000

2.67228134217075e+005,-8.51504239549481e+000,-2.59600063095834e+000

2.70958499956006e+005,-8.51498634551576e+000,-2.63224759354507e+000

2.74740939660078e+005,-8.51492872079230e+000,-2.66900089068031e+000

2.78576180254757e+005,-8.51486947711134e+000,-2.70626760521279e+000

2.82464958813007e+005,-8.51480856902019e+000,-2.74405491948732e+000

2.86408022696948e+005,-8.51474594979196e+000,-2.78237011675976e+000

2.90406129701488e+005,-8.51468157138967e+000,-2.82122058263412e+000

2.94460048199957e+005,-8.51461538442985e+000,-2.86061380652015e+000

2.98570557291775e+005,-8.51454733814503e+000,-2.90055738311050e+000

3.02738446952187e+005,-8.51447738034469e+000,-2.94105901388427e+000

3.06964518184081e+005,-8.51440545737589e+000,-2.98212650862818e+000

3.11249583171928e+005,-8.51433151408230e+000,-3.02376778698304e+000

3.15594465437872e+005,-8.51425549376197e+000,-3.06599088001388e+000

3.19999999999997e+005,-8.51417733812456e+000,-3.10880393179996e+000

3.24467033532806e+005,-8.51409698724681e+000,-3.15221520105263e+000

3.28996424529938e+005,-8.51401437952694e+000,-3.19623306275497e+000

3.33589043469155e+005,-8.51392945163790e+000,-3.24086600982657e+000

3.38245772979638e+005,-8.51384213847910e+000,-3.28612265481373e+000

3.42967508011610e+005,-8.51375237312723e+000,-3.33201173160396e+000

3.47755156008335e+005,-8.51366008678513e+000,-3.37854209716842e+000

3.52609637080511e+005,-8.51356520872958e+000,-3.42572273332889e+000

3.57531884183106e+005,-8.51346766625793e+000,-3.47356274855087e+000

3.62522843294651e+005,-8.51336738463246e+000,-3.52207137976736e+000

3.67583473599047e+005,-8.51326428702418e+000,-3.57125799422576e+000

3.72714747669902e+005,-8.51315829445418e+000,-3.62113209136700e+000

3.77917651657445e+005,-8.51304932573409e+000,-3.67170330473005e+000

3.83193185478053e+005,-8.51293729740434e+000,-3.72298140388847e+000

3.88542363006410e+005,-8.51282212367105e+000,-3.77497629641480e+000

3.93966212270369e+005,-8.51270371634113e+000,-3.82769802987528e+000

3.99465775648511e+005,-8.51258198475552e+000,-3.88115679385640e+000

4.05042110070485e+005,-8.51245683572059e+000,-3.93536292202189e+000

4.10696287220124e+005,-8.51232817343789e+000,-3.99032689420125e+000

4.16429393741414e+005,-8.51219589943136e+000,-4.04605933851279e+000

4.22242531447321e+005,-8.51205991247350e+000,-4.10257103351644e+000

4.28136817531551e+005,-8.51192010850854e+000,-4.15987291040344e+000

4.34113384783250e+005,-8.51177638057418e+000,-4.21797605521813e+000

4.40173381804713e+005,-8.51162861872080e+000,-4.27689171111588e+000

4.46317973232124e+005,-8.51147670992882e+000,-4.33663128065552e+000

4.52548339959385e+005,-8.51132053802330e+000,-4.39720632812957e+000

4.58865679365059e+005,-8.51115998358678e+000,-4.45862858192956e+000

4.65271205542494e+005,-8.51099492386928e+000,-4.52090993695042e+000

4.71766149533147e+005,-8.51082523269606e+000,-4.58406245703269e+000

4.78351759563174e+005,-8.51065078037292e+000,-4.64809837744323e+000

4.85029301283321e+005,-8.51047143358875e+000,-4.71303010739702e+000

4.91800058012158e+005,-8.51028705531555e+000,-4.77887023261833e+000

4.98665330982714e+005,-8.51009750470563e+000,-4.84563151794455e+000

5.05626439592555e+005,-8.50990263698625e+000,-4.91332690997076e+000

5.12684721657352e+005,-8.50970230335114e+000,-4.98196953973875e+000

5.19841533667984e+005,-8.50949635084919e+000,-5.05157272546910e+000

5.27098251051240e+005,-8.50928462227018e+000,-5.12214997533825e+000

5.34456268434150e+005,-8.50906695602733e+000,-5.19371499030225e+000

5.41916999912011e+005,-8.50884318603670e+000,-5.26628166696502e+000

