Freq.,VOut,OutRef

1.00000000000000e+004,-1.77477878173863e+001,-6.62223729743641e-002

1.01395947979003e+004,-1.77477878530138e+001,-6.71468027554483e-002

1.02811382665607e+004,-1.77477878896428e+001,-6.80841370927722e-002

1.04246576084112e+004,-1.77477879273016e+001,-6.90345561245987e-002

1.05701804056138e+004,-1.77477879660192e+001,-6.99982425077002e-002

1.07177346253629e+004,-1.77477880058252e+001,-7.09753814466927e-002

1.08673486252606e+004,-1.77477880467502e+001,-7.19661607336300e-002

1.10190511587661e+004,-1.77477880888258e+001,-7.29707707779907e-002

1.11728713807222e+004,-1.77477881320846e+001,-7.39894046492686e-002

1.13288388529580e+004,-1.77477881765593e+001,-7.50222581160828e-002

1.14869835499703e+004,-1.77477882222843e+001,-7.60695296741014e-002

1.16473358646846e+004,-1.77477882692951e+001,-7.71314205908495e-002

1.18099266142953e+004,-1.77477883176274e+001,-7.82081349474674e-002

1.19747870461893e+004,-1.77477883673186e+001,-7.92998796687756e-002

1.21419488439505e+004,-1.77477884184064e+001,-8.04068645745682e-002

1.23114441334492e+004,-1.77477884709309e+001,-8.15293024039095e-002

1.24833054890161e+004,-1.77477885249319e+001,-8.26674088762807e-002

1.26575659397028e+004,-1.77477885804510e+001,-8.38214027145214e-002

1.28342589756290e+004,-1.77477886375311e+001,-8.49915056986643e-002

1.30134185544193e+004,-1.77477886962160e+001,-8.61779427026562e-002

1.31950791077289e+004,-1.77477887565507e+001,-8.73809417418488e-002

1.33792755478611e+004,-1.77477888185815e+001,-8.86007340140172e-002

1.35660432744767e+004,-1.77477888823564e+001,-8.98375539411140e-002

1.37554181813974e+004,-1.77477889479240e+001,-9.10916392233318e-002

1.39474366635040e+004,-1.77477890153353e+001,-9.23632308710039e-002

1.41421356237309e+004,-1.77477890846416e+001,-9.36525732673338e-002

1.43395524801583e+004,-1.77477891558963e+001,-9.49599142020979e-002

1.45397251732031e+004,-1.77477892291544e+001,-9.62855049240232e-002

1.47426921729110e+004,-1.77477893044720e+001,-9.76296001916352e-002

1.49484924863494e+004,-1.77477893819068e+001,-9.89924583182752e-002

1.51571656651040e+004,-1.77477894615189e+001,-1.00374341221040e-001

1.53687518128801e+004,-1.77477895433691e+001,-1.01775514477569e-001

1.55832915932100e+004,-1.77477896275206e+001,-1.03196247368223e-001

1.58008262372675e+004,-1.77477897140376e+001,-1.04636812938460e-001

1.60213975517924e+004,-1.77477898029872e+001,-1.06097488037757e-001

1.62450479271247e+004,-1.77477898944374e+001,-1.07578553386511e-001

1.64718203453514e+004,-1.77477899884586e+001,-1.09080293619796e-001

1.67017583885674e+004,-1.77477900851232e+001,-1.10602997348220e-001

1.69349062472505e+004,-1.77477901845052e+001,-1.12146957211360e-001

1.71713087287550e+004,-1.77477902866813e+001,-1.13712469931345e-001

1.74110112659224e+004,-1.77477903917301e+001,-1.15299836374548e-001

1.76540599258131e+004,-1.77477904997320e+001,-1.16909361608054e-001

1.79005014185594e+004,-1.77477906107704e+001,-1.18541354954506e-001

1.81503831063432e+004,-1.77477907249304e+001,-1.20196130057240e-001

1.84037530124975e+004,-1.77477908423000e+001,-1.21874004936141e-001

1.86606598307361e+004,-1.77477909629692e+001,-1.23575302051393e-001

1.89211529345119e+004,-1.77477910870310e+001,-1.25300348363347e-001

1.91852823865052e+004,-1.77477912145804e+001,-1.27049475399864e-001

1.94530989482457e+004,-1.77477913457159e+001,-1.28823019310785e-001

1.97246540898671e+004,-1.77477914805380e+001,-1.30621320945108e-001

1.99999999999999e+004,-1.77477916191506e+001,-1.32444725903688e-001

2.02791895958005e+004,-1.77477917616601e+001,-1.34293584616148e-001

2.05622765331213e+004,-1.77477919081759e+001,-1.36168252403076e-001

2.08493152168224e+004,-1.77477920588110e+001,-1.38069089541847e-001

2.11403608112276e+004,-1.77477922136809e+001,-1.39996461344550e-001

2.14354692507258e+004,-1.77477923729049e+001,-1.41950738217195e-001

2.17346972505211e+004,-1.77477925366053e+001,-1.43932295740183e-001

2.20381023175322e+004,-1.77477927049078e+001,-1.45941514736429e-001

2.23457427614443e+004,-1.77477928779420e+001,-1.47978781342548e-001

2.26576777059159e+004,-1.77477930558408e+001,-1.50044487087448e-001

2.29739670999406e+004,-1.77477932387411e+001,-1.52139028964574e-001

2.32946717293690e+004,-1.77477934267833e+001,-1.54262809510338e-001

2.36198532285905e+004,-1.77477936201121e+001,-1.56416236878469e-001

2.39495740923785e+004,-1.77477938188762e+001,-1.58599724920699e-001

2.42838976879009e+004,-1.77477940232281e+001,-1.60813693267763e-001

2.46228882668982e+004,-1.77477942333254e+001,-1.63058567404548e-001

2.49666109780322e+004,-1.77477944493291e+001,-1.65334778759504e-001

2.53151318794055e+004,-1.77477946714056e+001,-1.67642764779712e-001

2.56685179512580e+004,-1.77477948997255e+001,-1.69982969021297e-001

2.60268371088386e+004,-1.77477951344643e+001,-1.72355841231728e-001

2.63901582154578e+004,-1.77477953758023e+001,-1.74761837435855e-001

2.67585510957221e+004,-1.77477956239255e+001,-1.77201420022998e-001

2.71320865489533e+004,-1.77477958790243e+001,-1.79675057839531e-001

2.75108363627948e+004,-1.77477961412948e+001,-1.82183226276708e-001

2.78948733270080e+004,-1.77477964109388e+001,-1.84726407358621e-001

2.82842712474618e+004,-1.77477966881634e+001,-1.87305089842112e-001

2.86791049603164e+004,-1.77477969731819e+001,-1.89919769303580e-001

2.90794503464061e+004,-1.77477972662134e+001,-1.92570948238094e-001

2.94853843458219e+004,-1.77477975674830e+001,-1.95259136157030e-001

2.98969849726987e+004,-1.77477978772224e+001,-1.97984849681008e-001

3.03143313302078e+004,-1.77477981956699e+001,-2.00748612643631e-001

3.07375036257601e+004,-1.77477985230700e+001,-2.03550956191567e-001

3.11665831864199e+004,-1.77477988596746e+001,-2.06392418885168e-001

3.16016524745350e+004,-1.77477992057424e+001,-2.09273546802423e-001

3.20427951035848e+004,-1.77477995615395e+001,-2.12194893644135e-001

3.24900958542493e+004,-1.77477999273392e+001,-2.15157020840825e-001

3.29436406907028e+004,-1.77478003034232e+001,-2.18160497657931e-001

3.34035167771346e+004,-1.77478006900800e+001,-2.21205901311970e-001

3.38698124945009e+004,-1.77478010876074e+001,-2.24293817070623e-001

3.43426174575100e+004,-1.77478014963106e+001,-2.27424838377234e-001

3.48220225318448e+004,-1.77478019165041e+001,-2.30599566955113e-001

3.53081198516260e+004,-1.77478023485106e+001,-2.33818612928983e-001

3.58010028371187e+004,-1.77478027926626e+001,-2.37082594938761e-001

3.63007662126863e+004,-1.77478032493014e+001,-2.40392140260834e-001

3.68075060249948e+004,-1.77478037187777e+001,-2.43747884929996e-001

3.73213196614721e+004,-1.77478042014531e+001,-2.47150473853851e-001

3.78423058690237e+004,-1.77478046976980e+001,-2.50600560948753e-001

3.83705647730104e+004,-1.77478052078943e+001,-2.54098809253495e-001

3.89061978964912e+004,-1.77478057324340e+001,-2.57645891066370e-001

3.94493081797342e+004,-1.77478062717206e+001,-2.61242488067261e-001

3.99999999999998e+004,-1.77478068261684e+001,-2.64889291453337e-001

4.05583791916010e+004,-1.77478073962039e+001,-2.68587002068692e-001

4.11245530662425e+004,-1.77478079822650e+001,-2.72336330542585e-001

4.16986304336447e+004,-1.77478085848025e+001,-2.76137997421554e-001

4.22807216224550e+004,-1.77478092042795e+001,-2.79992733311388e-001

4.28709385014515e+004,-1.77478098411723e+001,-2.83901279015473e-001

4.34693945010421e+004,-1.77478104959706e+001,-2.87864385678322e-001

4.40762046350642e+004,-1.77478111691775e+001,-2.91882814930245e-001

4.46914855228886e+004,-1.77478118613108e+001,-2.95957339031975e-001

4.53153554118317e+004,-1.77478125729024e+001,-3.00088741024361e-001

4.59479341998812e+004,-1.77478133044995e+001,-3.04277814877952e-001

4.65893434587380e+004,-1.77478140566643e+001,-3.08525365647584e-001

4.72397064571810e+004,-1.77478148299753e+001,-3.12832209623511e-001

4.78991481847569e+004,-1.77478156250267e+001,-3.17199174492875e-001

4.85677953758016e+004,-1.77478164424301e+001,-3.21627099492570e-001

4.92457765337964e+004,-1.77478172828135e+001,-3.26116835577866e-001

4.99332219560642e+004,-1.77478181468231e+001,-3.30669245580227e-001

5.06302637588109e+004,-1.77478190351231e+001,-3.35285204375312e-001

5.13370359025159e+004,-1.77478199483965e+001,-3.39965599049379e-001

5.20536742176771e+004,-1.77478208873451e+001,-3.44711329074467e-001

5.27803164309155e+004,-1.77478218526911e+001,-3.49523306473897e-001

5.35171021914442e+004,-1.77478228451762e+001,-3.54402456004900e-001

5.42641730979066e+004,-1.77478238655636e+001,-3.59349715330784e-001

5.50216727255895e+004,-1.77478249146379e+001,-3.64366035202717e-001

5.57897466540159e+004,-1.77478259932053e+001,-3.69452379644105e-001

5.65685424949235e+004,-1.77478271020949e+001,-3.74609726135143e-001

5.73582099206328e+004,-1.77478282421594e+001,-3.79839065797481e-001

5.81589006928121e+004,-1.77478294142750e+001,-3.85141403589653e-001

5.89707686916437e+004,-1.77478306193430e+001,-3.90517758495202e-001

5.97939699453972e+004,-1.77478318582895e+001,-3.95969163723744e-001

6.06286626604156e+004,-1.77478331320673e+001,-4.01496666903267e-001

6.14750072515201e+004,-1.77478344416552e+001,-4.07101330287934e-001

6.23331663728396e+004,-1.77478357880603e+001,-4.12784230956092e-001

6.32033049490698e+004,-1.77478371723175e+001,-4.18546461021775e-001

6.40855902071694e+004,-1.77478385954909e+001,-4.24389127842114e-001

6.49801917084985e+004,-1.77478400586744e+001,-4.30313354231283e-001

6.58872813814055e+004,-1.77478415629932e+001,-4.36320278674436e-001

6.68070335542691e+004,-1.77478431096035e+001,-4.42411055548013e-001

6.77396249890018e+004,-1.77478446996942e+001,-4.48586855341731e-001

6.86852349150199e+004,-1.77478463344877e+001,-4.54848864882580e-001

6.96440450636895e+004,-1.77478480152407e+001,-4.61198287561668e-001

7.06162397032520e+004,-1.77478497432454e+001,-4.67636343567969e-001

7.16020056742374e+004,-1.77478515198300e+001,-4.74164270121280e-001

7.26015324253724e+004,-1.77478533463604e+001,-4.80783321708601e-001

7.36150120499896e+004,-1.77478552242406e+001,-4.87494770328754e-001

7.46426393229441e+004,-1.77478571549142e+001,-4.94299905732591e-001

7.56846117380472e+004,-1.77478591398653e+001,-5.01200035673748e-001

7.67411295460207e+004,-1.77478611806199e+001,-5.08196486157483e-001

7.78123957929823e+004,-1.77478632787468e+001,-5.15290601696789e-001

7.88986163594682e+004,-1.77478654358588e+001,-5.22483745571208e-001

7.99999999999995e+004,-1.77478676536141e+001,-5.29777300086898e-001

8.11167583832018e+004,-1.77478699337177e+001,-5.37172666842823e-001

8.22491061324848e+004,-1.77478722779222e+001,-5.44671267001570e-001

8.33972608672892e+004,-1.77478746880297e+001,-5.52274541559438e-001

8.45614432449099e+004,-1.77478771658930e+001,-5.59983951624071e-001

8.57418770029029e+004,-1.77478797134167e+001,-5.67800978697814e-001

8.69387890020841e+004,-1.77478823325593e+001,-5.75727124957372e-001

8.81524092701283e+004,-1.77478850253339e+001,-5.83763913546724e-001

8.93829710457770e+004,-1.77478877938108e+001,-5.91912888866383e-001

9.06307108236633e+004,-1.77478906401181e+001,-6.00175616872021e-001

9.18958683997622e+004,-1.77478935664435e+001,-6.08553685374936e-001

9.31786869174758e+004,-1.77478965750368e+001,-6.17048704345251e-001

9.44794129143618e+004,-1.77478996682106e+001,-6.25662306223036e-001

9.57982963695136e+004,-1.77479028483427e+001,-6.34396146230260e-001

9.71355907516031e+004,-1.77479061178775e+001,-6.43251902690797e-001

9.84915530675926e+004,-1.77479094793286e+001,-6.52231277349177e-001

9.98664439121282e+004,-1.77479129352796e+001,-6.61335995700261e-001

1.01260527517622e+005,-1.77479164883873e+001,-6.70567807319995e-001

1.02674071805032e+005,-1.77479201413829e+001,-6.79928486199288e-001

1.04107348435354e+005,-1.77479238970745e+001,-6.89419831087628e-001

1.05560632861831e+005,-1.77479277583489e+001,-6.99043665836572e-001

1.07034204382888e+005,-1.77479317281743e+001,-7.08801839748880e-001

1.08528346195813e+005,-1.77479358096022e+001,-7.18696227936456e-001

1.10043345451179e+005,-1.77479400057700e+001,-7.28728731677349e-001

1.11579493308032e+005,-1.77479443199032e+001,-7.38901278782217e-001

1.13137084989847e+005,-1.77479487553178e+001,-7.49215823964434e-001

1.14716419841265e+005,-1.77479533154235e+001,-7.59674349214232e-001

1.16317801385624e+005,-1.77479580037252e+001,-7.70278864179775e-001

1.17941537383287e+005,-1.77479628238270e+001,-7.81031406552735e-001

1.19587939890794e+005,-1.77479677794336e+001,-7.91934042460109e-001

1.21257325320831e+005,-1.77479728743544e+001,-8.02988866859215e-001

1.22950014503040e+005,-1.77479781125056e+001,-8.14198003939793e-001

1.24666332745679e+005,-1.77479834979135e+001,-8.25563607533836e-001

1.26406609898139e+005,-1.77479890347176e+001,-8.37087861526196e-001

1.28171180414339e+005,-1.77479947271739e+001,-8.48772980274130e-001

1.29960383416997e+005,-1.77480005796577e+001,-8.60621209033693e-001

1.31774562762811e+005,-1.77480065966676e+001,-8.72634824389127e-001

1.33614067108538e+005,-1.77480127828285e+001,-8.84816134689299e-001

1.35479249978003e+005,-1.77480191428952e+001,-8.97167480491952e-001

1.37370469830040e+005,-1.77480256817563e+001,-9.09691235011466e-001

1.39288090127379e+005,-1.77480324044378e+001,-9.22389804573476e-001

1.41232479406504e+005,-1.77480393161068e+001,-9.35265629078959e-001

1.43204011348474e+005,-1.77480464220758e+001,-9.48321182469199e-001

1.45203064850745e+005,-1.77480537278066e+001,-9.61558973202224e-001

1.47230024099979e+005,-1.77480612389144e+001,-9.74981544732076e-001

1.49285278645888e+005,-1.77480689611721e+001,-9.88591475999348e-001

1.51369223476094e+005,-1.77480769005153e+001,-1.00239138192236e+000

1.53482259092041e+005,-1.77480850630461e+001,-1.01638391390047e+000

1.55624791585964e+005,-1.77480934550380e+001,-1.03057176032220e+000

1.57797232718936e+005,-1.77481020829410e+001,-1.04495764707991e+000

1.59999999999999e+005,-1.77481109533865e+001,-1.05954433809283e+000

1.62233516766403e+005,-1.77481200731919e+001,-1.07433463583718e+000

1.64498212264969e+005,-1.77481294493664e+001,-1.08933138188233e+000

1.66794521734578e+005,-1.77481390891164e+001,-1.10453745743538e+000

1.69122886489819e+005,-1.77481489998503e+001,-1.11995578389516e+000

1.71483754005805e+005,-1.77481591891852e+001,-1.13558932340914e+000

1.73877578004168e+005,-1.77481696649521e+001,-1.15144107944298e+000

1.76304818540256e+005,-1.77481804352018e+001,-1.16751409735556e+000

1.78765942091554e+005,-1.77481915082118e+001,-1.18381146498148e+000

1.81261421647326e+005,-1.77482028924919e+001,-1.20033631322387e+000

1.83791736799524e+005,-1.77482145967910e+001,-1.21709181665306e+000

1.86357373834951e+005,-1.77482266301042e+001,-1.23408119411428e+000

1.88958825828723e+005,-1.77482390016790e+001,-1.25130770934534e+000

1.91596592739027e+005,-1.77482517210229e+001,-1.26877467160033e+000

1.94271181503206e+005,-1.77482647979107e+001,-1.28648543628336e+000

1.96983106135185e+005,-1.77482782423915e+001,-1.30444340559155e+000

1.99732887824256e+005,-1.77482920647972e+001,-1.32265202916518e+000

2.02521055035243e+005,-1.77483062757497e+001,-1.34111480474907e+000

2.05348143610063e+005,-1.77483208861695e+001,-1.35983527886088e+000

2.08214696870707e+005,-1.77483359072838e+001,-1.37881704747020e+000

2.11121265723661e+005,-1.77483513506356e+001,-1.39806375668644e+000

2.14068408765776e+005,-1.77483672280917e+001,-1.41757910345647e+000

2.17056692391625e+005,-1.77483835518528e+001,-1.43736683627126e+000

2.20086690902357e+005,-1.77484003344622e+001,-1.45743075588239e+000

2.23158986616063e+005,-1.77484175888154e+001,-1.47777471603125e+000

2.26274169979693e+005,-1.77484353281705e+001,-1.49840262418195e+000

2.29432839682530e+005,-1.77484535661581e+001,-1.51931844227112e+000

2.32635602771247e+005,-1.77484723167915e+001,-1.54052618746447e+000

2.35883074766574e+005,-1.77484915944777e+001,-1.56202993292401e+000

2.39175879781588e+005,-1.77485114140286e+001,-1.58383380858677e+000

2.42514650641661e+005,-1.77485317906721e+001,-1.60594200195323e+000

2.45900029006080e+005,-1.77485527400639e+001,-1.62835875888734e+000

2.49332665491357e+005,-1.77485742782994e+001,-1.65108838442855e+000

2.52813219796278e+005,-1.77485964219264e+001,-1.67413524361138e+000

2.56342360828676e+005,-1.77486191879571e+001,-1.69750376230070e+000

2.59920766833993e+005,-1.77486425938818e+001,-1.72119842803613e+000

2.63549125525621e+005,-1.77486666576821e+001,-1.74522379088767e+000

2.67228134217075e+005,-1.77486913978446e+001,-1.76958446432428e+000

2.70958499956006e+005,-1.77487168333751e+001,-1.79428512609378e+000

2.74740939660078e+005,-1.77487429838131e+001,-1.81933051911557e+000

2.78576180254757e+005,-1.77487698692471e+001,-1.84472545238359e+000

2.82464958813007e+005,-1.77487975103297e+001,-1.87047480188451e+000

2.86408022696948e+005,-1.77488259282933e+001,-1.89658351152611e+000

2.90406129701488e+005,-1.77488551449668e+001,-1.92305659407941e+000

2.94460048199957e+005,-1.77488851827920e+001,-1.94989913213384e+000

2.98570557291775e+005,-1.77489160648409e+001,-1.97711627906496e+000

3.02738446952187e+005,-1.77489478148333e+001,-2.00471326001596e+000

3.06964518184081e+005,-1.77489804571551e+001,-2.03269537289133e+000

3.11249583171928e+005,-1.77490140168770e+001,-2.06106798936634e+000

3.15594465437872e+005,-1.77490485197733e+001,-2.08983655590775e+000

3.19999999999997e+005,-1.77490839923423e+001,-2.11900659481089e+000

3.24467033532806e+005,-1.77491204618259e+001,-2.14858370524793e+000

3.28996424529938e+005,-1.77491579562311e+001,-2.17857356433370e+000

3.33589043469155e+005,-1.77491965043509e+001,-2.20898192820385e+000

3.38245772979638e+005,-1.77492361357867e+001,-2.23981463310794e+000

3.42967508011610e+005,-1.77492768809708e+001,-2.27107759651783e+000

3.47755156008335e+005,-1.77493187711895e+001,-2.30277681825131e+000

3.52609637080511e+005,-1.77493618386076e+001,-2.33491838161015e+000

3.57531884183106e+005,-1.77494061162924e+001,-2.36750845453423e+000

3.62522843294651e+005,-1.77494516382392e+001,-2.40055329077150e+000

3.67583473599047e+005,-1.77494984393976e+001,-2.43405923106226e+000

3.72714747669902e+005,-1.77495465556978e+001,-2.46803270434180e+000

3.77917651657445e+005,-1.77495960240782e+001,-2.50248022895743e+000

3.83193185478053e+005,-1.77496468825137e+001,-2.53740841390253e+000

3.88542363006410e+005,-1.77496991700448e+001,-2.57282396006724e+000

3.93966212270369e+005,-1.77497529268072e+001,-2.60873366150634e+000

3.99465775648511e+005,-1.77498081940626e+001,-2.64514440672303e+000

4.05042110070485e+005,-1.77498650142305e+001,-2.68206317997183e+000

4.10696287220124e+005,-1.77499234309199e+001,-2.71949706257648e+000

4.16429393741414e+005,-1.77499834889633e+001,-2.75745323426823e+000

4.22242531447321e+005,-1.77500452344507e+001,-2.79593897454016e+000

4.28136817531551e+005,-1.77501087147643e+001,-2.83496166402047e+000

4.34113384783250e+005,-1.77501739786158e+001,-2.87452878586245e+000

4.40173381804713e+005,-1.77502410760822e+001,-2.91464792715654e+000

4.46317973232124e+005,-1.77503100586451e+001,-2.95532678035727e+000

4.52548339959385e+005,-1.77503809792294e+001,-2.99657314473147e+000

4.58865679365059e+005,-1.77504538922439e+001,-3.03839492782538e+000

4.65271205542494e+005,-1.77505288536223e+001,-3.08080014695092e+000

4.71766149533147e+005,-1.77506059208668e+001,-3.12379693069111e+000

4.78351759563174e+005,-1.77506851530908e+001,-3.16739352042695e+000

4.85029301283321e+005,-1.77507666110648e+001,-3.21159827188269e+000

4.91800058012158e+005,-1.77508503572623e+001,-3.25641965669261e+000

4.98665330982714e+005,-1.77509364559073e+001,-3.30186626398825e+000

5.05626439592555e+005,-1.77510249730234e+001,-3.34794680200622e+000

5.12684721657352e+005,-1.77511159764839e+001,-3.39467009971719e+000

5.19841533667984e+005,-1.77512095360635e+001,-3.44204510847561e+000

5.27098251051240e+005,-1.77513057234915e+001,-3.49008090369260e+000

5.34456268434150e+005,-1.77514046125061e+001,-3.53878668652918e+000

5.41916999912011e+005,-1.77515062789104e+001,-3.58817178561164e+000

