Freq.,VOut,OutRef

1.00000000000000e+004,-2.02393743938043e+001,-1.15618690065320e-001

1.01395947979003e+004,-2.02393745370155e+001,-1.17232666129446e-001

1.02811382665607e+004,-2.02393746842529e+001,-1.18869172430000e-001

1.04246576084112e+004,-2.02393748356298e+001,-1.20528523475601e-001

1.05701804056138e+004,-2.02393749912623e+001,-1.22211038166722e-001

1.07177346253629e+004,-2.02393751512703e+001,-1.23917039853844e-001

1.08673486252606e+004,-2.02393753157767e+001,-1.25646856401581e-001

1.10190511587661e+004,-2.02393754849081e+001,-1.27400820251522e-001

1.11728713807222e+004,-2.02393756587944e+001,-1.29179268486440e-001

1.13288388529580e+004,-2.02393758375691e+001,-1.30982542893836e-001

1.14869835499703e+004,-2.02393760213701e+001,-1.32810990031524e-001

1.16473358646846e+004,-2.02393762103383e+001,-1.34664961296659e-001

1.18099266142953e+004,-2.02393764046192e+001,-1.36544812990912e-001

1.19747870461893e+004,-2.02393766043620e+001,-1.38450906390107e-001

1.21419488439505e+004,-2.02393768097203e+001,-1.40383607812607e-001

1.23114441334492e+004,-2.02393770208521e+001,-1.42343288689960e-001

1.24833054890161e+004,-2.02393772379195e+001,-1.44330325639598e-001

1.26575659397028e+004,-2.02393774610895e+001,-1.46345100535713e-001

1.28342589756290e+004,-2.02393776905338e+001,-1.48388000582276e-001

1.30134185544193e+004,-2.02393779264285e+001,-1.50459418390850e-001

1.31950791077289e+004,-2.02393781689551e+001,-1.52559752051380e-001

1.33792755478611e+004,-2.02393784183001e+001,-1.54689405211527e-001

1.35660432744767e+004,-2.02393786746551e+001,-1.56848787153256e-001

1.37554181813974e+004,-2.02393789382170e+001,-1.59038312872553e-001

1.39474366635040e+004,-2.02393792091889e+001,-1.61258403156540e-001

1.41421356237309e+004,-2.02393794877788e+001,-1.63509484667772e-001

1.43395524801583e+004,-2.02393797742009e+001,-1.65791990025657e-001

1.45397251732031e+004,-2.02393800686752e+001,-1.68106357886943e-001

1.47426921729110e+004,-2.02393803714285e+001,-1.70453033030871e-001

1.49484924863494e+004,-2.02393806826932e+001,-1.72832466447400e-001

1.51571656651040e+004,-2.02393810027088e+001,-1.75245115420596e-001

1.53687518128801e+004,-2.02393813317212e+001,-1.77691443619066e-001

1.55832915932100e+004,-2.02393816699834e+001,-1.80171921182672e-001

1.58008262372675e+004,-2.02393820177554e+001,-1.82687024814168e-001

1.60213975517924e+004,-2.02393823753045e+001,-1.85237237871263e-001

1.62450479271247e+004,-2.02393827429057e+001,-1.87823050457778e-001

1.64718203453514e+004,-2.02393831208417e+001,-1.90444959519292e-001

1.67017583885674e+004,-2.02393835094027e+001,-1.93103468940774e-001

1.69349062472505e+004,-2.02393839088876e+001,-1.95799089636755e-001

1.71713087287550e+004,-2.02393843196037e+001,-1.98532339655663e-001

1.74110112659224e+004,-2.02393847418663e+001,-2.01303744279041e-001

1.76540599258131e+004,-2.02393851760005e+001,-2.04113836117063e-001

1.79005014185594e+004,-2.02393856223396e+001,-2.06963155218635e-001

1.81503831063432e+004,-2.02393860812271e+001,-2.09852249167418e-001

1.84037530124975e+004,-2.02393865530156e+001,-2.12781673194295e-001

1.86606598307361e+004,-2.02393870380679e+001,-2.15751990277146e-001

1.89211529345119e+004,-2.02393875367567e+001,-2.18763771256020e-001

1.91852823865052e+004,-2.02393880494656e+001,-2.21817594935917e-001

1.94530989482457e+004,-2.02393885765885e+001,-2.24914048204303e-001

1.97246540898671e+004,-2.02393891185309e+001,-2.28053726137683e-001

1.99999999999999e+004,-2.02393896757092e+001,-2.31237232122954e-001

2.02791895958005e+004,-2.02393902485519e+001,-2.34465177965465e-001

2.05622765331213e+004,-2.02393908374994e+001,-2.37738184014386e-001

2.08493152168224e+004,-2.02393914430042e+001,-2.41056879275947e-001

2.11403608112276e+004,-2.02393920655321e+001,-2.44421901537307e-001

2.14354692507258e+004,-2.02393927055615e+001,-2.47833897488446e-001

2.17346972505211e+004,-2.02393933635844e+001,-2.51293522846193e-001

2.20381023175322e+004,-2.02393940401069e+001,-2.54801442479587e-001

2.23457427614443e+004,-2.02393947356488e+001,-2.58358330539938e-001

2.26576777059159e+004,-2.02393954507450e+001,-2.61964870587272e-001

2.29739670999406e+004,-2.02393961859452e+001,-2.65621755724468e-001

2.32946717293690e+004,-2.02393969418144e+001,-2.69329688728772e-001

2.36198532285905e+004,-2.02393977189340e+001,-2.73089382186523e-001

2.39495740923785e+004,-2.02393985179011e+001,-2.76901558632240e-001

2.42838976879009e+004,-2.02393993393302e+001,-2.80766950684005e-001

2.46228882668982e+004,-2.02394001838526e+001,-2.84686301187386e-001

2.49666109780322e+004,-2.02394010521176e+001,-2.88660363357924e-001

2.53151318794055e+004,-2.02394019447927e+001,-2.92689900922719e-001

2.56685179512580e+004,-2.02394028625640e+001,-2.96775688271678e-001

2.60268371088386e+004,-2.02394038061372e+001,-3.00918510601679e-001

2.63901582154578e+004,-2.02394047762376e+001,-3.05119164071325e-001

2.67585510957221e+004,-2.02394057736111e+001,-3.09378455951857e-001

2.71320865489533e+004,-2.02394067990243e+001,-3.13697204782453e-001

2.75108363627948e+004,-2.02394078532655e+001,-3.18076240527727e-001

2.78948733270080e+004,-2.02394089371453e+001,-3.22516404737223e-001

2.82842712474618e+004,-2.02394100514967e+001,-3.27018550708090e-001

2.86791049603164e+004,-2.02394111971765e+001,-3.31583543646266e-001

2.90794503464061e+004,-2.02394123750654e+001,-3.36212260835805e-001

2.94853843458219e+004,-2.02394135860689e+001,-3.40905591804595e-001

2.98969849726987e+004,-2.02394148311180e+001,-3.45664438498256e-001

3.03143313302078e+004,-2.02394161111699e+001,-3.50489715449982e-001

3.07375036257601e+004,-2.02394174272085e+001,-3.55382349960575e-001

3.11665831864199e+004,-2.02394187802455e+001,-3.60343282271834e-001

3.16016524745350e+004,-2.02394201713212e+001,-3.65373465749912e-001

3.20427951035848e+004,-2.02394216015049e+001,-3.70473867068494e-001

3.24900958542493e+004,-2.02394230718959e+001,-3.75645466393974e-001

3.29436406907028e+004,-2.02394245836247e+001,-3.80889257573819e-001

3.34035167771346e+004,-2.02394261378536e+001,-3.86206248325529e-001

3.38698124945009e+004,-2.02394277357770e+001,-3.91597460435269e-001

3.43426174575100e+004,-2.02394293786236e+001,-3.97063929948446e-001

3.48220225318448e+004,-2.02394310676562e+001,-4.02606707372126e-001

3.53081198516260e+004,-2.02394328041734e+001,-4.08226857875247e-001

3.58010028371187e+004,-2.02394345895099e+001,-4.13925461495433e-001

3.63007662126863e+004,-2.02394364250383e+001,-4.19703613342816e-001

3.68075060249948e+004,-2.02394383121695e+001,-4.25562423814796e-001

3.73213196614721e+004,-2.02394402523545e+001,-4.31503018803718e-001

3.78423058690237e+004,-2.02394422470844e+001,-4.37526539920044e-001

3.83705647730104e+004,-2.02394442978929e+001,-4.43634144704782e-001

3.89061978964912e+004,-2.02394464063564e+001,-4.49827006857359e-001

3.94493081797342e+004,-2.02394485740958e+001,-4.56106316456796e-001

3.99999999999998e+004,-2.02394508027775e+001,-4.62473280193151e-001

4.05583791916010e+004,-2.02394530941148e+001,-4.68929121598230e-001

4.11245530662425e+004,-2.02394554498690e+001,-4.75475081279285e-001

4.16986304336447e+004,-2.02394578718511e+001,-4.82112417160318e-001

4.22807216224550e+004,-2.02394603619229e+001,-4.88842404720762e-001

4.28709385014515e+004,-2.02394629219987e+001,-4.95666337241176e-001

4.34693945010421e+004,-2.02394655540465e+001,-5.02585526052807e-001

4.40762046350642e+004,-2.02394682600893e+001,-5.09601300788390e-001

4.46914855228886e+004,-2.02394710422077e+001,-5.16715009636576e-001

4.53153554118317e+004,-2.02394739025401e+001,-5.23928019602479e-001

4.59479341998812e+004,-2.02394768432854e+001,-5.31241716770290e-001

4.65893434587380e+004,-2.02394798667042e+001,-5.38657506566916e-001

4.72397064571810e+004,-2.02394829751206e+001,-5.46176814035202e-001

4.78991481847569e+004,-2.02394861709241e+001,-5.53801084104145e-001

4.85677953758016e+004,-2.02394894565714e+001,-5.61531781869346e-001

4.92457765337964e+004,-2.02394928345880e+001,-5.69370392872278e-001

4.99332219560642e+004,-2.02394963075709e+001,-5.77318423386089e-001

5.06302637588109e+004,-2.02394998781897e+001,-5.85377400705396e-001

5.13370359025159e+004,-2.02395035491890e+001,-5.93548873437864e-001

5.20536742176771e+004,-2.02395073233910e+001,-6.01834411803150e-001

5.27803164309155e+004,-2.02395112036965e+001,-6.10235607934512e-001

5.35171021914442e+004,-2.02395151930887e+001,-6.18754076181447e-001

5.42641730979066e+004,-2.02395192946341e+001,-6.27391453423374e-001

5.50216727255895e+004,-2.02395235114854e+001,-6.36149399381535e-001

5.57897466540159e+004,-2.02395278468842e+001,-6.45029596938169e-001

5.65685424949235e+004,-2.02395323041630e+001,-6.54033752459655e-001

5.73582099206328e+004,-2.02395368867481e+001,-6.63163596122809e-001

5.81589006928121e+004,-2.02395415981620e+001,-6.72420882249058e-001

5.89707686916437e+004,-2.02395464420264e+001,-6.81807389639016e-001

5.97939699453972e+004,-2.02395514220644e+001,-6.91324921915910e-001

6.06286626604156e+004,-2.02395565421044e+001,-7.00975307868397e-001

6.14750072515201e+004,-2.02395618060818e+001,-7.10760401805510e-001

6.23331663728396e+004,-2.02395672180429e+001,-7.20682083909158e-001

6.32033049490698e+004,-2.02395727821478e+001,-7.30742260596352e-001

6.40855902071694e+004,-2.02395785026733e+001,-7.40942864885445e-001

6.49801917084985e+004,-2.02395843840166e+001,-7.51285856765314e-001

6.58872813814055e+004,-2.02395904306985e+001,-7.61773223572446e-001

6.68070335542691e+004,-2.02395966473667e+001,-7.72406980372253e-001

6.77396249890018e+004,-2.02396030387998e+001,-7.83189170344794e-001

6.86852349150199e+004,-2.02396096099104e+001,-7.94121865177530e-001

6.96440450636895e+004,-2.02396163657495e+001,-8.05207165461426e-001

7.06162397032520e+004,-2.02396233115098e+001,-8.16447201096130e-001

7.16020056742374e+004,-2.02396304525302e+001,-8.27844131694941e-001

7.26015324253724e+004,-2.02396377942994e+001,-8.39400147001667e-001

7.36150120499896e+004,-2.02396453424606e+001,-8.51117467310198e-001

7.46426393229441e+004,-2.02396531028155e+001,-8.62998343888403e-001

7.56846117380472e+004,-2.02396610813287e+001,-8.75045059412154e-001

7.67411295460207e+004,-2.02396692841329e+001,-8.87259928400721e-001

7.78123957929823e+004,-2.02396777175328e+001,-8.99645297661555e-001

7.88986163594682e+004,-2.02396863880102e+001,-9.12203546740567e-001

7.99999999999995e+004,-2.02396953022295e+001,-9.24937088377221e-001

8.11167583832018e+004,-2.02397044670419e+001,-9.37848368966637e-001

8.22491061324848e+004,-2.02397138894918e+001,-9.50939869029394e-001

8.33972608672892e+004,-2.02397235768208e+001,-9.64214103687218e-001

8.45614432449099e+004,-2.02397335364747e+001,-9.77673623142637e-001

8.57418770029029e+004,-2.02397437761081e+001,-9.91321013170024e-001

8.69387890020841e+004,-2.02397543035910e+001,-1.00515889560936e+000

8.81524092701283e+004,-2.02397651270144e+001,-1.01918992886919e+000

8.93829710457770e+004,-2.02397762546968e+001,-1.03341680843525e+000

9.06307108236633e+004,-2.02397876951905e+001,-1.04784226738714e+000

9.18958683997622e+004,-2.02397994572881e+001,-1.06246907692134e+000

9.31786869174758e+004,-2.02398115500291e+001,-1.07730004688203e+000

9.44794129143618e+004,-2.02398239827074e+001,-1.09233802629890e+000

9.57982963695136e+004,-2.02398367648778e+001,-1.10758590393222e+000

9.71355907516031e+004,-2.02398499063638e+001,-1.12304660882664e+000

9.84915530675926e+004,-2.02398634172646e+001,-1.13872311087109e+000

9.98664439121282e+004,-2.02398773079637e+001,-1.15461842136668e+000

1.01260527517622e+005,-2.02398915891360e+001,-1.17073559360386e+000

1.02674071805032e+005,-2.02399062717564e+001,-1.18707772344637e+000

1.04107348435354e+005,-2.02399213671085e+001,-1.20364794992269e+000

1.05560632861831e+005,-2.02399368867926e+001,-1.22044945582700e+000

1.07034204382888e+005,-2.02399528427351e+001,-1.23748546832789e+000

1.08528346195813e+005,-2.02399692471975e+001,-1.25475925958508e+000

1.10043345451179e+005,-2.02399861127859e+001,-1.27227414737528e+000

1.11579493308032e+005,-2.02400034524605e+001,-1.29003349572713e+000

1.13137084989847e+005,-2.02400212795458e+001,-1.30804071556168e+000

1.14716419841265e+005,-2.02400396077403e+001,-1.32629926534782e+000

1.16317801385624e+005,-2.02400584511280e+001,-1.34481265175947e+000

1.17941537383287e+005,-2.02400778241878e+001,-1.36358443034867e+000

1.19587939890794e+005,-2.02400977418063e+001,-1.38261820622168e+000

1.21257325320831e+005,-2.02401182192875e+001,-1.40191763473007e+000

1.22950014503040e+005,-2.02401392723658e+001,-1.42148642216746e+000

1.24666332745679e+005,-2.02401609172177e+001,-1.44132832647659e+000

1.26406609898139e+005,-2.02401831704739e+001,-1.46144715796736e+000

1.28171180414339e+005,-2.02402060492323e+001,-1.48184678004403e+000

1.29960383416997e+005,-2.02402295710713e+001,-1.50253110994139e+000

1.31774562762811e+005,-2.02402537540631e+001,-1.52350411947297e+000

1.33614067108538e+005,-2.02402786167874e+001,-1.54476983578814e+000

1.35479249978003e+005,-2.02403041783458e+001,-1.56633234213960e+000

1.37370469830040e+005,-2.02403304583767e+001,-1.58819577866229e+000

1.39288090127379e+005,-2.02403574770697e+001,-1.61036434316241e+000

1.41232479406504e+005,-2.02403852551819e+001,-1.63284229191688e+000

1.43204011348474e+005,-2.02404138140533e+001,-1.65563394048389e+000

1.45203064850745e+005,-2.02404431756230e+001,-1.67874366452592e+000

1.47230024099979e+005,-2.02404733624466e+001,-1.70217590064147e+000

1.49285278645888e+005,-2.02405043977132e+001,-1.72593514721011e+000

1.51369223476094e+005,-2.02405363052626e+001,-1.75002596524948e+000

1.53482259092041e+005,-2.02405691096048e+001,-1.77445297928092e+000

1.55624791585964e+005,-2.02406028359377e+001,-1.79922087821060e+000

1.57797232718936e+005,-2.02406375101669e+001,-1.82433441622027e+000

1.59999999999999e+005,-2.02406731589254e+001,-1.84979841367170e+000

1.62233516766403e+005,-2.02407098095942e+001,-1.87561775802106e+000

1.64498212264969e+005,-2.02407474903229e+001,-1.90179740474919e+000

1.66794521734578e+005,-2.02407862300516e+001,-1.92834237830089e+000

1.69122886489819e+005,-2.02408260585328e+001,-1.95525777303997e+000

1.71483754005805e+005,-2.02408670063547e+001,-1.98254875421503e+000

1.73877578004168e+005,-2.02409091049638e+001,-2.01022055893984e+000

1.76304818540256e+005,-2.02409523866896e+001,-2.03827849718629e+000

1.78765942091554e+005,-2.02409968847694e+001,-2.06672795278995e+000

1.81261421647326e+005,-2.02410426333730e+001,-2.09557438447173e+000

1.83791736799524e+005,-2.02410896676298e+001,-2.12482332687093e+000

1.86357373834951e+005,-2.02411380236550e+001,-2.15448039159282e+000

1.88958825828723e+005,-2.02411877385775e+001,-2.18455126827057e+000

1.91596592739027e+005,-2.02412388505685e+001,-2.21504172564206e+000

1.94271181503206e+005,-2.02412913988700e+001,-2.24595761264022e+000

1.96983106135185e+005,-2.02413454238257e+001,-2.27730485949817e+000

1.99732887824256e+005,-2.02414009669112e+001,-2.30908947886988e+000

2.02521055035243e+005,-2.02414580707661e+001,-2.34131756696455e+000

2.05348143610063e+005,-2.02415167792262e+001,-2.37399530469789e+000

2.08214696870707e+005,-2.02415771373575e+001,-2.40712895885729e+000

2.11121265723661e+005,-2.02416391914900e+001,-2.44072488328385e+000

2.14068408765776e+005,-2.02417029892538e+001,-2.47478952006831e+000

2.17056692391625e+005,-2.02417685796151e+001,-2.50932940076488e+000

2.20086690902357e+005,-2.02418360129136e+001,-2.54435114762022e+000

2.23158986616063e+005,-2.02419053409008e+001,-2.57986147481952e+000

2.26274169979693e+005,-2.02419766167799e+001,-2.61586718974702e+000

2.29432839682530e+005,-2.02420498952464e+001,-2.65237519426628e+000

2.32635602771247e+005,-2.02421252325292e+001,-2.68939248601478e+000

2.35883074766574e+005,-2.02422026864343e+001,-2.72692615971729e+000

2.39175879781588e+005,-2.02422823163885e+001,-2.76498340851526e+000

2.42514650641661e+005,-2.02423641834846e+001,-2.80357152531526e+000

2.45900029006080e+005,-2.02424483505284e+001,-2.84269790415291e+000

2.49332665491357e+005,-2.02425348820862e+001,-2.88237004157682e+000

2.52813219796278e+005,-2.02426238445342e+001,-2.92259553805048e+000

2.56342360828676e+005,-2.02427153061089e+001,-2.96338209936975e+000

2.59920766833993e+005,-2.02428093369596e+001,-3.00473753810288e+000

2.63549125525621e+005,-2.02429060092009e+001,-3.04666977504641e+000

2.67228134217075e+005,-2.02430053969686e+001,-3.08918684070028e+000

2.70958499956006e+005,-2.02431075764753e+001,-3.13229687676386e+000

2.74740939660078e+005,-2.02432126260691e+001,-3.17600813764834e+000

2.78576180254757e+005,-2.02433206262928e+001,-3.22032899201200e+000

2.82464958813007e+005,-2.02434316599450e+001,-3.26526792431225e+000

2.86408022696948e+005,-2.02435458121436e+001,-3.31083353637966e+000

2.90406129701488e+005,-2.02436631703898e+001,-3.35703454901084e+000

2.94460048199957e+005,-2.02437838246354e+001,-3.40387980358203e+000

2.98570557291775e+005,-2.02439078673504e+001,-3.45137826368409e+000

3.02738446952187e+005,-2.02440353935934e+001,-3.49953901677659e+000

3.06964518184081e+005,-2.02441665010842e+001,-3.54837127586453e+000

3.11249583171928e+005,-2.02443012902774e+001,-3.59788438119481e+000

3.15594465437872e+005,-2.02444398644386e+001,-3.64808780197503e+000

3.19999999999997e+005,-2.02445823297232e+001,-3.69899113811364e+000

3.24467033532806e+005,-2.02447287952564e+001,-3.75060412198079e+000

3.28996424529938e+005,-2.02448793732160e+001,-3.80293662019320e+000

3.33589043469155e+005,-2.02450341789172e+001,-3.85599863541974e+000

3.38245772979638e+005,-2.02451933309005e+001,-3.90980030820851e+000

3.42967508011610e+005,-2.02453569510205e+001,-3.96435191883915e+000

3.47755156008335e+005,-2.02455251645386e+001,-4.01966388919507e+000

3.52609637080511e+005,-2.02456981002177e+001,-4.07574678466016e+000

3.57531884183106e+005,-2.02458758904192e+001,-4.13261131603853e+000

3.62522843294651e+005,-2.02460586712034e+001,-4.19026834149651e+000

3.67583473599047e+005,-2.02462465824316e+001,-4.24872886852938e+000

3.72714747669902e+005,-2.02464397678721e+001,-4.30800405595100e+000

3.77917651657445e+005,-2.02466383753086e+001,-4.36810521590684e+000

3.83193185478053e+005,-2.02468425566511e+001,-4.42904381591226e+000

3.88542363006410e+005,-2.02470524680510e+001,-4.49083148091333e+000

3.93966212270369e+005,-2.02472682700180e+001,-4.55347999537348e+000

3.99465775648511e+005,-2.02474901275412e+001,-4.61700130538335e+000

4.05042110070485e+005,-2.02477182102132e+001,-4.68140752079529e+000

4.10696287220124e+005,-2.02479526923574e+001,-4.74671091738397e+000

4.16429393741414e+005,-2.02481937531587e+001,-4.81292393902989e+000

4.22242531447321e+005,-2.02484415767984e+001,-4.88005919992901e+000

4.28136817531551e+005,-2.02486963525920e+001,-4.94812948682772e+000

4.34113384783250e+005,-2.02489582751310e+001,-5.01714776128151e+000

4.40173381804713e+005,-2.02492275444289e+001,-5.08712716194090e+000

4.46317973232124e+005,-2.02495043660706e+001,-5.15808100686151e+000

4.52548339959385e+005,-2.02497889513663e+001,-5.23002279583936e+000

4.58865679365059e+005,-2.02500815175092e+001,-5.30296621277329e+000

4.65271205542494e+005,-2.02503822877378e+001,-5.37692512805081e+000

4.71766149533147e+005,-2.02506914915020e+001,-5.45191360096208e+000

4.78351759563174e+005,-2.02510093646348e+001,-5.52794588213692e+000

4.85029301283321e+005,-2.02513361495271e+001,-5.60503641601008e+000

4.91800058012158e+005,-2.02516720953085e+001,-5.68319984331079e+000

4.98665330982714e+005,-2.02520174580323e+001,-5.76245100357790e+000

5.05626439592555e+005,-2.02523725008657e+001,-5.84280493770199e+000

5.12684721657352e+005,-2.02527374942847e+001,-5.92427689049247e+000

5.19841533667984e+005,-2.02531127162750e+001,-6.00688231327002e+000

5.27098251051240e+005,-2.02534984525371e+001,-6.09063686648518e+000

5.34456268434150e+005,-2.02538949966982e+001,-6.17555642236262e+000

5.41916999912011e+005,-2.02543026505287e+001,-6.26165706757034e+000

