Freq.,VOut,OutRef

1.00000000000000e+004,-2.25192442652850e+001,-3.48071926276832e-001

1.01395947979003e+004,-2.25192457520175e+001,-3.52930806865051e-001

1.02811382665607e+004,-2.25192472805472e+001,-3.57857513946372e-001

1.04246576084112e+004,-2.25192488520493e+001,-3.62852994302097e-001

1.05701804056138e+004,-2.25192504677316e+001,-3.67918207930335e-001

1.07177346253629e+004,-2.25192521288365e+001,-3.73054128226260e-001

1.08673486252606e+004,-2.25192538366406e+001,-3.78261742173096e-001

1.10190511587661e+004,-2.25192555924571e+001,-3.83542050528751e-001

1.11728713807222e+004,-2.25192573976355e+001,-3.88896068019495e-001

1.13288388529580e+004,-2.25192592535637e+001,-3.94324823534514e-001

1.14869835499703e+004,-2.25192611616683e+001,-3.99829360324521e-001

1.16473358646846e+004,-2.25192631234162e+001,-4.05410736198996e-001

1.18099266142953e+004,-2.25192651403156e+001,-4.11070023733104e-001

1.19747870461893e+004,-2.25192672139166e+001,-4.16808310472594e-001

1.21419488439505e+004,-2.25192693458136e+001,-4.22626699140628e-001

1.23114441334492e+004,-2.25192715376454e+001,-4.28526307851709e-001

1.24833054890161e+004,-2.25192737910967e+001,-4.34508270326880e-001

1.26575659397028e+004,-2.25192761079001e+001,-4.40573736108438e-001

1.28342589756290e+004,-2.25192784898365e+001,-4.46723870783839e-001

1.30134185544193e+004,-2.25192809387369e+001,-4.52959856207844e-001

1.31950791077289e+004,-2.25192834564840e+001,-4.59282890730981e-001

1.33792755478611e+004,-2.25192860450130e+001,-4.65694189427480e-001

1.35660432744767e+004,-2.25192887063140e+001,-4.72194984330296e-001

1.37554181813974e+004,-2.25192914424327e+001,-4.78786524666767e-001

1.39474366635040e+004,-2.25192942554724e+001,-4.85470077099100e-001

1.41421356237309e+004,-2.25192971475957e+001,-4.92246925967612e-001

1.43395524801583e+004,-2.25193001210257e+001,-4.99118373535745e-001

1.45397251732031e+004,-2.25193031780482e+001,-5.06085740243723e-001

1.47426921729110e+004,-2.25193063210131e+001,-5.13150364957541e-001

1.49484924863494e+004,-2.25193095523365e+001,-5.20313605229625e-001

1.51571656651040e+004,-2.25193128745025e+001,-5.27576837556855e-001

1.53687518128801e+004,-2.25193162900647e+001,-5.34941457647446e-001

1.55832915932100e+004,-2.25193198016487e+001,-5.42408880686103e-001

1.58008262372675e+004,-2.25193234119541e+001,-5.49980541607928e-001

1.60213975517924e+004,-2.25193271237558e+001,-5.57657895373043e-001

1.62450479271247e+004,-2.25193309399075e+001,-5.65442417244639e-001

1.64718203453514e+004,-2.25193348633424e+001,-5.73335603075060e-001

1.67017583885674e+004,-2.25193388970765e+001,-5.81338969590110e-001

1.69349062472505e+004,-2.25193430442107e+001,-5.89454054680694e-001

1.71713087287550e+004,-2.25193473079327e+001,-5.97682417700170e-001

1.74110112659224e+004,-2.25193516915201e+001,-6.06025639760496e-001

1.76540599258131e+004,-2.25193561983425e+001,-6.14485324038043e-001

1.79005014185594e+004,-2.25193608318642e+001,-6.23063096079764e-001

1.81503831063432e+004,-2.25193655956471e+001,-6.31760604115736e-001

1.84037530124975e+004,-2.25193704933530e+001,-6.40579519375807e-001

1.86606598307361e+004,-2.25193755287466e+001,-6.49521536409889e-001

1.89211529345119e+004,-2.25193807056987e+001,-6.58588373412449e-001

1.91852823865052e+004,-2.25193860281885e+001,-6.67781772553327e-001

1.94530989482457e+004,-2.25193915003073e+001,-6.77103500312005e-001

1.97246540898671e+004,-2.25193971262616e+001,-6.86555347813808e-001

1.99999999999999e+004,-2.25194029103757e+001,-6.96139131178488e-001

2.02791895958005e+004,-2.25194088570957e+001,-7.05856691863430e-001

2.05622765331213e+004,-2.25194149709927e+001,-7.15709897019976e-001

2.08493152168224e+004,-2.25194212567662e+001,-7.25700639851263e-001

2.11403608112276e+004,-2.25194277192478e+001,-7.35830839974305e-001

2.14354692507258e+004,-2.25194343634049e+001,-7.46102443788650e-001

2.17346972505211e+004,-2.25194411943445e+001,-7.56517424849996e-001

2.20381023175322e+004,-2.25194482173174e+001,-7.67077784247292e-001

2.23457427614443e+004,-2.25194554377216e+001,-7.77785550988558e-001

2.26576777059159e+004,-2.25194628611071e+001,-7.88642782388205e-001

2.29739670999406e+004,-2.25194704931797e+001,-7.99651564462594e-001

2.32946717293690e+004,-2.25194783398058e+001,-8.10814012328618e-001

2.36198532285905e+004,-2.25194864070165e+001,-8.22132270610868e-001

2.39495740923785e+004,-2.25194947010124e+001,-8.33608513850515e-001

2.42838976879009e+004,-2.25195032281686e+001,-8.45244946924702e-001

2.46228882668982e+004,-2.25195119950391e+001,-8.57043805466823e-001

2.49666109780322e+004,-2.25195210083623e+001,-8.69007356297075e-001

2.53151318794055e+004,-2.25195302750659e+001,-8.81137897854190e-001

2.56685179512580e+004,-2.25195398022724e+001,-8.93437760638375e-001

2.60268371088386e+004,-2.25195495973044e+001,-9.05909307656345e-001

2.63901582154578e+004,-2.25195596676902e+001,-9.18554934874953e-001

2.67585510957221e+004,-2.25195700211698e+001,-9.31377071679130e-001

2.71320865489533e+004,-2.25195806657009e+001,-9.44378181337947e-001

2.75108363627948e+004,-2.25195916094646e+001,-9.57560761475569e-001

2.78948733270080e+004,-2.25196028608719e+001,-9.70927344551206e-001

2.82842712474618e+004,-2.25196144285704e+001,-9.84480498341906e-001

2.86791049603164e+004,-2.25196263214505e+001,-9.98222826436152e-001

2.90794503464061e+004,-2.25196385486526e+001,-1.01215696873093e+000

2.94853843458219e+004,-2.25196511195740e+001,-1.02628560193781e+000

2.98969849726987e+004,-2.25196640438758e+001,-1.04061144009458e+000

3.03143313302078e+004,-2.25196773314911e+001,-1.05513723508534e+000

3.07375036257601e+004,-2.25196909926317e+001,-1.06986577716713e+000

3.11665831864199e+004,-2.25197050377965e+001,-1.08479989550332e+000

3.16016524745350e+004,-2.25197194777794e+001,-1.09994245870440e+000

3.20427951035848e+004,-2.25197343236779e+001,-1.11529637537844e+000

3.24900958542493e+004,-2.25197495869009e+001,-1.13086459468584e+000

3.29436406907028e+004,-2.25197652791782e+001,-1.14665010690323e+000

3.34035167771346e+004,-2.25197814125692e+001,-1.16265594399656e+000

3.38698124945009e+004,-2.25197979994719e+001,-1.17888518019984e+000

3.43426174575100e+004,-2.25198150526329e+001,-1.19534093260285e+000

3.48220225318448e+004,-2.25198325851570e+001,-1.21202636174628e+000

3.53081198516260e+004,-2.25198506105172e+001,-1.22894467222722e+000

3.58010028371187e+004,-2.25198691425649e+001,-1.24609911331005e+000

3.63007662126863e+004,-2.25198881955407e+001,-1.26349297954867e+000

3.68075060249948e+004,-2.25199077840855e+001,-1.28112961141303e+000

3.73213196614721e+004,-2.25199279232514e+001,-1.29901239593018e+000

3.78423058690237e+004,-2.25199486285136e+001,-1.31714476732883e+000

3.83705647730104e+004,-2.25199699157819e+001,-1.33553020769629e+000

3.89061978964912e+004,-2.25199918014130e+001,-1.35417224764156e+000

3.94493081797342e+004,-2.25200143022233e+001,-1.37307446697077e+000

3.99999999999998e+004,-2.25200374355016e+001,-1.39224049536844e+000

4.05583791916010e+004,-2.25200612190224e+001,-1.41167401309142e+000

4.11245530662425e+004,-2.25200856710597e+001,-1.43137875166892e+000

4.16986304336447e+004,-2.25201108104004e+001,-1.45135849461645e+000

4.22807216224550e+004,-2.25201366563596e+001,-1.47161707815434e+000

4.28709385014515e+004,-2.25201632287947e+001,-1.49215839194086e+000

4.34693945010421e+004,-2.25201905481211e+001,-1.51298637981226e+000

4.40762046350642e+004,-2.25202186353275e+001,-1.53410504053396e+000

4.46914855228886e+004,-2.25202475119921e+001,-1.55551842856336e+000

4.53153554118317e+004,-2.25202772002996e+001,-1.57723065481963e+000

4.59479341998812e+004,-2.25203077230573e+001,-1.59924588746787e+000

4.65893434587380e+004,-2.25203391037133e+001,-1.62156835271155e+000

4.72397064571810e+004,-2.25203713663743e+001,-1.64420233559714e+000

4.78991481847569e+004,-2.25204045358240e+001,-1.66715218082780e+000

4.85677953758016e+004,-2.25204386375420e+001,-1.69042229359067e+000

4.92457765337964e+004,-2.25204736977238e+001,-1.71401714039263e+000

4.99332219560642e+004,-2.25205097433000e+001,-1.73794124991132e+000

5.06302637588109e+004,-2.25205468019581e+001,-1.76219921385239e+000

5.13370359025159e+004,-2.25205849021627e+001,-1.78679568782355e+000

5.20536742176771e+004,-2.25206240731775e+001,-1.81173539221767e+000

5.27803164309155e+004,-2.25206643450884e+001,-1.83702311310818e+000

5.35171021914442e+004,-2.25207057488257e+001,-1.86266370315702e+000

5.42641730979066e+004,-2.25207483161882e+001,-1.88866208253441e+000

5.50216727255895e+004,-2.25207920798675e+001,-1.91502323985252e+000

5.57897466540159e+004,-2.25208370734730e+001,-1.94175223310935e+000

5.65685424949235e+004,-2.25208833315577e+001,-1.96885419064725e+000

5.73582099206328e+004,-2.25209308896445e+001,-1.99633431212347e+000

5.81589006928121e+004,-2.25209797842536e+001,-2.02419786949421e+000

5.89707686916437e+004,-2.25210300529301e+001,-2.05245020801231e+000

5.97939699453972e+004,-2.25210817342733e+001,-2.08109674723658e+000

6.06286626604156e+004,-2.25211348679656e+001,-2.11014298205701e+000

6.14750072515201e+004,-2.25211894948033e+001,-2.13959448373229e+000

6.23331663728396e+004,-2.25212456567276e+001,-2.16945690094148e+000

6.32033049490698e+004,-2.25213033968567e+001,-2.19973596084948e+000

6.40855902071694e+004,-2.25213627595189e+001,-2.23043747018848e+000

6.49801917084985e+004,-2.25214237902863e+001,-2.26156731635053e+000

6.58872813814055e+004,-2.25214865360098e+001,-2.29313146849859e+000

6.68070335542691e+004,-2.25215510448548e+001,-2.32513597868884e+000

6.77396249890018e+004,-2.25216173663380e+001,-2.35758698301049e+000

6.86852349150199e+004,-2.25216855513654e+001,-2.39049070273946e+000

6.96440450636895e+004,-2.25217556522710e+001,-2.42385344550729e+000

7.06162397032520e+004,-2.25218277228568e+001,-2.45768160648656e+000

7.16020056742374e+004,-2.25219018184339e+001,-2.49198166959032e+000

7.26015324253724e+004,-2.25219779958650e+001,-2.52676020868910e+000

7.36150120499896e+004,-2.25220563136073e+001,-2.56202388884335e+000

7.46426393229441e+004,-2.25221368317575e+001,-2.59777946755056e+000

7.56846117380472e+004,-2.25222196120974e+001,-2.63403379601175e+000

7.67411295460207e+004,-2.25223047181415e+001,-2.67079382041198e+000

7.78123957929823e+004,-2.25223922151846e+001,-2.70806658321837e+000

7.88986163594682e+004,-2.25224821703527e+001,-2.74585922449576e+000

7.99999999999995e+004,-2.25225746526532e+001,-2.78417898323878e+000

8.11167583832018e+004,-2.25226697330278e+001,-2.82303319872164e+000

8.22491061324848e+004,-2.25227674844070e+001,-2.86242931186483e+000

8.33972608672892e+004,-2.25228679817651e+001,-2.90237486661989e+000

8.45614432449099e+004,-2.25229713021773e+001,-2.94287751137313e+000

8.57418770029029e+004,-2.25230775248790e+001,-2.98394500036477e+000

8.69387890020841e+004,-2.25231867313255e+001,-3.02558519512925e+000

8.81524092701283e+004,-2.25232990052541e+001,-3.06780606595250e+000

8.93829710457770e+004,-2.25234144327481e+001,-3.11061569334726e+000

9.06307108236633e+004,-2.25235331023019e+001,-3.15402226954934e+000

9.18958683997622e+004,-2.25236551048886e+001,-3.19803410003057e+000

9.31786869174758e+004,-2.25237805340290e+001,-3.24265960503266e+000

9.44794129143618e+004,-2.25239094858626e+001,-3.28790732111929e+000

9.57982963695136e+004,-2.25240420592206e+001,-3.33378590274888e+000

9.71355907516031e+004,-2.25241783557014e+001,-3.38030412386580e+000

9.84915530675926e+004,-2.25243184797472e+001,-3.42747087951303e+000

9.98664439121282e+004,-2.25244625387233e+001,-3.47529518746393e+000

1.01260527517622e+005,-2.25246106429998e+001,-3.52378618987431e+000

1.02674071805032e+005,-2.25247629060351e+001,-3.57295315495577e+000

1.04107348435354e+005,-2.25249194444621e+001,-3.62280547866886e+000

1.05560632861831e+005,-2.25250803781764e+001,-3.67335268643782e+000

1.07034204382888e+005,-2.25252458304269e+001,-3.72460443488584e+000

1.08528346195813e+005,-2.25254159279096e+001,-3.77657051359172e+000

1.10043345451179e+005,-2.25255908008632e+001,-3.82926084686744e+000

1.11579493308032e+005,-2.25257705831674e+001,-3.88268549555882e+000

1.13137084989847e+005,-2.25259554124444e+001,-3.93685465886536e+000

1.14716419841265e+005,-2.25261454301631e+001,-3.99177867618457e+000

1.16317801385624e+005,-2.25263407817452e+001,-4.04746802897621e+000

1.17941537383287e+005,-2.25265416166759e+001,-4.10393334264989e+000

1.19587939890794e+005,-2.25267480886161e+001,-4.16118538847469e+000

1.21257325320831e+005,-2.25269603555183e+001,-4.21923508551139e+000

1.22950014503040e+005,-2.25271785797458e+001,-4.27809350256674e+000

1.24666332745679e+005,-2.25274029281952e+001,-4.33777186017094e+000

1.26406609898139e+005,-2.25276335724216e+001,-4.39828153257826e+000

1.28171180414339e+005,-2.25278706887680e+001,-4.45963404978969e+000

1.29960383416997e+005,-2.25281144584978e+001,-4.52184109959953e+000

1.31774562762811e+005,-2.25283650679311e+001,-4.58491452966518e+000

1.33614067108538e+005,-2.25286227085846e+001,-4.64886634959919e+000

1.35479249978003e+005,-2.25288875773150e+001,-4.71370873308623e+000

1.37370469830040e+005,-2.25291598764673e+001,-4.77945402002255e+000

1.39288090127379e+005,-2.25294398140258e+001,-4.84611471867896e+000

1.41232479406504e+005,-2.25297276037705e+001,-4.91370350788817e+000

1.43204011348474e+005,-2.25300234654362e+001,-4.98223323925479e+000

1.45203064850745e+005,-2.25303276248779e+001,-5.05171693938995e+000

1.47230024099979e+005,-2.25306403142388e+001,-5.12216781216935e+000

1.49285278645888e+005,-2.25309617721237e+001,-5.19359924101497e+000

1.51369223476094e+005,-2.25312922437773e+001,-5.26602479120085e+000

1.53482259092041e+005,-2.25316319812668e+001,-5.33945821218204e+000

1.55624791585964e+005,-2.25319812436696e+001,-5.41391343994838e+000

1.57797232718936e+005,-2.25323402972662e+001,-5.48940459940126e+000

1.59999999999999e+005,-2.25327094157379e+001,-5.56594600675421e+000

1.62233516766403e+005,-2.25330888803703e+001,-5.64355217195726e+000

1.64498212264969e+005,-2.25334789802618e+001,-5.72223780114473e+000

1.66794521734578e+005,-2.25338800125379e+001,-5.80201779910709e+000

1.69122886489819e+005,-2.25342922825712e+001,-5.88290727178492e+000

1.71483754005805e+005,-2.25347161042074e+001,-5.96492152878774e+000

1.73877578004168e+005,-2.25351517999969e+001,-6.04807608593444e+000

1.76304818540256e+005,-2.25355997014328e+001,-6.13238666781785e+000

1.78765942091554e+005,-2.25360601491957e+001,-6.21786921039118e+000

1.81261421647326e+005,-2.25365334934038e+001,-6.30453986357707e+000

1.83791736799524e+005,-2.25370200938710e+001,-6.39241499389982e+000

1.86357373834951e+005,-2.25375203203706e+001,-6.48151118713790e+000

1.88958825828723e+005,-2.25380345529066e+001,-6.57184525100047e+000

1.91596592739027e+005,-2.25385631819926e+001,-6.66343421782272e+000

1.94271181503206e+005,-2.25391066089364e+001,-6.75629534728437e+000

1.96983106135185e+005,-2.25396652461338e+001,-6.85044612914783e+000

1.99732887824256e+005,-2.25402395173692e+001,-6.94590428601669e+000

2.02521055035243e+005,-2.25408298581241e+001,-7.04268777611386e+000

2.05348143610063e+005,-2.25414367158937e+001,-7.14081479608006e+000

2.08214696870707e+005,-2.25420605505118e+001,-7.24030378378948e+000

2.11121265723661e+005,-2.25427018344840e+001,-7.34117342118504e+000

2.14068408765776e+005,-2.25433610533295e+001,-7.44344263713063e+000

2.17056692391625e+005,-2.25440387059317e+001,-7.54713061028080e+000

2.20086690902357e+005,-2.25447353048982e+001,-7.65225677196619e+000

2.23158986616063e+005,-2.25454513769288e+001,-7.75884080909542e+000

2.26274169979693e+005,-2.25461874631949e+001,-7.86690266707135e+000

2.29432839682530e+005,-2.25469441197265e+001,-7.97646255272102e+000

2.32635602771247e+005,-2.25477219178104e+001,-8.08754093723972e+000

2.35883074766574e+005,-2.25485214443978e+001,-8.20015855914646e+000

2.39175879781588e+005,-2.25493433025225e+001,-8.31433642725149e+000

2.42514650641661e+005,-2.25501881117298e+001,-8.43009582363316e+000

2.45900029006080e+005,-2.25510565085153e+001,-8.54745830662487e+000

2.49332665491357e+005,-2.25519491467756e+001,-8.66644571380967e+000

2.52813219796278e+005,-2.25528666982698e+001,-8.78708016502128e+000

2.56342360828676e+005,-2.25538098530923e+001,-8.90938406535185e+000

2.59920766833993e+005,-2.25547793201578e+001,-9.03338010816228e+000

2.63549125525621e+005,-2.25557758276974e+001,-9.15909127809647e+000

2.67228134217075e+005,-2.25568001237676e+001,-9.28654085409669e+000

2.70958499956006e+005,-2.25578529767713e+001,-9.41575241241845e+000

2.74740939660078e+005,-2.25589351759916e+001,-9.54674982964357e+000

2.78576180254757e+005,-2.25600475321384e+001,-9.67955728568943e+000

2.82464958813007e+005,-2.25611908779082e+001,-9.81419926681286e+000

2.86408022696948e+005,-2.25623660685571e+001,-9.95070056860717e+000

2.90406129701488e+005,-2.25635739824881e+001,-1.00890862989890e+001

2.94460048199957e+005,-2.25648155218509e+001,-1.02293818811738e+001

2.98570557291775e+005,-2.25660916131574e+001,-1.03716130566389e+001

3.02738446952187e+005,-2.25674032079107e+001,-1.05158058880687e+001

3.06964518184081e+005,-2.25687512832488e+001,-1.06619867622838e+001

3.11249583171928e+005,-2.25701368426031e+001,-1.08101823931474e+001

3.15594465437872e+005,-2.25715609163726e+001,-1.09604198244495e+001

3.19999999999997e+005,-2.25730245626125e+001,-1.11127264327647e+001

3.24467033532806e+005,-2.25745288677395e+001,-1.12671299302809e+001

3.28996424529938e+005,-2.25760749472519e+001,-1.14236583675966e+001

3.33589043469155e+005,-2.25776639464663e+001,-1.15823401364827e+001

3.38245772979638e+005,-2.25792970412707e+001,-1.17432039726066e+001

3.42967508011610e+005,-2.25809754388937e+001,-1.19062789582142e+001

3.47755156008335e+005,-2.25827003786908e+001,-1.20715945247678e+001

3.52609637080511e+005,-2.25844731329473e+001,-1.22391804555352e+001

3.57531884183106e+005,-2.25862950076989e+001,-1.24090668881253e+001

3.62522843294651e+005,-2.25881673435686e+001,-1.25812843169697e+001

3.67583473599047e+005,-2.25900915166227e+001,-1.27558635957415e+001

3.72714747669902e+005,-2.25920689392428e+001,-1.29328359397123e+001

3.77917651657445e+005,-2.25941010610168e+001,-1.31122329280377e+001

3.83193185478053e+005,-2.25961893696479e+001,-1.32940865059714e+001

3.88542363006410e+005,-2.25983353918808e+001,-1.34784289870010e+001

3.93966212270369e+005,-2.26005406944472e+001,-1.36652930548996e+001

3.99465775648511e+005,-2.26028068850294e+001,-1.38547117656912e+001

4.05042110070485e+005,-2.26051356132422e+001,-1.40467185495221e+001

4.10696287220124e+005,-2.26075285716336e+001,-1.42413472124338e+001

4.16429393741414e+005,-2.26099874967038e+001,-1.44386319380323e+001

4.22242531447321e+005,-2.26125141699435e+001,-1.46386072890479e+001

4.28136817531551e+005,-2.26151104188900e+001,-1.48413082087779e+001

4.34113384783250e+005,-2.26177781182030e+001,-1.50467700224098e+001

4.40173381804713e+005,-2.26205191907577e+001,-1.52550284382143e+001

4.46317973232124e+005,-2.26233356087581e+001,-1.54661195486056e+001

4.52548339959385e+005,-2.26262293948676e+001,-1.56800798310587e+001

4.58865679365059e+005,-2.26292026233578e+001,-1.58969461488809e+001

4.65271205542494e+005,-2.26322574212769e+001,-1.61167557518255e+001

4.71766149533147e+005,-2.26353959696345e+001,-1.63395462765457e+001

4.78351759563174e+005,-2.26386205046053e+001,-1.65653557468769e+001

4.85029301283321e+005,-2.26419333187494e+001,-1.67942225739427e+001

4.91800058012158e+005,-2.26453367622512e+001,-1.70261855560748e+001

4.98665330982714e+005,-2.26488332441732e+001,-1.72612838785404e+001

5.05626439592555e+005,-2.26524252337281e+001,-1.74995571130673e+001

5.12684721657352e+005,-2.26561152615659e+001,-1.77410452171598e+001

5.19841533667984e+005,-2.26599059210765e+001,-1.79857885331962e+001

5.27098251051240e+005,-2.26637998697078e+001,-1.82338277872986e+001

5.34456268434150e+005,-2.26677998302976e+001,-1.84852040879668e+001

5.41916999912011e+005,-2.26719085924194e+001,-1.87399589244676e+001

