Freq.,VOut,OutRef

1.00000000000000e+004,-2.21075652017238e+001,-2.37911517162258e-001

1.01395947979003e+004,-2.21075658830521e+001,-2.41232631171034e-001

1.02811382665607e+004,-2.21075665835351e+001,-2.44600105905476e-001

1.04246576084112e+004,-2.21075673037112e+001,-2.48014588526030e-001

1.05701804056138e+004,-2.21075680441341e+001,-2.51476735224207e-001

1.07177346253629e+004,-2.21075688053731e+001,-2.54987211351584e-001

1.08673486252606e+004,-2.21075695880131e+001,-2.58546691548755e-001

1.10190511587661e+004,-2.21075703926561e+001,-2.62155859871078e-001

1.11728713807222e+004,-2.21075712199206e+001,-2.65815409923235e-001

1.13288388529580e+004,-2.21075720704424e+001,-2.69526044993399e-001

1.14869835499703e+004,-2.21075729448755e+001,-2.73288478182778e-001

1.16473358646846e+004,-2.21075738438921e+001,-2.77103432550474e-001

1.18099266142953e+004,-2.21075747681832e+001,-2.80971641245311e-001

1.19747870461893e+004,-2.21075757184596e+001,-2.84893847650683e-001

1.21419488439505e+004,-2.21075766954515e+001,-2.88870805527873e-001

1.23114441334492e+004,-2.21075776999104e+001,-2.92903279156262e-001

1.24833054890161e+004,-2.21075787326081e+001,-2.96992043486500e-001

1.26575659397028e+004,-2.21075797943387e+001,-3.01137884284494e-001

1.28342589756290e+004,-2.21075808859184e+001,-3.05341598284227e-001

1.30134185544193e+004,-2.21075820081862e+001,-3.09603993341278e-001

1.31950791077289e+004,-2.21075831620050e+001,-3.13925888587405e-001

1.33792755478611e+004,-2.21075843482618e+001,-3.18308114586564e-001

1.35660432744767e+004,-2.21075855678684e+001,-3.22751513497846e-001

1.37554181813974e+004,-2.21075868217625e+001,-3.27256939233424e-001

1.39474366635040e+004,-2.21075881109080e+001,-3.31825257625838e-001

1.41421356237309e+004,-2.21075894362959e+001,-3.36457346592003e-001

1.43395524801583e+004,-2.21075907989451e+001,-3.41154096303366e-001

1.45397251732031e+004,-2.21075921999032e+001,-3.45916409355399e-001

1.47426921729110e+004,-2.21075936402472e+001,-3.50745200942638e-001

1.49484924863494e+004,-2.21075951210842e+001,-3.55641399034517e-001

1.51571656651040e+004,-2.21075966435528e+001,-3.60605944550710e-001

1.53687518128801e+004,-2.21075982088232e+001,-3.65639791546152e-001

1.55832915932100e+004,-2.21075998180988e+001,-3.70743907390618e-001

1.58008262372675e+004,-2.21076014726167e+001,-3.75919272957086e-001

1.60213975517924e+004,-2.21076031736488e+001,-3.81166882808182e-001

1.62450479271247e+004,-2.21076049225027e+001,-3.86487745390097e-001

1.64718203453514e+004,-2.21076067205229e+001,-3.91882883221039e-001

1.67017583885674e+004,-2.21076085690916e+001,-3.97353333094219e-001

1.69349062472505e+004,-2.21076104696298e+001,-4.02900146272107e-001

1.71713087287550e+004,-2.21076124235986e+001,-4.08524388690074e-001

1.74110112659224e+004,-2.21076144325001e+001,-4.14227141161095e-001

1.76540599258131e+004,-2.21076164978785e+001,-4.20009499583650e-001

1.79005014185594e+004,-2.21076186213216e+001,-4.25872575151094e-001

1.81503831063432e+004,-2.21076208044618e+001,-4.31817494566585e-001

1.84037530124975e+004,-2.21076230489774e+001,-4.37845400257222e-001

1.86606598307361e+004,-2.21076253565937e+001,-4.43957450596726e-001

1.89211529345119e+004,-2.21076277290846e+001,-4.50154820124620e-001

1.91852823865052e+004,-2.21076301682740e+001,-4.56438699774288e-001

1.94530989482457e+004,-2.21076326760371e+001,-4.62810297098633e-001

1.97246540898671e+004,-2.21076352543015e+001,-4.69270836505926e-001

1.99999999999999e+004,-2.21076379050493e+001,-4.75821559492196e-001

2.02791895958005e+004,-2.21076406303181e+001,-4.82463724880101e-001

2.05622765331213e+004,-2.21076434322029e+001,-4.89198609061368e-001

2.08493152168224e+004,-2.21076463128576e+001,-4.96027506240360e-001

2.11403608112276e+004,-2.21076492744966e+001,-5.02951728685055e-001

2.14354692507258e+004,-2.21076523193965e+001,-5.09972606976347e-001

2.17346972505211e+004,-2.21076554498981e+001,-5.17091490265000e-001

2.20381023175322e+004,-2.21076586684079e+001,-5.24309746530161e-001

2.23457427614443e+004,-2.21076619773999e+001,-5.31628762842885e-001

2.26576777059159e+004,-2.21076653794177e+001,-5.39049945631300e-001

2.29739670999406e+004,-2.21076688770767e+001,-5.46574720950376e-001

2.32946717293690e+004,-2.21076724730654e+001,-5.54204534757989e-001

2.36198532285905e+004,-2.21076761701480e+001,-5.61940853189357e-001

2.39495740923785e+004,-2.21076799711667e+001,-5.69785162839985e-001

2.42838976879009e+004,-2.21076838790432e+001,-5.77738971051971e-001

2.46228882668982e+004,-2.21076878967815e+001,-5.85803806201790e-001

2.49666109780322e+004,-2.21076920274702e+001,-5.93981217993478e-001

2.53151318794055e+004,-2.21076962742843e+001,-6.02272777758453e-001

2.56685179512580e+004,-2.21077006404884e+001,-6.10680078753286e-001

2.60268371088386e+004,-2.21077051294389e+001,-6.19204736469724e-001

2.63901582154578e+004,-2.21077097445863e+001,-6.27848388941147e-001

2.67585510957221e+004,-2.21077144894781e+001,-6.36612697059026e-001

2.71320865489533e+004,-2.21077193677618e+001,-6.45499344890460e-001

2.75108363627948e+004,-2.21077243831874e+001,-6.54510040001327e-001

2.78948733270080e+004,-2.21077295396098e+001,-6.63646513786325e-001

2.82842712474618e+004,-2.21077348409929e+001,-6.72910521796794e-001

2.86791049603164e+004,-2.21077402914116e+001,-6.82303844082244e-001

2.90794503464061e+004,-2.21077458950556e+001,-6.91828285527127e-001

2.94853843458219e+004,-2.21077516562322e+001,-7.01485676202108e-001

2.98969849726987e+004,-2.21077575793699e+001,-7.11277871710281e-001

3.03143313302078e+004,-2.21077636690214e+001,-7.21206753547199e-001

3.07375036257601e+004,-2.21077699298679e+001,-7.31274229458156e-001

3.11665831864199e+004,-2.21077763667217e+001,-7.41482233807036e-001

3.16016524745350e+004,-2.21077829845304e+001,-7.51832727945939e-001

3.20427951035848e+004,-2.21077897883809e+001,-7.62327700591500e-001

3.24900958542493e+004,-2.21077967835030e+001,-7.72969168205537e-001

3.29436406907028e+004,-2.21078039752735e+001,-7.83759175382952e-001

3.34035167771346e+004,-2.21078113692201e+001,-7.94699795243851e-001

3.38698124945009e+004,-2.21078189710263e+001,-8.05793129828242e-001

3.43426174575100e+004,-2.21078267865350e+001,-8.17041310503830e-001

3.48220225318448e+004,-2.21078348217533e+001,-8.28446498370397e-001

3.53081198516260e+004,-2.21078430828576e+001,-8.40010884674906e-001

3.58010028371187e+004,-2.21078515761972e+001,-8.51736691234205e-001

3.63007662126863e+004,-2.21078603083005e+001,-8.63626170856905e-001

3.68075060249948e+004,-2.21078692858789e+001,-8.75681607777977e-001

3.73213196614721e+004,-2.21078785158328e+001,-8.87905318095511e-001

3.78423058690237e+004,-2.21078880052564e+001,-9.00299650213726e-001

3.83705647730104e+004,-2.21078977614431e+001,-9.12866985294592e-001

3.89061978964912e+004,-2.21079077918915e+001,-9.25609737713029e-001

3.94493081797342e+004,-2.21079181043110e+001,-9.38530355518418e-001

3.99999999999998e+004,-2.21079287066275e+001,-9.51631320906012e-001

4.05583791916010e+004,-2.21079396069896e+001,-9.64915150690377e-001

4.11245530662425e+004,-2.21079508137752e+001,-9.78384396787524e-001

4.16986304336447e+004,-2.21079623355973e+001,-9.92041646704225e-001

4.22807216224550e+004,-2.21079741813113e+001,-1.00588952403317e+000

4.28709385014515e+004,-2.21079863600212e+001,-1.01993068895537e+000

4.34693945010421e+004,-2.21079988810868e+001,-1.03416783874959e+000

4.40762046350642e+004,-2.21080117541314e+001,-1.04860370830735e+000

4.46914855228886e+004,-2.21080249890481e+001,-1.06324107065794e+000

4.53153554118317e+004,-2.21080385960085e+001,-1.07808273749889e+000

4.59479341998812e+004,-2.21080525854698e+001,-1.09313155973208e+000

4.65893434587380e+004,-2.21080669681831e+001,-1.10839042801229e+000

4.72397064571810e+004,-2.21080817552017e+001,-1.12386227329779e+000

4.78991481847569e+004,-2.21080969578894e+001,-1.13955006741045e+000

4.85677953758016e+004,-2.21081125879294e+001,-1.15545682360717e+000

4.92457765337964e+004,-2.21081286573331e+001,-1.17158559715323e+000

4.99332219560642e+004,-2.21081451784496e+001,-1.18793948590667e+000

5.06302637588109e+004,-2.21081621639747e+001,-1.20452163091185e+000

5.13370359025159e+004,-2.21081796269612e+001,-1.22133521699951e+000

5.20536742176771e+004,-2.21081975808287e+001,-1.23838347339303e+000

5.27803164309155e+004,-2.21082160393734e+001,-1.25566967432998e+000

5.35171021914442e+004,-2.21082350167797e+001,-1.27319713968264e+000

5.42641730979066e+004,-2.21082545276302e+001,-1.29096923559604e+000

5.50216727255895e+004,-2.21082745869174e+001,-1.30898937512786e+000

5.57897466540159e+004,-2.21082952100548e+001,-1.32726101890279e+000

5.65685424949235e+004,-2.21083164128892e+001,-1.34578767577111e+000

5.73582099206328e+004,-2.21083382117124e+001,-1.36457290347930e+000

5.81589006928121e+004,-2.21083606232741e+001,-1.38362030934874e+000

5.89707686916437e+004,-2.21083836647945e+001,-1.40293355096402e+000

5.97939699453972e+004,-2.21084073539773e+001,-1.42251633687137e+000

6.06286626604156e+004,-2.21084317090239e+001,-1.44237242728433e+000

6.14750072515201e+004,-2.21084567486470e+001,-1.46250563480168e+000

6.23331663728396e+004,-2.21084824920846e+001,-1.48291982513496e+000

6.32033049490698e+004,-2.21085089591156e+001,-1.50361891784379e+000

6.40855902071694e+004,-2.21085361700740e+001,-1.52460688708367e+000

6.49801917084985e+004,-2.21085641458655e+001,-1.54588776236191e+000

6.58872813814055e+004,-2.21085929079825e+001,-1.56746562930752e+000

6.68070335542691e+004,-2.21086224785214e+001,-1.58934463044552e+000

6.77396249890018e+004,-2.21086528801990e+001,-1.61152896598905e+000

6.86852349150199e+004,-2.21086841363705e+001,-1.63402289463560e+000

6.96440450636895e+004,-2.21087162710466e+001,-1.65683073437980e+000

7.06162397032520e+004,-2.21087493089126e+001,-1.67995686333275e+000

7.16020056742374e+004,-2.21087832753471e+001,-1.70340572055491e+000

7.26015324253724e+004,-2.21088181964412e+001,-1.72718180690143e+000

7.36150120499896e+004,-2.21088540990189e+001,-1.75128968587422e+000

7.46426393229441e+004,-2.21088910106573e+001,-1.77573398449232e+000

7.56846117380472e+004,-2.21089289597082e+001,-1.80051939416740e+000

7.67411295460207e+004,-2.21089679753189e+001,-1.82565067159730e+000

7.78123957929823e+004,-2.21090080874558e+001,-1.85113263966606e+000

7.88986163594682e+004,-2.21090493269264e+001,-1.87697018836007e+000

7.99999999999995e+004,-2.21090917254029e+001,-1.90316827569587e+000

8.11167583832018e+004,-2.21091353154473e+001,-1.92973192865847e+000

8.22491061324848e+004,-2.21091801305351e+001,-1.95666624415510e+000

8.33972608672892e+004,-2.21092262050821e+001,-1.98397638997997e+000

8.45614432449099e+004,-2.21092735744701e+001,-2.01166760579281e+000

8.57418770029029e+004,-2.21093222750739e+001,-2.03974520411060e+000

8.69387890020841e+004,-2.21093723442896e+001,-2.06821457131235e+000

8.81524092701283e+004,-2.21094238205629e+001,-2.09708116865739e+000

8.93829710457770e+004,-2.21094767434184e+001,-2.12635053331774e+000

9.06307108236633e+004,-2.21095311534903e+001,-2.15602827942417e+000

9.18958683997622e+004,-2.21095870925528e+001,-2.18612009912615e+000

9.31786869174758e+004,-2.21096446035529e+001,-2.21663176366509e+000

9.44794129143618e+004,-2.21097037306424e+001,-2.24756912446466e+000

9.57982963695136e+004,-2.21097645192122e+001,-2.27893811423232e+000

9.71355907516031e+004,-2.21098270159268e+001,-2.31074474807855e+000

9.84915530675926e+004,-2.21098912687601e+001,-2.34299512464754e+000

9.98664439121282e+004,-2.21099573270317e+001,-2.37569542726733e+000

1.01260527517622e+005,-2.21100252414450e+001,-2.40885192511071e+000

1.02674071805032e+005,-2.21100950641257e+001,-2.44247097437496e+000

1.04107348435354e+005,-2.21101668486619e+001,-2.47655901947536e+000

1.05560632861831e+005,-2.21102406501444e+001,-2.51112259425518e+000

1.07034204382888e+005,-2.21103165252096e+001,-2.54616832321112e+000

1.08528346195813e+005,-2.21103945320819e+001,-2.58170292273630e+000

1.10043345451179e+005,-2.21104747306188e+001,-2.61773320237712e+000

1.11579493308032e+005,-2.21105571823561e+001,-2.65426606610889e+000

1.13137084989847e+005,-2.21106419505553e+001,-2.69130851362712e+000

1.14716419841265e+005,-2.21107291002512e+001,-2.72886764165679e+000

1.16317801385624e+005,-2.21108186983024e+001,-2.76695064527621e+000

1.17941537383287e+005,-2.21109108134412e+001,-2.80556481926118e+000

1.19587939890794e+005,-2.21110055163271e+001,-2.84471755944496e+000

1.21257325320831e+005,-2.21111028795994e+001,-2.88441636409636e+000

1.22950014503040e+005,-2.21112029779339e+001,-2.92466883531459e+000

1.24666332745679e+005,-2.21113058880987e+001,-2.96548268044409e+000

1.26406609898139e+005,-2.21114116890131e+001,-3.00686571350654e+000

1.28171180414339e+005,-2.21115204618076e+001,-3.04882585665080e+000

1.29960383416997e+005,-2.21116322898856e+001,-3.09137114162229e+000

1.31774562762811e+005,-2.21117472589872e+001,-3.13450971125100e+000

1.33614067108538e+005,-2.21118654572536e+001,-3.17824982095810e+000

1.35479249978003e+005,-2.21119869752951e+001,-3.22259984028234e+000

1.37370469830040e+005,-2.21121119062591e+001,-3.26756825442555e+000

1.39288090127379e+005,-2.21122403459015e+001,-3.31316366581719e+000

1.41232479406504e+005,-2.21123723926591e+001,-3.35939479569949e+000

1.43204011348474e+005,-2.21125081477245e+001,-3.40627048573239e+000

1.45203064850745e+005,-2.21126477151227e+001,-3.45379969961806e+000

1.47230024099979e+005,-2.21127912017903e+001,-3.50199152474571e+000

1.49285278645888e+005,-2.21129387176564e+001,-3.55085517385846e+000

1.51369223476094e+005,-2.21130903757262e+001,-3.60039998673844e+000

1.53482259092041e+005,-2.21132462921663e+001,-3.65063543191481e+000

1.55624791585964e+005,-2.21134065863929e+001,-3.70157110839157e+000

1.57797232718936e+005,-2.21135713811622e+001,-3.75321674739715e+000

1.59999999999999e+005,-2.21137408026635e+001,-3.80558221415592e+000

1.62233516766403e+005,-2.21139149806144e+001,-3.85867750967928e+000

1.64498212264969e+005,-2.21140940483588e+001,-3.91251277258133e+000

1.66794521734578e+005,-2.21142781429684e+001,-3.96709828091390e+000

1.69122886489819e+005,-2.21144674053454e+001,-4.02244445402512e+000

1.71483754005805e+005,-2.21146619803293e+001,-4.07856185444009e+000

1.73877578004168e+005,-2.21148620168065e+001,-4.13546118976282e+000

1.76304818540256e+005,-2.21150676678220e+001,-4.19315331460198e+000

1.78765942091554e+005,-2.21152790906954e+001,-4.25164923251922e+000

1.81261421647326e+005,-2.21154964471391e+001,-4.31096009799918e+000

1.83791736799524e+005,-2.21157199033801e+001,-4.37109721844380e+000

1.86357373834951e+005,-2.21159496302855e+001,-4.43207205618897e+000

1.88958825828723e+005,-2.21161858034907e+001,-4.49389623054391e+000

1.91596592739027e+005,-2.21164286035312e+001,-4.55658151985589e+000

1.94271181503206e+005,-2.21166782159790e+001,-4.62013986359523e+000

1.96983106135185e+005,-2.21169348315812e+001,-4.68458336446713e+000

1.99732887824256e+005,-2.21171986464038e+001,-4.74992429054483e+000

2.02521055035243e+005,-2.21174698619781e+001,-4.81617507742737e+000

2.05348143610063e+005,-2.21177486854520e+001,-4.88334833042112e+000

2.08214696870707e+005,-2.21180353297452e+001,-4.95145682674513e+000

2.11121265723661e+005,-2.21183300137085e+001,-5.02051351776010e+000

2.14068408765776e+005,-2.21186329622871e+001,-5.09053153122210e+000

2.17056692391625e+005,-2.21189444066890e+001,-5.16152417355967e+000

2.20086690902357e+005,-2.21192645845576e+001,-5.23350493217485e+000

2.23158986616063e+005,-2.21195937401488e+001,-5.30648747776867e+000

2.26274169979693e+005,-2.21199321245129e+001,-5.38048566669112e+000

2.29432839682530e+005,-2.21202799956817e+001,-5.45551354331383e+000

2.32635602771247e+005,-2.21206376188604e+001,-5.53158534242818e+000

2.35883074766574e+005,-2.21210052666250e+001,-5.60871549166650e+000

2.39175879781588e+005,-2.21213832191239e+001,-5.68691861394755e+000

2.42514650641661e+005,-2.21217717642863e+001,-5.76620952994649e+000

2.45900029006080e+005,-2.21221711980357e+001,-5.84660326058681e+000

2.49332665491357e+005,-2.21225818245083e+001,-5.92811502955804e+000

2.52813219796278e+005,-2.21230039562783e+001,-6.01076026585578e+000

2.56342360828676e+005,-2.21234379145887e+001,-6.09455460634537e+000

2.59920766833993e+005,-2.21238840295883e+001,-6.17951389834860e+000

2.63549125525621e+005,-2.21243426405749e+001,-6.26565420225436e+000

2.67228134217075e+005,-2.21248140962449e+001,-6.35299179415034e+000

2.70958499956006e+005,-2.21252987549500e+001,-6.44154316847976e+000

2.74740939660078e+005,-2.21257969849597e+001,-6.53132504071777e+000

2.78576180254757e+005,-2.21263091647320e+001,-6.62235435007220e+000

2.82464958813007e+005,-2.21268356831898e+001,-6.71464826220428e+000

2.86408022696948e+005,-2.21273769400057e+001,-6.80822417197221e+000

2.90406129701488e+005,-2.21279333458934e+001,-6.90309970619442e+000

2.94460048199957e+005,-2.21285053229076e+001,-6.99929272643397e+000

2.98570557291775e+005,-2.21290933047509e+001,-7.09682133180371e+000

3.02738446952187e+005,-2.21296977370890e+001,-7.19570386178977e+000

3.06964518184081e+005,-2.21303190778742e+001,-7.29595889909589e+000

3.11249583171928e+005,-2.21309577976770e+001,-7.39760527250465e+000

3.15594465437872e+005,-2.21316143800264e+001,-7.50066205975778e+000

3.19999999999997e+005,-2.21322893217591e+001,-7.60514859045368e+000

3.24467033532806e+005,-2.21329831333773e+001,-7.71108444896192e+000

3.28996424529938e+005,-2.21336963394161e+001,-7.81848947735272e+000

3.33589043469155e+005,-2.21344294788197e+001,-7.92738377834329e+000

3.38245772979638e+005,-2.21351831053278e+001,-8.03778771825701e+000

3.42967508011610e+005,-2.21359577878718e+001,-8.14972192999693e+000

3.47755156008335e+005,-2.21367541109798e+001,-8.26320731603264e+000

3.52609637080511e+005,-2.21375726751938e+001,-8.37826505139726e+000

3.57531884183106e+005,-2.21384140974957e+001,-8.49491658669641e+000

3.62522843294651e+005,-2.21392790117448e+001,-8.61318365112618e+000

3.67583473599047e+005,-2.21401680691259e+001,-8.73308825549973e+000

3.72714747669902e+005,-2.21410819386087e+001,-8.85465269528120e+000

3.77917651657445e+005,-2.21420213074187e+001,-8.97789955362512e+000

3.83193185478053e+005,-2.21429868815192e+001,-9.10285170442140e+000

3.88542363006410e+005,-2.21439793861057e+001,-9.22953231534243e+000

3.93966212270369e+005,-2.21449995661119e+001,-9.35796485089258e+000

3.99465775648511e+005,-2.21460481867286e+001,-9.48817307545796e+000

4.05042110070485e+005,-2.21471260339348e+001,-9.62018105635446e+000

4.10696287220124e+005,-2.21482339150411e+001,-9.75401316687234e+000

4.16429393741414e+005,-2.21493726592476e+001,-9.88969408931634e+000

4.22242531447321e+005,-2.21505431182134e+001,-1.00272488180389e+001

4.28136817531551e+005,-2.21517461666409e+001,-1.01667026624639e+001

4.34113384783250e+005,-2.21529827028732e+001,-1.03080812501004e+001

4.40173381804713e+005,-2.21542536495061e+001,-1.04514105295423e+001

4.46317973232124e+005,-2.21555599540135e+001,-1.05967167734531e+001

4.52548339959385e+005,-2.21569025893885e+001,-1.07440265815331e+001

4.58865679365059e+005,-2.21582825547981e+001,-1.08933668834656e+001

4.65271205542494e+005,-2.21597008762540e+001,-1.10447649418416e+001

4.71766149533147e+005,-2.21611586072975e+001,-1.11982483550572e+001

4.78351759563174e+005,-2.21626568297008e+001,-1.13538450601837e+001

4.85029301283321e+005,-2.21641966541840e+001,-1.15115833358066e+001

4.91800058012158e+005,-2.21657792211472e+001,-1.16714918048293e+001

4.98665330982714e+005,-2.21674057014196e+001,-1.18335994372400e+001

5.05626439592555e+005,-2.21690772970246e+001,-1.19979355528370e+001

5.12684721657352e+005,-2.21707952419617e+001,-1.21645298239106e+001

5.19841533667984e+005,-2.21725608030052e+001,-1.23334122778755e+001

5.27098251051240e+005,-2.21743752805195e+001,-1.25046132998535e+001

5.34456268434150e+005,-2.21762400092921e+001,-1.26781636351984e+001

5.41916999912011e+005,-2.21781563593840e+001,-1.28540943919629e+001

