Freq.,VOut,OutRef

1.00000000000000e+004,-4.14937622910313e+000,-1.64066454938369e-002

1.01395947979003e+004,-4.14937622667772e+000,-1.66356737303718e-002

1.02811382665607e+004,-4.14937622418359e+000,-1.68678990856775e-002

1.04246576084112e+004,-4.14937622161992e+000,-1.71033661823836e-002

1.05701804056138e+004,-4.14937621898368e+000,-1.73421202806407e-002

1.07177346253629e+004,-4.14937621627331e+000,-1.75842072620486e-002

1.08673486252606e+004,-4.14937621348702e+000,-1.78296736501862e-002

1.10190511587661e+004,-4.14937621062238e+000,-1.80785666215465e-002

1.11728713807222e+004,-4.14937620767703e+000,-1.83309340106453e-002

1.13288388529580e+004,-4.14937620464911e+000,-1.85868243157599e-002

1.14869835499703e+004,-4.14937620153577e+000,-1.88462867184129e-002

1.16473358646846e+004,-4.14937619833502e+000,-1.91093710807373e-002

1.18099266142953e+004,-4.14937619504473e+000,-1.93761279608426e-002

1.19747870461893e+004,-4.14937619166116e+000,-1.96466086336860e-002

1.21419488439505e+004,-4.14937618818293e+000,-1.99208650731030e-002

1.23114441334492e+004,-4.14937618460702e+000,-2.01989499892579e-002

1.24833054890161e+004,-4.14937618093013e+000,-2.04809168292058e-002

1.26575659397028e+004,-4.14937617715047e+000,-2.07668197758817e-002

1.28342589756290e+004,-4.14937617326401e+000,-2.10567137823744e-002

1.30134185544193e+004,-4.14937616926859e+000,-2.13506545568988e-002

1.31950791077289e+004,-4.14937616516060e+000,-2.16486985934354e-002

1.33792755478611e+004,-4.14937616093744e+000,-2.19509031676536e-002

1.35660432744767e+004,-4.14937615659536e+000,-2.22573263621226e-002

1.37554181813974e+004,-4.14937615213121e+000,-2.25680270652111e-002

1.39474366635040e+004,-4.14937614754162e+000,-2.28830649881627e-002

1.41421356237309e+004,-4.14937614282288e+000,-2.32025006777886e-002

1.43395524801583e+004,-4.14937613797129e+000,-2.35263955248086e-002

1.45397251732031e+004,-4.14937613298355e+000,-2.38548117742049e-002

1.47426921729110e+004,-4.14937612785563e+000,-2.41878125434015e-002

1.49484924863494e+004,-4.14937612258369e+000,-2.45254618296731e-002

1.51571656651040e+004,-4.14937611716339e+000,-2.48678245254397e-002

1.53687518128801e+004,-4.14937611159035e+000,-2.52149664289260e-002

1.55832915932100e+004,-4.14937610586109e+000,-2.55669542502303e-002

1.58008262372675e+004,-4.14937609997052e+000,-2.59238556402809e-002

1.60213975517924e+004,-4.14937609391440e+000,-2.62857391880192e-002

1.62450479271247e+004,-4.14937608768823e+000,-2.66526744408639e-002

1.64718203453514e+004,-4.14937608128657e+000,-2.70247319222971e-002

1.67017583885674e+004,-4.14937607470560e+000,-2.74019831286399e-002

1.69349062472505e+004,-4.14937606793880e+000,-2.77845005711349e-002

1.71713087287550e+004,-4.14937606098239e+000,-2.81723577546897e-002

1.74110112659224e+004,-4.14937605383008e+000,-2.85656292253853e-002

1.76540599258131e+004,-4.14937604647686e+000,-2.89643905603697e-002

1.79005014185594e+004,-4.14937603891684e+000,-2.93687183972264e-002

1.81503831063432e+004,-4.14937603114432e+000,-2.97786904407929e-002

1.84037530124975e+004,-4.14937602315342e+000,-3.01943854801567e-002

1.86606598307361e+004,-4.14937601493766e+000,-3.06158834080905e-002

1.89211529345119e+004,-4.14937600649088e+000,-3.10432652286155e-002

1.91852823865052e+004,-4.14937599780696e+000,-3.14766130755138e-002

1.94530989482457e+004,-4.14937598887845e+000,-3.19160102365669e-002

1.97246540898671e+004,-4.14937597969911e+000,-3.23615411527224e-002

1.99999999999999e+004,-4.14937597026198e+000,-3.28132914476467e-002

2.02791895958005e+004,-4.14937596055938e+000,-3.32713479434298e-002

2.05622765331213e+004,-4.14937595058381e+000,-3.37357986716436e-002

2.08493152168224e+004,-4.14937594032768e+000,-3.42067328917245e-002

2.11403608112276e+004,-4.14937592978328e+000,-3.46842411090007e-002

2.14354692507258e+004,-4.14937591894284e+000,-3.51684150908881e-002

2.17346972505211e+004,-4.14937590779725e+000,-3.56593478931191e-002

2.20381023175322e+004,-4.14937589633834e+000,-3.61571338624624e-002

2.23457427614443e+004,-4.14937588455757e+000,-3.66618686640800e-002

2.26576777059159e+004,-4.14937587244527e+000,-3.71736493041838e-002

2.29739670999406e+004,-4.14937585999269e+000,-3.76925741351518e-002

2.32946717293690e+004,-4.14937584719006e+000,-3.82187428876836e-002

2.36198532285905e+004,-4.14937583402736e+000,-3.87522566841740e-002

2.39495740923785e+004,-4.14937582049456e+000,-3.92932180572839e-002

2.42838976879009e+004,-4.14937580658106e+000,-3.98417309725198e-002

2.46228882668982e+004,-4.14937579227679e+000,-4.03979008415967e-002

2.49666109780322e+004,-4.14937577757039e+000,-4.09618345538559e-002

2.53151318794055e+004,-4.14937576245026e+000,-4.15336404904503e-002

2.56685179512580e+004,-4.14937574690511e+000,-4.21134285416303e-002

2.60268371088386e+004,-4.14937573092296e+000,-4.27013101337093e-002

2.63901582154578e+004,-4.14937571449178e+000,-4.32973982466684e-002

2.67585510957221e+004,-4.14937569759822e+000,-4.39018074439703e-002

2.71320865489533e+004,-4.14937568022995e+000,-4.45146538795663e-002

2.75108363627948e+004,-4.14937566237352e+000,-4.51360553334163e-002

2.78948733270080e+004,-4.14937564401495e+000,-4.57661312312197e-002

2.82842712474618e+004,-4.14937562513998e+000,-4.64050026642183e-002

2.86791049603164e+004,-4.14937560573468e+000,-4.70527924101364e-002

2.90794503464061e+004,-4.14937558578360e+000,-4.77096249673482e-002

2.94853843458219e+004,-4.14937556527182e+000,-4.83756265664137e-002

2.98969849726987e+004,-4.14937554418352e+000,-4.90509252026908e-002

3.03143313302078e+004,-4.14937552250212e+000,-4.97356506604583e-002

3.07375036257601e+004,-4.14937550021101e+000,-5.04299345330245e-002

3.11665831864199e+004,-4.14937547729337e+000,-5.11339102488153e-002

3.16016524745350e+004,-4.14937545373169e+000,-5.18477131003767e-002

3.20427951035848e+004,-4.14937542950732e+000,-5.25714802730085e-002

3.24900958542493e+004,-4.14937540460171e+000,-5.33053508631544e-002

3.29436406907028e+004,-4.14937537899617e+000,-5.40494659063670e-002

3.34035167771346e+004,-4.14937535267091e+000,-5.48039684107220e-002

3.38698124945009e+004,-4.14937532560526e+000,-5.55690033827559e-002

3.43426174575100e+004,-4.14937529777899e+000,-5.63447178462968e-002

3.48220225318448e+004,-4.14937526916997e+000,-5.71312608870868e-002

3.53081198516260e+004,-4.14937523975699e+000,-5.79287836609172e-002

3.58010028371187e+004,-4.14937520951702e+000,-5.87374394421477e-002

3.63007662126863e+004,-4.14937517842698e+000,-5.95573836409895e-002

3.68075060249948e+004,-4.14937514646263e+000,-6.03887738403525e-002

3.73213196614721e+004,-4.14937511360001e+000,-6.12317698162917e-002

3.78423058690237e+004,-4.14937507981311e+000,-6.20865335847561e-002

3.83705647730104e+004,-4.14937504507646e+000,-6.29532294146170e-002

3.89061978964912e+004,-4.14937500936330e+000,-6.38320238721652e-002

3.94493081797342e+004,-4.14937497264605e+000,-6.47230858488053e-002

3.99999999999998e+004,-4.14937493489655e+000,-6.56265865925275e-002

4.05583791916010e+004,-4.14937489608590e+000,-6.65426997412910e-002

4.11245530662425e+004,-4.14937485618388e+000,-6.74716013608063e-002

4.16986304336447e+004,-4.14937481516037e+000,-6.84134699679043e-002

4.22807216224550e+004,-4.14937477298330e+000,-6.93684865786686e-002

4.28709385014515e+004,-4.14937472962049e+000,-7.03368347314716e-002

4.34693945010421e+004,-4.14937468503860e+000,-7.13187005273613e-002

4.40762046350642e+004,-4.14937463920344e+000,-7.23142726657722e-002

4.46914855228886e+004,-4.14937459207952e+000,-7.33237424821682e-002

4.53153554118317e+004,-4.14937454363086e+000,-7.43473039792642e-002

4.59479341998812e+004,-4.14937449382032e+000,-7.53851538695824e-002

4.65893434587380e+004,-4.14937444260903e+000,-7.64374916156430e-002

4.72397064571810e+004,-4.14937438995814e+000,-7.75045194570042e-002

4.78991481847569e+004,-4.14937433582717e+000,-7.85864424607906e-002

4.85677953758016e+004,-4.14937428017430e+000,-7.96834685570967e-002

4.92457765337964e+004,-4.14937422295691e+000,-8.07958085766469e-002

4.99332219560642e+004,-4.14937416413062e+000,-8.19236762967312e-002

5.06302637588109e+004,-4.14937410365078e+000,-8.30672884729899e-002

5.13370359025159e+004,-4.14937404147063e+000,-8.42268648917937e-002

5.20536742176771e+004,-4.14937397754223e+000,-8.54026284070373e-002

5.27803164309155e+004,-4.14937391181645e+000,-8.65948049826152e-002

5.35171021914442e+004,-4.14937384424309e+000,-8.78036237346712e-002

5.42641730979066e+004,-4.14937377476978e+000,-8.90293169828912e-002

5.50216727255895e+004,-4.14937370334349e+000,-9.02721202842546e-002

5.57897466540159e+004,-4.14937362990915e+000,-9.15322724879409e-002

5.65685424949235e+004,-4.14937355441024e+000,-9.28100157767519e-002

5.73582099206328e+004,-4.14937347678863e+000,-9.41055957142355e-002

5.81589006928121e+004,-4.14937339698495e+000,-9.54192612894355e-002

5.89707686916437e+004,-4.14937331493758e+000,-9.67512649706895e-002

5.97939699453972e+004,-4.14937323058364e+000,-9.81018627486018e-002

6.06286626604156e+004,-4.14937314385813e+000,-9.94713141882874e-002

6.14750072515201e+004,-4.14937305469451e+000,-1.00859882476891e-001

6.23331663728396e+004,-4.14937296302409e+000,-1.02267834477851e-001

6.32033049490698e+004,-4.14937286877628e+000,-1.03695440779130e-001

6.40855902071694e+004,-4.14937277187914e+000,-1.05142975742064e-001

6.49801917084985e+004,-4.14937267225769e+000,-1.06610717564793e-001

6.58872813814055e+004,-4.14937256983551e+000,-1.08098948324182e-001

6.68070335542691e+004,-4.14937246453401e+000,-1.09607954035287e-001

6.77396249890018e+004,-4.14937235627201e+000,-1.11138024708490e-001

6.86852349150199e+004,-4.14937224496614e+000,-1.12689454401253e-001

6.96440450636895e+004,-4.14937213053125e+000,-1.14262541273079e-001

7.06162397032520e+004,-4.14937201287903e+000,-1.15857587650539e-001

7.16020056742374e+004,-4.14937189191926e+000,-1.17474900076485e-001

7.26015324253724e+004,-4.14937176755882e+000,-1.19114789375325e-001

7.36150120499896e+004,-4.14937163970225e+000,-1.20777570709411e-001

7.46426393229441e+004,-4.14937150825097e+000,-1.22463563642491e-001

7.56846117380472e+004,-4.14937137310408e+000,-1.24173092197252e-001

7.67411295460207e+004,-4.14937123415788e+000,-1.25906484919078e-001

7.78123957929823e+004,-4.14937109130527e+000,-1.27664074942396e-001

7.88986163594682e+004,-4.14937094443665e+000,-1.29446200049593e-001

7.99999999999995e+004,-4.14937079343879e+000,-1.31253202741434e-001

8.11167583832018e+004,-4.14937063819601e+000,-1.33085430295423e-001

8.22491061324848e+004,-4.14937047858861e+000,-1.34943234841328e-001

8.33972608672892e+004,-4.14937031449416e+000,-1.36826973421505e-001

8.45614432449099e+004,-4.14937014578618e+000,-1.38737008065471e-001

8.57418770029029e+004,-4.14936997233538e+000,-1.40673705852198e-001

8.69387890020841e+004,-4.14936979400828e+000,-1.42637438988513e-001

8.81524092701283e+004,-4.14936961066751e+000,-1.44628584877922e-001

8.93829710457770e+004,-4.14936942217248e+000,-1.46647526188791e-001

9.06307108236633e+004,-4.14936922837814e+000,-1.48694650933513e-001

9.18958683997622e+004,-4.14936902913557e+000,-1.50770352541272e-001

9.31786869174758e+004,-4.14936882429144e+000,-1.52875029933439e-001

9.44794129143618e+004,-4.14936861368847e+000,-1.55009087598915e-001

9.57982963695136e+004,-4.14936839716456e+000,-1.57172935675107e-001

9.71355907516031e+004,-4.14936817455332e+000,-1.59366990023684e-001

9.84915530675926e+004,-4.14936794568372e+000,-1.61591672310984e-001

9.98664439121282e+004,-4.14936771037964e+000,-1.63847410091768e-001

1.01260527517622e+005,-4.14936746846033e+000,-1.66134636887095e-001

1.02674071805032e+005,-4.14936721973989e+000,-1.68453792270619e-001

1.04107348435354e+005,-4.14936696402683e+000,-1.70805321954799e-001

1.05560632861831e+005,-4.14936670112482e+000,-1.73189677869991e-001

1.07034204382888e+005,-4.14936643083145e+000,-1.75607318259907e-001

1.08528346195813e+005,-4.14936615293928e+000,-1.78058707760756e-001

1.10043345451179e+005,-4.14936586723449e+000,-1.80544317497896e-001

1.11579493308032e+005,-4.14936557349756e+000,-1.83064625172699e-001

1.13137084989847e+005,-4.14936527150248e+000,-1.85620115156323e-001

1.14716419841265e+005,-4.14936496101723e+000,-1.88211278579828e-001

1.16317801385624e+005,-4.14936464180299e+000,-1.90838613432447e-001

1.17941537383287e+005,-4.14936431361454e+000,-1.93502624652841e-001

1.19587939890794e+005,-4.14936397619939e+000,-1.96203824231319e-001

1.21257325320831e+005,-4.14936362929840e+000,-1.98942731302508e-001

1.22950014503040e+005,-4.14936327264469e+000,-2.01719872251396e-001

1.24666332745679e+005,-4.14936290596401e+000,-2.04535780809865e-001

1.26406609898139e+005,-4.14936252897467e+000,-2.07390998159572e-001

1.28171180414339e+005,-4.14936214138666e+000,-2.10286073039284e-001

1.29960383416997e+005,-4.14936174290225e+000,-2.13221561845552e-001

1.31774562762811e+005,-4.14936133321491e+000,-2.16198028745141e-001

1.33614067108538e+005,-4.14936091200962e+000,-2.19216045779674e-001

1.35479249978003e+005,-4.14936047896289e+000,-2.22276192973743e-001

1.37370469830040e+005,-4.14936003374141e+000,-2.25379058454377e-001

1.39288090127379e+005,-4.14935957600327e+000,-2.28525238553619e-001

1.41232479406504e+005,-4.14935910539643e+000,-2.31715337931880e-001

1.43204011348474e+005,-4.14935862155895e+000,-2.34949969690639e-001

1.45203064850745e+005,-4.14935812411912e+000,-2.38229755487726e-001

1.47230024099979e+005,-4.14935761269432e+000,-2.41555325662927e-001

1.49285278645888e+005,-4.14935708689164e+000,-2.44927319351996e-001

1.51369223476094e+005,-4.14935654630669e+000,-2.48346384616316e-001

1.53482259092041e+005,-4.14935599052374e+000,-2.51813178564239e-001

1.55624791585964e+005,-4.14935541911584e+000,-2.55328367474435e-001

1.57797232718936e+005,-4.14935483164354e+000,-2.58892626930282e-001

1.59999999999999e+005,-4.14935422765530e+000,-2.62506641944828e-001

1.62233516766403e+005,-4.14935360668670e+000,-2.66171107095369e-001

1.64498212264969e+005,-4.14935296826038e+000,-2.69886726654929e-001

1.66794521734578e+005,-4.14935231188556e+000,-2.73654214728550e-001

1.69122886489819e+005,-4.14935163705784e+000,-2.77474295389518e-001

1.71483754005805e+005,-4.14935094325804e+000,-2.81347702823073e-001

1.73877578004168e+005,-4.14935022995309e+000,-2.85275181459598e-001

1.76304818540256e+005,-4.14934949659448e+000,-2.89257486124995e-001

1.78765942091554e+005,-4.14934874261874e+000,-2.93295382180390e-001

1.81261421647326e+005,-4.14934796744581e+000,-2.97389645676124e-001

1.83791736799524e+005,-4.14934717048005e+000,-3.01541063492315e-001

1.86357373834951e+005,-4.14934635110874e+000,-3.05750433496401e-001

1.88958825828723e+005,-4.14934550870190e+000,-3.10018564694925e-001

1.91596592739027e+005,-4.14934464261202e+000,-3.14346277387300e-001

1.94271181503206e+005,-4.14934375217327e+000,-3.18734403326191e-001

1.96983106135185e+005,-4.14934283670108e+000,-3.23183785876185e-001

1.99732887824256e+005,-4.14934189549169e+000,-3.27695280174909e-001

2.02521055035243e+005,-4.14934092782163e+000,-3.32269753299252e-001

2.05348143610063e+005,-4.14933993294685e+000,-3.36908084431380e-001

2.08214696870707e+005,-4.14933891010277e+000,-3.41611165026463e-001

2.11121265723661e+005,-4.14933785850277e+000,-3.46379898987908e-001

2.14068408765776e+005,-4.14933677733869e+000,-3.51215202835095e-001

2.17056692391625e+005,-4.14933566577916e+000,-3.56118005886338e-001

2.20086690902357e+005,-4.14933452296989e+000,-3.61089250431189e-001

2.23158986616063e+005,-4.14933334803231e+000,-3.66129891916401e-001

2.26274169979693e+005,-4.14933214006309e+000,-3.71240899128033e-001

2.29432839682530e+005,-4.14933089813366e+000,-3.76423254377239e-001

2.32635602771247e+005,-4.14932962128930e+000,-3.81677953689125e-001

2.35883074766574e+005,-4.14932830854840e+000,-3.87006006995459e-001

2.39175879781588e+005,-4.14932695890181e+000,-3.92408438327544e-001

2.42514650641661e+005,-4.14932557131209e+000,-3.97886286013026e-001

2.45900029006080e+005,-4.14932414471246e+000,-4.03440602877581e-001

2.49332665491357e+005,-4.14932267800625e+000,-4.09072456445289e-001

2.52813219796278e+005,-4.14932117006588e+000,-4.14782929144768e-001

2.56342360828676e+005,-4.14931961973226e+000,-4.20573118516302e-001

2.59920766833993e+005,-4.14931802581347e+000,-4.26444137425476e-001

2.63549125525621e+005,-4.14931638708437e+000,-4.32397114273359e-001

2.67228134217075e+005,-4.14931470228494e+000,-4.38433193218351e-001

2.70958499956006e+005,-4.14931297012037e+000,-4.44553534390002e-001

2.74740939660078e+005,-4.14931118925876e+000,-4.50759314119484e-001

2.78576180254757e+005,-4.14930935833127e+000,-4.57051725159195e-001

2.82464958813007e+005,-4.14930747593043e+000,-4.63431976915649e-001

2.86408022696948e+005,-4.14930554060908e+000,-4.69901295682296e-001

2.90406129701488e+005,-4.14930355087950e+000,-4.76460924873482e-001

2.94460048199957e+005,-4.14930150521218e+000,-4.83112125264948e-001

2.98570557291775e+005,-4.14929940203456e+000,-4.89856175235765e-001

3.02738446952187e+005,-4.14929723972992e+000,-4.96694371014631e-001

3.06964518184081e+005,-4.14929501663586e+000,-5.03628026929922e-001

3.11249583171928e+005,-4.14929273104371e+000,-5.10658475659391e-001

3.15594465437872e+005,-4.14929038119615e+000,-5.17787068491960e-001

3.19999999999997e+005,-4.14928796528714e+000,-5.25015175580656e-001

3.24467033532806e+005,-4.14928548145930e+000,-5.32344186213776e-001

3.28996424529938e+005,-4.14928292780335e+000,-5.39775509075883e-001

3.33589043469155e+005,-4.14928030235630e+000,-5.47310572521957e-001

3.38245772979638e+005,-4.14927760309986e+000,-5.54950824852252e-001

3.42967508011610e+005,-4.14927482795916e+000,-5.62697734589321e-001

3.47755156008335e+005,-4.14927197480076e+000,-5.70552790762751e-001

3.52609637080511e+005,-4.14926904143165e+000,-5.78517503192493e-001

3.57531884183106e+005,-4.14926602559677e+000,-5.86593402783295e-001

3.62522843294651e+005,-4.14926292497788e+000,-5.94782041816051e-001

3.67583473599047e+005,-4.14925973719152e+000,-6.03084994248672e-001

3.72714747669902e+005,-4.14925645978723e+000,-6.11503856017301e-001

3.77917651657445e+005,-4.14925309024570e+000,-6.20040245344503e-001

3.83193185478053e+005,-4.14924962597679e+000,-6.28695803050366e-001

3.88542363006410e+005,-4.14924606431745e+000,-6.37472192868640e-001

3.93966212270369e+005,-4.14924240253005e+000,-6.46371101765316e-001

3.99465775648511e+005,-4.14923863779961e+000,-6.55394240266937e-001

4.05042110070485e+005,-4.14923476723232e+000,-6.64543342785619e-001

4.10696287220124e+005,-4.14923078785293e+000,-6.73820167955678e-001

4.16429393741414e+005,-4.14922669660254e+000,-6.83226498970865e-001

4.22242531447321e+005,-4.14922249033641e+000,-6.92764143928040e-001

4.28136817531551e+005,-4.14921816582111e+000,-7.02434936176463e-001

4.34113384783250e+005,-4.14921371973258e+000,-7.12240734668416e-001

4.40173381804713e+005,-4.14920914865325e+000,-7.22183424318469e-001

4.46317973232124e+005,-4.14920444906953e+000,-7.32264916366306e-001

4.52548339959385e+005,-4.14919961736888e+000,-7.42487148745812e-001

4.58865679365059e+005,-4.14919464983749e+000,-7.52852086455311e-001

4.65271205542494e+005,-4.14918954265687e+000,-7.63361721939587e-001

4.71766149533147e+005,-4.14918429190151e+000,-7.74018075470329e-001

4.78351759563174e+005,-4.14917889353529e+000,-7.84823195537994e-001

4.85029301283321e+005,-4.14917334340887e+000,-7.95779159244034e-001

4.91800058012158e+005,-4.14916763725610e+000,-8.06888072702882e-001

4.98665330982714e+005,-4.14916177069110e+000,-8.18152071446132e-001

5.05626439592555e+005,-4.14915573920446e+000,-8.29573320836117e-001

5.12684721657352e+005,-4.14914953816020e+000,-8.41154016480413e-001

5.19841533667984e+005,-4.14914316279209e+000,-8.52896384656031e-001

5.27098251051240e+005,-4.14913660819976e+000,-8.64802682739364e-001

5.34456268434150e+005,-4.14912986934529e+000,-8.76875199639430e-001

5.41916999912011e+005,-4.14912294104906e+000,-8.89116256240511e-001

