Freq.,VOut,OutRef

1.00000000000000e+004,-2.69377646016638e+001,-4.82799632441941e-001

1.01395947979003e+004,-2.69377678350257e+001,-4.89539195348095e-001

1.02811382665607e+004,-2.69377711592875e+001,-4.96372836124560e-001

1.04246576084112e+004,-2.69377745770047e+001,-5.03301867925308e-001

1.05701804056138e+004,-2.69377780908045e+001,-5.10327622230041e-001

1.07177346253629e+004,-2.69377817033880e+001,-5.17451449100192e-001

1.08673486252606e+004,-2.69377854175322e+001,-5.24674717436874e-001

1.10190511587661e+004,-2.69377892360923e+001,-5.31998815244890e-001

1.11728713807222e+004,-2.69377931620036e+001,-5.39425149898301e-001

1.13288388529580e+004,-2.69377971982840e+001,-5.46955148411318e-001

1.14869835499703e+004,-2.69378013480363e+001,-5.54590257710622e-001

1.16473358646846e+004,-2.69378056144502e+001,-5.62331944916346e-001

1.18099266142953e+004,-2.69378100008055e+001,-5.70181697619206e-001

1.19747870461893e+004,-2.69378145104739e+001,-5.78141024169258e-001

1.21419488439505e+004,-2.69378191469220e+001,-5.86211453965360e-001

1.23114441334492e+004,-2.69378239137138e+001,-5.94394537745680e-001

1.24833054890161e+004,-2.69378288145135e+001,-6.02691847888935e-001

1.26575659397028e+004,-2.69378338530882e+001,-6.11104978713315e-001

1.28342589756290e+004,-2.69378390333112e+001,-6.19635546783240e-001

1.30134185544193e+004,-2.69378443591643e+001,-6.28285191220872e-001

1.31950791077289e+004,-2.69378498347415e+001,-6.37055574018788e-001

1.33792755478611e+004,-2.69378554642516e+001,-6.45948380359165e-001

1.35660432744767e+004,-2.69378612520221e+001,-6.54965318937525e-001

1.37554181813974e+004,-2.69378672025017e+001,-6.64108122290592e-001

1.39474366635040e+004,-2.69378733202647e+001,-6.73378547127198e-001

1.41421356237309e+004,-2.69378796100132e+001,-6.82778374668061e-001

1.43395524801583e+004,-2.69378860765822e+001,-6.92309410984416e-001

1.45397251732031e+004,-2.69378927249423e+001,-7.01973487345838e-001

1.47426921729110e+004,-2.69378995602038e+001,-7.11772460571114e-001

1.49484924863494e+004,-2.69379065876206e+001,-7.21708213384959e-001

1.51571656651040e+004,-2.69379138125944e+001,-7.31782654777453e-001

1.53687518128801e+004,-2.69379212406787e+001,-7.41997720371755e-001

1.55832915932100e+004,-2.69379288775831e+001,-7.52355372793876e-001

1.58008262372675e+004,-2.69379367291776e+001,-7.62857602050047e-001

1.60213975517924e+004,-2.69379448014973e+001,-7.73506425907352e-001

1.62450479271247e+004,-2.69379531007469e+001,-7.84303890280454e-001

1.64718203453514e+004,-2.69379616333053e+001,-7.95252069624521e-001

1.67017583885674e+004,-2.69379704057311e+001,-8.06353067331511e-001

1.69349062472505e+004,-2.69379794247670e+001,-8.17609016134635e-001

1.71713087287550e+004,-2.69379886973449e+001,-8.29022078516384e-001

1.74110112659224e+004,-2.69379982305922e+001,-8.40594447122554e-001

1.76540599258131e+004,-2.69380080318361e+001,-8.52328345182286e-001

1.79005014185594e+004,-2.69380181086099e+001,-8.64226026935304e-001

1.81503831063432e+004,-2.69380284686586e+001,-8.76289778061704e-001

1.84037530124975e+004,-2.69380391199450e+001,-8.88521916120694e-001

1.86606598307361e+004,-2.69380500706556e+001,-9.00924790995008e-001

1.89211529345119e+004,-2.69380613292069e+001,-9.13500785340065e-001

1.91852823865052e+004,-2.69380729042520e+001,-9.26252315040518e-001

1.94530989482457e+004,-2.69380848046873e+001,-9.39181829672360e-001

1.97246540898671e+004,-2.69380970396591e+001,-9.52291812972210e-001

1.99999999999999e+004,-2.69381096185706e+001,-9.65584783313316e-001

2.02791895958005e+004,-2.69381225510897e+001,-9.79063294185863e-001

2.05622765331213e+004,-2.69381358471557e+001,-9.92729934687378e-001

2.08493152168224e+004,-2.69381495169871e+001,-1.00658733001749e+000

2.11403608112276e+004,-2.69381635710898e+001,-1.02063814198001e+000

2.14354692507258e+004,-2.69381780202648e+001,-1.03488506949192e+000

2.17346972505211e+004,-2.69381928756169e+001,-1.04933084910006e+000

2.20381023175322e+004,-2.69382081485624e+001,-1.06397825550459e+000

2.23457427614443e+004,-2.69382238508390e+001,-1.07883010208887e+000

2.26576777059159e+004,-2.69382399945141e+001,-1.09388924145764e+000

2.29739670999406e+004,-2.69382565919937e+001,-1.10915856598358e+000

2.32946717293690e+004,-2.69382736560332e+001,-1.12464100835743e+000

2.36198532285905e+004,-2.69382911997458e+001,-1.14033954215133e+000

2.39495740923785e+004,-2.69383092366134e+001,-1.15625718238495e+000

2.42838976879009e+004,-2.69383277804969e+001,-1.17239698610232e+000

2.46228882668982e+004,-2.69383468456464e+001,-1.18876205295581e+000

2.49666109780322e+004,-2.69383664467123e+001,-1.20535552579857e+000

2.53151318794055e+004,-2.69383865987570e+001,-1.22218059128223e+000

2.56685179512580e+004,-2.69384073172660e+001,-1.23924048046885e+000

2.60268371088386e+004,-2.69384286181597e+001,-1.25653846944503e+000

2.63901582154578e+004,-2.69384505178061e+001,-1.27407787994787e+000

2.67585510957221e+004,-2.69384730330326e+001,-1.29186207999939e+000

2.71320865489533e+004,-2.69384961811399e+001,-1.30989448454733e+000

2.75108363627948e+004,-2.69385199799145e+001,-1.32817855611866e+000

2.78948733270080e+004,-2.69385444476426e+001,-1.34671780547770e+000

2.82842712474618e+004,-2.69385696031240e+001,-1.36551579229738e+000

2.86791049603164e+004,-2.69385954656869e+001,-1.38457612583583e+000

2.90794503464061e+004,-2.69386220552023e+001,-1.40390246562498e+000

2.94853843458219e+004,-2.69386493920996e+001,-1.42349852216846e+000

2.98969849726987e+004,-2.69386774973818e+001,-1.44336805764657e+000

3.03143313302078e+004,-2.69387063926420e+001,-1.46351488663404e+000

3.07375036257601e+004,-2.69387361000800e+001,-1.48394287682582e+000

3.11665831864199e+004,-2.69387666425190e+001,-1.50465594977271e+000

3.16016524745350e+004,-2.69387980434233e+001,-1.52565808162716e+000

3.20427951035848e+004,-2.69388303269161e+001,-1.54695330390134e+000

3.24900958542493e+004,-2.69388635177987e+001,-1.56854570423115e+000

3.29436406907028e+004,-2.69388976415683e+001,-1.59043942715503e+000

3.34035167771346e+004,-2.69389327244385e+001,-1.61263867490143e+000

3.38698124945009e+004,-2.69389687933592e+001,-1.63514770818539e+000

3.43426174575100e+004,-2.69390058760370e+001,-1.65797084702030e+000

3.48220225318448e+004,-2.69390440009566e+001,-1.68111247153529e+000

3.53081198516260e+004,-2.69390831974027e+001,-1.70457702280865e+000

3.58010028371187e+004,-2.69391234954823e+001,-1.72836900370894e+000

3.63007662126863e+004,-2.69391649261477e+001,-1.75249297974960e+000

3.68075060249948e+004,-2.69392075212205e+001,-1.77695357995424e+000

3.73213196614721e+004,-2.69392513134157e+001,-1.80175549773327e+000

3.78423058690237e+004,-2.69392963363668e+001,-1.82690349177385e+000

3.83705647730104e+004,-2.69393426246518e+001,-1.85240238693957e+000

3.89061978964912e+004,-2.69393902138193e+001,-1.87825707518571e+000

3.94493081797342e+004,-2.69394391404160e+001,-1.90447251648199e+000

3.99999999999998e+004,-2.69394894420145e+001,-1.93105373975221e+000

4.05583791916010e+004,-2.69395411572422e+001,-1.95800584382475e+000

4.11245530662425e+004,-2.69395943258108e+001,-1.98533399839472e+000

4.16986304336447e+004,-2.69396489885466e+001,-2.01304344500109e+000

4.22807216224550e+004,-2.69397051874219e+001,-2.04113949801546e+000

4.28709385014515e+004,-2.69397629655871e+001,-2.06962754564411e+000

4.34693945010421e+004,-2.69398223674036e+001,-2.09851305094499e+000

4.40762046350642e+004,-2.69398834384776e+001,-2.12780155285609e+000

4.46914855228886e+004,-2.69399462256955e+001,-2.15749866723893e+000

4.53153554118317e+004,-2.69400107772591e+001,-2.18761008793511e+000

4.59479341998812e+004,-2.69400771427228e+001,-2.21814158783841e+000

4.65893434587380e+004,-2.69401453730317e+001,-2.24909901997830e+000

4.72397064571810e+004,-2.69402155205598e+001,-2.28048831862128e+000

4.78991481847569e+004,-2.69402876391508e+001,-2.31231550038376e+000

4.85677953758016e+004,-2.69403617841589e+001,-2.34458666536200e+000

4.92457765337964e+004,-2.69404380124910e+001,-2.37730799827447e+000

4.99332219560642e+004,-2.69405163826503e+001,-2.41048576962173e+000

5.06302637588109e+004,-2.69405969547809e+001,-2.44412633686056e+000

5.13370359025159e+004,-2.69406797907139e+001,-2.47823614559199e+000

5.20536742176771e+004,-2.69407649540142e+001,-2.51282173076820e+000

5.27803164309155e+004,-2.69408525100295e+001,-2.54788971791138e+000

5.35171021914442e+004,-2.69409425259397e+001,-2.58344682435166e+000

5.42641730979066e+004,-2.69410350708084e+001,-2.61949986047925e+000

5.50216727255895e+004,-2.69411302156356e+001,-2.65605573101385e+000

5.57897466540159e+004,-2.69412280334117e+001,-2.69312143628933e+000

5.65685424949235e+004,-2.69413285991732e+001,-2.73070407355651e+000

5.73582099206328e+004,-2.69414319900599e+001,-2.76881083830208e+000

5.81589006928121e+004,-2.69415382853737e+001,-2.80744902558339e+000

5.89707686916437e+004,-2.69416475666388e+001,-2.84662603138244e+000

5.97939699453972e+004,-2.69417599176640e+001,-2.88634935397648e+000

6.06286626604156e+004,-2.69418754246067e+001,-2.92662659532402e+000

6.14750072515201e+004,-2.69419941760379e+001,-2.96746546247245e+000

6.23331663728396e+004,-2.69421162630099e+001,-3.00887376897960e+000

6.32033049490698e+004,-2.69422417791260e+001,-3.05085943635636e+000

6.40855902071694e+004,-2.69423708206107e+001,-3.09343049552564e+000

6.49801917084985e+004,-2.69425034863838e+001,-3.13659508829993e+000

6.58872813814055e+004,-2.69426398781350e+001,-3.18036146887882e+000

6.68070335542691e+004,-2.69427801004014e+001,-3.22473800536285e+000

6.77396249890018e+004,-2.69429242606470e+001,-3.26973318128862e+000

6.86852349150199e+004,-2.69430724693437e+001,-3.31535559718171e+000

6.96440450636895e+004,-2.69432248400560e+001,-3.36161397212846e+000

7.06162397032520e+004,-2.69433814895264e+001,-3.40851714536823e+000

7.16020056742374e+004,-2.69435425377645e+001,-3.45607407790449e+000

7.26015324253724e+004,-2.69437081081376e+001,-3.50429385413607e+000

7.36150120499896e+004,-2.69438783274643e+001,-3.55318568350742e+000

7.46426393229441e+004,-2.69440533261106e+001,-3.60275890218020e+000

7.56846117380472e+004,-2.69442332380888e+001,-3.65302297472380e+000

7.67411295460207e+004,-2.69444182011583e+001,-3.70398749582706e+000

7.78123957929823e+004,-2.69446083569307e+001,-3.75566219202983e+000

7.88986163594682e+004,-2.69448038509760e+001,-3.80805692347604e+000

7.99999999999995e+004,-2.69450048329333e+001,-3.86118168568572e+000

8.11167583832018e+004,-2.69452114566235e+001,-3.91504661135103e+000

8.22491061324848e+004,-2.69454238801656e+001,-3.96966197214948e+000

8.33972608672892e+004,-2.69456422660958e+001,-4.02503818058159e+000

8.45614432449099e+004,-2.69458667814905e+001,-4.08118579182761e+000

8.57418770029029e+004,-2.69460975980917e+001,-4.13811550562716e+000

8.69387890020841e+004,-2.69463348924370e+001,-4.19583816817890e+000

8.81524092701283e+004,-2.69465788459922e+001,-4.25436477406342e+000

8.93829710457770e+004,-2.69468296452878e+001,-4.31370646818659e+000

9.06307108236633e+004,-2.69470874820595e+001,-4.37387454774448e+000

9.18958683997622e+004,-2.69473525533924e+001,-4.43488046421198e+000

9.31786869174758e+004,-2.69476250618687e+001,-4.49673582535073e+000

9.44794129143618e+004,-2.69479052157201e+001,-4.55945239724182e+000

9.57982963695136e+004,-2.69481932289838e+001,-4.62304210633780e+000

9.71355907516031e+004,-2.69484893216633e+001,-4.68751704153896e+000

9.84915530675926e+004,-2.69487937198927e+001,-4.75288945629083e+000

9.98664439121282e+004,-2.69491066561066e+001,-4.81917177070353e+000

1.01260527517622e+005,-2.69494283692132e+001,-4.88637657369412e+000

1.02674071805032e+005,-2.69497591047738e+001,-4.95451662515076e+000

1.04107348435354e+005,-2.69500991151854e+001,-5.02360485811819e+000

1.05560632861831e+005,-2.69504486598694e+001,-5.09365438100725e+000

1.07034204382888e+005,-2.69508080054653e+001,-5.16467847982455e+000

1.08528346195813e+005,-2.69511774260285e+001,-5.23669062042571e+000

1.10043345451179e+005,-2.69515572032355e+001,-5.30970445078909e+000

1.11579493308032e+005,-2.69519476265921e+001,-5.38373380331311e+000

1.13137084989847e+005,-2.69523489936494e+001,-5.45879269713411e+000

1.14716419841265e+005,-2.69527616102243e+001,-5.53489534046652e+000

1.16317801385624e+005,-2.69531857906262e+001,-5.61205613296409e+000

1.17941537383287e+005,-2.69536218578899e+001,-5.69028966810312e+000

1.19587939890794e+005,-2.69540701440146e+001,-5.76961073558635e+000

1.21257325320831e+005,-2.69545309902094e+001,-5.85003432376859e+000

1.22950014503040e+005,-2.69550047471449e+001,-5.93157562210222e+000

1.24666332745679e+005,-2.69554917752122e+001,-6.01425002360397e+000

1.26406609898139e+005,-2.69559924447881e+001,-6.09807312734187e+000

1.28171180414339e+005,-2.69565071365076e+001,-6.18306074094177e+000

1.29960383416997e+005,-2.69570362415435e+001,-6.26922888311431e+000

1.31774562762811e+005,-2.69575801618937e+001,-6.35659378620064e+000

1.33614067108538e+005,-2.69581393106756e+001,-6.44517189873685e+000

1.35479249978003e+005,-2.69587141124283e+001,-6.53497988803808e+000

1.37370469830040e+005,-2.69593050034234e+001,-6.62603464279918e+000

1.39288090127379e+005,-2.69599124319825e+001,-6.71835327571491e+000

1.41232479406504e+005,-2.69605368588046e+001,-6.81195312611479e+000

1.43204011348474e+005,-2.69611787573010e+001,-6.90685176261728e+000

1.45203064850745e+005,-2.69618386139391e+001,-7.00306698579749e+000

1.47230024099979e+005,-2.69625169285954e+001,-7.10061683087248e+000

1.49285278645888e+005,-2.69632142149172e+001,-7.19951957039867e+000

1.51369223476094e+005,-2.69639310006940e+001,-7.29979371698636e+000

1.53482259092041e+005,-2.69646678282382e+001,-7.40145802602449e+000

1.55624791585964e+005,-2.69654252547756e+001,-7.50453149842017e+000

1.57797232718936e+005,-2.69662038528461e+001,-7.60903338334813e+000

1.59999999999999e+005,-2.69670042107142e+001,-7.71498318101217e+000

1.62233516766403e+005,-2.69678269327907e+001,-7.82240064541510e+000

1.64498212264969e+005,-2.69686726400638e+001,-7.93130578713896e+000

1.66794521734578e+005,-2.69695419705427e+001,-8.04171887613106e+000

1.69122886489819e+005,-2.69704355797109e+001,-8.15366044449790e+000

1.71483754005805e+005,-2.69713541409919e+001,-8.26715128930453e+000

1.73877578004168e+005,-2.69722983462261e+001,-8.38221247537688e+000

1.76304818540256e+005,-2.69732689061595e+001,-8.49886533810766e+000

1.78765942091554e+005,-2.69742665509448e+001,-8.61713148626417e+000

1.81261421647326e+005,-2.69752920306549e+001,-8.73703280479470e+000

1.83791736799524e+005,-2.69763461158087e+001,-8.85859145763456e+000

1.86357373834951e+005,-2.69774295979102e+001,-8.98182989050852e+000

1.88958825828723e+005,-2.69785432900006e+001,-9.10677083372780e+000

1.91596592739027e+005,-2.69796880272236e+001,-9.23343730498197e+000

1.94271181503206e+005,-2.69808646674048e+001,-9.36185261212011e+000

1.96983106135185e+005,-2.69820740916448e+001,-9.49204035592383e+000

1.99732887824256e+005,-2.69833172049266e+001,-9.62402443286589e+000

2.02521055035243e+005,-2.69845949367377e+001,-9.75782903785591e+000

2.05348143610063e+005,-2.69859082417059e+001,-9.89347866696760e+000

2.08214696870707e+005,-2.69872581002520e+001,-1.00309981201481e+001

2.11121265723661e+005,-2.69886455192560e+001,-1.01704125039050e+001

2.14068408765776e+005,-2.69900715327398e+001,-1.03117472339695e+001

2.17056692391625e+005,-2.69915372025653e+001,-1.04550280379333e+001

2.20086690902357e+005,-2.69930436191491e+001,-1.06002809578542e+001

2.23158986616063e+005,-2.69945919021928e+001,-1.07475323528314e+001

2.26274169979693e+005,-2.69961832014308e+001,-1.08968089015440e+001

2.29432839682530e+005,-2.69978186973938e+001,-1.10481376047514e+001

2.32635602771247e+005,-2.69994996021907e+001,-1.12015457877514e+001

2.35883074766574e+005,-2.70012271603067e+001,-1.13570611027936e+001

2.39175879781588e+005,-2.70030026494199e+001,-1.15147115314439e+001

2.42514650641661e+005,-2.70048273812351e+001,-1.16745253868962e+001

2.45900029006080e+005,-2.70067027023362e+001,-1.18365313162279e+001

2.49332665491357e+005,-2.70086299950561e+001,-1.20007583025957e+001

2.52813219796278e+005,-2.70106106783662e+001,-1.21672356673665e+001

2.56342360828676e+005,-2.70126462087838e+001,-1.23359930721795e+001

2.59920766833993e+005,-2.70147380812983e+001,-1.25070605209362e+001

2.63549125525621e+005,-2.70168878303174e+001,-1.26804683617112e+001

2.67228134217075e+005,-2.70190970306315e+001,-1.28562472885824e+001

2.70958499956006e+005,-2.70213672983985e+001,-1.30344283433726e+001

2.74740939660078e+005,-2.70237002921473e+001,-1.32150429172984e+001

2.78576180254757e+005,-2.70260977138016e+001,-1.33981227525232e+001

2.82464958813007e+005,-2.70285613097233e+001,-1.35836999436045e+001

2.86408022696948e+005,-2.70310928717760e+001,-1.37718069388348e+001

2.90406129701488e+005,-2.70336942384080e+001,-1.39624765414657e+001

2.94460048199957e+005,-2.70363672957561e+001,-1.41557419108131e+001

2.98570557291775e+005,-2.70391139787689e+001,-1.43516365632345e+001

3.02738446952187e+005,-2.70419362723504e+001,-1.45501943729733e+001

3.06964518184081e+005,-2.70448362125235e+001,-1.47514495728633e+001

3.11249583171928e+005,-2.70478158876140e+001,-1.49554367548867e+001

3.15594465437872e+005,-2.70508774394543e+001,-1.51621908705781e+001

3.19999999999997e+005,-2.70540230646065e+001,-1.53717472312677e+001

3.24467033532806e+005,-2.70572550156058e+001,-1.55841415081575e+001

3.28996424529938e+005,-2.70605756022235e+001,-1.57994097322193e+001

3.33589043469155e+005,-2.70639871927490e+001,-1.60175882939120e+001

3.38245772979638e+005,-2.70674922152905e+001,-1.62387139427050e+001

3.42967508011610e+005,-2.70710931590958e+001,-1.64628237864036e+001

3.47755156008335e+005,-2.70747925758899e+001,-1.66899552902652e+001

3.52609637080511e+005,-2.70785930812320e+001,-1.69201462758998e+001

3.57531884183106e+005,-2.70824973558892e+001,-1.71534349199444e+001

3.62522843294651e+005,-2.70865081472277e+001,-1.73898597525037e+001

3.67583473599047e+005,-2.70906282706208e+001,-1.76294596553470e+001

3.72714747669902e+005,-2.70948606108726e+001,-1.78722738598526e+001

3.77917651657445e+005,-2.70992081236566e+001,-1.81183419446907e+001

3.83193185478053e+005,-2.71036738369698e+001,-1.83677038332336e+001

3.88542363006410e+005,-2.71082608526001e+001,-1.86203997906849e+001

3.93966212270369e+005,-2.71129723476060e+001,-1.88764704209181e+001

3.99465775648511e+005,-2.71178115758097e+001,-1.91359566630127e+001

4.05042110070485e+005,-2.71227818692997e+001,-1.93988997874796e+001

4.10696287220124e+005,-2.71278866399439e+001,-1.96653413921651e+001

4.16429393741414e+005,-2.71331293809118e+001,-1.99353233978221e+001

4.22242531447321e+005,-2.71385136682030e+001,-2.02088880433398e+001

4.28136817531551e+005,-2.71440431621828e+001,-2.04860778806202e+001

4.34113384783250e+005,-2.71497216091216e+001,-2.07669357690917e+001

4.40173381804713e+005,-2.71555528427379e+001,-2.10515048698489e+001

4.46317973232124e+005,-2.71615407857421e+001,-2.13398286394086e+001

4.52548339959385e+005,-2.71676894513804e+001,-2.16319508230707e+001

4.58865679365059e+005,-2.71740029449761e+001,-2.19279154478755e+001

4.65271205542494e+005,-2.71804854654669e+001,-2.22277668151452e+001

4.71766149533147e+005,-2.71871413069355e+001,-2.25315494926002e+001

4.78351759563174e+005,-2.71939748601319e+001,-2.28393083060413e+001

4.85029301283321e+005,-2.72009906139852e+001,-2.31510883305866e+001

4.91800058012158e+005,-2.72081931571008e+001,-2.34669348814543e+001

4.98665330982714e+005,-2.72155871792430e+001,-2.37868935042828e+001

5.05626439592555e+005,-2.72231774727986e+001,-2.41110099649779e+001

5.12684721657352e+005,-2.72309689342181e+001,-2.44393302390801e+001

5.19841533667984e+005,-2.72389665654335e+001,-2.47719005006428e+001

5.27098251051240e+005,-2.72471754752482e+001,-2.51087671106148e+001

5.34456268434150e+005,-2.72556008806956e+001,-2.54499766047190e+001

5.41916999912011e+005,-2.72642481083637e+001,-2.57955756808217e+001

