Freq.,VOut,OutRef

1.00000000000000e+004,-9.17475749329278e+000,-4.60686334103467e-002

1.01395947979003e+004,-9.17475747769099e+000,-4.67117276081562e-002

1.02811382665607e+004,-9.17475746165055e+000,-4.73637990685439e-002

1.04246576084112e+004,-9.17475744515918e+000,-4.80249731087733e-002

1.05701804056138e+004,-9.17475742820419e+000,-4.86953767964213e-002

1.07177346253629e+004,-9.17475741077239e+000,-4.93751389738051e-002

1.08673486252606e+004,-9.17475739285066e+000,-5.00643902787223e-002

1.10190511587661e+004,-9.17475737442501e+000,-5.07632631757343e-002

1.11728713807222e+004,-9.17475735548147e+000,-5.14718919763280e-002

1.13288388529580e+004,-9.17475733600533e+000,-5.21904128688800e-002

1.14869835499703e+004,-9.17475731598150e+000,-5.29189639425576e-002

1.16473358646846e+004,-9.17475729539473e+000,-5.36576852127314e-002

1.18099266142953e+004,-9.17475727422933e+000,-5.44067186493657e-002

1.19747870461893e+004,-9.17475725246884e+000,-5.51662082060678e-002

1.21419488439505e+004,-9.17475723009662e+000,-5.59362998445456e-002

1.23114441334492e+004,-9.17475720709533e+000,-5.67171415653040e-002

1.24833054890161e+004,-9.17475718344753e+000,-5.75088834325762e-002

1.26575659397028e+004,-9.17475715913463e+000,-5.83116776092345e-002

1.28342589756290e+004,-9.17475713413836e+000,-5.91256783774606e-002

1.30134185544193e+004,-9.17475710843931e+000,-5.99510421767128e-002

1.31950791077289e+004,-9.17475708201789e+000,-6.07879276281599e-002

1.33792755478611e+004,-9.17475705485365e+000,-6.16364955690147e-002

1.35660432744767e+004,-9.17475702692567e+000,-6.24969090811910e-002

1.37554181813974e+004,-9.17475699821252e+000,-6.33693335226462e-002

1.39474366635040e+004,-9.17475696869196e+000,-6.42539365608848e-002

1.41421356237309e+004,-9.17475693834165e+000,-6.51508882006237e-002

1.43395524801583e+004,-9.17475690713824e+000,-6.60603608224318e-002

1.45397251732031e+004,-9.17475687505739e+000,-6.69825292149946e-002

1.47426921729110e+004,-9.17475684207448e+000,-6.79175706046965e-002

1.49484924863494e+004,-9.17475680816449e+000,-6.88656646899202e-002

1.51571656651040e+004,-9.17475677330119e+000,-6.98269936806706e-002

1.53687518128801e+004,-9.17475673745770e+000,-7.08017423302384e-002

1.55832915932100e+004,-9.17475670060643e+000,-7.17900979704226e-002

1.58008262372675e+004,-9.17475666271907e+000,-7.27922505480261e-002

1.60213975517924e+004,-9.17475662376665e+000,-7.38083926600395e-002

1.62450479271247e+004,-9.17475658371932e+000,-7.48387195930132e-002

1.64718203453514e+004,-9.17475654254578e+000,-7.58834293633077e-002

1.67017583885674e+004,-9.17475650021506e+000,-7.69427227435345e-002

1.69349062472505e+004,-9.17475645669399e+000,-7.80168033179357e-002

1.71713087287550e+004,-9.17475641194946e+000,-7.91058775058206e-002

1.74110112659224e+004,-9.17475636594700e+000,-8.02101546113348e-002

1.76540599258131e+004,-9.17475631865114e+000,-8.13298468601176e-002

1.79005014185594e+004,-9.17475627002568e+000,-8.24651694389897e-002

1.81503831063432e+004,-9.17475622003321e+000,-8.36163405398194e-002

1.84037530124975e+004,-9.17475616863526e+000,-8.47835814003621e-002

1.86606598307361e+004,-9.17475611579237e+000,-8.59671163461508e-002

1.89211529345119e+004,-9.17475606146372e+000,-8.71671728357798e-002

1.91852823865052e+004,-9.17475600560769e+000,-8.83839815011226e-002

1.94530989482457e+004,-9.17475594818143e+000,-8.96177761935601e-002

1.97246540898671e+004,-9.17475588914063e+000,-9.08687940307810e-002

1.99999999999999e+004,-9.17475582844011e+000,-9.21372754381113e-002

2.02791895958005e+004,-9.17475576603279e+000,-9.34234642011089e-002

2.05622765331213e+004,-9.17475570187113e+000,-9.47276075030427e-002

2.08493152168224e+004,-9.17475563590575e+000,-9.60499559808358e-002

2.11403608112276e+004,-9.17475556808569e+000,-9.73907637715586e-002

2.14354692507258e+004,-9.17475549835899e+000,-9.87502885569112e-002

2.17346972505211e+004,-9.17475542667195e+000,-1.00128791617944e-001

2.20381023175322e+004,-9.17475535296946e+000,-1.01526537882084e-001

2.23457427614443e+004,-9.17475527719503e+000,-1.02943795973903e-001

2.26576777059159e+004,-9.17475519929044e+000,-1.04380838269261e-001

2.29739670999406e+004,-9.17475511919547e+000,-1.05837940948051e-001

2.32946717293690e+004,-9.17475503684868e+000,-1.07315384042654e-001

2.36198532285905e+004,-9.17475495218685e+000,-1.08813451495204e-001

2.39495740923785e+004,-9.17475486514501e+000,-1.10332431211050e-001

2.42838976879009e+004,-9.17475477565591e+000,-1.11872615117638e-001

2.46228882668982e+004,-9.17475468365095e+000,-1.13434299214071e-001

2.49666109780322e+004,-9.17475458905943e+000,-1.15017783632842e-001

2.53151318794055e+004,-9.17475449180855e+000,-1.16623372696310e-001

2.56685179512580e+004,-9.17475439182363e+000,-1.18251374974640e-001

2.60268371088386e+004,-9.17475428902772e+000,-1.19902103346430e-001

2.63901582154578e+004,-9.17475418334194e+000,-1.21575875056189e-001

2.67585510957221e+004,-9.17475407468492e+000,-1.23273011779063e-001

2.71320865489533e+004,-9.17475396297302e+000,-1.24993839680516e-001

2.75108363627948e+004,-9.17475384812039e+000,-1.26738689477940e-001

2.78948733270080e+004,-9.17475373003896e+000,-1.28507896504904e-001

2.82842712474618e+004,-9.17475360863791e+000,-1.30301800776924e-001

2.86791049603164e+004,-9.17475348382358e+000,-1.32120747058831e-001

2.90794503464061e+004,-9.17475335550035e+000,-1.33965084923265e-001

2.94853843458219e+004,-9.17475322356960e+000,-1.35835168825076e-001

2.98969849726987e+004,-9.17475308792966e+000,-1.37731358168688e-001

3.03143313302078e+004,-9.17475294847643e+000,-1.39654017373469e-001

3.07375036257601e+004,-9.17475280510252e+000,-1.41603515947698e-001

3.11665831864199e+004,-9.17475265769789e+000,-1.43580228555977e-001

3.16016524745350e+004,-9.17475250614907e+000,-1.45584535095025e-001

3.20427951035848e+004,-9.17475235033984e+000,-1.47616820762151e-001

3.24900958542493e+004,-9.17475219015012e+000,-1.49677476135454e-001

3.29436406907028e+004,-9.17475202545685e+000,-1.51766897243037e-001

3.34035167771346e+004,-9.17475185613339e+000,-1.53885485642316e-001

3.38698124945009e+004,-9.17475168204967e+000,-1.56033648495407e-001

3.43426174575100e+004,-9.17475150307190e+000,-1.58211798648538e-001

3.48220225318448e+004,-9.17475131906226e+000,-1.60420354713097e-001

3.53081198516260e+004,-9.17475112987943e+000,-1.62659741141870e-001

3.58010028371187e+004,-9.17475093537811e+000,-1.64930388312545e-001

3.63007662126863e+004,-9.17475073540849e+000,-1.67232732614032e-001

3.68075060249948e+004,-9.17475052981692e+000,-1.69567216524432e-001

3.73213196614721e+004,-9.17475031844551e+000,-1.71934288698189e-001

3.78423058690237e+004,-9.17475010113159e+000,-1.74334404055388e-001

3.83705647730104e+004,-9.17474987770831e+000,-1.76768023863702e-001

3.89061978964912e+004,-9.17474964800360e+000,-1.79235615833987e-001

3.94493081797342e+004,-9.17474941184102e+000,-1.81737654202777e-001

3.99999999999998e+004,-9.17474916903918e+000,-1.84274619827023e-001

4.05583791916010e+004,-9.17474891941106e+000,-1.86847000279805e-001

4.11245530662425e+004,-9.17474866276518e+000,-1.89455289935384e-001

4.16986304336447e+004,-9.17474839890398e+000,-1.92099990074004e-001

4.22807216224550e+004,-9.17474812762451e+000,-1.94781608972659e-001

4.28709385014515e+004,-9.17474784871853e+000,-1.97500662001197e-001

4.34693945010421e+004,-9.17474756197146e+000,-2.00257671726913e-001

4.40762046350642e+004,-9.17474726716275e+000,-2.03053168012086e-001

4.46914855228886e+004,-9.17474696406598e+000,-2.05887688113185e-001

4.53153554118317e+004,-9.17474665244789e+000,-2.08761776790252e-001

4.59479341998812e+004,-9.17474633206926e+000,-2.11675986404029e-001

4.65893434587380e+004,-9.17474600268349e+000,-2.14630877030369e-001

4.72397064571810e+004,-9.17474566403747e+000,-2.17627016561592e-001

4.78991481847569e+004,-9.17474531587080e+000,-2.20664980818102e-001

4.85677953758016e+004,-9.17474495791599e+000,-2.23745353657994e-001

4.92457765337964e+004,-9.17474458989776e+000,-2.26868727091427e-001

4.99332219560642e+004,-9.17474421153316e+000,-2.30035701392359e-001

5.06302637588109e+004,-9.17474382253126e+000,-2.33246885215144e-001

5.13370359025159e+004,-9.17474342259306e+000,-2.36502895710333e-001

5.20536742176771e+004,-9.17474301141135e+000,-2.39804358642561e-001

5.27803164309155e+004,-9.17474258866959e+000,-2.43151908516616e-001

5.35171021914442e+004,-9.17474215404314e+000,-2.46546188689809e-001

5.42641730979066e+004,-9.17474170719771e+000,-2.49987851504537e-001

5.50216727255895e+004,-9.17474124778979e+000,-2.53477558408460e-001

5.57897466540159e+004,-9.17474077546625e+000,-2.57015980083176e-001

5.65685424949235e+004,-9.17474028986410e+000,-2.60603796572584e-001

5.73582099206328e+004,-9.17473979060971e+000,-2.64241697416973e-001

5.81589006928121e+004,-9.17473927731965e+000,-2.67930381778245e-001

5.89707686916437e+004,-9.17473874959904e+000,-2.71670558583086e-001

5.97939699453972e+004,-9.17473820704233e+000,-2.75462946652360e-001

6.06286626604156e+004,-9.17473764923235e+000,-2.79308274843118e-001

6.14750072515201e+004,-9.17473707574037e+000,-2.83207282186460e-001

6.23331663728396e+004,-9.17473648612538e+000,-2.87160718031963e-001

6.32033049490698e+004,-9.17473587993431e+000,-2.91169342188595e-001

6.40855902071694e+004,-9.17473525670096e+000,-2.95233925074744e-001

6.49801917084985e+004,-9.17473461594625e+000,-2.99355247862820e-001

6.58872813814055e+004,-9.17473395717775e+000,-3.03534102629946e-001

6.68070335542691e+004,-9.17473327988877e+000,-3.07771292513731e-001

6.77396249890018e+004,-9.17473258355895e+000,-3.12067631860451e-001

6.86852349150199e+004,-9.17473186765277e+000,-3.16423946388285e-001

6.96440450636895e+004,-9.17473113161989e+000,-3.20841073341467e-001

7.06162397032520e+004,-9.17473037489453e+000,-3.25319861652460e-001

7.16020056742374e+004,-9.17472959689492e+000,-3.29861172106032e-001

7.26015324253724e+004,-9.17472879702304e+000,-3.34465877503088e-001

7.36150120499896e+004,-9.17472797466400e+000,-3.39134862830031e-001

7.46426393229441e+004,-9.17472712918554e+000,-3.43869025428966e-001

7.56846117380472e+004,-9.17472625993771e+000,-3.48669275168820e-001

7.67411295460207e+004,-9.17472536625229e+000,-3.53536534621065e-001

7.78123957929823e+004,-9.17472444744218e+000,-3.58471739237701e-001

7.88986163594682e+004,-9.17472350280134e+000,-3.63475837528086e-001

7.99999999999995e+004,-9.17472253160321e+000,-3.68549791247650e-001

8.11167583832018e+004,-9.17472153310134e+000,-3.73694575575726e-001

8.22491061324848e+004,-9.17472050652833e+000,-3.78911179305718e-001

8.33972608672892e+004,-9.17471945109466e+000,-3.84200605039583e-001

8.45614432449099e+004,-9.17471836598929e+000,-3.89563869371526e-001

8.57418770029029e+004,-9.17471725037787e+000,-3.95002003092417e-001

8.69387890020841e+004,-9.17471610340277e+000,-4.00516051382986e-001

8.81524092701283e+004,-9.17471492418241e+000,-4.06107074014768e-001

8.93829710457770e+004,-9.17471371181010e+000,-4.11776145557204e-001

9.06307108236633e+004,-9.17471246535408e+000,-4.17524355579625e-001

9.18958683997622e+004,-9.17471118385592e+000,-4.23352808865981e-001

9.31786869174758e+004,-9.17470986633057e+000,-4.29262625622889e-001

9.44794129143618e+004,-9.17470851176528e+000,-4.35254941696368e-001

9.57982963695136e+004,-9.17470711911877e+000,-4.41330908791410e-001

9.71355907516031e+004,-9.17470568732028e+000,-4.47491694693388e-001

9.84915530675926e+004,-9.17470421526929e+000,-4.53738483490414e-001

9.98664439121282e+004,-9.17470270183417e+000,-4.60072475802784e-001

1.01260527517622e+005,-9.17470114585156e+000,-4.66494889013954e-001

1.02674071805032e+005,-9.17469954612523e+000,-4.73006957504717e-001

1.04107348435354e+005,-9.17469790142546e+000,-4.79609932889507e-001

1.05560632861831e+005,-9.17469621048799e+000,-4.86305084257683e-001

1.07034204382888e+005,-9.17469447201292e+000,-4.93093698417986e-001

1.08528346195813e+005,-9.17469268466386e+000,-4.99977080145871e-001

1.10043345451179e+005,-9.17469084706677e+000,-5.06956552434539e-001

1.11579493308032e+005,-9.17468895780915e+000,-5.14033456748086e-001

1.13137084989847e+005,-9.17468701543872e+000,-5.21209153281236e-001

1.14716419841265e+005,-9.17468501846225e+000,-5.28485021220979e-001

1.16317801385624e+005,-9.17468296534473e+000,-5.35862459010164e-001

1.17941537383287e+005,-9.17468085450785e+000,-5.43342884618270e-001

1.19587939890794e+005,-9.17467868432906e+000,-5.50927735812788e-001

1.21257325320831e+005,-9.17467645314011e+000,-5.58618470436977e-001

1.22950014503040e+005,-9.17467415922579e+000,-5.66416566689856e-001

1.24666332745679e+005,-9.17467180082286e+000,-5.74323523409848e-001

1.26406609898139e+005,-9.17466937611844e+000,-5.82340860363865e-001

1.28171180414339e+005,-9.17466688324857e+000,-5.90470118540333e-001

1.29960383416997e+005,-9.17466432029705e+000,-5.98712860444232e-001

1.31774562762811e+005,-9.17466168529374e+000,-6.07070670398256e-001

1.33614067108538e+005,-9.17465897621309e+000,-6.15545154848414e-001

1.35479249978003e+005,-9.17465619097273e+000,-6.24137942671743e-001

1.37370469830040e+005,-9.17465332743169e+000,-6.32850685490619e-001

1.39288090127379e+005,-9.17465038338881e+000,-6.41685057990466e-001

1.41232479406504e+005,-9.17464735658097e+000,-6.50642758242645e-001

1.43204011348474e+005,-9.17464424468155e+000,-6.59725508029560e-001

1.45203064850745e+005,-9.17464104529867e+000,-6.68935053176135e-001

1.47230024099979e+005,-9.17463775597282e+000,-6.78273163889387e-001

1.49285278645888e+005,-9.17463437417573e+000,-6.87741635093450e-001

1.51369223476094e+005,-9.17463089730785e+000,-6.97342286779517e-001

1.53482259092041e+005,-9.17462732269668e+000,-7.07076964353832e-001

1.55624791585964e+005,-9.17462364759453e+000,-7.16947538993616e-001

1.57797232718936e+005,-9.17461986917655e+000,-7.26955908007340e-001

1.59999999999999e+005,-9.17461598453840e+000,-7.37103995199684e-001

1.62233516766403e+005,-9.17461199069412e+000,-7.47393751242407e-001

1.64498212264969e+005,-9.17460788457389e+000,-7.57827154048821e-001

1.66794521734578e+005,-9.17460366302157e+000,-7.68406209155327e-001

1.69122886489819e+005,-9.17459932279218e+000,-7.79132950108189e-001

1.71483754005805e+005,-9.17459486054986e+000,-7.90009438852578e-001

1.73877578004168e+005,-9.17459027286459e+000,-8.01037766133648e-001

1.76304818540256e+005,-9.17458555621027e+000,-8.12220051894454e-001

1.78765942091554e+005,-9.17458070696146e+000,-8.23558445688371e-001

1.81261421647326e+005,-9.17457572139103e+000,-8.35055127089980e-001

1.83791736799524e+005,-9.17457059566688e+000,-8.46712306117062e-001

1.86357373834951e+005,-9.17456532584935e+000,-8.58532223654444e-001

1.88958825828723e+005,-9.17455990788802e+000,-8.70517151887056e-001

1.91596592739027e+005,-9.17455433761863e+000,-8.82669394736574e-001

1.94271181503206e+005,-9.17454861075987e+000,-8.94991288305919e-001

1.96983106135185e+005,-9.17454272291013e+000,-9.07485201328984e-001

1.99732887824256e+005,-9.17453666954398e+000,-9.20153535627782e-001

2.02521055035243e+005,-9.17453044600900e+000,-9.32998726573290e-001

2.05348143610063e+005,-9.17452404752188e+000,-9.46023243556704e-001

2.08214696870707e+005,-9.17451746916498e+000,-9.59229590464536e-001

2.11121265723661e+005,-9.17451070588224e+000,-9.72620306161918e-001

2.14068408765776e+005,-9.17450375247581e+000,-9.86197964979673e-001

2.17056692391625e+005,-9.17449660360155e+000,-9.99965177213394e-001

2.20086690902357e+005,-9.17448925376520e+000,-1.01392458962512e+000

2.23158986616063e+005,-9.17448169731805e+000,-1.02807888595368e+000

2.26274169979693e+005,-9.17447392845275e+000,-1.04243078743203e+000

2.29432839682530e+005,-9.17446594119873e+000,-1.05698305331225e+000

2.32635602771247e+005,-9.17445772941749e+000,-1.07173848139815e+000

2.35883074766574e+005,-9.17444928679823e+000,-1.08669990858359e+000

2.39175879781588e+005,-9.17444060685267e+000,-1.10187021140062e+000

2.42514650641661e+005,-9.17443168291032e+000,-1.11725230657371e+000

2.45900029006080e+005,-9.17442250811312e+000,-1.13284915158345e+000

2.49332665491357e+005,-9.17441307541048e+000,-1.14866374523540e+000

2.52813219796278e+005,-9.17440337755345e+000,-1.16469912824126e+000

2.56342360828676e+005,-9.17439340708956e+000,-1.18095838380300e+000

2.59920766833993e+005,-9.17438315635692e+000,-1.19744463820927e+000

2.63549125525621e+005,-9.17437261747837e+000,-1.21416106143897e+000

2.67228134217075e+005,-9.17436178235538e+000,-1.23111086777266e+000

2.70958499956006e+005,-9.17435064266178e+000,-1.24829731641405e+000

2.74740939660078e+005,-9.17433918983764e+000,-1.26572371211780e+000

2.78576180254757e+005,-9.17432741508240e+000,-1.28339340582950e+000

2.82464958813007e+005,-9.17431530934834e+000,-1.30130979533078e+000

2.86408022696948e+005,-9.17430286333356e+000,-1.31947632589780e+000

2.90406129701488e+005,-9.17429006747456e+000,-1.33789649096650e+000

2.94460048199957e+005,-9.17427691193951e+000,-1.35657383280576e+000

2.98570557291775e+005,-9.17426338662018e+000,-1.37551194320447e+000

3.02738446952187e+005,-9.17424948112442e+000,-1.39471446416404e+000

3.06964518184081e+005,-9.17423518476812e+000,-1.41418508860324e+000

3.11249583171928e+005,-9.17422048656696e+000,-1.43392756107282e+000

3.15594465437872e+005,-9.17420537522823e+000,-1.45394567847763e+000

3.19999999999997e+005,-9.17418983914187e+000,-1.47424329081322e+000

3.24467033532806e+005,-9.17417386637172e+000,-1.49482430190972e+000

3.28996424529938e+005,-9.17415744464632e+000,-1.51569267018690e+000

3.33589043469155e+005,-9.17414056134959e+000,-1.53685240942061e+000

3.38245772979638e+005,-9.17412320351109e+000,-1.55830758951952e+000

3.42967508011610e+005,-9.17410535779594e+000,-1.58006233731396e+000

3.47755156008335e+005,-9.17408701049488e+000,-1.60212083735300e+000

3.52609637080511e+005,-9.17406814751352e+000,-1.62448733271753e+000

3.57531884183106e+005,-9.17404875436175e+000,-1.64716612583975e+000

3.62522843294651e+005,-9.17402881614239e+000,-1.67016157933886e+000

3.67583473599047e+005,-9.17400831753991e+000,-1.69347811686577e+000

3.72714747669902e+005,-9.17398724280884e+000,-1.71712022395968e+000

3.77917651657445e+005,-9.17396557576133e+000,-1.74109244892025e+000

3.83193185478053e+005,-9.17394329975513e+000,-1.76539940368728e+000

3.88542363006410e+005,-9.17392039768054e+000,-1.79004576473730e+000

3.93966212270369e+005,-9.17389685194771e+000,-1.81503627398920e+000

3.99465775648511e+005,-9.17387264447252e+000,-1.84037573972712e+000

4.05042110070485e+005,-9.17384775666340e+000,-1.86606903753207e+000

4.10696287220124e+005,-9.17382216940677e+000,-1.89212111122883e+000

4.16429393741414e+005,-9.17379586305234e+000,-1.91853697384819e+000

4.22242531447321e+005,-9.17376881739821e+000,-1.94532170859940e+000

4.28136817531551e+005,-9.17374101167539e+000,-1.97248046985911e+000

4.34113384783250e+005,-9.17371242453194e+000,-2.00001848417276e+000

4.40173381804713e+005,-9.17368303401639e+000,-2.02794105127344e+000

4.46317973232124e+005,-9.17365281756135e+000,-2.05625354511003e+000

4.52548339959385e+005,-9.17362175196583e+000,-2.08496141489617e+000

4.58865679365059e+005,-9.17358981337780e+000,-2.11407018616919e+000

4.65271205542494e+005,-9.17355697727570e+000,-2.14358546186817e+000

4.71766149533147e+005,-9.17352321845000e+000,-2.17351292342362e+000

4.78351759563174e+005,-9.17348851098361e+000,-2.20385833186742e+000

4.85029301283321e+005,-9.17345282823213e+000,-2.23462752895504e+000

4.91800058012158e+005,-9.17341614280374e+000,-2.26582643830473e+000

4.98665330982714e+005,-9.17337842653792e+000,-2.29746106655511e+000

5.05626439592555e+005,-9.17333965048407e+000,-2.32953750453722e+000

5.12684721657352e+005,-9.17329978487959e+000,-2.36206192846356e+000

5.19841533667984e+005,-9.17325879912670e+000,-2.39504060113739e+000

5.27098251051240e+005,-9.17321666176954e+000,-2.42847987317487e+000

5.34456268434150e+005,-9.17317334046984e+000,-2.46238618424891e+000

5.41916999912011e+005,-9.17312880198232e+000,-2.49676606434934e+000

