Freq.,VOut,OutRef

1.00000000000000e+004,-3.59963655664632e+001,-1.54658600527323e-001

1.01395947979003e+004,-3.59963659191658e+001,-1.56817551712527e-001

1.02811382665607e+004,-3.59963662817842e+001,-1.59006640630110e-001

1.04246576084112e+004,-3.59963666545971e+001,-1.61226287983763e-001

1.05701804056138e+004,-3.59963670378912e+001,-1.63476920347111e-001

1.07177346253629e+004,-3.59963674319613e+001,-1.65758970250589e-001

1.08673486252606e+004,-3.59963678371099e+001,-1.68072876263116e-001

1.10190511587661e+004,-3.59963682536489e+001,-1.70419083072713e-001

1.11728713807222e+004,-3.59963686818984e+001,-1.72798041576358e-001

1.13288388529580e+004,-3.59963691221874e+001,-1.75210208966470e-001

1.14869835499703e+004,-3.59963695748549e+001,-1.77656048813659e-001

1.16473358646846e+004,-3.59963700402483e+001,-1.80136031164283e-001

1.18099266142953e+004,-3.59963705187256e+001,-1.82650632622326e-001

1.19747870461893e+004,-3.59963710106549e+001,-1.85200336445155e-001

1.21419488439505e+004,-3.59963715164141e+001,-1.87785632638025e-001

1.23114441334492e+004,-3.59963720363920e+001,-1.90407018044594e-001

1.24833054890161e+004,-3.59963725709884e+001,-1.93064996442892e-001

1.26575659397028e+004,-3.59963731206144e+001,-1.95760078645059e-001

1.28342589756290e+004,-3.59963736856923e+001,-1.98492782592873e-001

1.30134185544193e+004,-3.59963742666568e+001,-2.01263633457480e-001

1.31950791077289e+004,-3.59963748639542e+001,-2.04073163741194e-001

1.33792755478611e+004,-3.59963754780440e+001,-2.06921913378952e-001

1.35660432744767e+004,-3.59963761093980e+001,-2.09810429843789e-001

1.37554181813974e+004,-3.59963767585018e+001,-2.12739268248872e-001

1.39474366635040e+004,-3.59963774258543e+001,-2.15708991457774e-001

1.41421356237309e+004,-3.59963781119683e+001,-2.18720170190829e-001

1.43395524801583e+004,-3.59963788173718e+001,-2.21773383132189e-001

1.45397251732031e+004,-3.59963795426067e+001,-2.24869217047331e-001

1.47426921729110e+004,-3.59963802882305e+001,-2.28008266890533e-001

1.49484924863494e+004,-3.59963810548167e+001,-2.31191135919241e-001

1.51571656651040e+004,-3.59963818429544e+001,-2.34418435814762e-001

1.53687518128801e+004,-3.59963826532495e+001,-2.37690786794109e-001

1.55832915932100e+004,-3.59963834863249e+001,-2.41008817732833e-001

1.58008262372675e+004,-3.59963843428211e+001,-2.44373166283710e-001

1.60213975517924e+004,-3.59963852233966e+001,-2.47784479000743e-001

1.62450479271247e+004,-3.59963861287283e+001,-2.51243411462621e-001

1.64718203453514e+004,-3.59963870595121e+001,-2.54750628399312e-001

1.67017583885674e+004,-3.59963880164638e+001,-2.58306803817978e-001

1.69349062472505e+004,-3.59963890003187e+001,-2.61912621136534e-001

1.71713087287550e+004,-3.59963900118333e+001,-2.65568773310026e-001

1.74110112659224e+004,-3.59963910517853e+001,-2.69275962965505e-001

1.76540599258131e+004,-3.59963921209742e+001,-2.73034902538954e-001

1.79005014185594e+004,-3.59963932202217e+001,-2.76846314410524e-001

1.81503831063432e+004,-3.59963943503731e+001,-2.80710931043247e-001

1.84037530124975e+004,-3.59963955122971e+001,-2.84629495122983e-001

1.86606598307361e+004,-3.59963967068870e+001,-2.88602759703751e-001

1.89211529345119e+004,-3.59963979350610e+001,-2.92631488349769e-001

1.91852823865052e+004,-3.59963991977634e+001,-2.96716455283171e-001

1.94530989482457e+004,-3.59964004959648e+001,-3.00858445533510e-001

1.97246540898671e+004,-3.59964018306634e+001,-3.05058255085534e-001

1.99999999999999e+004,-3.59964032028851e+001,-3.09316691036754e-001

2.02791895958005e+004,-3.59964046136847e+001,-3.13634571749461e-001

2.05622765331213e+004,-3.59964060641469e+001,-3.18012727007044e-001

2.08493152168224e+004,-3.59964075553868e+001,-3.22451998176564e-001

2.11403608112276e+004,-3.59964090885505e+001,-3.26953238367962e-001

2.14354692507258e+004,-3.59964106648170e+001,-3.31517312597803e-001

2.17346972505211e+004,-3.59964122853979e+001,-3.36145097957247e-001

2.20381023175322e+004,-3.59964139515388e+001,-3.40837483779837e-001

2.23457427614443e+004,-3.59964156645208e+001,-3.45595371811188e-001

2.26576777059159e+004,-3.59964174256607e+001,-3.50419676382538e-001

2.29739670999406e+004,-3.59964192363123e+001,-3.55311324588222e-001

2.32946717293690e+004,-3.59964210978676e+001,-3.60271256461247e-001

2.36198532285905e+004,-3.59964230117577e+001,-3.65300425154888e-001

2.39495740923785e+004,-3.59964249794537e+001,-3.70399797126947e-001

2.42838976879009e+004,-3.59964270024684e+001,-3.75570352323104e-001

2.46228882668982e+004,-3.59964290823570e+001,-3.80813084366667e-001

2.49666109780322e+004,-3.59964312207183e+001,-3.86129000748433e-001

2.53151318794055e+004,-3.59964334191961e+001,-3.91519123021583e-001

2.56685179512580e+004,-3.59964356794806e+001,-3.96984486996130e-001

2.60268371088386e+004,-3.59964380033092e+001,-4.02526142939490e-001

2.63901582154578e+004,-3.59964403924685e+001,-4.08145155776577e-001

2.67585510957221e+004,-3.59964428487950e+001,-4.13842605295956e-001

2.71320865489533e+004,-3.59964453741770e+001,-4.19619586355410e-001

2.75108363627948e+004,-3.59964479705558e+001,-4.25477209093817e-001

2.78948733270080e+004,-3.59964506399274e+001,-4.31416599143204e-001

2.82842712474618e+004,-3.59964533843437e+001,-4.37438897845583e-001

2.86791049603164e+004,-3.59964562059146e+001,-4.43545262471233e-001

2.90794503464061e+004,-3.59964591068089e+001,-4.49736866442686e-001

2.94853843458219e+004,-3.59964620892567e+001,-4.56014899557356e-001

2.98969849726987e+004,-3.59964651555507e+001,-4.62380568218261e-001

3.03143313302078e+004,-3.59964683080481e+001,-4.68835095664542e-001

3.07375036257601e+004,-3.59964715491721e+001,-4.75379722206612e-001

3.11665831864199e+004,-3.59964748814144e+001,-4.82015705463960e-001

3.16016524745350e+004,-3.59964783073364e+001,-4.88744320607576e-001

3.20427951035848e+004,-3.59964818295718e+001,-4.95566860603111e-001

3.24900958542493e+004,-3.59964854508282e+001,-5.02484636460394e-001

3.29436406907028e+004,-3.59964891738893e+001,-5.09498977485068e-001

3.34035167771346e+004,-3.59964930016168e+001,-5.16611231532748e-001

3.38698124945009e+004,-3.59964969369536e+001,-5.23822765267915e-001

3.43426174575100e+004,-3.59965009829245e+001,-5.31134964427373e-001

3.48220225318448e+004,-3.59965051426396e+001,-5.38549234085685e-001

3.53081198516260e+004,-3.59965094192967e+001,-5.46066998923814e-001

3.58010028371187e+004,-3.59965138161833e+001,-5.53689703503667e-001

3.63007662126863e+004,-3.59965183366791e+001,-5.61418812544914e-001

3.68075060249948e+004,-3.59965229842592e+001,-5.69255811205804e-001

3.73213196614721e+004,-3.59965277624961e+001,-5.77202205369380e-001

3.78423058690237e+004,-3.59965326750627e+001,-5.85259521931563e-001

3.83705647730104e+004,-3.59965377257354e+001,-5.93429309092020e-001

3.89061978964912e+004,-3.59965429183967e+001,-6.01713136654949e-001

3.94493081797342e+004,-3.59965482570378e+001,-6.10112596329477e-001

3.99999999999998e+004,-3.59965537457627e+001,-6.18629302031306e-001

4.05583791916010e+004,-3.59965593887905e+001,-6.27264890198006e-001

4.11245530662425e+004,-3.59965651904588e+001,-6.36021020097886e-001

4.16986304336447e+004,-3.59965711552271e+001,-6.44899374151638e-001

4.22807216224550e+004,-3.59965772876807e+001,-6.53901658253144e-001

4.28709385014515e+004,-3.59965835925331e+001,-6.63029602097481e-001

4.34693945010421e+004,-3.59965900746309e+001,-6.72284959512745e-001

4.40762046350642e+004,-3.59965967389566e+001,-6.81669508795291e-001

4.46914855228886e+004,-3.59966035906328e+001,-6.91185053052953e-001

4.53153554118317e+004,-3.59966106349261e+001,-7.00833420548389e-001

4.59479341998812e+004,-3.59966178772512e+001,-7.10616465050598e-001

4.65893434587380e+004,-3.59966253231749e+001,-7.20536066190280e-001

4.72397064571810e+004,-3.59966329784206e+001,-7.30594129820927e-001

4.78991481847569e+004,-3.59966408488724e+001,-7.40792588383174e-001

4.85677953758016e+004,-3.59966489405799e+001,-7.51133401274840e-001

4.92457765337964e+004,-3.59966572597627e+001,-7.61618555228551e-001

4.99332219560642e+004,-3.59966658128153e+001,-7.72250064689675e-001

5.06302637588109e+004,-3.59966746063117e+001,-7.83029972204806e-001

5.13370359025159e+004,-3.59966836470111e+001,-7.93960348811619e-001

5.20536742176771e+004,-3.59966929418622e+001,-8.05043294436404e-001

5.27803164309155e+004,-3.59967024980093e+001,-8.16280938296183e-001

5.35171021914442e+004,-3.59967123227972e+001,-8.27675439307554e-001

5.42641730979066e+004,-3.59967224237777e+001,-8.39228986497430e-001

5.50216727255895e+004,-3.59967328087143e+001,-8.50943799426571e-001

5.57897466540159e+004,-3.59967434855889e+001,-8.62822128610289e-001

5.65685424949235e+004,-3.59967544626077e+001,-8.74866255952704e-001

5.73582099206328e+004,-3.59967657482076e+001,-8.87078495182039e-001

5.81589006928121e+004,-3.59967773510625e+001,-8.99461192294750e-001

5.89707686916437e+004,-3.59967892800903e+001,-9.12016726002657e-001

5.97939699453972e+004,-3.59968015444593e+001,-9.24747508190880e-001

6.06286626604156e+004,-3.59968141535955e+001,-9.37655984377747e-001

6.14750072515201e+004,-3.59968271171899e+001,-9.50744634182936e-001

6.23331663728396e+004,-3.59968404452058e+001,-9.64015971802873e-001

6.32033049490698e+004,-3.59968541478866e+001,-9.77472546490238e-001

6.40855902071694e+004,-3.59968682357633e+001,-9.91116943043907e-001

6.49801917084985e+004,-3.59968827196630e+001,-1.00495178230153e+000

6.58872813814055e+004,-3.59968976107171e+001,-1.01897972164121e+000

6.68070335542691e+004,-3.59969129203701e+001,-1.03320345548941e+000

6.77396249890018e+004,-3.59969286603874e+001,-1.04762571583799e+000

6.86852349150199e+004,-3.59969448428656e+001,-1.06224927276374e+000

6.96440450636895e+004,-3.59969614802411e+001,-1.07707693495983e+000

7.06162397032520e+004,-3.59969785852996e+001,-1.09211155027235e+000

7.16020056742374e+004,-3.59969961711863e+001,-1.10735600624327e+000

7.26015324253724e+004,-3.59970142514156e+001,-1.12281323066389e+000

7.36150120499896e+004,-3.59970328398817e+001,-1.13848619213288e+000

7.46426393229441e+004,-3.59970519508693e+001,-1.15437790062425e+000

7.56846117380472e+004,-3.59970715990644e+001,-1.17049140806060e+000

7.67411295460207e+004,-3.59970917995656e+001,-1.18682980889773e+000

7.78123957929823e+004,-3.59971125678958e+001,-1.20339624071447e+000

7.88986163594682e+004,-3.59971339200140e+001,-1.22019388481109e+000

7.99999999999995e+004,-3.59971558723277e+001,-1.23722596681660e+000

8.11167583832018e+004,-3.59971784417053e+001,-1.25449575730505e+000

8.22491061324848e+004,-3.59972016454893e+001,-1.27200657241784e+000

8.33972608672892e+004,-3.59972255015089e+001,-1.28976177449797e+000

8.45614432449099e+004,-3.59972500280949e+001,-1.30776477272883e+000

8.57418770029029e+004,-3.59972752440928e+001,-1.32601902378644e+000

8.69387890020841e+004,-3.59973011688773e+001,-1.34452803249636e+000

8.81524092701283e+004,-3.59973278223677e+001,-1.36329535250206e+000

8.93829710457770e+004,-3.59973552250429e+001,-1.38232458694275e+000

9.06307108236633e+004,-3.59973833979568e+001,-1.40161938913789e+000

9.18958683997622e+004,-3.59974123627551e+001,-1.42118346328426e+000

9.31786869174758e+004,-3.59974421416912e+001,-1.44102056515973e+000

9.44794129143618e+004,-3.59974727576437e+001,-1.46113450283919e+000

9.57982963695136e+004,-3.59975042341341e+001,-1.48152913741736e+000

9.71355907516031e+004,-3.59975365953442e+001,-1.50220838374508e+000

9.84915530675926e+004,-3.59975698661351e+001,-1.52317621117244e+000

9.98664439121282e+004,-3.59976040720664e+001,-1.54443664430220e+000

1.01260527517622e+005,-3.59976392394155e+001,-1.56599376375646e+000

1.02674071805032e+005,-3.59976753951975e+001,-1.58785170695088e+000

1.04107348435354e+005,-3.59977125671867e+001,-1.61001466888010e+000

1.05560632861831e+005,-3.59977507839370e+001,-1.63248690291424e+000

1.07034204382888e+005,-3.59977900748044e+001,-1.65527272160571e+000

1.08528346195813e+005,-3.59978304699692e+001,-1.67837649750749e+000

1.10043345451179e+005,-3.59978720004592e+001,-1.70180266400192e+000

1.11579493308032e+005,-3.59979146981737e+001,-1.72555571614154e+000

1.13137084989847e+005,-3.59979585959072e+001,-1.74964021150014e+000

1.14716419841265e+005,-3.59980037273757e+001,-1.77406077103612e+000

1.16317801385624e+005,-3.59980501272412e+001,-1.79882207996701e+000

1.17941537383287e+005,-3.59980978311393e+001,-1.82392888865677e+000

1.19587939890794e+005,-3.59981468757061e+001,-1.84938601351289e+000

1.21257325320831e+005,-3.59981972986059e+001,-1.87519833789906e+000

1.22950014503040e+005,-3.59982491385606e+001,-1.90137081305571e+000

1.24666332745679e+005,-3.59983024353792e+001,-1.92790845903682e+000

1.26406609898139e+005,-3.59983572299880e+001,-1.95481636565655e+000

1.28171180414339e+005,-3.59984135644621e+001,-1.98209969345076e+000

1.29960383416997e+005,-3.59984714820577e+001,-2.00976367464912e+000

1.31774562762811e+005,-3.59985310272448e+001,-2.03781361416234e+000

1.33614067108538e+005,-3.59985922457420e+001,-2.06625489058015e+000

1.35479249978003e+005,-3.59986551845504e+001,-2.09509295718597e+000

1.37370469830040e+005,-3.59987198919905e+001,-2.12433334298104e+000

1.39288090127379e+005,-3.59987864177387e+001,-2.15398165372589e+000

1.41232479406504e+005,-3.59988548128651e+001,-2.18404357299244e+000

1.43204011348474e+005,-3.59989251298730e+001,-2.21452486323271e+000

1.45203064850745e+005,-3.59989974227387e+001,-2.24543136685939e+000

1.47230024099979e+005,-3.59990717469530e+001,-2.27676900734286e+000

1.49285278645888e+005,-3.59991481595631e+001,-2.30854379032051e+000

1.51369223476094e+005,-3.59992267192168e+001,-2.34076180472230e+000

1.53482259092041e+005,-3.59993074862069e+001,-2.37342922390991e+000

1.55624791585964e+005,-3.59993905225175e+001,-2.40655230683226e+000

1.57797232718936e+005,-3.59994758918708e+001,-2.44013739919422e+000

1.59999999999999e+005,-3.59995636597765e+001,-2.47419093464218e+000

1.62233516766403e+005,-3.59996538935812e+001,-2.50871943596444e+000

1.64498212264969e+005,-3.59997466625199e+001,-2.54372951630742e+000

1.66794521734578e+005,-3.59998420377690e+001,-2.57922788040703e+000

1.69122886489819e+005,-3.59999400925007e+001,-2.61522132583680e+000

1.71483754005805e+005,-3.60000409019381e+001,-2.65171674427214e+000

1.73877578004168e+005,-3.60001445434134e+001,-2.68872112276940e+000

1.76304818540256e+005,-3.60002510964263e+001,-2.72624154506368e+000

1.78765942091554e+005,-3.60003606427047e+001,-2.76428519288162e+000

1.81261421647326e+005,-3.60004732662671e+001,-2.80285934727163e+000

1.83791736799524e+005,-3.60005890534862e+001,-2.84197138995042e+000

1.86357373834951e+005,-3.60007080931554e+001,-2.88162880466786e+000

1.88958825828723e+005,-3.60008304765553e+001,-2.92183917858856e+000

1.91596592739027e+005,-3.60009562975242e+001,-2.96261020368964e+000

1.94271181503206e+005,-3.60010856525291e+001,-3.00394967817867e+000

1.96983106135185e+005,-3.60012186407386e+001,-3.04586550792784e+000

1.99732887824256e+005,-3.60013553640990e+001,-3.08836570792565e+000

2.02521055035243e+005,-3.60014959274115e+001,-3.13145840374815e+000

2.05348143610063e+005,-3.60016404384116e+001,-3.17515183304744e+000

2.08214696870707e+005,-3.60017890078514e+001,-3.21945434705929e+000

2.11121265723661e+005,-3.60019417495832e+001,-3.26437441212879e+000

2.14068408765776e+005,-3.60020987806463e+001,-3.30992061125514e+000

2.17056692391625e+005,-3.60022602213553e+001,-3.35610164565562e+000

2.20086690902357e+005,-3.60024261953921e+001,-3.40292633634770e+000

2.23158986616063e+005,-3.60025968298992e+001,-3.45040362575173e+000

2.26274169979693e+005,-3.60027722555756e+001,-3.49854257931219e+000

2.29432839682530e+005,-3.60029526067769e+001,-3.54735238713843e+000

2.32635602771247e+005,-3.60031380216162e+001,-3.59684236566566e+000

2.35883074766574e+005,-3.60033286420689e+001,-3.64702195933495e+000

2.39175879781588e+005,-3.60035246140799e+001,-3.69790074229430e+000

2.42514650641661e+005,-3.60037260876746e+001,-3.74948842011904e+000

2.45900029006080e+005,-3.60039332170713e+001,-3.80179483155222e+000

2.49332665491357e+005,-3.60041461607987e+001,-3.85482995026587e+000

2.52813219796278e+005,-3.60043650818151e+001,-3.90860388664302e+000

2.56342360828676e+005,-3.60045901476313e+001,-3.96312688957991e+000

2.59920766833993e+005,-3.60048215304372e+001,-4.01840934830777e+000

2.63549125525621e+005,-3.60050594072316e+001,-4.07446179423827e+000

2.67228134217075e+005,-3.60053039599554e+001,-4.13129490282667e+000

2.70958499956006e+005,-3.60055553756291e+001,-4.18891949545777e+000

2.74740939660078e+005,-3.60058138464927e+001,-4.24734654135306e+000

2.78576180254757e+005,-3.60060795701512e+001,-4.30658715949773e+000

2.82464958813007e+005,-3.60063527497226e+001,-4.36665262059028e+000

2.86408022696948e+005,-3.60066335939907e+001,-4.42755434901230e+000

2.90406129701488e+005,-3.60069223175618e+001,-4.48930392482016e+000

2.94460048199957e+005,-3.60072191410258e+001,-4.55191308575833e+000

2.98570557291775e+005,-3.60075242911214e+001,-4.61539372929271e+000

3.02738446952187e+005,-3.60078380009063e+001,-4.67975791466755e+000

3.06964518184081e+005,-3.60081605099311e+001,-4.74501786498197e+000

3.11249583171928e+005,-3.60084920644195e+001,-4.81118596928798e+000

3.15594465437872e+005,-3.60088329174513e+001,-4.87827478471166e+000

3.19999999999997e+005,-3.60091833291519e+001,-4.94629703859341e+000

3.24467033532806e+005,-3.60095435668869e+001,-5.01526563065115e+000

3.28996424529938e+005,-3.60099139054605e+001,-5.08519363516388e+000

3.33589043469155e+005,-3.60102946273211e+001,-5.15609430317755e+000

3.38245772979638e+005,-3.60106860227712e+001,-5.22798106472991e+000

3.42967508011610e+005,-3.60110883901833e+001,-5.30086753109972e+000

3.47755156008335e+005,-3.60115020362216e+001,-5.37476749707270e+000

3.52609637080511e+005,-3.60119272760698e+001,-5.44969494323250e+000

3.57531884183106e+005,-3.60123644336647e+001,-5.52566403826882e+000

3.62522843294651e+005,-3.60128138419362e+001,-5.60268914130760e+000

3.67583473599047e+005,-3.60132758430536e+001,-5.68078480426185e+000

3.72714747669902e+005,-3.60137507886787e+001,-5.75996577420096e+000

3.77917651657445e+005,-3.60142390402255e+001,-5.84024699574065e+000

3.83193185478053e+005,-3.60147409691264e+001,-5.92164361345324e+000

3.88542363006410e+005,-3.60152569571064e+001,-6.00417097429479e+000

3.93966212270369e+005,-3.60157873964636e+001,-6.08784463005367e+000

3.99465775648511e+005,-3.60163326903574e+001,-6.17268033981604e+000

4.05042110070485e+005,-3.60168932531046e+001,-6.25869407244996e+000

4.10696287220124e+005,-3.60174695104833e+001,-6.34590200910698e+000

4.16429393741414e+005,-3.60180619000441e+001,-6.43432054574151e+000

4.22242531447321e+005,-3.60186708714301e+001,-6.52396629564677e+000

4.28136817531551e+005,-3.60192968867052e+001,-6.61485609200659e+000

4.34113384783250e+005,-3.60199404206908e+001,-6.70700699046378e+000

4.40173381804713e+005,-3.60206019613113e+001,-6.80043627170277e+000

4.46317973232124e+005,-3.60212820099485e+001,-6.89516144404816e+000

4.52548339959385e+005,-3.60219810818057e+001,-6.99120024607546e+000

4.58865679365059e+005,-3.60226997062803e+001,-7.08857064923612e+000

4.65271205542494e+005,-3.60234384273467e+001,-7.18729086049495e+000

4.71766149533147e+005,-3.60241978039491e+001,-7.28737932497902e+000

4.78351759563174e+005,-3.60249784104040e+001,-7.38885472863705e+000

4.85029301283321e+005,-3.60257808368128e+001,-7.49173600090920e+000

4.91800058012158e+005,-3.60266056894859e+001,-7.59604231740558e+000

4.98665330982714e+005,-3.60274535913765e+001,-7.70179310259290e+000

5.05626439592555e+005,-3.60283251825262e+001,-7.80900803248758e+000

5.12684721657352e+005,-3.60292211205211e+001,-7.91770703735534e+000

5.19841533667984e+005,-3.60301420809603e+001,-8.02791030441485e+000

5.27098251051240e+005,-3.60310887579352e+001,-8.13963828054497e+000

5.34456268434150e+005,-3.60320618645218e+001,-8.25291167499381e+000

5.41916999912011e+005,-3.60330621332845e+001,-8.36775146208949e+000

