Freq.,VOut,OutRef

1.00000000000000e+004,-1.86276955226370e+000,-3.40913579936329e-002

1.01395947979003e+004,-1.86276954656633e+000,-3.45672556261350e-002

1.02811382665607e+004,-1.86276954070854e+000,-3.50497965440543e-002

1.04246576084112e+004,-1.86276953468583e+000,-3.55390734840936e-002

1.05701804056138e+004,-1.86276952849430e+000,-3.60351804729955e-002

1.07177346253629e+004,-1.86276952212820e+000,-3.65382128612647e-002

1.08673486252606e+004,-1.86276951558349e+000,-3.70482673176761e-002

1.10190511587661e+004,-1.86276950885456e+000,-3.75654418716803e-002

1.11728713807222e+004,-1.86276950193680e+000,-3.80898359114840e-002

1.13288388529580e+004,-1.86276949482412e+000,-3.86215502227235e-002

1.14869835499703e+004,-1.86276948751174e+000,-3.91606869878631e-002

1.16473358646846e+004,-1.86276947999374e+000,-3.97073498231277e-002

1.18099266142953e+004,-1.86276947226427e+000,-4.02616437885278e-002

1.19747870461893e+004,-1.86276946431778e+000,-4.08236754081465e-002

1.21419488439505e+004,-1.86276945614748e+000,-4.13935527002624e-002

1.23114441334492e+004,-1.86276944774786e+000,-4.19713851808930e-002

1.24833054890161e+004,-1.86276943911176e+000,-4.25572839058946e-002

1.26575659397028e+004,-1.86276943023310e+000,-4.31513614714785e-002

1.28342589756290e+004,-1.86276942110482e+000,-4.37537320517428e-002

1.30134185544193e+004,-1.86276941171980e+000,-4.43645114134734e-002

1.31950791077289e+004,-1.86276940207094e+000,-4.49838169384236e-002

1.33792755478611e+004,-1.86276939215081e+000,-4.56117676474365e-002

1.35660432744767e+004,-1.86276938195202e+000,-4.62484842212007e-002

1.37554181813974e+004,-1.86276937146616e+000,-4.68940890304106e-002

1.39474366635040e+004,-1.86276936068568e+000,-4.75487061469736e-002

1.41421356237309e+004,-1.86276934960195e+000,-4.82124613803053e-002

1.43395524801583e+004,-1.86276933820684e+000,-4.88854822910556e-002

1.45397251732031e+004,-1.86276932649132e+000,-4.95678982253726e-002

1.47426921729110e+004,-1.86276931444651e+000,-5.02598403318871e-002

1.49484924863494e+004,-1.86276930206277e+000,-5.09614415937806e-002

1.51571656651040e+004,-1.86276928933107e+000,-5.16728368444586e-002

1.53687518128801e+004,-1.86276927624153e+000,-5.23941628039589e-002

1.55832915932100e+004,-1.86276926278384e+000,-5.31255581008722e-002

1.58008262372675e+004,-1.86276924894781e+000,-5.38671632976121e-002

1.60213975517924e+004,-1.86276923472301e+000,-5.46191209171521e-002

1.62450479271247e+004,-1.86276922009817e+000,-5.53815754768089e-002

1.64718203453514e+004,-1.86276920506210e+000,-5.61546735078969e-002

1.67017583885674e+004,-1.86276918960328e+000,-5.69385635872309e-002

1.69349062472505e+004,-1.86276917370990e+000,-5.77333963662421e-002

1.71713087287550e+004,-1.86276915736958e+000,-5.85393246002791e-002

1.74110112659224e+004,-1.86276914057002e+000,-5.93565031745211e-002

1.76540599258131e+004,-1.86276912329820e+000,-6.01850891387073e-002

1.79005014185594e+004,-1.86276910554068e+000,-6.10252417351759e-002

1.81503831063432e+004,-1.86276908728404e+000,-6.18771224267128e-002

1.84037530124975e+004,-1.86276906851404e+000,-6.27408949326737e-002

1.86606598307361e+004,-1.86276904921640e+000,-6.36167252561227e-002

1.89211529345119e+004,-1.86276902937637e+000,-6.45047817170579e-002

1.91852823865052e+004,-1.86276900897831e+000,-6.54052349890961e-002

1.94530989482457e+004,-1.86276898800683e+000,-6.63182581230947e-002

1.97246540898671e+004,-1.86276896644592e+000,-6.72440265875410e-002

1.99999999999999e+004,-1.86276894427864e+000,-6.81827183026956e-002

2.02791895958005e+004,-1.86276892148823e+000,-6.91345136690422e-002

2.05622765331213e+004,-1.86276889805718e+000,-7.00995956067941e-002

2.08493152168224e+004,-1.86276887396746e+000,-7.10781495898284e-002

2.11403608112276e+004,-1.86276884920035e+000,-7.20703636823359e-002

2.14354692507258e+004,-1.86276882373695e+000,-7.30764285715443e-002

2.17346972505211e+004,-1.86276879755751e+000,-7.40965376087614e-002

2.20381023175322e+004,-1.86276877064249e+000,-7.51308868395129e-002

2.23457427614443e+004,-1.86276874297046e+000,-7.61796750542970e-002

2.26576777059159e+004,-1.86276871452047e+000,-7.72431038118107e-002

2.29739670999406e+004,-1.86276868527060e+000,-7.83213774869597e-002

2.32946717293690e+004,-1.86276865519873e+000,-7.94147033052516e-002

2.36198532285905e+004,-1.86276862428121e+000,-8.05232913900700e-002

2.39495740923785e+004,-1.86276859249452e+000,-8.16473547937866e-002

2.42838976879009e+004,-1.86276855981403e+000,-8.27871095447599e-002

2.46228882668982e+004,-1.86276852621478e+000,-8.39427746854669e-002

2.49666109780322e+004,-1.86276849167107e+000,-8.51145723162487e-002

2.53151318794055e+004,-1.86276845615622e+000,-8.63027276392137e-002

2.56685179512580e+004,-1.86276841964278e+000,-8.75074690005473e-002

2.60268371088386e+004,-1.86276838210307e+000,-8.87290279304904e-002

2.63901582154578e+004,-1.86276834350765e+000,-8.99676391975210e-002

2.67585510957221e+004,-1.86276830382727e+000,-9.12235408411639e-002

2.71320865489533e+004,-1.86276826303154e+000,-9.24969742256290e-002

2.75108363627948e+004,-1.86276822108854e+000,-9.37881840887357e-002

2.78948733270080e+004,-1.86276817796672e+000,-9.50974185770428e-002

2.82842712474618e+004,-1.86276813363245e+000,-9.64249293082521e-002

2.86791049603164e+004,-1.86276808805163e+000,-9.77709714097202e-002

2.90794503464061e+004,-1.86276804118944e+000,-9.91358035686345e-002

2.94853843458219e+004,-1.86276799300982e+000,-1.00519688085397e-001

2.98969849726987e+004,-1.86276794347565e+000,-1.01922890921732e-001

3.03143313302078e+004,-1.86276789254876e+000,-1.03345681752614e-001

3.07375036257601e+004,-1.86276784019033e+000,-1.04788334014528e-001

3.11665831864199e+004,-1.86276778635982e+000,-1.06251124964920e-001

3.16016524745350e+004,-1.86276773101599e+000,-1.07734335729298e-001

3.20427951035848e+004,-1.86276767411608e+000,-1.09238251359447e-001

3.24900958542493e+004,-1.86276761561673e+000,-1.10763160882826e-001

3.29436406907028e+004,-1.86276755547256e+000,-1.12309357366412e-001

3.34035167771346e+004,-1.86276749363750e+000,-1.13877137964374e-001

3.38698124945009e+004,-1.86276743006405e+000,-1.15466803980714e-001

3.43426174575100e+004,-1.86276736470353e+000,-1.17078660923683e-001

3.48220225318448e+004,-1.86276729750519e+000,-1.18713018570778e-001

3.53081198516260e+004,-1.86276722841768e+000,-1.20370191019418e-001

3.58010028371187e+004,-1.86276715738797e+000,-1.22050496752357e-001

3.63007662126863e+004,-1.86276708436141e+000,-1.23754258699434e-001

3.68075060249948e+004,-1.86276700928167e+000,-1.25481804299134e-001

3.73213196614721e+004,-1.86276693209115e+000,-1.27233465559064e-001

3.78423058690237e+004,-1.86276685273055e+000,-1.29009579121945e-001

3.83705647730104e+004,-1.86276677113880e+000,-1.30810486330906e-001

3.89061978964912e+004,-1.86276668725316e+000,-1.32636533292949e-001

3.94493081797342e+004,-1.86276660100929e+000,-1.34488070946552e-001

3.99999999999998e+004,-1.86276651234067e+000,-1.36365455130683e-001

4.05583791916010e+004,-1.86276642117932e+000,-1.38269046649566e-001

4.11245530662425e+004,-1.86276632745506e+000,-1.40199211346005e-001

4.16986304336447e+004,-1.86276623109583e+000,-1.42156320168661e-001

4.22807216224550e+004,-1.86276613202769e+000,-1.44140749244134e-001

4.28709385014515e+004,-1.86276603017425e+000,-1.46152879951944e-001

4.34693945010421e+004,-1.86276592545729e+000,-1.48193098993212e-001

4.40762046350642e+004,-1.86276581779653e+000,-1.50261798466591e-001

4.46914855228886e+004,-1.86276570710885e+000,-1.52359375948037e-001

4.53153554118317e+004,-1.86276559330938e+000,-1.54486234559411e-001

4.59479341998812e+004,-1.86276547631052e+000,-1.56642783052730e-001

4.65893434587380e+004,-1.86276535602249e+000,-1.58829435883925e-001

4.72397064571810e+004,-1.86276523235270e+000,-1.61046613296575e-001

4.78991481847569e+004,-1.86276510520599e+000,-1.63294741400282e-001

4.85677953758016e+004,-1.86276497448475e+000,-1.65574252251996e-001

4.92457765337964e+004,-1.86276484008852e+000,-1.67885583940245e-001

4.99332219560642e+004,-1.86276470191375e+000,-1.70229180670735e-001

5.06302637588109e+004,-1.86276455985455e+000,-1.72605492847346e-001

5.13370359025159e+004,-1.86276441380144e+000,-1.75014977164603e-001

5.20536742176771e+004,-1.86276426364222e+000,-1.77458096690050e-001

5.27803164309155e+004,-1.86276410926162e+000,-1.79935320955450e-001

5.35171021914442e+004,-1.86276395054064e+000,-1.82447126049659e-001

5.42641730979066e+004,-1.86276378735740e+000,-1.84993994705191e-001

5.50216727255895e+004,-1.86276361958651e+000,-1.87576416393825e-001

5.57897466540159e+004,-1.86276344709905e+000,-1.90194887419755e-001

5.65685424949235e+004,-1.86276326976226e+000,-1.92849911017310e-001

5.73582099206328e+004,-1.86276308743980e+000,-1.95541997444745e-001

5.81589006928121e+004,-1.86276289999176e+000,-1.98271664081693e-001

5.89707686916437e+004,-1.86276270727370e+000,-2.01039435533889e-001

5.97939699453972e+004,-1.86276250913761e+000,-2.03845843727882e-001

6.06286626604156e+004,-1.86276230543134e+000,-2.06691428015206e-001

6.14750072515201e+004,-1.86276209599797e+000,-2.09576735279638e-001

6.23331663728396e+004,-1.86276188067671e+000,-2.12502320036431e-001

6.32033049490698e+004,-1.86276165930193e+000,-2.15468744543312e-001

6.40855902071694e+004,-1.86276143170351e+000,-2.18476578906124e-001

6.49801917084985e+004,-1.86276119770649e+000,-2.21526401189523e-001

6.58872813814055e+004,-1.86276095713094e+000,-2.24618797528677e-001

6.68070335542691e+004,-1.86276070979207e+000,-2.27754362239326e-001

6.77396249890018e+004,-1.86276045549938e+000,-2.30933697937256e-001

6.86852349150199e+004,-1.86276019405772e+000,-2.34157415646124e-001

6.96440450636895e+004,-1.86275992526587e+000,-2.37426134922845e-001

7.06162397032520e+004,-1.86275964891744e+000,-2.40740483970915e-001

7.16020056742374e+004,-1.86275936479970e+000,-2.44101099766254e-001

7.26015324253724e+004,-1.86275907269440e+000,-2.47508628174141e-001

7.36150120499896e+004,-1.86275877237701e+000,-2.50963724077405e-001

7.46426393229441e+004,-1.86275846361660e+000,-2.54467051500745e-001

7.56846117380472e+004,-1.86275814617584e+000,-2.58019283738585e-001

7.67411295460207e+004,-1.86275781981063e+000,-2.61621103485258e-001

7.78123957929823e+004,-1.86275748427007e+000,-2.65273202964667e-001

7.88986163594682e+004,-1.86275713929623e+000,-2.68976284064060e-001

7.99999999999995e+004,-1.86275678462405e+000,-2.72731058468977e-001

8.11167583832018e+004,-1.86275641998076e+000,-2.76538247800330e-001

8.22491061324848e+004,-1.86275604508593e+000,-2.80398583754326e-001

8.33972608672892e+004,-1.86275565965149e+000,-2.84312808239187e-001

8.45614432449099e+004,-1.86275526338107e+000,-2.88281673521820e-001

8.57418770029029e+004,-1.86275485597012e+000,-2.92305942369820e-001

8.69387890020841e+004,-1.86275443710537e+000,-2.96386388200246e-001

8.81524092701283e+004,-1.86275400646491e+000,-3.00523795225748e-001

8.93829710457770e+004,-1.86275356371756e+000,-3.04718958608321e-001

9.06307108236633e+004,-1.86275310852299e+000,-3.08972684609506e-001

9.18958683997622e+004,-1.86275264053130e+000,-3.13285790746457e-001

9.31786869174758e+004,-1.86275215938269e+000,-3.17659105949307e-001

9.44794129143618e+004,-1.86275166470739e+000,-3.22093470719250e-001

9.57982963695136e+004,-1.86275115612494e+000,-3.26589737293213e-001

9.71355907516031e+004,-1.86275063324446e+000,-3.31148769803492e-001

9.84915530675926e+004,-1.86275009566401e+000,-3.35771444446443e-001

9.98664439121282e+004,-1.86274954297024e+000,-3.40458649651249e-001

1.01260527517622e+005,-1.86274897473837e+000,-3.45211286248606e-001

1.02674071805032e+005,-1.86274839053151e+000,-3.50030267645785e-001

1.04107348435354e+005,-1.86274778990057e+000,-3.54916520001669e-001

1.05560632861831e+005,-1.86274717238380e+000,-3.59870982404122e-001

1.07034204382888e+005,-1.86274653750651e+000,-3.64894607051742e-001

1.08528346195813e+005,-1.86274588478068e+000,-3.69988359435401e-001

1.10043345451179e+005,-1.86274521370452e+000,-3.75153218525277e-001

1.11579493308032e+005,-1.86274452376208e+000,-3.80390176958837e-001

1.13137084989847e+005,-1.86274381442302e+000,-3.85700241230196e-001

1.14716419841265e+005,-1.86274308514204e+000,-3.91084431885462e-001

1.16317801385624e+005,-1.86274233535849e+000,-3.96543783718249e-001

1.17941537383287e+005,-1.86274156449598e+000,-4.02079345967767e-001

1.19587939890794e+005,-1.86274077196206e+000,-4.07692182521651e-001

1.21257325320831e+005,-1.86273995714725e+000,-4.13383372120934e-001

1.22950014503040e+005,-1.86273911942533e+000,-4.19154008565305e-001

1.24666332745679e+005,-1.86273825815231e+000,-4.25005200925247e-001

1.26406609898139e+005,-1.86273737266603e+000,-4.30938073755241e-001

1.28171180414339e+005,-1.86273646228587e+000,-4.36953767308750e-001

1.29960383416997e+005,-1.86273552631192e+000,-4.43053437758722e-001

1.31774562762811e+005,-1.86273456402467e+000,-4.49238257418869e-001

1.33614067108538e+005,-1.86273357468450e+000,-4.55509414969281e-001

1.35479249978003e+005,-1.86273255753079e+000,-4.61868115685832e-001

1.37370469830040e+005,-1.86273151178160e+000,-4.68315581671242e-001

1.39288090127379e+005,-1.86273043663310e+000,-4.74853052089498e-001

1.41232479406504e+005,-1.86272933125877e+000,-4.81481783405152e-001

1.43204011348474e+005,-1.86272819480890e+000,-4.88203049624181e-001

1.45203064850745e+005,-1.86272702640989e+000,-4.95018142539257e-001

1.47230024099979e+005,-1.86272582516357e+000,-5.01928371978122e-001

1.49285278645888e+005,-1.86272459014651e+000,-5.08935066055592e-001

1.51369223476094e+005,-1.86272332040934e+000,-5.16039571428635e-001

1.53482259092041e+005,-1.86272201497599e+000,-5.23243253555432e-001

1.55624791585964e+005,-1.86272067284297e+000,-5.30547496957369e-001

1.57797232718936e+005,-1.86271929297863e+000,-5.37953705486578e-001

1.59999999999999e+005,-1.86271787432213e+000,-5.45463302595527e-001

1.62233516766403e+005,-1.86271641578303e+000,-5.53077731608979e-001

1.64498212264969e+005,-1.86271491624019e+000,-5.60798456003980e-001

1.66794521734578e+005,-1.86271337454084e+000,-5.68626959690169e-001

1.69122886489819e+005,-1.86271178949991e+000,-5.76564747294939e-001

1.71483754005805e+005,-1.86271015989900e+000,-5.84613344453193e-001

1.73877578004168e+005,-1.86270848448535e+000,-5.92774298101258e-001

1.76304818540256e+005,-1.86270676197119e+000,-6.01049176772707e-001

1.78765942091554e+005,-1.86270499103246e+000,-6.09439570901472e-001

1.81261421647326e+005,-1.86270317030776e+000,-6.17947093128200e-001

1.83791736799524e+005,-1.86270129839763e+000,-6.26573378608322e-001

1.86357373834951e+005,-1.86269937386305e+000,-6.35320085329146e-001

1.88958825828723e+005,-1.86269739522484e+000,-6.44188894425805e-001

1.91596592739027e+005,-1.86269536096194e+000,-6.53181510507755e-001

1.94271181503206e+005,-1.86269326951063e+000,-6.62299661984656e-001

1.96983106135185e+005,-1.86269111926340e+000,-6.71545101398480e-001

1.99732887824256e+005,-1.86268890856740e+000,-6.80919605762381e-001

2.02521055035243e+005,-1.86268663572323e+000,-6.90424976901866e-001

2.05348143610063e+005,-1.86268429898401e+000,-7.00063041799921e-001

2.08214696870707e+005,-1.86268189655346e+000,-7.09835652951298e-001

2.11121265723661e+005,-1.86267942658502e+000,-7.19744688715749e-001

2.14068408765776e+005,-1.86267688718007e+000,-7.29792053682213e-001

2.17056692391625e+005,-1.86267427638678e+000,-7.39979679033167e-001

2.20086690902357e+005,-1.86267159219836e+000,-7.50309522917277e-001

2.23158986616063e+005,-1.86266883255157e+000,-7.60783570826416e-001

2.26274169979693e+005,-1.86266599532531e+000,-7.71403835976011e-001

2.29432839682530e+005,-1.86266307833878e+000,-7.82172359694438e-001

2.32635602771247e+005,-1.86266007934984e+000,-7.93091211814984e-001

2.35883074766574e+005,-1.86265699605349e+000,-8.04162491073084e-001

2.39175879781588e+005,-1.86265382607979e+000,-8.15388325512267e-001

2.42514650641661e+005,-1.86265056699224e+000,-8.26770872892494e-001

2.45900029006080e+005,-1.86264721628590e+000,-8.38312321104813e-001

2.49332665491357e+005,-1.86264377138535e+000,-8.50014888593949e-001

2.52813219796278e+005,-1.86264022964286e+000,-8.61880824783862e-001

2.56342360828676e+005,-1.86263658833622e+000,-8.73912410512066e-001

2.59920766833993e+005,-1.86263284466676e+000,-8.86111958467155e-001

2.63549125525621e+005,-1.86262899575722e+000,-8.98481813634522e-001

2.67228134217075e+005,-1.86262503864925e+000,-9.11024353749329e-001

2.70958499956006e+005,-1.86262097030161e+000,-9.23741989751568e-001

2.74740939660078e+005,-1.86261678758746e+000,-9.36637166251629e-001

2.78576180254757e+005,-1.86261248729204e+000,-9.49712362001650e-001

2.82464958813007e+005,-1.86260806611044e+000,-9.62970090370997e-001

2.86408022696948e+005,-1.86260352064464e+000,-9.76412899831484e-001

2.90406129701488e+005,-1.86259884740126e+000,-9.90043374447786e-001

2.94460048199957e+005,-1.86259404278872e+000,-1.00386413437495e+000

2.98570557291775e+005,-1.86258910311453e+000,-1.01787783636299e+000

3.02738446952187e+005,-1.86258402458237e+000,-1.03208717426868e+000

3.06964518184081e+005,-1.86257880328927e+000,-1.04649487957410e+000

3.11249583171928e+005,-1.86257343522261e+000,-1.06110372191298e+000

3.15594465437872e+005,-1.86256791625701e+000,-1.07591650960412e+000

3.19999999999997e+005,-1.86256224215111e+000,-1.09093609019211e+000

3.24467033532806e+005,-1.86255640854440e+000,-1.10616535099681e+000

3.28996424529938e+005,-1.86255041095390e+000,-1.12160721966810e+000

3.33589043469155e+005,-1.86254424477052e+000,-1.13726466475146e+000

3.38245772979638e+005,-1.86253790525581e+000,-1.15314069625905e+000

3.42967508011610e+005,-1.86253138753811e+000,-1.16923836625000e+000

3.47755156008335e+005,-1.86252468660891e+000,-1.18556076941851e+000

3.52609637080511e+005,-1.86251779731882e+000,-1.20211104369095e+000

3.57531884183106e+005,-1.86251071437399e+000,-1.21889237082926e+000

3.62522843294651e+005,-1.86250343233172e+000,-1.23590797704555e+000

3.67583473599047e+005,-1.86249594559639e+000,-1.25316113362351e+000

3.72714747669902e+005,-1.86248824841517e+000,-1.27065515754936e+000

3.77917651657445e+005,-1.86248033487359e+000,-1.28839341215121e+000

3.83193185478053e+005,-1.86247219889104e+000,-1.30637930774720e+000

3.88542363006410e+005,-1.86246383421611e+000,-1.32461630230378e+000

3.93966212270369e+005,-1.86245523442169e+000,-1.34310790210261e+000

3.99465775648511e+005,-1.86244639290019e+000,-1.36185766241659e+000

4.05042110070485e+005,-1.86243730285835e+000,-1.38086918819549e+000

4.10696287220124e+005,-1.86242795731207e+000,-1.40014613476231e+000

4.16429393741414e+005,-1.86241834908109e+000,-1.41969220851714e+000

4.22242531447321e+005,-1.86240847078346e+000,-1.43951116765390e+000

4.28136817531551e+005,-1.86239831482982e+000,-1.45960682288443e+000

4.34113384783250e+005,-1.86238787341767e+000,-1.47998303817461e+000

4.40173381804713e+005,-1.86237713852531e+000,-1.50064373149055e+000

4.46317973232124e+005,-1.86236610190585e+000,-1.52159287555360e+000

4.52548339959385e+005,-1.86235475508056e+000,-1.54283449860910e+000

4.58865679365059e+005,-1.86234308933274e+000,-1.56437268520309e+000

4.65271205542494e+005,-1.86233109570088e+000,-1.58621157697171e+000

4.71766149533147e+005,-1.86231876497159e+000,-1.60835537344124e+000

4.78351759563174e+005,-1.86230608767303e+000,-1.63080833283872e+000

4.85029301283321e+005,-1.86229305406719e+000,-1.65357477291534e+000

4.91800058012158e+005,-1.86227965414253e+000,-1.67665907178130e+000

4.98665330982714e+005,-1.86226587760648e+000,-1.70006566875052e+000

5.05626439592555e+005,-1.86225171387748e+000,-1.72379906519981e+000

5.12684721657352e+005,-1.86223715207680e+000,-1.74786382543920e+000

5.19841533667984e+005,-1.86222218102012e+000,-1.77226457759421e+000

5.27098251051240e+005,-1.86220678920937e+000,-1.79700601450059e+000

5.34456268434150e+005,-1.86219096482340e+000,-1.82209289461305e+000

5.41916999912011e+005,-1.86217469570934e+000,-1.84753004292491e+000

