Freq.,VOut,OutRef

1.00000000000000e+004,-1.34419125661005e+001,-9.12373318402325e-002

1.01395947979003e+004,-1.34419125744581e+001,-9.25109575431062e-002

1.02811382665607e+004,-1.34419125830504e+001,-9.38023623997115e-002

1.04246576084112e+004,-1.34419125918846e+001,-9.51117945955935e-002

1.05701804056138e+004,-1.34419126009671e+001,-9.64395057846570e-002

1.07177346253629e+004,-1.34419126103047e+001,-9.77857511329824e-002

1.08673486252606e+004,-1.34419126199052e+001,-9.91507893652388e-002

1.10190511587661e+004,-1.34419126297752e+001,-1.00534882823400e-001

1.11728713807222e+004,-1.34419126399230e+001,-1.01938297505421e-001

1.13288388529580e+004,-1.34419126503559e+001,-1.03361303128192e-001

1.14869835499703e+004,-1.34419126610823e+001,-1.04804173168647e-001

1.16473358646846e+004,-1.34419126721101e+001,-1.06267184926423e-001

1.18099266142953e+004,-1.34419126834479e+001,-1.07750619567753e-001

1.19747870461893e+004,-1.34419126951045e+001,-1.09254762186035e-001

1.21419488439505e+004,-1.34419127070890e+001,-1.10779901852465e-001

1.23114441334492e+004,-1.34419127194103e+001,-1.12326331676965e-001

1.24833054890161e+004,-1.34419127320779e+001,-1.13894348859080e-001

1.26575659397028e+004,-1.34419127451016e+001,-1.15484254746139e-001

1.28342589756290e+004,-1.34419127584916e+001,-1.17096354892813e-001

1.30134185544193e+004,-1.34419127722581e+001,-1.18730959119907e-001

1.31950791077289e+004,-1.34419127864115e+001,-1.20388381573219e-001

1.33792755478611e+004,-1.34419128009627e+001,-1.22068940783736e-001

1.35660432744767e+004,-1.34419128159232e+001,-1.23772959727209e-001

1.37554181813974e+004,-1.34419128313043e+001,-1.25500765889222e-001

1.39474366635040e+004,-1.34419128471178e+001,-1.27252691328548e-001

1.41421356237309e+004,-1.34419128633758e+001,-1.29029072736934e-001

1.43395524801583e+004,-1.34419128800908e+001,-1.30830251508600e-001

1.45397251732031e+004,-1.34419128972758e+001,-1.32656573799303e-001

1.47426921729110e+004,-1.34419129149441e+001,-1.34508390599897e-001

1.49484924863494e+004,-1.34419129331090e+001,-1.36386057802458e-001

1.51571656651040e+004,-1.34419129517844e+001,-1.38289936264683e-001

1.53687518128801e+004,-1.34419129709850e+001,-1.40220391881205e-001

1.55832915932100e+004,-1.34419129907255e+001,-1.42177795655425e-001

1.58008262372675e+004,-1.34419130110209e+001,-1.44162523770466e-001

1.60213975517924e+004,-1.34419130318869e+001,-1.46174957659189e-001

1.62450479271247e+004,-1.34419130533395e+001,-1.48215484080664e-001

1.64718203453514e+004,-1.34419130753952e+001,-1.50284495191950e-001

1.67017583885674e+004,-1.34419130980709e+001,-1.52382388624661e-001

1.69349062472505e+004,-1.34419131213844e+001,-1.54509567559487e-001

1.71713087287550e+004,-1.34419131453531e+001,-1.56666440809389e-001

1.74110112659224e+004,-1.34419131699957e+001,-1.58853422890330e-001

1.76540599258131e+004,-1.34419131953310e+001,-1.61070934107057e-001

1.79005014185594e+004,-1.34419132213786e+001,-1.63319400629141e-001

1.81503831063432e+004,-1.34419132481587e+001,-1.65599254576472e-001

1.84037530124975e+004,-1.34419132756914e+001,-1.67910934103536e-001

1.86606598307361e+004,-1.34419133039984e+001,-1.70254883476475e-001

1.89211529345119e+004,-1.34419133331012e+001,-1.72631553167006e-001

1.91852823865052e+004,-1.34419133630220e+001,-1.75041399934574e-001

1.94530989482457e+004,-1.34419133937841e+001,-1.77484886912540e-001

1.97246540898671e+004,-1.34419134254110e+001,-1.79962483701679e-001

1.99999999999999e+004,-1.34419134579271e+001,-1.82474666456889e-001

2.02791895958005e+004,-1.34419134913575e+001,-1.85021917980692e-001

2.05622765331213e+004,-1.34419135257276e+001,-1.87604727815364e-001

2.08493152168224e+004,-1.34419135610640e+001,-1.90223592336493e-001

2.11403608112276e+004,-1.34419135973938e+001,-1.92879014849018e-001

2.14354692507258e+004,-1.34419136347450e+001,-1.95571505683544e-001

2.17346972505211e+004,-1.34419136731464e+001,-1.98301582293789e-001

2.20381023175322e+004,-1.34419137126273e+001,-2.01069769360135e-001

2.23457427614443e+004,-1.34419137532182e+001,-2.03876598883154e-001

2.26576777059159e+004,-1.34419137949502e+001,-2.06722610292005e-001

2.29739670999406e+004,-1.34419138378556e+001,-2.09608350545384e-001

2.32946717293690e+004,-1.34419138819671e+001,-2.12534374239099e-001

2.36198532285905e+004,-1.34419139273188e+001,-2.15501243707667e-001

2.39495740923785e+004,-1.34419139739456e+001,-2.18509529137224e-001

2.42838976879009e+004,-1.34419140218832e+001,-2.21559808674704e-001

2.46228882668982e+004,-1.34419140711684e+001,-2.24652668535328e-001

2.49666109780322e+004,-1.34419141218394e+001,-2.27788703118359e-001

2.53151318794055e+004,-1.34419141739348e+001,-2.30968515121301e-001

2.56685179512580e+004,-1.34419142274950e+001,-2.34192715653787e-001

2.60268371088386e+004,-1.34419142825609e+001,-2.37461924357876e-001

2.63901582154578e+004,-1.34419143391749e+001,-2.40776769524445e-001

2.67585510957221e+004,-1.34419143973805e+001,-2.44137888215320e-001

2.71320865489533e+004,-1.34419144572224e+001,-2.47545926384950e-001

2.75108363627948e+004,-1.34419145187470e+001,-2.51001539003955e-001

2.78948733270080e+004,-1.34419145820011e+001,-2.54505390190117e-001

2.82842712474618e+004,-1.34419146470335e+001,-2.58058153327341e-001

2.86791049603164e+004,-1.34419147138944e+001,-2.61660511201525e-001

2.90794503464061e+004,-1.34419147826349e+001,-2.65313156130440e-001

2.94853843458219e+004,-1.34419148533080e+001,-2.69016790096209e-001

2.98969849726987e+004,-1.34419149259680e+001,-2.72772124878756e-001

3.03143313302078e+004,-1.34419150006708e+001,-2.76579882195653e-001

3.07375036257601e+004,-1.34419150774738e+001,-2.80440793838864e-001

3.11665831864199e+004,-1.34419151564360e+001,-2.84355601815627e-001

3.16016524745350e+004,-1.34419152376182e+001,-2.88325058491697e-001

3.20427951035848e+004,-1.34419153210828e+001,-2.92349926734673e-001

3.24900958542493e+004,-1.34419154068938e+001,-2.96430980062767e-001

3.29436406907028e+004,-1.34419154951174e+001,-3.00569002790334e-001

3.34035167771346e+004,-1.34419155858212e+001,-3.04764790182312e-001

3.38698124945009e+004,-1.34419156790753e+001,-3.09019148602899e-001

3.43426174575100e+004,-1.34419157749510e+001,-3.13332895674805e-001

3.48220225318448e+004,-1.34419158735222e+001,-3.17706860433869e-001

3.53081198516260e+004,-1.34419159748646e+001,-3.22141883488315e-001

3.58010028371187e+004,-1.34419160790563e+001,-3.26638817180702e-001

3.63007662126863e+004,-1.34419161861772e+001,-3.31198525752613e-001

3.68075060249948e+004,-1.34419162963096e+001,-3.35821885510304e-001

3.73213196614721e+004,-1.34419164095383e+001,-3.40509784992179e-001

3.78423058690237e+004,-1.34419165259505e+001,-3.45263125139485e-001

3.83705647730104e+004,-1.34419166456354e+001,-3.50082819471769e-001

3.89061978964912e+004,-1.34419167686852e+001,-3.54969794260124e-001

3.94493081797342e+004,-1.34419168951945e+001,-3.59924988705956e-001

3.99999999999998e+004,-1.34419170252604e+001,-3.64949355121425e-001

4.05583791916010e+004,-1.34419171589831e+001,-3.70043859112608e-001

4.11245530662425e+004,-1.34419172964653e+001,-3.75209479765539e-001

4.16986304336447e+004,-1.34419174378127e+001,-3.80447209832451e-001

4.22807216224550e+004,-1.34419175831340e+001,-3.85758055925260e-001

4.28709385014515e+004,-1.34419177325408e+001,-3.91143038708320e-001

4.34693945010421e+004,-1.34419178861482e+001,-3.96603193091357e-001

4.40762046350642e+004,-1.34419180440742e+001,-4.02139568432848e-001

4.46914855228886e+004,-1.34419182064401e+001,-4.07753228740715e-001

4.53153554118317e+004,-1.34419183733709e+001,-4.13445252873584e-001

4.59479341998812e+004,-1.34419185449947e+001,-4.19216734753194e-001

4.65893434587380e+004,-1.34419187214438e+001,-4.25068783568799e-001

4.72397064571810e+004,-1.34419189028536e+001,-4.31002523995838e-001

4.78991481847569e+004,-1.34419190893637e+001,-4.37019096409182e-001

4.85677953758016e+004,-1.34419192811173e+001,-4.43119657102792e-001

4.92457765337964e+004,-1.34419194782620e+001,-4.49305378511835e-001

4.99332219560642e+004,-1.34419196809493e+001,-4.55577449437862e-001

5.06302637588109e+004,-1.34419198893350e+001,-4.61937075278320e-001

5.13370359025159e+004,-1.34419201035795e+001,-4.68385478256564e-001

5.20536742176771e+004,-1.34419203238473e+001,-4.74923897658811e-001

5.27803164309155e+004,-1.34419205503080e+001,-4.81553590069658e-001

5.35171021914442e+004,-1.34419207831355e+001,-4.88275829617000e-001

5.42641730979066e+004,-1.34419210225087e+001,-4.95091908214437e-001

5.50216727255895e+004,-1.34419212686119e+001,-5.02003135808546e-001

5.57897466540159e+004,-1.34419215216342e+001,-5.09010840634214e-001

5.65685424949235e+004,-1.34419217817702e+001,-5.16116369466949e-001

5.73582099206328e+004,-1.34419220492198e+001,-5.23321087883183e-001

5.81589006928121e+004,-1.34419223241887e+001,-5.30626380521914e-001

5.89707686916437e+004,-1.34419226068883e+001,-5.38033651351124e-001

5.97939699453972e+004,-1.34419228975359e+001,-5.45544323938025e-001

6.06286626604156e+004,-1.34419231963550e+001,-5.53159841721998e-001

6.14750072515201e+004,-1.34419235035753e+001,-5.60881668292636e-001

6.23331663728396e+004,-1.34419238194332e+001,-5.68711287669453e-001

6.32033049490698e+004,-1.34419241441714e+001,-5.76650204589916e-001

6.40855902071694e+004,-1.34419244780395e+001,-5.84699944796624e-001

6.49801917084985e+004,-1.34419248212944e+001,-5.92862055329872e-001

6.58872813814055e+004,-1.34419251741999e+001,-6.01138104828178e-001

6.68070335542691e+004,-1.34419255370273e+001,-6.09529683825794e-001

6.77396249890018e+004,-1.34419259100557e+001,-6.18038405060391e-001

6.86852349150199e+004,-1.34419262935717e+001,-6.26665903784718e-001

6.96440450636895e+004,-1.34419266878704e+001,-6.35413838077076e-001

7.06162397032520e+004,-1.34419270932549e+001,-6.44283889162579e-001

7.16020056742374e+004,-1.34419275100369e+001,-6.53277761735870e-001

7.26015324253724e+004,-1.34419279385367e+001,-6.62397184289560e-001

7.36150120499896e+004,-1.34419283790840e+001,-6.71643909442811e-001

7.46426393229441e+004,-1.34419288320174e+001,-6.81019714283927e-001

7.56846117380472e+004,-1.34419292976852e+001,-6.90526400706175e-001

7.67411295460207e+004,-1.34419297764455e+001,-7.00165795758369e-001

7.78123957929823e+004,-1.34419302686664e+001,-7.09939751993719e-001

7.88986163594682e+004,-1.34419307747263e+001,-7.19850147826659e-001

7.99999999999995e+004,-1.34419312950143e+001,-7.29898887893864e-001

8.11167583832018e+004,-1.34419318299306e+001,-7.40087903420065e-001

8.22491061324848e+004,-1.34419323798864e+001,-7.50419152588809e-001

8.33972608672892e+004,-1.34419329453046e+001,-7.60894620920783e-001

8.45614432449099e+004,-1.34419335266201e+001,-7.71516321652469e-001

8.57418770029029e+004,-1.34419341242796e+001,-7.82286296125872e-001

8.69387890020841e+004,-1.34419347387429e+001,-7.93206614178567e-001

8.81524092701283e+004,-1.34419353704824e+001,-8.04279374543468e-001

8.93829710457770e+004,-1.34419360199839e+001,-8.15506705250782e-001

9.06307108236633e+004,-1.34419366877468e+001,-8.26890764037777e-001

9.18958683997622e+004,-1.34419373742846e+001,-8.38433738763216e-001

9.31786869174758e+004,-1.34419380801254e+001,-8.50137847827483e-001

9.44794129143618e+004,-1.34419388058116e+001,-8.62005340600693e-001

9.57982963695136e+004,-1.34419395519014e+001,-8.74038497852232e-001

9.71355907516031e+004,-1.34419403189687e+001,-8.86239632191043e-001

9.84915530675926e+004,-1.34419411076032e+001,-8.98611088510644e-001

9.98664439121282e+004,-1.34419419184114e+001,-9.11155244437429e-001

1.01260527517622e+005,-1.34419427520168e+001,-9.23874510790126e-001

1.02674071805032e+005,-1.34419436090603e+001,-9.36771332042451e-001

1.04107348435354e+005,-1.34419444902012e+001,-9.49848186791117e-001

1.05560632861831e+005,-1.34419453961170e+001,-9.63107588235625e-001

1.07034204382888e+005,-1.34419463275044e+001,-9.76552084658146e-001

1.08528346195813e+005,-1.34419472850797e+001,-9.90184259915388e-001

1.10043345451179e+005,-1.34419482695792e+001,-1.00400673393390e+000

1.11579493308032e+005,-1.34419492817601e+001,-1.01802216321460e+000

1.13137084989847e+005,-1.34419503224009e+001,-1.03223324134263e+000

1.14716419841265e+005,-1.34419513923017e+001,-1.04664269950662e+000

1.16317801385624e+005,-1.34419524922855e+001,-1.06125330702110e+000

1.17941537383287e+005,-1.34419536231983e+001,-1.07606787186063e+000

1.19587939890794e+005,-1.34419547859097e+001,-1.09108924119994e+000

1.21257325320831e+005,-1.34419559813141e+001,-1.10632030195861e+000

1.22950014503040e+005,-1.34419572103307e+001,-1.12176398135977e+000

1.24666332745679e+005,-1.34419584739050e+001,-1.13742324748896e+000

1.26406609898139e+005,-1.34419597730087e+001,-1.15330110986734e+000

1.28171180414339e+005,-1.34419611086409e+001,-1.16940062002919e+000

1.29960383416997e+005,-1.34419624818291e+001,-1.18572487210789e+000

1.31774562762811e+005,-1.34419638936293e+001,-1.20227700343207e+000

1.33614067108538e+005,-1.34419653451275e+001,-1.21906019512696e+000

1.35479249978003e+005,-1.34419668374401e+001,-1.23607767272776e+000

1.37370469830040e+005,-1.34419683717150e+001,-1.25333270679802e+000

1.39288090127379e+005,-1.34419699491324e+001,-1.27082861355911e+000

1.41232479406504e+005,-1.34419715709056e+001,-1.28856875552733e+000

1.43204011348474e+005,-1.34419732382821e+001,-1.30655654216084e+000

1.45203064850745e+005,-1.34419749525446e+001,-1.32479543051479e+000

1.47230024099979e+005,-1.34419767150116e+001,-1.34328892590472e+000

1.49285278645888e+005,-1.34419785270391e+001,-1.36204058258281e+000

1.51369223476094e+005,-1.34419803900208e+001,-1.38105400441892e+000

1.53482259092041e+005,-1.34419823053902e+001,-1.40033284559390e+000

1.55624791585964e+005,-1.34419842746205e+001,-1.41988081130285e+000

1.57797232718936e+005,-1.34419862992268e+001,-1.43970165846633e+000

1.59999999999999e+005,-1.34419883807666e+001,-1.45979919645378e+000

1.62233516766403e+005,-1.34419905208415e+001,-1.48017728781425e+000

1.64498212264969e+005,-1.34419927210977e+001,-1.50083984902058e+000

1.66794521734578e+005,-1.34419949832284e+001,-1.52179085122037e+000

1.69122886489819e+005,-1.34419973089738e+001,-1.54303432100136e+000

1.71483754005805e+005,-1.34419997001234e+001,-1.56457434116483e+000

1.73877578004168e+005,-1.34420021585172e+001,-1.58641505150932e+000

1.76304818540256e+005,-1.34420046860466e+001,-1.60856064962879e+000

1.78765942091554e+005,-1.34420072846565e+001,-1.63101539171712e+000

1.81261421647326e+005,-1.34420099563467e+001,-1.65378359338803e+000

1.83791736799524e+005,-1.34420127031728e+001,-1.67686963050447e+000

1.86357373834951e+005,-1.34420155272487e+001,-1.70027794001913e+000

1.88958825828723e+005,-1.34420184307477e+001,-1.72401302082813e+000

1.91596592739027e+005,-1.34420214159041e+001,-1.74807943463658e+000

1.94271181503206e+005,-1.34420244850155e+001,-1.77248180683354e+000

1.96983106135185e+005,-1.34420276404439e+001,-1.79722482738361e+000

1.99732887824256e+005,-1.34420308846177e+001,-1.82231325172718e+000

2.02521055035243e+005,-1.34420342200338e+001,-1.84775190169573e+000

2.05348143610063e+005,-1.34420376492597e+001,-1.87354566643746e+000

2.08214696870707e+005,-1.34420411749347e+001,-1.89969950335901e+000

2.11121265723661e+005,-1.34420447997727e+001,-1.92621843907735e+000

2.14068408765776e+005,-1.34420485265640e+001,-1.95310757038702e+000

2.17056692391625e+005,-1.34420523581777e+001,-1.98037206523946e+000

2.20086690902357e+005,-1.34420562975631e+001,-2.00801716373786e+000

2.23158986616063e+005,-1.34420603477533e+001,-2.03604817914314e+000

2.26274169979693e+005,-1.34420645118662e+001,-2.06447049889677e+000

2.29432839682530e+005,-1.34420687931081e+001,-2.09328958565631e+000

2.32635602771247e+005,-1.34420731947752e+001,-2.12251097834614e+000

2.35883074766574e+005,-1.34420777202567e+001,-2.15214029322171e+000

2.39175879781588e+005,-1.34420823730373e+001,-2.18218322495069e+000

2.42514650641661e+005,-1.34420871566999e+001,-2.21264554770691e+000

2.45900029006080e+005,-1.34420920749285e+001,-2.24353311628135e+000

2.49332665491357e+005,-1.34420971315105e+001,-2.27485186720892e+000

2.52813219796278e+005,-1.34421023303404e+001,-2.30660781990734e+000

2.56342360828676e+005,-1.34421076754224e+001,-2.33880707783850e+000

2.59920766833993e+005,-1.34421131708734e+001,-2.37145582967887e+000

2.63549125525621e+005,-1.34421188209266e+001,-2.40456035051173e+000

2.67228134217075e+005,-1.34421246299343e+001,-2.43812700303353e+000

2.70958499956006e+005,-1.34421306023715e+001,-2.47216223877734e+000

2.74740939660078e+005,-1.34421367428396e+001,-2.50667259935355e+000

2.78576180254757e+005,-1.34421430560696e+001,-2.54166471770878e+000

2.82464958813007e+005,-1.34421495469257e+001,-2.57714531940096e+000

2.86408022696948e+005,-1.34421562204096e+001,-2.61312122389337e+000

2.90406129701488e+005,-1.34421630816639e+001,-2.64959934586570e+000

2.94460048199957e+005,-1.34421701359764e+001,-2.68658669654486e+000

2.98570557291775e+005,-1.34421773887837e+001,-2.72409038505327e+000

3.02738446952187e+005,-1.34421848456762e+001,-2.76211761977676e+000

3.06964518184081e+005,-1.34421925124017e+001,-2.80067570975039e+000

3.11249583171928e+005,-1.34422003948704e+001,-2.83977206606498e+000

3.15594465437872e+005,-1.34422084991591e+001,-2.87941420329355e+000

3.19999999999997e+005,-1.34422168315163e+001,-2.91960974093527e+000

3.24467033532806e+005,-1.34422253983666e+001,-2.96036640488315e+000

3.28996424529938e+005,-1.34422342063163e+001,-3.00169202890902e+000

3.33589043469155e+005,-1.34422432621579e+001,-3.04359455617190e+000

3.38245772979638e+005,-1.34422525728757e+001,-3.08608204074550e+000

3.42967508011610e+005,-1.34422621456514e+001,-3.12916264916828e+000

3.47755156008335e+005,-1.34422719878694e+001,-3.17284466201419e+000

3.52609637080511e+005,-1.34422821071228e+001,-3.21713647548713e+000

3.57531884183106e+005,-1.34422925112189e+001,-3.26204660303604e+000

3.62522843294651e+005,-1.34423032081859e+001,-3.30758367699276e+000

3.67583473599047e+005,-1.34423142062787e+001,-3.35375645023381e+000

3.72714747669902e+005,-1.34423255139855e+001,-3.40057379786477e+000

3.77917651657445e+005,-1.34423371400343e+001,-3.44804471892866e+000

3.83193185478053e+005,-1.34423490934001e+001,-3.49617833813713e+000

3.88542363006410e+005,-1.34423613833113e+001,-3.54498390762737e+000

3.93966212270369e+005,-1.34423740192576e+001,-3.59447080874262e+000

3.99465775648511e+005,-1.34423870109967e+001,-3.64464855383847e+000

4.05042110070485e+005,-1.34424003685627e+001,-3.69552678811313e+000

4.10696287220124e+005,-1.34424141022734e+001,-3.74711529146506e+000

4.16429393741414e+005,-1.34424282227384e+001,-3.79942398037469e+000

4.22242531447321e+005,-1.34424427408678e+001,-3.85246290981497e+000

4.28136817531551e+005,-1.34424576678804e+001,-3.90624227518570e+000

4.34113384783250e+005,-1.34424730153127e+001,-3.96077241427768e+000

4.40173381804713e+005,-1.34424887950277e+001,-4.01606380926296e+000

4.46317973232124e+005,-1.34425050192247e+001,-4.07212708871269e+000

4.52548339959385e+005,-1.34425217004483e+001,-4.12897302964511e+000

4.58865679365059e+005,-1.34425388515986e+001,-4.18661255959957e+000

4.65271205542494e+005,-1.34425564859415e+001,-4.24505675874218e+000

4.71766149533147e+005,-1.34425746171186e+001,-4.30431686199922e+000

4.78351759563174e+005,-1.34425932591586e+001,-4.36440426122125e+000

4.85029301283321e+005,-1.34426124264879e+001,-4.42533050737791e+000

4.91800058012158e+005,-1.34426321339422e+001,-4.48710731278243e+000

4.98665330982714e+005,-1.34426523967781e+001,-4.54974655334820e+000

5.05626439592555e+005,-1.34426732306850e+001,-4.61326027087691e+000

5.12684721657352e+005,-1.34426946517981e+001,-4.67766067537865e+000

5.19841533667984e+005,-1.34427166767105e+001,-4.74296014742440e+000

5.27098251051240e+005,-1.34427393224867e+001,-4.80917124053199e+000

5.34456268434150e+005,-1.34427626066759e+001,-4.87630668358528e+000

5.41916999912011e+005,-1.34427865473262e+001,-4.94437938328726e+000

