Freq.,VOut,OutRef

1.00000000000000e+004,-9.09464319490936e+000,-1.06743816049697e-001

1.01395947979003e+004,-9.09464310969916e+000,-1.08233904709945e-001

1.02811382665607e+004,-9.09464302209338e+000,-1.09744794254538e-001

1.04246576084112e+004,-9.09464293202477e+000,-1.11276775053407e-001

1.05701804056138e+004,-9.09464283942398e+000,-1.12830141531256e-001

1.07177346253629e+004,-9.09464274421978e+000,-1.14405192222179e-001

1.08673486252606e+004,-9.09464264633908e+000,-1.16002229827090e-001

1.10190511587661e+004,-9.09464254570657e+000,-1.17621561273163e-001

1.11728713807222e+004,-9.09464244224483e+000,-1.19263497772390e-001

1.13288388529580e+004,-9.09464233587455e+000,-1.20928354879480e-001

1.14869835499703e+004,-9.09464222651368e+000,-1.22616452557005e-001

1.16473358646846e+004,-9.09464211407818e+000,-1.24328115232498e-001

1.18099266142953e+004,-9.09464199848194e+000,-1.26063671860125e-001

1.19747870461893e+004,-9.09464187963562e+000,-1.27823455991463e-001

1.21419488439505e+004,-9.09464175744814e+000,-1.29607805829800e-001

1.23114441334492e+004,-9.09464163182562e+000,-1.31417064300579e-001

1.24833054890161e+004,-9.09464150267116e+000,-1.33251579118823e-001

1.26575659397028e+004,-9.09464136988596e+000,-1.35111702848981e-001

1.28342589756290e+004,-9.09464123336748e+000,-1.36997792982708e-001

1.30134185544193e+004,-9.09464109301089e+000,-1.38910211998282e-001

1.31950791077289e+004,-9.09464094870849e+000,-1.40849327434097e-001

1.33792755478611e+004,-9.09464080034923e+000,-1.42815511960707e-001

1.35660432744767e+004,-9.09464064781883e+000,-1.44809143452140e-001

1.37554181813974e+004,-9.09464049100037e+000,-1.46830605053854e-001

1.39474366635040e+004,-9.09464032977320e+000,-1.48880285262456e-001

1.41421356237309e+004,-9.09464016401328e+000,-1.50958577997763e-001

1.43395524801583e+004,-9.09463999359320e+000,-1.53065882678539e-001

1.45397251732031e+004,-9.09463981838199e+000,-1.55202604298149e-001

1.47426921729110e+004,-9.09463963824497e+000,-1.57369153504520e-001

1.49484924863494e+004,-9.09463945304355e+000,-1.59565946678656e-001

1.51571656651040e+004,-9.09463926263541e+000,-1.61793406013126e-001

1.53687518128801e+004,-9.09463906687431e+000,-1.64051959593649e-001

1.55832915932100e+004,-9.09463886560943e+000,-1.66342041484940e-001

1.58008262372675e+004,-9.09463865868638e+000,-1.68664091806919e-001

1.60213975517924e+004,-9.09463844594597e+000,-1.71018556826383e-001

1.62450479271247e+004,-9.09463822722452e+000,-1.73405889039820e-001

1.64718203453514e+004,-9.09463800235415e+000,-1.75826547258360e-001

1.67017583885674e+004,-9.09463777116166e+000,-1.78280996701604e-001

1.69349062472505e+004,-9.09463753346957e+000,-1.80769709079992e-001

1.71713087287550e+004,-9.09463728909508e+000,-1.83293162690348e-001

1.74110112659224e+004,-9.09463703785036e+000,-1.85851842506932e-001

1.76540599258131e+004,-9.09463677954209e+000,-1.88446240274605e-001

1.79005014185594e+004,-9.09463651397179e+000,-1.91076854601265e-001

1.81503831063432e+004,-9.09463624093550e+000,-1.93744191055199e-001

1.84037530124975e+004,-9.09463596022294e+000,-1.96448762265534e-001

1.86606598307361e+004,-9.09463567161864e+000,-1.99191088013457e-001

1.89211529345119e+004,-9.09463537490066e+000,-2.01971695338727e-001

1.91852823865052e+004,-9.09463506984063e+000,-2.04791118639621e-001

1.94530989482457e+004,-9.09463475620439e+000,-2.07649899770737e-001

1.97246540898671e+004,-9.09463443375056e+000,-2.10548588155013e-001

1.99999999999999e+004,-9.09463410223149e+000,-2.13487740881958e-001

2.02791895958005e+004,-9.09463376139214e+000,-2.16467922820626e-001

2.05622765331213e+004,-9.09463341097049e+000,-2.19489706724857e-001

2.08493152168224e+004,-9.09463305069722e+000,-2.22553673343342e-001

2.11403608112276e+004,-9.09463268029539e+000,-2.25660411532358e-001

2.14354692507258e+004,-9.09463229948013e+000,-2.28810518369507e-001

2.17346972505211e+004,-9.09463190795880e+000,-2.32004599266687e-001

2.20381023175322e+004,-9.09463150543028e+000,-2.35243268088141e-001

2.23457427614443e+004,-9.09463109158525e+000,-2.38527147266707e-001

2.26576777059159e+004,-9.09463066610562e+000,-2.41856867924484e-001

2.29739670999406e+004,-9.09463022866404e+000,-2.45233069996401e-001

2.32946717293690e+004,-9.09462977892439e+000,-2.48656402348174e-001

2.36198532285905e+004,-9.09462931654104e+000,-2.52127522904048e-001

2.39495740923785e+004,-9.09462884115830e+000,-2.55647098775252e-001

2.42838976879009e+004,-9.09462835241093e+000,-2.59215806383259e-001

2.46228882668982e+004,-9.09462784992304e+000,-2.62834331594732e-001

2.49666109780322e+004,-9.09462733330837e+000,-2.66503369850212e-001

2.53151318794055e+004,-9.09462680216973e+000,-2.70223626299093e-001

2.56685179512580e+004,-9.09462625609896e+000,-2.73995815933516e-001

2.60268371088386e+004,-9.09462569467614e+000,-2.77820663729318e-001

2.63901582154578e+004,-9.09462511746962e+000,-2.81698904782195e-001

2.67585510957221e+004,-9.09462452403590e+000,-2.85631284448614e-001

2.71320865489533e+004,-9.09462391391852e+000,-2.89618558493630e-001

2.75108363627948e+004,-9.09462328664849e+000,-2.93661493230823e-001

2.78948733270080e+004,-9.09462264174376e+000,-2.97760865671467e-001

2.82842712474618e+004,-9.09462197870837e+000,-3.01917463676317e-001

2.86791049603164e+004,-9.09462129703275e+000,-3.06132086103083e-001

2.90794503464061e+004,-9.09462059619276e+000,-3.10405542963222e-001

2.94853843458219e+004,-9.09461987564974e+000,-3.14738655575287e-001

2.98969849726987e+004,-9.09461913484962e+000,-3.19132256725554e-001

3.03143313302078e+004,-9.09461837322299e+000,-3.23587190824551e-001

3.07375036257601e+004,-9.09461759018433e+000,-3.28104314073018e-001

3.11665831864199e+004,-9.09461678513173e+000,-3.32684494623100e-001

3.16016524745350e+004,-9.09461595744629e+000,-3.37328612748233e-001

3.20427951035848e+004,-9.09461510649163e+000,-3.42037561011536e-001

3.24900958542493e+004,-9.09461423161372e+000,-3.46812244435142e-001

3.29436406907028e+004,-9.09461333213987e+000,-3.51653580678037e-001

3.34035167771346e+004,-9.09461240737879e+000,-3.56562500208284e-001

3.38698124945009e+004,-9.09461145661935e+000,-3.61539946486996e-001

3.43426174575100e+004,-9.09461047913092e+000,-3.66586876143391e-001

3.48220225318448e+004,-9.09460947416173e+000,-3.71704259166399e-001

3.53081198516260e+004,-9.09460844093946e+000,-3.76893079082678e-001

3.58010028371187e+004,-9.09460737866990e+000,-3.82154333151867e-001

3.63007662126863e+004,-9.09460628653612e+000,-3.87489032557889e-001

3.68075060249948e+004,-9.09460516369890e+000,-3.92898202598725e-001

3.73213196614721e+004,-9.09460400929478e+000,-3.98382882890066e-001

3.78423058690237e+004,-9.09460282243652e+000,-4.03944127558986e-001

3.83705647730104e+004,-9.09460160221171e+000,-4.09583005451307e-001

3.89061978964912e+004,-9.09460034768222e+000,-4.15300600335338e-001

3.94493081797342e+004,-9.09459905788373e+000,-4.21098011109182e-001

3.99999999999998e+004,-9.09459773182475e+000,-4.26976352013872e-001

4.05583791916010e+004,-9.09459636848576e+000,-4.32936752847822e-001

4.11245530662425e+004,-9.09459496681889e+000,-4.38980359180664e-001

4.16986304336447e+004,-9.09459352574654e+000,-4.45108332578368e-001

4.22807216224550e+004,-9.09459204416087e+000,-4.51321850823660e-001

4.28709385014515e+004,-9.09459052092305e+000,-4.57622108142398e-001

4.34693945010421e+004,-9.09458895486208e+000,-4.64010315434675e-001

4.40762046350642e+004,-9.09458734477409e+000,-4.70487700506623e-001

4.46914855228886e+004,-9.09458568942128e+000,-4.77055508307860e-001

4.53153554118317e+004,-9.09458398753128e+000,-4.83715001168228e-001

4.59479341998812e+004,-9.09458223779576e+000,-4.90467459043674e-001

4.65893434587380e+004,-9.09458043886965e+000,-4.97314179760802e-001

4.72397064571810e+004,-9.09457858937015e+000,-5.04256479265991e-001

4.78991481847569e+004,-9.09457668787539e+000,-5.11295691880498e-001

4.85677953758016e+004,-9.09457473292369e+000,-5.18433170555133e-001

4.92457765337964e+004,-9.09457272301235e+000,-5.25670287130573e-001

4.99332219560642e+004,-9.09457065659624e+000,-5.33008432603060e-001

5.06302637588109e+004,-9.09456853208689e+000,-5.40449017390253e-001

5.13370359025159e+004,-9.09456634785127e+000,-5.47993471602372e-001

5.20536742176771e+004,-9.09456410221010e+000,-5.55643245319712e-001

5.27803164309155e+004,-9.09456179343744e+000,-5.63399808867496e-001

5.35171021914442e+004,-9.09455941975827e+000,-5.71264653103383e-001

5.42641730979066e+004,-9.09455697934820e+000,-5.79239289699633e-001

5.50216727255895e+004,-9.09455447033109e+000,-5.87325251438651e-001

5.57897466540159e+004,-9.09455189077829e+000,-5.95524092504197e-001

5.65685424949235e+004,-9.09454923870694e+000,-6.03837388781723e-001

5.73582099206328e+004,-9.09454651207850e+000,-6.12266738161056e-001

5.81589006928121e+004,-9.09454370879687e+000,-6.20813760845988e-001

5.89707686916437e+004,-9.09454082670738e+000,-6.29480099662435e-001

5.97939699453972e+004,-9.09453786359439e+000,-6.38267420378379e-001

6.06286626604156e+004,-9.09453481718037e+000,-6.47177412020899e-001

6.14750072515201e+004,-9.09453168512361e+000,-6.56211787203302e-001

6.23331663728396e+004,-9.09452846501650e+000,-6.65372282454720e-001

6.32033049490698e+004,-9.09452515438381e+000,-6.74660658553288e-001

6.40855902071694e+004,-9.09452175068078e+000,-6.84078700865629e-001

6.49801917084985e+004,-9.09451825129111e+000,-6.93628219690210e-001

6.58872813814055e+004,-9.09451465352485e+000,-7.03311050606610e-001

6.68070335542691e+004,-9.09451095461664e+000,-7.13129054826783e-001

6.77396249890018e+004,-9.09450715172323e+000,-7.23084119555597e-001

6.86852349150199e+004,-9.09450324192141e+000,-7.33178158353885e-001

6.96440450636895e+004,-9.09449922220601e+000,-7.43413111504125e-001

7.06162397032520e+004,-9.09449508948727e+000,-7.53790946387422e-001

7.16020056742374e+004,-9.09449084058853e+000,-7.64313657860674e-001

7.26015324253724e+004,-9.09448647224393e+000,-7.74983268640243e-001

7.36150120499896e+004,-9.09448198109576e+000,-7.85801829692538e-001

7.46426393229441e+004,-9.09447736369201e+000,-7.96771420627454e-001

7.56846117380472e+004,-9.09447261648352e+000,-8.07894150100816e-001

7.67411295460207e+004,-9.09446773582152e+000,-8.19172156218351e-001

7.78123957929823e+004,-9.09446271795455e+000,-8.30607606949196e-001

7.88986163594682e+004,-9.09445755902580e+000,-8.42202700541955e-001

7.99999999999995e+004,-9.09445225507003e+000,-8.53959665949350e-001

8.11167583832018e+004,-9.09444680201064e+000,-8.65880763256263e-001

8.22491061324848e+004,-9.09444119565626e+000,-8.77968284117046e-001

8.33972608672892e+004,-9.09443543169788e+000,-8.90224552194691e-001

8.45614432449099e+004,-9.09442950570532e+000,-9.02651923610109e-001

8.57418770029029e+004,-9.09442341312392e+000,-9.15252787395373e-001

8.69387890020841e+004,-9.09441714927107e+000,-9.28029565953925e-001

8.81524092701283e+004,-9.09441070933236e+000,-9.40984715528906e-001

8.93829710457770e+004,-9.09440408835822e+000,-9.54120726673729e-001

9.06307108236633e+004,-9.09439728126007e+000,-9.67440124734004e-001

9.18958683997622e+004,-9.09439028280608e+000,-9.80945470334728e-001

9.31786869174758e+004,-9.09438308761765e+000,-9.94639359871478e-001

9.44794129143618e+004,-9.09437569016480e+000,-1.00852442601399e+000

9.57982963695136e+004,-9.09436808476220e+000,-1.02260333821164e+000

9.71355907516031e+004,-9.09436026556489e+000,-1.03687880320774e+000

9.84915530675926e+004,-9.09435222656353e+000,-1.05135356556317e+000

9.98664439121282e+004,-9.09434396157985e+000,-1.06603040818515e+000

1.01260527517622e+005,-9.09433546426211e+000,-1.08091215286291e+000

1.02674071805032e+005,-9.09432672808003e+000,-1.09600166081260e+000

1.04107348435354e+005,-9.09431774631972e+000,-1.11130183323028e+000

1.05560632861831e+005,-9.09430851207876e+000,-1.12681561184952e+000

1.07034204382888e+005,-9.09429901826067e+000,-1.14254597951059e+000

1.08528346195813e+005,-9.09428925756963e+000,-1.15849596073555e+000

1.10043345451179e+005,-9.09427922250485e+000,-1.17466862231110e+000

1.11579493308032e+005,-9.09426890535466e+000,-1.19106707388223e+000

1.13137084989847e+005,-9.09425829819086e+000,-1.20769446855061e+000

1.14716419841265e+005,-9.09424739286219e+000,-1.22455400348560e+000

1.16317801385624e+005,-9.09423618098878e+000,-1.24164892053785e+000

1.17941537383287e+005,-9.09422465395494e+000,-1.25898250686967e+000

1.19587939890794e+005,-9.09421280290310e+000,-1.27655809558671e+000

1.21257325320831e+005,-9.09420061872685e+000,-1.29437906638253e+000

1.22950014503040e+005,-9.09418809206383e+000,-1.31244884619214e+000

1.24666332745679e+005,-9.09417521328859e+000,-1.33077090985419e+000

1.26406609898139e+005,-9.09416197250547e+000,-1.34934878078098e+000

1.28171180414339e+005,-9.09414835954055e+000,-1.36818603164130e+000

1.29960383416997e+005,-9.09413436393429e+000,-1.38728628504916e+000

1.31774562762811e+005,-9.09411997493326e+000,-1.40665321426556e+000

1.33614067108538e+005,-9.09410518148190e+000,-1.42629054390791e+000

1.35479249978003e+005,-9.09408997221408e+000,-1.44620205067136e+000

1.37370469830040e+005,-9.09407433544439e+000,-1.46639156405794e+000

1.39288090127379e+005,-9.09405825915923e+000,-1.48686296711794e+000

1.41232479406504e+005,-9.09404173100748e+000,-1.50762019720206e+000

1.43204011348474e+005,-9.09402473829108e+000,-1.52866724672218e+000

1.45203064850745e+005,-9.09400726795533e+000,-1.55000816392520e+000

1.47230024099979e+005,-9.09398930657883e+000,-1.57164705367626e+000

1.49285278645888e+005,-9.09397084036333e+000,-1.59358807825283e+000

1.51369223476094e+005,-9.09395185512283e+000,-1.61583545815329e+000

1.53482259092041e+005,-9.09393233627308e+000,-1.63839347291206e+000

1.55624791585964e+005,-9.09391226882011e+000,-1.66126646193058e+000

1.57797232718936e+005,-9.09389163734901e+000,-1.68445882531679e+000

1.59999999999999e+005,-9.09387042601189e+000,-1.70797502473985e+000

1.62233516766403e+005,-9.09384861851578e+000,-1.73181958429436e+000

1.64498212264969e+005,-9.09382619811025e+000,-1.75599709137784e+000

1.66794521734578e+005,-9.09380314757448e+000,-1.78051219758116e+000

1.69122886489819e+005,-9.09377944920414e+000,-1.80536961959075e+000

1.71483754005805e+005,-9.09375508479774e+000,-1.83057414010477e+000

1.73877578004168e+005,-9.09373003564277e+000,-1.85613060876132e+000

1.76304818540256e+005,-9.09370428250134e+000,-1.88204394308024e+000

1.78765942091554e+005,-9.09367780559538e+000,-1.90831912941944e+000

1.81261421647326e+005,-9.09365058459176e+000,-1.93496122394202e+000

1.83791736799524e+005,-9.09362259858636e+000,-1.96197535360155e+000

1.86357373834951e+005,-9.09359382608825e+000,-1.98936671713789e+000

1.88958825828723e+005,-9.09356424500329e+000,-2.01714058608798e+000

1.91596592739027e+005,-9.09353383261718e+000,-2.04530230581268e+000

1.94271181503206e+005,-9.09350256557805e+000,-2.07385729653672e+000

1.96983106135185e+005,-9.09347041987857e+000,-2.10281105440442e+000

1.99732887824256e+005,-9.09343737083770e+000,-2.13216915255011e+000

2.02521055035243e+005,-9.09340339308166e+000,-2.16193724218467e+000

2.05348143610063e+005,-9.09336846052466e+000,-2.19212105369681e+000

2.08214696870707e+005,-9.09333254634890e+000,-2.22272639777063e+000

2.11121265723661e+005,-9.09329562298416e+000,-2.25375916651918e+000

2.14068408765776e+005,-9.09325766208642e+000,-2.28522533463585e+000

2.17056692391625e+005,-9.09321863451666e+000,-2.31713096055915e+000

2.20086690902357e+005,-9.09317851031810e+000,-2.34948218765786e+000

2.23158986616063e+005,-9.09313725869387e+000,-2.38228524543027e+000

2.26274169979693e+005,-9.09309484798291e+000,-2.41554645072412e+000

2.29432839682530e+005,-9.09305124563618e+000,-2.44927220897108e+000

2.32635602771247e+005,-9.09300641819168e+000,-2.48346901544057e+000

2.35883074766574e+005,-9.09296033124893e+000,-2.51814345651252e+000

2.39175879781588e+005,-9.09291294944270e+000,-2.55330221096695e+000

2.42514650641661e+005,-9.09286423641596e+000,-2.58895205129398e+000

2.45900029006080e+005,-9.09281415479225e+000,-2.62509984502213e+000

2.49332665491357e+005,-9.09276266614709e+000,-2.66175255606562e+000

2.52813219796278e+005,-9.09270973097883e+000,-2.69891724609215e+000

2.56342360828676e+005,-9.09265530867824e+000,-2.73660107591097e+000

2.59920766833993e+005,-9.09259935749782e+000,-2.77481130688005e+000

2.63549125525621e+005,-9.09254183451987e+000,-2.81355530233499e+000

2.67228134217075e+005,-9.09248269562384e+000,-2.85284052903835e+000

2.70958499956006e+005,-9.09242189545263e+000,-2.89267455865117e+000

2.74740939660078e+005,-9.09235938737823e+000,-2.93306506922441e+000

2.78576180254757e+005,-9.09229512346607e+000,-2.97401984671434e+000

2.82464958813007e+005,-9.09222905443849e+000,-3.01554678652004e+000

2.86408022696948e+005,-9.09216112963745e+000,-3.05765389504178e+000

2.90406129701488e+005,-9.09209129698585e+000,-3.10034929126492e+000

2.94460048199957e+005,-9.09201950294799e+000,-3.14364120836619e+000

2.98570557291775e+005,-9.09194569248881e+000,-3.18753799534358e+000

3.02738446952187e+005,-9.09186980903207e+000,-3.23204811867167e+000

3.06964518184081e+005,-9.09179179441754e+000,-3.27718016397990e+000

3.11249583171928e+005,-9.09171158885661e+000,-3.32294283775754e+000

3.15594465437872e+005,-9.09162913088700e+000,-3.36934496908414e+000

3.19999999999997e+005,-9.09154435732606e+000,-3.41639551138466e+000

3.24467033532806e+005,-9.09145720322309e+000,-3.46410354421135e+000

3.28996424529938e+005,-9.09136760180961e+000,-3.51247827505477e+000

3.33589043469155e+005,-9.09127548444928e+000,-3.56152904117781e+000

3.38245772979638e+005,-9.09118078058546e+000,-3.61126531148213e+000

3.42967508011610e+005,-9.09108341768803e+000,-3.66169668839909e+000

3.47755156008335e+005,-9.09098332119847e+000,-3.71283290981165e+000

3.52609637080511e+005,-9.09088041447320e+000,-3.76468385100507e+000

3.57531884183106e+005,-9.09077461872591e+000,-3.81725952664652e+000

3.62522843294651e+005,-9.09066585296786e+000,-3.87057009279590e+000

3.67583473599047e+005,-9.09055403394657e+000,-3.92462584894756e+000

3.72714747669902e+005,-9.09043907608319e+000,-3.97943724010220e+000

3.77917651657445e+005,-9.09032089140759e+000,-4.03501485887243e+000

3.83193185478053e+005,-9.09019938949234e+000,-4.09136944761821e+000

3.88542363006410e+005,-9.09007447738413e+000,-4.14851190061930e+000

3.93966212270369e+005,-9.08994605953402e+000,-4.20645326627707e+000

3.99465775648511e+005,-9.08981403772527e+000,-4.26520474935377e+000

4.05042110070485e+005,-9.08967831099946e+000,-4.32477771324532e+000

4.10696287220124e+005,-9.08953877558063e+000,-4.38518368228929e+000

4.16429393741414e+005,-9.08939532479700e+000,-4.44643434411060e+000

4.22242531447321e+005,-9.08924784900111e+000,-4.50854155200239e+000

4.28136817531551e+005,-9.08909623548725e+000,-4.57151732734584e+000

4.34113384783250e+005,-9.08894036840694e+000,-4.63537386206761e+000

4.40173381804713e+005,-9.08878012868206e+000,-4.70012352113611e+000

4.46317973232124e+005,-9.08861539391569e+000,-4.76577884509765e+000

4.52548339959385e+005,-9.08844603830029e+000,-4.83235255265388e+000

4.58865679365059e+005,-9.08827193252367e+000,-4.89985754327945e+000

4.65271205542494e+005,-9.08809294367231e+000,-4.96830689988206e+000

4.71766149533147e+005,-9.08790893513199e+000,-5.03771389150585e+000

4.78351759563174e+005,-9.08771976648580e+000,-5.10809197607833e+000

4.85029301283321e+005,-9.08752529340957e+000,-5.17945480320131e+000

4.91800058012158e+005,-9.08732536756406e+000,-5.25181621698844e+000

4.98665330982714e+005,-9.08711983648473e+000,-5.32519025894855e+000

5.05626439592555e+005,-9.08690854346818e+000,-5.39959117091620e+000

5.12684721657352e+005,-9.08669132745587e+000,-5.47503339803091e+000

5.19841533667984e+005,-9.08646802291433e+000,-5.55153159176521e+000

5.27098251051240e+005,-9.08623845971255e+000,-5.62910061300417e+000

5.34456268434150e+005,-9.08600246299596e+000,-5.70775553517425e+000

5.41916999912011e+005,-9.08575985305681e+000,-5.78751164742700e+000

