Freq.,VOut,OutRef

1.00000000000000e+004,-2.49253585251977e+001,-2.53196824067273e-001

1.01395947979003e+004,-2.49253593789482e+001,-2.56731310539006e-001

1.02811382665607e+004,-2.49253602567007e+001,-2.60315136200855e-001

1.04246576084112e+004,-2.49253611591301e+001,-2.63948989784827e-001

1.05701804056138e+004,-2.49253620869301e+001,-2.67633569637044e-001

1.07177346253629e+004,-2.49253630408137e+001,-2.71369583852264e-001

1.08673486252606e+004,-2.49253640215146e+001,-2.75157750406337e-001

1.10190511587661e+004,-2.49253650297865e+001,-2.78998797299576e-001

1.11728713807222e+004,-2.49253660664045e+001,-2.82893462693178e-001

1.13288388529580e+004,-2.49253671321657e+001,-2.86842495050384e-001

1.14869835499703e+004,-2.49253682278891e+001,-2.90846653284721e-001

1.16473358646846e+004,-2.49253693544173e+001,-2.94906706899284e-001

1.18099266142953e+004,-2.49253705126163e+001,-2.99023436140392e-001

1.19747870461893e+004,-2.49253717033764e+001,-3.03197632143994e-001

1.21419488439505e+004,-2.49253729276130e+001,-3.07430097089484e-001

1.23114441334492e+004,-2.49253741862672e+001,-3.11721644353064e-001

1.24833054890161e+004,-2.49253754803066e+001,-3.16073098663882e-001

1.26575659397028e+004,-2.49253768107261e+001,-3.20485296261661e-001

1.28342589756290e+004,-2.49253781785484e+001,-3.24959085060081e-001

1.30134185544193e+004,-2.49253795848250e+001,-3.29495324806939e-001

1.31950791077289e+004,-2.49253810306370e+001,-3.34094887249410e-001

1.33792755478611e+004,-2.49253825170958e+001,-3.38758656304920e-001

1.35660432744767e+004,-2.49253840453442e+001,-3.43487528225077e-001

1.37554181813974e+004,-2.49253856165570e+001,-3.48282411773766e-001

1.39474366635040e+004,-2.49253872319420e+001,-3.53144228397499e-001

1.41421356237309e+004,-2.49253888927412e+001,-3.58073912404498e-001

1.43395524801583e+004,-2.49253906002312e+001,-3.63072411144157e-001

1.45397251732031e+004,-2.49253923557246e+001,-3.68140685187794e-001

1.47426921729110e+004,-2.49253941605709e+001,-3.73279708514366e-001

1.49484924863494e+004,-2.49253960161577e+001,-3.78490468695788e-001

1.51571656651040e+004,-2.49253979239113e+001,-3.83773967089471e-001

1.53687518128801e+004,-2.49253998852985e+001,-3.89131219027610e-001

1.55832915932100e+004,-2.49254019018269e+001,-3.94563254014377e-001

1.58008262372675e+004,-2.49254039750467e+001,-4.00071115923407e-001

1.60213975517924e+004,-2.49254061065518e+001,-4.05655863196385e-001

1.62450479271247e+004,-2.49254082979806e+001,-4.11318569048680e-001

1.64718203453514e+004,-2.49254105510178e+001,-4.17060321673821e-001

1.67017583885674e+004,-2.49254128673954e+001,-4.22882224453395e-001

1.69349062472505e+004,-2.49254152488941e+001,-4.28785396168443e-001

1.71713087287550e+004,-2.49254176973445e+001,-4.34770971215235e-001

1.74110112659224e+004,-2.49254202146289e+001,-4.40840099821634e-001

1.76540599258131e+004,-2.49254228026826e+001,-4.46993948268119e-001

1.79005014185594e+004,-2.49254254634947e+001,-4.53233699114580e-001

1.81503831063432e+004,-2.49254281991109e+001,-4.59560551421905e-001

1.84037530124975e+004,-2.49254310116342e+001,-4.65975720987938e-001

1.86606598307361e+004,-2.49254339032266e+001,-4.72480440577727e-001

1.89211529345119e+004,-2.49254368761107e+001,-4.79075960161440e-001

1.91852823865052e+004,-2.49254399325722e+001,-4.85763547151679e-001

1.94530989482457e+004,-2.49254430749604e+001,-4.92544486651600e-001

1.97246540898671e+004,-2.49254463056910e+001,-4.99420081698205e-001

1.99999999999999e+004,-2.49254496272475e+001,-5.06391653512141e-001

2.02791895958005e+004,-2.49254530421833e+001,-5.13460541753736e-001

2.05622765331213e+004,-2.49254565531234e+001,-5.20628104778766e-001

2.08493152168224e+004,-2.49254601627669e+001,-5.27895719898323e-001

2.11403608112276e+004,-2.49254638738883e+001,-5.35264783646677e-001

2.14354692507258e+004,-2.49254676893405e+001,-5.42736712043862e-001

2.17346972505211e+004,-2.49254716120565e+001,-5.50312940872782e-001

2.20381023175322e+004,-2.49254756450518e+001,-5.57994925951046e-001

2.23457427614443e+004,-2.49254797914264e+001,-5.65784143413557e-001

2.26576777059159e+004,-2.49254840543677e+001,-5.73682089991986e-001

2.29739670999406e+004,-2.49254884371526e+001,-5.81690283306677e-001

2.32946717293690e+004,-2.49254929431501e+001,-5.89810262153408e-001

2.36198532285905e+004,-2.49254975758241e+001,-5.98043586800939e-001

2.39495740923785e+004,-2.49255023387356e+001,-6.06391839290673e-001

2.42838976879009e+004,-2.49255072355457e+001,-6.14856623739684e-001

2.46228882668982e+004,-2.49255122700187e+001,-6.23439566648289e-001

2.49666109780322e+004,-2.49255174460245e+001,-6.32142317212374e-001

2.53151318794055e+004,-2.49255227675416e+001,-6.40966547640116e-001

2.56685179512580e+004,-2.49255282386608e+001,-6.49913953471680e-001

2.60268371088386e+004,-2.49255338635876e+001,-6.58986253905752e-001

2.63901582154578e+004,-2.49255396466457e+001,-6.68185192128826e-001

2.67585510957221e+004,-2.49255455922803e+001,-6.77512535649534e-001

2.71320865489533e+004,-2.49255517050617e+001,-6.86970076638041e-001

2.75108363627948e+004,-2.49255579896887e+001,-6.96559632268892e-001

2.78948733270080e+004,-2.49255644509919e+001,-7.06283045070869e-001

2.82842712474618e+004,-2.49255710939379e+001,-7.16142183278303e-001

2.86791049603164e+004,-2.49255779236330e+001,-7.26138941192416e-001

2.90794503464061e+004,-2.49255849453266e+001,-7.36275239541786e-001

2.94853843458219e+004,-2.49255921644162e+001,-7.46553025850903e-001

2.98969849726987e+004,-2.49255995864506e+001,-7.56974274815740e-001

3.03143313302078e+004,-2.49256072171347e+001,-7.67540988679915e-001

3.07375036257601e+004,-2.49256150623338e+001,-7.78255197619744e-001

3.11665831864199e+004,-2.49256231280780e+001,-7.89118960133419e-001

3.16016524745350e+004,-2.49256314205670e+001,-8.00134363434393e-001

3.20427951035848e+004,-2.49256399461744e+001,-8.11303523853808e-001

3.24900958542493e+004,-2.49256487114535e+001,-8.22628587243301e-001

3.29436406907028e+004,-2.49256577231412e+001,-8.34111729388223e-001

3.34035167771346e+004,-2.49256669881642e+001,-8.45755156423308e-001

3.38698124945009e+004,-2.49256765136437e+001,-8.57561105256595e-001

3.43426174575100e+004,-2.49256863069010e+001,-8.69531843997281e-001

3.48220225318448e+004,-2.49256963754632e+001,-8.81669672389128e-001

3.53081198516260e+004,-2.49257067270691e+001,-8.93976922253421e-001

3.58010028371187e+004,-2.49257173696748e+001,-9.06455957933651e-001

3.63007662126863e+004,-2.49257283114601e+001,-9.19109176749290e-001

3.68075060249948e+004,-2.49257395608346e+001,-9.31939009453881e-001

3.73213196614721e+004,-2.49257511264445e+001,-9.44947920701401e-001

3.78423058690237e+004,-2.49257630171786e+001,-9.58138409518314e-001

3.83705647730104e+004,-2.49257752421759e+001,-9.71513009781033e-001

3.89061978964912e+004,-2.49257878108318e+001,-9.85074290701433e-001

3.94493081797342e+004,-2.49258007328062e+001,-9.98824857318524e-001

3.99999999999998e+004,-2.49258140180302e+001,-1.01276735099663e+000

4.05583791916010e+004,-2.49258276767141e+001,-1.02690444993235e+000

4.11245530662425e+004,-2.49258417193551e+001,-1.04123886966401e+000

4.16986304336447e+004,-2.49258561567453e+001,-1.05577336359482e+000

4.22807216224550e+004,-2.49258709999802e+001,-1.07051072351645e+000

4.28709385014515e+004,-2.49258862604670e+001,-1.08545378014453e+000

4.34693945010421e+004,-2.49259019499335e+001,-1.10060540365956e+000

4.40762046350642e+004,-2.49259180804371e+001,-1.11596850425520e+000

4.46914855228886e+004,-2.49259346643740e+001,-1.13154603269598e+000

4.53153554118317e+004,-2.49259517144886e+001,-1.14734098087958e+000

4.59479341998812e+004,-2.49259692438836e+001,-1.16335638240971e+000

4.65893434587380e+004,-2.49259872660297e+001,-1.17959531317612e+000

4.72397064571810e+004,-2.49260057947763e+001,-1.19606089194102e+000

4.78991481847569e+004,-2.49260248443617e+001,-1.21275628093507e+000

4.85677953758016e+004,-2.49260444294245e+001,-1.22968468646234e+000

4.92457765337964e+004,-2.49260645650144e+001,-1.24684935951229e+000

4.99332219560642e+004,-2.49260852666041e+001,-1.26425359637891e+000

5.06302637588109e+004,-2.49261065501009e+001,-1.28190073929210e+000

5.13370359025159e+004,-2.49261284318591e+001,-1.29979417705356e+000

5.20536742176771e+004,-2.49261509286926e+001,-1.31793734568489e+000

5.27803164309155e+004,-2.49261740578874e+001,-1.33633372908274e+000

5.35171021914442e+004,-2.49261978372153e+001,-1.35498685968266e+000

5.42641730979066e+004,-2.49262222849474e+001,-1.37390031913286e+000

5.50216727255895e+004,-2.49262474198681e+001,-1.39307773897738e+000

5.57897466540159e+004,-2.49262732612893e+001,-1.41252280134892e+000

5.65685424949235e+004,-2.49262998290657e+001,-1.43223923966825e+000

5.73582099206328e+004,-2.49263271436094e+001,-1.45223083935836e+000

5.81589006928121e+004,-2.49263552259064e+001,-1.47250143856290e+000

5.89707686916437e+004,-2.49263840975316e+001,-1.49305492887897e+000

5.97939699453972e+004,-2.49264137806662e+001,-1.51389525609694e+000

6.06286626604156e+004,-2.49264442981147e+001,-1.53502642095100e+000

6.14750072515201e+004,-2.49264756733216e+001,-1.55645247988160e+000

6.23331663728396e+004,-2.49265079303903e+001,-1.57817754580617e+000

6.32033049490698e+004,-2.49265410941009e+001,-1.60020578890149e+000

6.40855902071694e+004,-2.49265751899298e+001,-1.62254143739589e+000

6.49801917084985e+004,-2.49266102440685e+001,-1.64518877837380e+000

6.58872813814055e+004,-2.49266462834443e+001,-1.66815215858923e+000

6.68070335542691e+004,-2.49266833357408e+001,-1.69143598529184e+000

6.77396249890018e+004,-2.49267214294187e+001,-1.71504472706322e+000

6.86852349150199e+004,-2.49267605937382e+001,-1.73898291466611e+000

6.96440450636895e+004,-2.49268008587810e+001,-1.76325514190149e+000

7.06162397032520e+004,-2.49268422554736e+001,-1.78786606648312e+000

7.16020056742374e+004,-2.49268848156106e+001,-1.81282041091765e+000

7.26015324253724e+004,-2.49269285718797e+001,-1.83812296340165e+000

7.36150120499896e+004,-2.49269735578861e+001,-1.86377857872664e+000

7.46426393229441e+004,-2.49270198081784e+001,-1.88979217920049e+000

7.56846117380472e+004,-2.49270673582754e+001,-1.91616875557769e+000

7.67411295460207e+004,-2.49271162446931e+001,-1.94291336800326e+000

7.78123957929823e+004,-2.49271665049720e+001,-1.97003114697169e+000

7.88986163594682e+004,-2.49272181777072e+001,-1.99752729429362e+000

7.99999999999995e+004,-2.49272713025764e+001,-2.02540708408209e+000

8.11167583832018e+004,-2.49273259203716e+001,-2.05367586374535e+000

8.22491061324848e+004,-2.49273820730293e+001,-2.08233905499830e+000

8.33972608672892e+004,-2.49274398036632e+001,-2.11140215488469e+000

8.45614432449099e+004,-2.49274991565971e+001,-2.14087073681283e+000

8.57418770029029e+004,-2.49275601773983e+001,-2.17075045160707e+000

8.69387890020841e+004,-2.49276229129131e+001,-2.20104702857139e+000

8.81524092701283e+004,-2.49276874113022e+001,-2.23176627656832e+000

8.93829710457770e+004,-2.49277537220778e+001,-2.26291408511108e+000

9.06307108236633e+004,-2.49278218961409e+001,-2.29449642547170e+000

9.18958683997622e+004,-2.49278919858211e+001,-2.32651935180196e+000

9.31786869174758e+004,-2.49279640449156e+001,-2.35898900227132e+000

9.44794129143618e+004,-2.49280381287310e+001,-2.39191160021847e+000

9.57982963695136e+004,-2.49281142941252e+001,-2.42529345531726e+000

9.71355907516031e+004,-2.49281925995509e+001,-2.45914096476062e+000

9.84915530675926e+004,-2.49282731051003e+001,-2.49346061445748e+000

9.98664439121282e+004,-2.49283558725508e+001,-2.52825898024737e+000

1.01260527517622e+005,-2.49284409654124e+001,-2.56354272912848e+000

1.02674071805032e+005,-2.49285284489758e+001,-2.59931862050486e+000

1.04107348435354e+005,-2.49286183903626e+001,-2.63559350744692e+000

1.05560632861831e+005,-2.49287108585761e+001,-2.67237433797067e+000

1.07034204382888e+005,-2.49288059245545e+001,-2.70966815633215e+000

1.08528346195813e+005,-2.49289036612240e+001,-2.74748210433969e+000

1.10043345451179e+005,-2.49290041435555e+001,-2.78582342268131e+000

1.11579493308032e+005,-2.49291074486210e+001,-2.82469945227181e+000

1.13137084989847e+005,-2.49292136556524e+001,-2.86411763561550e+000

1.14716419841265e+005,-2.49293228461022e+001,-2.90408551818634e+000

1.16317801385624e+005,-2.49294351037050e+001,-2.94461074982669e+000

1.17941537383287e+005,-2.49295505145418e+001,-2.98570108616350e+000

1.19587939890794e+005,-2.49296691671048e+001,-3.02736439004263e+000

1.21257325320831e+005,-2.49297911523655e+001,-3.06960863298095e+000

1.22950014503040e+005,-2.49299165638434e+001,-3.11244189663727e+000

1.24666332745679e+005,-2.49300454976769e+001,-3.15587237430243e+000

1.26406609898139e+005,-2.49301780526972e+001,-3.19990837240641e+000

1.28171180414339e+005,-2.49303143305023e+001,-3.24455831204645e+000

1.29960383416997e+005,-2.49304544355352e+001,-3.28983073053309e+000

1.31774562762811e+005,-2.49305984751626e+001,-3.33573428295491e+000

1.33614067108538e+005,-2.49307465597562e+001,-3.38227774376537e+000

1.35479249978003e+005,-2.49308988027771e+001,-3.42947000838544e+000

1.37370469830040e+005,-2.49310553208614e+001,-3.47732009482911e+000

1.39288090127379e+005,-2.49312162339089e+001,-3.52583714534785e+000

1.41232479406504e+005,-2.49313816651734e+001,-3.57503042809524e+000

1.43204011348474e+005,-2.49315517413570e+001,-3.62490933881088e+000

1.45203064850745e+005,-2.49317265927050e+001,-3.67548340252715e+000

1.47230024099979e+005,-2.49319063531054e+001,-3.72676227529419e+000

1.49285278645888e+005,-2.49320911601897e+001,-3.77875574592675e+000

1.51369223476094e+005,-2.49322811554370e+001,-3.83147373777172e+000

1.53482259092041e+005,-2.49324764842810e+001,-3.88492631049764e+000

1.55624791585964e+005,-2.49326772962201e+001,-3.93912366190383e+000

1.57797232718936e+005,-2.49328837449299e+001,-3.99407612975128e+000

1.59999999999999e+005,-2.49330959883794e+001,-4.04979419361689e+000

1.62233516766403e+005,-2.49333141889504e+001,-4.10628847676602e+000

1.64498212264969e+005,-2.49335385135593e+001,-4.16356974805042e+000

1.66794521734578e+005,-2.49337691337836e+001,-4.22164892382438e+000

1.69122886489819e+005,-2.49340062259907e+001,-4.28053706988621e+000

1.71483754005805e+005,-2.49342499714707e+001,-4.34024540343934e+000

1.73877578004168e+005,-2.49345005565728e+001,-4.40078529507677e+000

1.76304818540256e+005,-2.49347581728454e+001,-4.46216827078792e+000

1.78765942091554e+005,-2.49350230171802e+001,-4.52440601398661e+000

1.81261421647326e+005,-2.49352952919596e+001,-4.58751036756325e+000

1.83791736799524e+005,-2.49355752052091e+001,-4.65149333595810e+000

1.86357373834951e+005,-2.49358629707526e+001,-4.71636708725720e+000

1.88958825828723e+005,-2.49361588083734e+001,-4.78214395531234e+000

1.91596592739027e+005,-2.49364629439781e+001,-4.84883644188179e+000

1.94271181503206e+005,-2.49367756097659e+001,-4.91645721879490e+000

1.96983106135185e+005,-2.49370970444024e+001,-4.98501913013889e+000

1.99732887824256e+005,-2.49374274931971e+001,-5.05453519446898e+000

2.02521055035243e+005,-2.49377672082877e+001,-5.12501860703995e+000

2.05348143610063e+005,-2.49381164488270e+001,-5.19648274206204e+000

2.08214696870707e+005,-2.49384754811767e+001,-5.26894115497774e+000

2.11121265723661e+005,-2.49388445791053e+001,-5.34240758476298e+000

2.14068408765776e+005,-2.49392240239920e+001,-5.41689595624945e+000

2.17056692391625e+005,-2.49396141050357e+001,-5.49242038246947e+000

2.20086690902357e+005,-2.49400151194696e+001,-5.56899516702471e+000

2.23158986616063e+005,-2.49404273727816e+001,-5.64663480647489e+000

2.26274169979693e+005,-2.49408511789410e+001,-5.72535399275041e+000

2.29432839682530e+005,-2.49412868606305e+001,-5.80516761558577e+000

2.32635602771247e+005,-2.49417347494846e+001,-5.88609076497574e+000

2.35883074766574e+005,-2.49421951863349e+001,-5.96813873365267e+000

2.39175879781588e+005,-2.49426685214615e+001,-6.05132701958435e+000

2.42514650641661e+005,-2.49431551148509e+001,-6.13567132849434e+000

2.45900029006080e+005,-2.49436553364605e+001,-6.22118757640300e+000

2.49332665491357e+005,-2.49441695664915e+001,-6.30789189218731e+000

2.52813219796278e+005,-2.49446981956670e+001,-6.39580062016374e+000

2.56342360828676e+005,-2.49452416255188e+001,-6.48493032268863e+000

2.59920766833993e+005,-2.49458002686816e+001,-6.57529778277914e+000

2.63549125525621e+005,-2.49463745491939e+001,-6.66692000675361e+000

2.67228134217075e+005,-2.49469649028085e+001,-6.75981422688923e+000

2.70958499956006e+005,-2.49475717773092e+001,-6.85399790409995e+000

2.74740939660078e+005,-2.49481956328373e+001,-6.94948873063012e+000

2.78576180254757e+005,-2.49488369422256e+001,-7.04630463276604e+000

2.82464958813007e+005,-2.49494961913416e+001,-7.14446377356445e+000

2.86408022696948e+005,-2.49501738794394e+001,-7.24398455559641e+000

2.90406129701488e+005,-2.49508705195204e+001,-7.34488562370664e+000

2.94460048199957e+005,-2.49515866387040e+001,-7.44718586778708e+000

2.98570557291775e+005,-2.49523227786069e+001,-7.55090442556455e+000

3.02738446952187e+005,-2.49530794957328e+001,-7.65606068540160e+000

3.06964518184081e+005,-2.49538573618720e+001,-7.76267428910894e+000

3.11249583171928e+005,-2.49546569645103e+001,-7.87076513476909e+000

3.15594465437872e+005,-2.49554789072499e+001,-7.98035337957112e+000

3.19999999999997e+005,-2.49563238102391e+001,-8.09145944265355e+000

3.24467033532806e+005,-2.49571923106143e+001,-8.20410400795628e+000

3.28996424529938e+005,-2.49580850629523e+001,-8.31830802707876e+000

3.33589043469155e+005,-2.49590027397339e+001,-8.43409272214498e+000

3.38245772979638e+005,-2.49599460318200e+001,-8.55147958867188e+000

3.42967508011610e+005,-2.49609156489380e+001,-8.67049039844232e+000

3.47755156008335e+005,-2.49619123201815e+001,-8.79114720237880e+000

3.52609637080511e+005,-2.49629367945218e+001,-8.91347233341837e+000

3.57531884183106e+005,-2.49639898413323e+001,-9.03748840938563e+000

3.62522843294651e+005,-2.49650722509248e+001,-9.16321833586403e+000

3.67583473599047e+005,-2.49661848351002e+001,-9.29068530906156e+000

3.72714747669902e+005,-2.49673284277113e+001,-9.41991281867116e+000

3.77917651657445e+005,-2.49685038852405e+001,-9.55092465072227e+000

3.83193185478053e+005,-2.49697120873894e+001,-9.68374489042305e+000

3.88542363006410e+005,-2.49709539376846e+001,-9.81839792498969e+000

3.93966212270369e+005,-2.49722303640967e+001,-9.95490844646220e+000

3.99465775648511e+005,-2.49735423196740e+001,-1.00933014545032e+001

4.05042110070485e+005,-2.49748907831913e+001,-1.02336022591783e+001

4.10696287220124e+005,-2.49762767598138e+001,-1.03758364837142e+001

4.16429393741414e+005,-2.49777012817763e+001,-1.05200300672347e+001

4.22242531447321e+005,-2.49791654090784e+001,-1.06662092674682e+001

4.28136817531551e+005,-2.49806702301950e+001,-1.08144006634270e+001

4.34113384783250e+005,-2.49822168628035e+001,-1.09646311580547e+001

4.40173381804713e+005,-2.49838064545271e+001,-1.11169279808372e+001

4.46317973232124e+005,-2.49854401836951e+001,-1.12713186903763e+001

4.52548339959385e+005,-2.49871192601200e+001,-1.14278311769206e+001

4.58865679365059e+005,-2.49888449258911e+001,-1.15864936648526e+001

4.65271205542494e+005,-2.49906184561866e+001,-1.17473347151264e+001

4.71766149533147e+005,-2.49924411601025e+001,-1.19103832276521e+001

4.78351759563174e+005,-2.49943143814998e+001,-1.20756684436261e+001

4.85029301283321e+005,-2.49962394998688e+001,-1.22432199477993e+001

4.91800058012158e+005,-2.49982179312134e+001,-1.24130676706818e+001

4.98665330982714e+005,-2.50002511289517e+001,-1.25852418906791e+001

5.05626439592555e+005,-2.50023405848370e+001,-1.27597732361545e+001

5.12684721657352e+005,-2.50044878298967e+001,-1.29366926874148e+001

5.19841533667984e+005,-2.50066944353900e+001,-1.31160315786121e+001

5.27098251051240e+005,-2.50089620137853e+001,-1.32978215995593e+001

5.34456268434150e+005,-2.50112922197567e+001,-1.34820947974531e+001

5.41916999912011e+005,-2.50136867511989e+001,-1.36688835784977e+001

