Freq.,VOut,OutRef

1.00000000000000e+004,-2.89403659631902e+001,-4.30063475664479e-001

1.01395947979003e+004,-2.89403685953659e+001,-4.36066888001951e-001

1.02811382665607e+004,-2.89403713015407e+001,-4.42154102726765e-001

1.04246576084112e+004,-2.89403740837948e+001,-4.48326289586506e-001

1.05701804056138e+004,-2.89403769442672e+001,-4.54584634653381e-001

1.07177346253629e+004,-2.89403798851566e+001,-4.60930340554072e-001

1.08673486252606e+004,-2.89403829087238e+001,-4.67364626697417e-001

1.10190511587661e+004,-2.89403860172932e+001,-4.73888729510852e-001

1.11728713807222e+004,-2.89403892132543e+001,-4.80503902677420e-001

1.13288388529580e+004,-2.89403924990640e+001,-4.87211417375726e-001

1.14869835499703e+004,-2.89403958772481e+001,-4.94012562525158e-001

1.16473358646846e+004,-2.89403993504033e+001,-5.00908645032536e-001

1.18099266142953e+004,-2.89404029211999e+001,-5.07900990041508e-001

1.19747870461893e+004,-2.89404065923824e+001,-5.14990941191132e-001

1.21419488439505e+004,-2.89404103667730e+001,-5.22179860868824e-001

1.23114441334492e+004,-2.89404142472733e+001,-5.29469130475318e-001

1.24833054890161e+004,-2.89404182368661e+001,-5.36860150688035e-001

1.26575659397028e+004,-2.89404223386183e+001,-5.44354341731671e-001

1.28342589756290e+004,-2.89404265556828e+001,-5.51953143648561e-001

1.30134185544193e+004,-2.89404308913014e+001,-5.59658016576003e-001

1.31950791077289e+004,-2.89404353488069e+001,-5.67470441027947e-001

1.33792755478611e+004,-2.89404399316258e+001,-5.75391918175914e-001

1.35660432744767e+004,-2.89404446432807e+001,-5.83423970140934e-001

1.37554181813974e+004,-2.89404494873937e+001,-5.91568140281781e-001

1.39474366635040e+004,-2.89404544676883e+001,-5.99825993493842e-001

1.41421356237309e+004,-2.89404595879927e+001,-6.08199116508554e-001

1.43395524801583e+004,-2.89404648522430e+001,-6.16689118197450e-001

1.45397251732031e+004,-2.89404702644856e+001,-6.25297629880707e-001

1.47426921729110e+004,-2.89404758288810e+001,-6.34026305641196e-001

1.49484924863494e+004,-2.89404815497062e+001,-6.42876822641157e-001

1.51571656651040e+004,-2.89404874313588e+001,-6.51850881442541e-001

1.53687518128801e+004,-2.89404934783600e+001,-6.60950206335762e-001

1.55832915932100e+004,-2.89404996953577e+001,-6.70176545669468e-001

1.58008262372675e+004,-2.89405060871309e+001,-6.79531672183725e-001

1.60213975517924e+004,-2.89405126585926e+001,-6.89017383353910e-001

1.62450479271247e+004,-2.89405194147942e+001,-6.98635501731878e-001

1.64718203453514e+004,-2.89405263609288e+001,-7.08387875297482e-001

1.67017583885674e+004,-2.89405335023357e+001,-7.18276377811583e-001

1.69349062472505e+004,-2.89405408445041e+001,-7.28302909177079e-001

1.71713087287550e+004,-2.89405483930777e+001,-7.38469395801151e-001

1.74110112659224e+004,-2.89405561538584e+001,-7.48777790966272e-001

1.76540599258131e+004,-2.89405641328117e+001,-7.59230075203693e-001

1.79005014185594e+004,-2.89405723360705e+001,-7.69828256672106e-001

1.81503831063432e+004,-2.89405807699401e+001,-7.80574371545307e-001

1.84037530124975e+004,-2.89405894409030e+001,-7.91470484400307e-001

1.86606598307361e+004,-2.89405983556241e+001,-8.02518688612207e-001

1.89211529345119e+004,-2.89406075209553e+001,-8.13721106758603e-001

1.91852823865052e+004,-2.89406169439413e+001,-8.25079891022400e-001

1.94530989482457e+004,-2.89406266318248e+001,-8.36597223607387e-001

1.97246540898671e+004,-2.89406365920520e+001,-8.48275317153615e-001

1.99999999999999e+004,-2.89406468322783e+001,-8.60116415163703e-001

2.02791895958005e+004,-2.89406573603744e+001,-8.72122792430963e-001

2.05622765331213e+004,-2.89406681844324e+001,-8.84296755474220e-001

2.08493152168224e+004,-2.89406793127712e+001,-8.96640642982661e-001

2.11403608112276e+004,-2.89406907539441e+001,-9.09156826260664e-001

2.14354692507258e+004,-2.89407025167446e+001,-9.21847709682345e-001

2.17346972505211e+004,-2.89407146102132e+001,-9.34715731153448e-001

2.20381023175322e+004,-2.89407270436447e+001,-9.47763362575918e-001

2.23457427614443e+004,-2.89407398265949e+001,-9.60993110322820e-001

2.26576777059159e+004,-2.89407529688883e+001,-9.74407515716254e-001

2.29739670999406e+004,-2.89407664806254e+001,-9.88009155515219e-001

2.32946717293690e+004,-2.89407803721906e+001,-1.00180064240754e+000

2.36198532285905e+004,-2.89407946542602e+001,-1.01578462551062e+000

2.39495740923785e+004,-2.89408093378105e+001,-1.02996379087627e+000

2.42838976879009e+004,-2.89408244341260e+001,-1.04434086200738e+000

2.46228882668982e+004,-2.89408399548086e+001,-1.05891860037629e+000

2.49666109780322e+004,-2.89408559117863e+001,-1.07369980595299e+000

2.53151318794055e+004,-2.89408723173219e+001,-1.08868731774220e+000

2.56685179512580e+004,-2.89408891840232e+001,-1.10388401432392e+000

2.60268371088386e+004,-2.89409065248521e+001,-1.11929281440443e+000

2.63901582154578e+004,-2.89409243531345e+001,-1.13491667737488e+000

2.67585510957221e+004,-2.89409426825711e+001,-1.15075860387508e+000

2.71320865489533e+004,-2.89409615272476e+001,-1.16682163636730e+000

2.75108363627948e+004,-2.89409809016450e+001,-1.18310885971826e+000

2.78948733270080e+004,-2.89410008206517e+001,-1.19962340178646e+000

2.82842712474618e+004,-2.89410212995744e+001,-1.21636843402061e+000

2.86791049603164e+004,-2.89410423541494e+001,-1.23334717206526e+000

2.90794503464061e+004,-2.89410640005556e+001,-1.25056287637330e+000

2.94853843458219e+004,-2.89410862554264e+001,-1.26801885282879e+000

2.98969849726987e+004,-2.89411091358622e+001,-1.28571845337783e+000

3.03143313302078e+004,-2.89411326594442e+001,-1.30366507666767e+000

3.07375036257601e+004,-2.89411568442475e+001,-1.32186216869349e+000

3.11665831864199e+004,-2.89411817088547e+001,-1.34031322345867e+000

3.16016524745350e+004,-2.89412072723709e+001,-1.35902178363712e+000

3.20427951035848e+004,-2.89412335544375e+001,-1.37799144125071e+000

3.24900958542493e+004,-2.89412605752478e+001,-1.39722583835269e+000

3.29436406907028e+004,-2.89412883555626e+001,-1.41672866772112e+000

3.34035167771346e+004,-2.89413169167256e+001,-1.43650367356294e+000

3.38698124945009e+004,-2.89413462806801e+001,-1.45655465222614e+000

3.43426174575100e+004,-2.89413764699860e+001,-1.47688545292261e+000

3.48220225318448e+004,-2.89414075078365e+001,-1.49749997846043e+000

3.53081198516260e+004,-2.89414394180766e+001,-1.51840218598582e+000

3.58010028371187e+004,-2.89414722252209e+001,-1.53959608773568e+000

3.63007662126863e+004,-2.89415059544726e+001,-1.56108575180139e+000

3.68075060249948e+004,-2.89415406317428e+001,-1.58287530290061e+000

3.73213196614721e+004,-2.89415762836701e+001,-1.60496892316124e+000

3.78423058690237e+004,-2.89416129376415e+001,-1.62737085291655e+000

3.83705647730104e+004,-2.89416506218129e+001,-1.65008539150894e+000

3.89061978964912e+004,-2.89416893651311e+001,-1.67311689810646e+000

3.94493081797342e+004,-2.89417291973557e+001,-1.69646979253072e+000

3.99999999999998e+004,-2.89417701490820e+001,-1.72014855609337e+000

4.05583791916010e+004,-2.89418122517643e+001,-1.74415773244709e+000

4.11245530662425e+004,-2.89418555377403e+001,-1.76850192844619e+000

4.16986304336447e+004,-2.89419000402556e+001,-1.79318581501956e+000

4.22807216224550e+004,-2.89419457934892e+001,-1.81821412805447e+000

4.28709385014515e+004,-2.89419928325799e+001,-1.84359166929348e+000

4.34693945010421e+004,-2.89420411936528e+001,-1.86932330724348e+000

4.40762046350642e+004,-2.89420909138473e+001,-1.89541397809487e+000

4.46914855228886e+004,-2.89421420313454e+001,-1.92186868665616e+000

4.53153554118317e+004,-2.89421945854009e+001,-1.94869250729914e+000

4.59479341998812e+004,-2.89422486163696e+001,-1.97589058491630e+000

4.65893434587380e+004,-2.89423041657400e+001,-2.00346813589307e+000

4.72397064571810e+004,-2.89423612761649e+001,-2.03143044909165e+000

4.78991481847569e+004,-2.89424199914946e+001,-2.05978288684797e+000

4.85677953758016e+004,-2.89424803568100e+001,-2.08853088598195e+000

4.92457765337964e+004,-2.89425424184569e+001,-2.11767995882246e+000

4.99332219560642e+004,-2.89426062240819e+001,-2.14723569424465e+000

5.06302637588109e+004,-2.89426718226687e+001,-2.17720375872089e+000

5.13370359025159e+004,-2.89427392645753e+001,-2.20758989738698e+000

5.20536742176771e+004,-2.89428086015729e+001,-2.23839993512074e+000

5.27803164309155e+004,-2.89428798868849e+001,-2.26963977763706e+000

5.35171021914442e+004,-2.89429531752282e+001,-2.30131541259476e+000

5.42641730979066e+004,-2.89430285228546e+001,-2.33343291072031e+000

5.50216727255895e+004,-2.89431059875939e+001,-2.36599842694588e+000

5.57897466540159e+004,-2.89431856288981e+001,-2.39901820156106e+000

5.65685424949235e+004,-2.89432675078865e+001,-2.43249856138083e+000

5.73582099206328e+004,-2.89433516873928e+001,-2.46644592092912e+000

5.81589006928121e+004,-2.89434382320129e+001,-2.50086678363655e+000

5.89707686916437e+004,-2.89435272081540e+001,-2.53576774305537e+000

5.97939699453972e+004,-2.89436186840854e+001,-2.57115548408860e+000

6.06286626604156e+004,-2.89437127299907e+001,-2.60703678423679e+000

6.14750072515201e+004,-2.89438094180212e+001,-2.64341851485966e+000

6.23331663728396e+004,-2.89439088223509e+001,-2.68030764245403e+000

6.32033049490698e+004,-2.89440110192330e+001,-2.71771122994950e+000

6.40855902071694e+004,-2.89441160870581e+001,-2.75563643802016e+000

6.49801917084985e+004,-2.89442241064140e+001,-2.79409052641233e+000

6.58872813814055e+004,-2.89443351601468e+001,-2.83308085529027e+000

6.68070335542691e+004,-2.89444493334244e+001,-2.87261488659881e+000

6.77396249890018e+004,-2.89445667138009e+001,-2.91270018544394e+000

6.86852349150199e+004,-2.89446873912835e+001,-2.95334442148953e+000

6.96440450636895e+004,-2.89448114584012e+001,-2.99455537037309e+000

7.06162397032520e+004,-2.89449390102744e+001,-3.03634091513879e+000

7.16020056742374e+004,-2.89450701446883e+001,-3.07870904768852e+000

7.26015324253724e+004,-2.89452049621662e+001,-3.12166787025226e+000

7.36150120499896e+004,-2.89453435660466e+001,-3.16522559687460e+000

7.46426393229441e+004,-2.89454860625617e+001,-3.20939055492189e+000

7.56846117380472e+004,-2.89456325609174e+001,-3.25417118660742e+000

7.67411295460207e+004,-2.89457831733771e+001,-3.29957605053513e+000

7.78123957929823e+004,-2.89459380153461e+001,-3.34561382326317e+000

7.88986163594682e+004,-2.89460972054598e+001,-3.39229330088578e+000

7.99999999999995e+004,-2.89462608656733e+001,-3.43962340063490e+000

8.11167583832018e+004,-2.89464291213539e+001,-3.48761316250244e+000

8.22491061324848e+004,-2.89466021013761e+001,-3.53627175087948e+000

8.33972608672892e+004,-2.89467799382195e+001,-3.58560845621878e+000

8.45614432449099e+004,-2.89469627680687e+001,-3.63563269671418e+000

8.57418770029029e+004,-2.89471507309163e+001,-3.68635402000266e+000

8.69387890020841e+004,-2.89473439706695e+001,-3.73778210488449e+000

8.81524092701283e+004,-2.89475426352580e+001,-3.78992676306557e+000

8.93829710457770e+004,-2.89477468767466e+001,-3.84279794091901e+000

9.06307108236633e+004,-2.89479568514496e+001,-3.89640572126838e+000

9.18958683997622e+004,-2.89481727200489e+001,-3.95076032519164e+000

9.31786869174758e+004,-2.89483946477152e+001,-4.00587211384458e+000

9.44794129143618e+004,-2.89486228042331e+001,-4.06175159030724e+000

9.57982963695136e+004,-2.89488573641283e+001,-4.11840940145107e+000

9.71355907516031e+004,-2.89490985067995e+001,-4.17585633982595e+000

9.84915530675926e+004,-2.89493464166537e+001,-4.23410334557001e+000

9.98664439121282e+004,-2.89496012832446e+001,-4.29316150834046e+000

1.01260527517622e+005,-2.89498633014154e+001,-4.35304206926605e+000

1.02674071805032e+005,-2.89501326714451e+001,-4.41375642292060e+000

1.04107348435354e+005,-2.89504095991990e+001,-4.47531611931854e+000

1.05560632861831e+005,-2.89506942962833e+001,-4.53773286593271e+000

1.07034204382888e+005,-2.89509869802039e+001,-4.60101852973295e+000

1.08528346195813e+005,-2.89512878745292e+001,-4.66518513924724e+000

1.10043345451179e+005,-2.89515972090577e+001,-4.73024488664417e+000

1.11579493308032e+005,-2.89519152199904e+001,-4.79621012983730e+000

1.13137084989847e+005,-2.89522421501067e+001,-4.86309339461232e+000

1.14716419841265e+005,-2.89525782489465e+001,-4.93090737677435e+000

1.16317801385624e+005,-2.89529237729964e+001,-4.99966494431863e+000

1.17941537383287e+005,-2.89532789858811e+001,-5.06937913962228e+000

1.19587939890794e+005,-2.89536441585596e+001,-5.14006318165769e+000

1.21257325320831e+005,-2.89540195695278e+001,-5.21173046822807e+000

1.22950014503040e+005,-2.89544055050249e+001,-5.28439457822462e+000

1.24666332745679e+005,-2.89548022592470e+001,-5.35806927390404e+000

1.26406609898139e+005,-2.89552101345653e+001,-5.43276850318947e+000

1.28171180414339e+005,-2.89556294417503e+001,-5.50850640199125e+000

1.29960383416997e+005,-2.89560605002027e+001,-5.58529729654868e+000

1.31774562762811e+005,-2.89565036381897e+001,-5.66315570579415e+000

1.33614067108538e+005,-2.89569591930878e+001,-5.74209634373619e+000

1.35479249978003e+005,-2.89574275116321e+001,-5.82213412186522e+000

1.37370469830040e+005,-2.89579089501728e+001,-5.90328415157704e+000

1.39288090127379e+005,-2.89584038749373e+001,-5.98556174661906e+000

1.41232479406504e+005,-2.89589126623003e+001,-6.06898242555452e+000

1.43204011348474e+005,-2.89594356990604e+001,-6.15356191424656e+000

1.45203064850745e+005,-2.89599733827247e+001,-6.23931614836223e+000

1.47230024099979e+005,-2.89605261218001e+001,-6.32626127589397e+000

1.49285278645888e+005,-2.89610943360927e+001,-6.41441365970078e+000

1.51369223476094e+005,-2.89616784570152e+001,-6.50378988006676e+000

1.53482259092041e+005,-2.89622789279018e+001,-6.59440673727641e+000

1.55624791585964e+005,-2.89628962043320e+001,-6.68628125420888e+000

1.57797232718936e+005,-2.89635307544624e+001,-6.77943067894642e+000

1.59999999999999e+005,-2.89641830593673e+001,-6.87387248740063e+000

1.62233516766403e+005,-2.89648536133879e+001,-6.96962438595273e+000

1.64498212264969e+005,-2.89655429244912e+001,-7.06670431410935e+000

1.66794521734578e+005,-2.89662515146375e+001,-7.16513044717153e+000

1.69122886489819e+005,-2.89669799201572e+001,-7.26492119891818e+000

1.71483754005805e+005,-2.89677286921384e+001,-7.36609522430060e+000

1.73877578004168e+005,-2.89684983968236e+001,-7.46867142214901e+000

1.76304818540256e+005,-2.89692896160159e+001,-7.57266893789119e+000

1.78765942091554e+005,-2.89701029474977e+001,-7.67810716627870e+000

1.81261421647326e+005,-2.89709390054572e+001,-7.78500575412425e+000

1.83791736799524e+005,-2.89717984209283e+001,-7.89338460304511e+000

1.86357373834951e+005,-2.89726818422401e+001,-8.00326387221413e+000

1.88958825828723e+005,-2.89735899354781e+001,-8.11466398111631e+000

1.91596592739027e+005,-2.89745233849568e+001,-8.22760561230980e+000

1.94271181503206e+005,-2.89754828937049e+001,-8.34210971418956e+000

1.96983106135185e+005,-2.89764691839614e+001,-8.45819750375293e+000

1.99732887824256e+005,-2.89774829976849e+001,-8.57589046936624e+000

2.02521055035243e+005,-2.89785250970751e+001,-8.69521037352871e+000

2.05348143610063e+005,-2.89795962651074e+001,-8.81617925563552e+000

2.08214696870707e+005,-2.89806973060803e+001,-8.93881943473490e+000

2.11121265723661e+005,-2.89818290461766e+001,-9.06315351227973e+000

2.14068408765776e+005,-2.89829923340374e+001,-9.18920437487191e+000

2.17056692391625e+005,-2.89841880413512e+001,-9.31699519699553e+000

2.20086690902357e+005,-2.89854170634562e+001,-9.44654944373920e+000

2.23158986616063e+005,-2.89866803199576e+001,-9.57789087350456e+000

2.26274169979693e+005,-2.89879787553589e+001,-9.71104354069813e+000

2.29432839682530e+005,-2.89893133397094e+001,-9.84603179840550e+000

2.32635602771247e+005,-2.89906850692658e+001,-9.98288030104415e+000

2.35883074766574e+005,-2.89920949671696e+001,-1.01216140069936e+001

2.39175879781588e+005,-2.89935440841411e+001,-1.02622581811999e+001

2.42514650641661e+005,-2.89950334991880e+001,-1.04048383977510e+001

2.45900029006080e+005,-2.89965643203318e+001,-1.05493805424212e+001

2.49332665491357e+005,-2.89981376853498e+001,-1.06959108151818e+001

2.52813219796278e+005,-2.89997547625344e+001,-1.08444557326735e+001

2.56342360828676e+005,-2.90014167514694e+001,-1.09950421306393e+001

2.59920766833993e+005,-2.90031248838240e+001,-1.11476971663123e+001

2.63549125525621e+005,-2.90048804241634e+001,-1.13024483207581e+001

2.67228134217075e+005,-2.90066846707790e+001,-1.14593234011643e+001

2.70958499956006e+005,-2.90085389565345e+001,-1.16183505430770e+001

2.74740939660078e+005,-2.90104446497328e+001,-1.17795582125776e+001

2.78576180254757e+005,-2.90124031549995e+001,-1.19429752083979e+001

2.82464958813007e+005,-2.90144159141859e+001,-1.21086306639687e+001

2.86408022696948e+005,-2.90164844072916e+001,-1.22765540493956e+001

2.90406129701488e+005,-2.90186101534050e+001,-1.24467751733615e+001

2.94460048199957e+005,-2.90207947116645e+001,-1.26193241849478e+001

2.98570557291775e+005,-2.90230396822386e+001,-1.27942315753700e+001

3.02738446952187e+005,-2.90253467073255e+001,-1.29715281796243e+001

3.06964518184081e+005,-2.90277174721732e+001,-1.31512451780386e+001

3.11249583171928e+005,-2.90301537061194e+001,-1.33334140977220e+001

3.15594465437872e+005,-2.90326571836514e+001,-1.35180668139096e+001

3.19999999999997e+005,-2.90352297254858e+001,-1.37052355511944e+001

3.24467033532806e+005,-2.90378731996699e+001,-1.38949528846418e+001

3.28996424529938e+005,-2.90405895227018e+001,-1.40872517407800e+001

3.33589043469155e+005,-2.90433806606720e+001,-1.42821653984604e+001

3.38245772979638e+005,-2.90462486304250e+001,-1.44797274895809e+001

3.42967508011610e+005,-2.90491955007412e+001,-1.46799719996670e+001

3.47755156008335e+005,-2.90522233935396e+001,-1.48829332683008e+001

3.52609637080511e+005,-2.90553344851003e+001,-1.50886459893941e+001

3.57531884183106e+005,-2.90585310073072e+001,-1.52971452112969e+001

3.62522843294651e+005,-2.90618152489111e+001,-1.55084663367329e+001

3.67583473599047e+005,-2.90651895568122e+001,-1.57226451225558e+001

3.72714747669902e+005,-2.90686563373626e+001,-1.59397176793182e+001

3.77917651657445e+005,-2.90722180576880e+001,-1.61597204706442e+001

3.83193185478053e+005,-2.90758772470282e+001,-1.63826903123986e+001

3.88542363006410e+005,-2.90796364980971e+001,-1.66086643716431e+001

3.93966212270369e+005,-2.90834984684601e+001,-1.68376801653719e+001

3.99465775648511e+005,-2.90874658819302e+001,-1.70697755590171e+001

4.05042110070485e+005,-2.90915415299808e+001,-1.73049887647151e+001

4.10696287220124e+005,-2.90957282731762e+001,-1.75433583393250e+001

4.16429393741414e+005,-2.91000290426174e+001,-1.77849231821891e+001

4.22242531447321e+005,-2.91044468414041e+001,-1.80297225326267e+001

4.28136817531551e+005,-2.91089847461113e+001,-1.82777959671513e+001

4.34113384783250e+005,-2.91136459082799e+001,-1.85291833964004e+001

4.40173381804713e+005,-2.91184335559206e+001,-1.87839250617693e+001

4.46317973232124e+005,-2.91233509950299e+001,-1.90420615317381e+001

4.52548339959385e+005,-2.91284016111169e+001,-1.93036336978820e+001

4.58865679365059e+005,-2.91335888707410e+001,-1.95686827705538e+001

4.65271205542494e+005,-2.91389163230575e+001,-1.98372502742294e+001

4.71766149533147e+005,-2.91443876013712e+001,-2.01093780425050e+001

4.78351759563174e+005,-2.91500064246965e+001,-2.03851082127359e+001

4.85029301283321e+005,-2.91557765993216e+001,-2.06644832203056e+001

4.91800058012158e+005,-2.91617020203761e+001,-2.09475457925170e+001

4.98665330982714e+005,-2.91677866734001e+001,-2.12343389420911e+001

5.05626439592555e+005,-2.91740346359133e+001,-2.15249059602676e+001

5.12684721657352e+005,-2.91804500789813e+001,-2.18192904094930e+001

5.19841533667984e+005,-2.91870372687777e+001,-2.21175361156884e+001

5.27098251051240e+005,-2.91938005681411e+001,-2.24196871600853e+001

5.34456268434150e+005,-2.92007444381216e+001,-2.27257878706220e+001

5.41916999912011e+005,-2.92078734395181e+001,-2.30358828128865e+001

