Freq.,VOut,OutRef

1.00000000000000e+004,-1.42094988520303e+001,-3.54815005942863e-002

1.01395947979003e+004,-1.42094988551772e+001,-3.59768038811020e-002

1.02811382665607e+004,-1.42094988584122e+001,-3.64790213465319e-002

1.04246576084112e+004,-1.42094988617384e+001,-3.69882495048704e-002

1.05701804056138e+004,-1.42094988651580e+001,-3.75045862235838e-002

1.07177346253629e+004,-1.42094988686739e+001,-3.80281307332037e-002

1.08673486252606e+004,-1.42094988722884e+001,-3.85589836532415e-002

1.10190511587661e+004,-1.42094988760047e+001,-3.90972470030974e-002

1.11728713807222e+004,-1.42094988798254e+001,-3.96430242290620e-002

1.13288388529580e+004,-1.42094988837535e+001,-4.01964202214158e-002

1.14869835499703e+004,-1.42094988877921e+001,-4.07575413334253e-002

1.16473358646846e+004,-1.42094988919444e+001,-4.13264954029288e-002

1.18099266142953e+004,-1.42094988962130e+001,-4.19033917777702e-002

1.19747870461893e+004,-1.42094989006019e+001,-4.24883413244703e-002

1.21419488439505e+004,-1.42094989051141e+001,-4.30814564625275e-002

1.23114441334492e+004,-1.42094989097532e+001,-4.36828511790841e-002

1.24833054890161e+004,-1.42094989145228e+001,-4.42926410514937e-002

1.26575659397028e+004,-1.42094989194263e+001,-4.49109432753126e-002

1.28342589756290e+004,-1.42094989244679e+001,-4.55378766747309e-002

1.30134185544193e+004,-1.42094989296510e+001,-4.61735617394176e-002

1.31950791077289e+004,-1.42094989349800e+001,-4.68181206355141e-002

1.33792755478611e+004,-1.42094989404588e+001,-4.74716772380350e-002

1.35660432744767e+004,-1.42094989460914e+001,-4.81343571522390e-002

1.37554181813974e+004,-1.42094989518826e+001,-4.88062877313316e-002

1.39474366635040e+004,-1.42094989578364e+001,-4.94875981131832e-002

1.41421356237309e+004,-1.42094989639577e+001,-5.01784192323576e-002

1.43395524801583e+004,-1.42094989702513e+001,-5.08788838536318e-002

1.45397251732031e+004,-1.42094989767216e+001,-5.15891265971212e-002

1.47426921729110e+004,-1.42094989833738e+001,-5.23092839600886e-002

1.49484924863494e+004,-1.42094989902129e+001,-5.30394943456040e-002

1.51571656651040e+004,-1.42094989972446e+001,-5.37798980859224e-002

1.53687518128801e+004,-1.42094990044740e+001,-5.45306374769828e-002

1.55832915932100e+004,-1.42094990119065e+001,-5.52918567998385e-002

1.58008262372675e+004,-1.42094990195479e+001,-5.60637023484078e-002

1.60213975517924e+004,-1.42094990274041e+001,-5.68463224587767e-002

1.62450479271247e+004,-1.42094990354812e+001,-5.76398675383250e-002

1.64718203453514e+004,-1.42094990437853e+001,-5.84444900947371e-002

1.67017583885674e+004,-1.42094990523231e+001,-5.92603447611357e-002

1.69349062472505e+004,-1.42094990611009e+001,-6.00875883346399e-002

1.71713087287550e+004,-1.42094990701254e+001,-6.09263797975124e-002

1.74110112659224e+004,-1.42094990794036e+001,-6.17768803523515e-002

1.76540599258131e+004,-1.42094990889424e+001,-6.26392534536915e-002

1.79005014185594e+004,-1.42094990987497e+001,-6.35136648321723e-002

1.81503831063432e+004,-1.42094991088326e+001,-6.44002825389198e-002

1.84037530124975e+004,-1.42094991191990e+001,-6.52992769672334e-002

1.86606598307361e+004,-1.42094991298569e+001,-6.62108208881917e-002

1.89211529345119e+004,-1.42094991408142e+001,-6.71350894898516e-002

1.91852823865052e+004,-1.42094991520799e+001,-6.80722603971313e-002

1.94530989482457e+004,-1.42094991636621e+001,-6.90225137230050e-002

1.97246540898671e+004,-1.42094991755699e+001,-6.99860320912482e-002

1.99999999999999e+004,-1.42094991878126e+001,-7.09630006724294e-002

2.02791895958005e+004,-1.42094992003994e+001,-7.19536072265127e-002

2.05622765331213e+004,-1.42094992133403e+001,-7.29580421312437e-002

2.08493152168224e+004,-1.42094992266447e+001,-7.39764984250215e-002

2.11403608112276e+004,-1.42094992403231e+001,-7.50091718383553e-002

2.14354692507258e+004,-1.42094992543863e+001,-7.60562608331543e-002

2.17346972505211e+004,-1.42094992688448e+001,-7.71179666450698e-002

2.20381023175322e+004,-1.42094992837097e+001,-7.81944933167021e-002

2.23457427614443e+004,-1.42094992989925e+001,-7.92860477404200e-002

2.26576777059159e+004,-1.42094993147052e+001,-8.03928396932137e-002

2.29739670999406e+004,-1.42094993308592e+001,-8.15150818868740e-002

2.32946717293690e+004,-1.42094993474677e+001,-8.26529899954677e-002

2.36198532285905e+004,-1.42094993645432e+001,-8.38067827065444e-002

2.39495740923785e+004,-1.42094993820986e+001,-8.49766817636279e-002

2.42838976879009e+004,-1.42094994001475e+001,-8.61629120026278e-002

2.46228882668982e+004,-1.42094994187038e+001,-8.73657013963053e-002

2.49666109780322e+004,-1.42094994377820e+001,-8.85852811021489e-002

2.53151318794055e+004,-1.42094994573963e+001,-8.98218855059452e-002

2.56685179512580e+004,-1.42094994775622e+001,-9.10757522613415e-002

2.60268371088386e+004,-1.42094994982951e+001,-9.23471223429033e-002

2.63901582154578e+004,-1.42094995196107e+001,-9.36362400881994e-002

2.67585510957221e+004,-1.42094995415256e+001,-9.49433532447153e-002

2.71320865489533e+004,-1.42094995640567e+001,-9.62687130178633e-002

2.75108363627948e+004,-1.42094995872212e+001,-9.76125741231282e-002

2.78948733270080e+004,-1.42094996110369e+001,-9.89751948283304e-002

2.82842712474618e+004,-1.42094996355222e+001,-1.00356837006800e-001

2.86791049603164e+004,-1.42094996606958e+001,-1.01757766189627e-001

2.90794503464061e+004,-1.42094996865773e+001,-1.03178251611892e-001

2.94853843458219e+004,-1.42094997131862e+001,-1.04618566270415e-001

2.98969849726987e+004,-1.42094997405433e+001,-1.06078986969455e-001

3.03143313302078e+004,-1.42094997686695e+001,-1.07559794378670e-001

3.07375036257601e+004,-1.42094997975866e+001,-1.09061273085793e-001

3.11665831864199e+004,-1.42094998273164e+001,-1.10583711652603e-001

3.16016524745350e+004,-1.42094998578821e+001,-1.12127402666745e-001

3.20427951035848e+004,-1.42094998893071e+001,-1.13692642800909e-001

3.24900958542493e+004,-1.42094999216157e+001,-1.15279732870084e-001

3.29436406907028e+004,-1.42094999548324e+001,-1.16888977887727e-001

3.34035167771346e+004,-1.42094999889832e+001,-1.18520687124532e-001

3.38698124945009e+004,-1.42095000240939e+001,-1.20175174170246e-001

3.43426174575100e+004,-1.42095000601919e+001,-1.21852756989503e-001

3.48220225318448e+004,-1.42095000973046e+001,-1.23553757989745e-001

3.53081198516260e+004,-1.42095001354607e+001,-1.25278504073954e-001

3.58010028371187e+004,-1.42095001746896e+001,-1.27027326712048e-001

3.63007662126863e+004,-1.42095002150213e+001,-1.28800561999849e-001

3.68075060249948e+004,-1.42095002564869e+001,-1.30598550725073e-001

3.73213196614721e+004,-1.42095002991183e+001,-1.32421638432271e-001

3.78423058690237e+004,-1.42095003429482e+001,-1.34270175490407e-001

3.83705647730104e+004,-1.42095003880103e+001,-1.36144517159240e-001

3.89061978964912e+004,-1.42095004343391e+001,-1.38045023657357e-001

3.94493081797342e+004,-1.42095004819707e+001,-1.39972060230403e-001

3.99999999999998e+004,-1.42095005309412e+001,-1.41925997226523e-001

4.05583791916010e+004,-1.42095005812886e+001,-1.43907210159837e-001

4.11245530662425e+004,-1.42095006330513e+001,-1.45916079788770e-001

4.16986304336447e+004,-1.42095006862693e+001,-1.47952992185315e-001

4.22807216224550e+004,-1.42095007409835e+001,-1.50018338812178e-001

4.28709385014515e+004,-1.42095007972359e+001,-1.52112516596295e-001

4.34693945010421e+004,-1.42095008550698e+001,-1.54235928004535e-001

4.40762046350642e+004,-1.42095009145296e+001,-1.56388981123866e-001

4.46914855228886e+004,-1.42095009756611e+001,-1.58572089735431e-001

4.53153554118317e+004,-1.42095010385111e+001,-1.60785673399289e-001

4.59479341998812e+004,-1.42095011031281e+001,-1.63030157530509e-001

4.65893434587380e+004,-1.42095011695619e+001,-1.65305973481841e-001

4.72397064571810e+004,-1.42095012378631e+001,-1.67613558631156e-001

4.78991481847569e+004,-1.42095013080848e+001,-1.69953356457205e-001

4.85677953758016e+004,-1.42095013802806e+001,-1.72325816632729e-001

4.92457765337964e+004,-1.42095014545060e+001,-1.74731395107552e-001

4.99332219560642e+004,-1.42095015308184e+001,-1.77170554193659e-001

5.06302637588109e+004,-1.42095016092760e+001,-1.79643762659896e-001

5.13370359025159e+004,-1.42095016899394e+001,-1.82151495817079e-001

5.20536742176771e+004,-1.42095017728706e+001,-1.84694235610550e-001

5.27803164309155e+004,-1.42095018581333e+001,-1.87272470714996e-001

5.35171021914442e+004,-1.42095019457931e+001,-1.89886696625298e-001

5.42641730979066e+004,-1.42095020359172e+001,-1.92537415754881e-001

5.50216727255895e+004,-1.42095021285752e+001,-1.95225137527716e-001

5.57897466540159e+004,-1.42095022238380e+001,-1.97950378482789e-001

5.65685424949235e+004,-1.42095023217791e+001,-2.00713662366149e-001

5.73582099206328e+004,-1.42095024224738e+001,-2.03515520235946e-001

5.81589006928121e+004,-1.42095025259992e+001,-2.06356490566688e-001

5.89707686916437e+004,-1.42095026324352e+001,-2.09237119345190e-001

5.97939699453972e+004,-1.42095027418636e+001,-2.12157960182024e-001

6.06286626604156e+004,-1.42095028543683e+001,-2.15119574417257e-001

6.14750072515201e+004,-1.42095029700361e+001,-2.18122531223222e-001

6.23331663728396e+004,-1.42095030889557e+001,-2.21167407721183e-001

6.32033049490698e+004,-1.42095032112185e+001,-2.24254789087423e-001

6.40855902071694e+004,-1.42095033369187e+001,-2.27385268665881e-001

6.49801917084985e+004,-1.42095034661528e+001,-2.30559448084363e-001

6.58872813814055e+004,-1.42095035990200e+001,-2.33777937369608e-001

6.68070335542691e+004,-1.42095037356228e+001,-2.37041355061988e-001

6.77396249890018e+004,-1.42095038760658e+001,-2.40350328338790e-001

6.86852349150199e+004,-1.42095040204574e+001,-2.43705493129496e-001

6.96440450636895e+004,-1.42095041689084e+001,-2.47107494242497e-001

7.06162397032520e+004,-1.42095043215328e+001,-2.50556985487939e-001

7.16020056742374e+004,-1.42095044784482e+001,-2.54054629801890e-001

7.26015324253724e+004,-1.42095046397749e+001,-2.57601099374374e-001

7.36150120499896e+004,-1.42095048056372e+001,-2.61197075779389e-001

7.46426393229441e+004,-1.42095049761625e+001,-2.64843250104390e-001

7.56846117380472e+004,-1.42095051514819e+001,-2.68540323084834e-001

7.67411295460207e+004,-1.42095053317303e+001,-2.72289005236851e-001

7.78123957929823e+004,-1.42095055170461e+001,-2.76090016997739e-001

7.88986163594682e+004,-1.42095057075718e+001,-2.79944088857615e-001

7.99999999999995e+004,-1.42095059034540e+001,-2.83851961507049e-001

8.11167583832018e+004,-1.42095061048431e+001,-2.87814385975176e-001

8.22491061324848e+004,-1.42095063118941e+001,-2.91832123773816e-001

8.33972608672892e+004,-1.42095065247660e+001,-2.95905947047040e-001

8.45614432449099e+004,-1.42095067436226e+001,-3.00036638715769e-001

8.57418770029029e+004,-1.42095069686320e+001,-3.04224992631709e-001

8.69387890020841e+004,-1.42095071999674e+001,-3.08471813725900e-001

8.81524092701283e+004,-1.42095074378064e+001,-3.12777918168600e-001

8.93829710457770e+004,-1.42095076823321e+001,-3.17144133520257e-001

9.06307108236633e+004,-1.42095079337323e+001,-3.21571298896065e-001

9.18958683997622e+004,-1.42095081922002e+001,-3.26060265123557e-001

9.31786869174758e+004,-1.42095084579347e+001,-3.30611894907219e-001

9.44794129143618e+004,-1.42095087311401e+001,-3.35227062993287e-001

9.57982963695136e+004,-1.42095090120262e+001,-3.39906656341999e-001

9.71355907516031e+004,-1.42095093008090e+001,-3.44651574291739e-001

9.84915530675926e+004,-1.42095095977108e+001,-3.49462728735723e-001

9.98664439121282e+004,-1.42095099029595e+001,-3.54341044298453e-001

1.01260527517622e+005,-1.42095102167900e+001,-3.59287458508540e-001

1.02674071805032e+005,-1.42095105394434e+001,-3.64302921985382e-001

1.04107348435354e+005,-1.42095108711677e+001,-3.69388398615378e-001

1.05560632861831e+005,-1.42095112122182e+001,-3.74544865740487e-001

1.07034204382888e+005,-1.42095115628570e+001,-3.79773314347044e-001

1.08528346195813e+005,-1.42095119233533e+001,-3.85074749255057e-001

1.10043345451179e+005,-1.42095122939847e+001,-3.90450189308316e-001

1.11579493308032e+005,-1.42095126750360e+001,-3.95900667575780e-001

1.13137084989847e+005,-1.42095130667999e+001,-4.01427231546496e-001

1.14716419841265e+005,-1.42095134695780e+001,-4.07030943330126e-001

1.16317801385624e+005,-1.42095138836796e+001,-4.12712879865147e-001

1.17941537383287e+005,-1.42095143094231e+001,-4.18474133122088e-001

1.19587939890794e+005,-1.42095147471360e+001,-4.24315810313328e-001

1.21257325320831e+005,-1.42095151971546e+001,-4.30239034109019e-001

1.22950014503040e+005,-1.42095156598249e+001,-4.36244942850052e-001

1.24666332745679e+005,-1.42095161355026e+001,-4.42334690767661e-001

1.26406609898139e+005,-1.42095166245534e+001,-4.48509448205606e-001

1.28171180414339e+005,-1.42095171273533e+001,-4.54770401843239e-001

1.29960383416997e+005,-1.42095176442888e+001,-4.61118754927059e-001

1.31774562762811e+005,-1.42095181757573e+001,-4.67555727498895e-001

1.33614067108538e+005,-1.42095187221674e+001,-4.74082556631119e-001

1.35479249978003e+005,-1.42095192839391e+001,-4.80700496665493e-001

1.37370469830040e+005,-1.42095198615043e+001,-4.87410819451990e-001

1.39288090127379e+005,-1.42095204553071e+001,-4.94214814595587e-001

1.41232479406504e+005,-1.42095210658040e+001,-5.01113789702233e-001

1.43204011348474e+005,-1.42095216934642e+001,-5.08109070632319e-001

1.45203064850745e+005,-1.42095223387703e+001,-5.15202001752232e-001

1.47230024099979e+005,-1.42095230022183e+001,-5.22393946196188e-001

1.49285278645888e+005,-1.42095236843184e+001,-5.29686286124601e-001

1.51369223476094e+005,-1.42095243855948e+001,-5.37080422994413e-001

1.53482259092041e+005,-1.42095251065868e+001,-5.44577777822271e-001

1.55624791585964e+005,-1.42095258478487e+001,-5.52179791462666e-001

1.57797232718936e+005,-1.42095266099501e+001,-5.59887924884070e-001

1.59999999999999e+005,-1.42095273934770e+001,-5.67703659446476e-001

1.62233516766403e+005,-1.42095281990319e+001,-5.75628497189074e-001

1.64498212264969e+005,-1.42095290272339e+001,-5.83663961118982e-001

1.66794521734578e+005,-1.42095298787197e+001,-5.91811595502032e-001

1.69122886489819e+005,-1.42095307541441e+001,-6.00072966159725e-001

1.71483754005805e+005,-1.42095316541798e+001,-6.08449660772160e-001

1.73877578004168e+005,-1.42095325795189e+001,-6.16943289181935e-001

1.76304818540256e+005,-1.42095335308728e+001,-6.25555483701475e-001

1.78765942091554e+005,-1.42095345089728e+001,-6.34287899430487e-001

1.81261421647326e+005,-1.42095355145708e+001,-6.43142214571779e-001

1.83791736799524e+005,-1.42095365484399e+001,-6.52120130752357e-001

1.86357373834951e+005,-1.42095376113750e+001,-6.61223373353894e-001

1.88958825828723e+005,-1.42095387041931e+001,-6.70453691841880e-001

1.91596592739027e+005,-1.42095398277343e+001,-6.79812860101975e-001

1.94271181503206e+005,-1.42095409828625e+001,-6.89302676781721e-001

1.96983106135185e+005,-1.42095421704656e+001,-6.98924965634961e-001

1.99732887824256e+005,-1.42095433914567e+001,-7.08681575873669e-001

2.02521055035243e+005,-1.42095446467743e+001,-7.18574382521449e-001

2.05348143610063e+005,-1.42095459373835e+001,-7.28605286776799e-001

2.08214696870707e+005,-1.42095472642766e+001,-7.38776216374236e-001

2.11121265723661e+005,-1.42095486284735e+001,-7.49089125958409e-001

2.14068408765776e+005,-1.42095500310231e+001,-7.59545997458060e-001

2.17056692391625e+005,-1.42095514730034e+001,-7.70148840467009e-001

2.20086690902357e+005,-1.42095529555231e+001,-7.80899692629339e-001

2.23158986616063e+005,-1.42095544797219e+001,-7.91800620033328e-001

2.26274169979693e+005,-1.42095560467716e+001,-8.02853717605802e-001

2.29432839682530e+005,-1.42095576578767e+001,-8.14061109516067e-001

2.32635602771247e+005,-1.42095593142760e+001,-8.25424949584028e-001

2.35883074766574e+005,-1.42095610172426e+001,-8.36947421693617e-001

2.39175879781588e+005,-1.42095627680859e+001,-8.48630740211479e-001

2.42514650641661e+005,-1.42095645681518e+001,-8.60477150415374e-001

2.45900029006080e+005,-1.42095664188241e+001,-8.72488928921984e-001

2.49332665491357e+005,-1.42095683215254e+001,-8.84668384126746e-001

2.52813219796278e+005,-1.42095702777188e+001,-8.97017856645100e-001

2.56342360828676e+005,-1.42095722889078e+001,-9.09539719766211e-001

2.59920766833993e+005,-1.42095743566386e+001,-9.22236379904203e-001

2.63549125525621e+005,-1.42095764825008e+001,-9.35110277063100e-001

2.67228134217075e+005,-1.42095786681285e+001,-9.48163885305892e-001

2.70958499956006e+005,-1.42095809152023e+001,-9.61399713227179e-001

2.74740939660078e+005,-1.42095832254493e+001,-9.74820304438963e-001

2.78576180254757e+005,-1.42095856006458e+001,-9.88428238056233e-001

2.82464958813007e+005,-1.42095880426174e+001,-1.00222612919429e+000

2.86408022696948e+005,-1.42095905532417e+001,-1.01621662946919e+000

2.90406129701488e+005,-1.42095931344485e+001,-1.03040242750902e+000

2.94460048199957e+005,-1.42095957882223e+001,-1.04478624946976e+000

2.98570557291775e+005,-1.42095985166032e+001,-1.05937085955874e+000

3.02738446952187e+005,-1.42096013216885e+001,-1.07415906056540e+000

3.06964518184081e+005,-1.42096042056347e+001,-1.08915369440082e+000

3.11249583171928e+005,-1.42096071706588e+001,-1.10435764264261e+000

3.15594465437872e+005,-1.42096102190402e+001,-1.11977382708804e+000

3.19999999999997e+005,-1.42096133531224e+001,-1.13540521031678e+000

3.24467033532806e+005,-1.42096165753145e+001,-1.15125479625930e+000

3.28996424529938e+005,-1.42096198880939e+001,-1.16732563077272e+000

3.33589043469155e+005,-1.42096232940069e+001,-1.18362080222802e+000

3.38245772979638e+005,-1.42096267956721e+001,-1.20014344210109e+000

3.42967508011610e+005,-1.42096303957812e+001,-1.21689672557568e+000

3.47755156008335e+005,-1.42096340971019e+001,-1.23388387215308e+000

3.52609637080511e+005,-1.42096379024795e+001,-1.25110814626932e+000

3.57531884183106e+005,-1.42096418148394e+001,-1.26857285792386e+000

3.62522843294651e+005,-1.42096458371890e+001,-1.28628136331450e+000

3.67583473599047e+005,-1.42096499726207e+001,-1.30423706548082e+000

3.72714747669902e+005,-1.42096542243136e+001,-1.32244341496011e+000

3.77917651657445e+005,-1.42096585955359e+001,-1.34090391044822e+000

3.83193185478053e+005,-1.42096630896481e+001,-1.35962209947223e+000

3.88542363006410e+005,-1.42096677101049e+001,-1.37860157907107e+000

3.93966212270369e+005,-1.42096724604584e+001,-1.39784599648759e+000

3.99465775648511e+005,-1.42096773443601e+001,-1.41735904986758e+000

4.05042110070485e+005,-1.42096823655646e+001,-1.43714448897067e+000

4.10696287220124e+005,-1.42096875279318e+001,-1.45720611589005e+000

4.16429393741414e+005,-1.42096928354303e+001,-1.47754778578258e+000

4.22242531447321e+005,-1.42096982921400e+001,-1.49817340760962e+000

4.28136817531551e+005,-1.42097039022556e+001,-1.51908694488707e+000

4.34113384783250e+005,-1.42097096700900e+001,-1.54029241644562e+000

4.40173381804713e+005,-1.42097156000768e+001,-1.56179389720472e+000

4.46317973232124e+005,-1.42097216967748e+001,-1.58359551895165e+000

4.52548339959385e+005,-1.42097279648704e+001,-1.60570147113859e+000

4.58865679365059e+005,-1.42097344091823e+001,-1.62811600168328e+000

4.65271205542494e+005,-1.42097410346642e+001,-1.65084341778718e+000

4.71766149533147e+005,-1.42097478464094e+001,-1.67388808676110e+000

4.78351759563174e+005,-1.42097548496541e+001,-1.69725443686350e+000

4.85029301283321e+005,-1.42097620497819e+001,-1.72094695815181e+000

4.91800058012158e+005,-1.42097694523276e+001,-1.74497020334249e+000

4.98665330982714e+005,-1.42097770629816e+001,-1.76932878868623e+000

5.05626439592555e+005,-1.42097848875944e+001,-1.79402739485449e+000

5.12684721657352e+005,-1.42097929321808e+001,-1.81907076783564e+000

5.19841533667984e+005,-1.42098012029248e+001,-1.84446371984815e+000

5.27098251051240e+005,-1.42098097061841e+001,-1.87021113026316e+000

5.34456268434150e+005,-1.42098184484953e+001,-1.89631794654128e+000

5.41916999912011e+005,-1.42098274365786e+001,-1.92278918518142e+000

