Freq.,VOut,OutRef

1.00000000000000e+004,-1.23328842840662e+001,-1.96614505417682e-001

1.01395947979003e+004,-1.23328842355068e+001,-1.99359142590336e-001

1.02811382665607e+004,-1.23328841855821e+001,-2.02142093511486e-001

1.04246576084112e+004,-1.23328841342538e+001,-2.04963893021746e-001

1.05701804056138e+004,-1.23328840814825e+001,-2.07825083430151e-001

1.07177346253629e+004,-1.23328840272276e+001,-2.10726214613831e-001

1.08673486252606e+004,-1.23328839714475e+001,-2.13667844127946e-001

1.10190511587661e+004,-1.23328839140992e+001,-2.16650537309501e-001

1.11728713807222e+004,-1.23328838551386e+001,-2.19674867388401e-001

1.13288388529580e+004,-1.23328837945205e+001,-2.22741415596558e-001

1.14869835499703e+004,-1.23328837321981e+001,-2.25850771279276e-001

1.16473358646846e+004,-1.23328836681237e+001,-2.29003532009038e-001

1.18099266142953e+004,-1.23328836022479e+001,-2.32200303700071e-001

1.19747870461893e+004,-1.23328835345199e+001,-2.35441700725926e-001

1.21419488439505e+004,-1.23328834648882e+001,-2.38728346033776e-001

1.23114441334492e+004,-1.23328833932988e+001,-2.42060871270680e-001

1.24833054890161e+004,-1.23328833196966e+001,-2.45439916899969e-001

1.26575659397028e+004,-1.23328832440253e+001,-2.48866132323670e-001

1.28342589756290e+004,-1.23328831662266e+001,-2.52340176011786e-001

1.30134185544193e+004,-1.23328830862408e+001,-2.55862715624364e-001

1.31950791077289e+004,-1.23328830040063e+001,-2.59434428144196e-001

1.33792755478611e+004,-1.23328829194600e+001,-2.63056000001908e-001

1.35660432744767e+004,-1.23328828325366e+001,-2.66728127212777e-001

1.37554181813974e+004,-1.23328827431697e+001,-2.70451515506263e-001

1.39474366635040e+004,-1.23328826512903e+001,-2.74226880465041e-001

1.41421356237309e+004,-1.23328825568278e+001,-2.78054947661518e-001

1.43395524801583e+004,-1.23328824597097e+001,-2.81936452794078e-001

1.45397251732031e+004,-1.23328823598614e+001,-2.85872141834284e-001

1.47426921729110e+004,-1.23328822572059e+001,-2.89862771166215e-001

1.49484924863494e+004,-1.23328821516646e+001,-2.93909107732533e-001

1.51571656651040e+004,-1.23328820431560e+001,-2.98011929183117e-001

1.53687518128801e+004,-1.23328819315969e+001,-3.02172024023032e-001

1.55832915932100e+004,-1.23328818169017e+001,-3.06390191763655e-001

1.58008262372675e+004,-1.23328816989820e+001,-3.10667243079339e-001

1.60213975517924e+004,-1.23328815777470e+001,-3.15003999961561e-001

1.62450479271247e+004,-1.23328814531039e+001,-3.19401295873101e-001

1.64718203453514e+004,-1.23328813249566e+001,-3.23859975916198e-001

1.67017583885674e+004,-1.23328811932068e+001,-3.28380896987044e-001

1.69349062472505e+004,-1.23328810577529e+001,-3.32964927946992e-001

1.71713087287550e+004,-1.23328809184912e+001,-3.37612949783443e-001

1.74110112659224e+004,-1.23328807753144e+001,-3.42325855784063e-001

1.76540599258131e+004,-1.23328806281124e+001,-3.47104551707181e-001

1.79005014185594e+004,-1.23328804767721e+001,-3.51949955954321e-001

1.81503831063432e+004,-1.23328803211772e+001,-3.56862999748063e-001

1.84037530124975e+004,-1.23328801612080e+001,-3.61844627310907e-001

1.86606598307361e+004,-1.23328799967417e+001,-3.66895796046019e-001

1.89211529345119e+004,-1.23328798276518e+001,-3.72017476722741e-001

1.91852823865052e+004,-1.23328796538083e+001,-3.77210653661532e-001

1.94530989482457e+004,-1.23328794750775e+001,-3.82476324924757e-001

1.97246540898671e+004,-1.23328792913221e+001,-3.87815502506991e-001

1.99999999999999e+004,-1.23328791024009e+001,-3.93229212530439e-001

2.02791895958005e+004,-1.23328789081685e+001,-3.98718495441945e-001

2.05622765331213e+004,-1.23328787084757e+001,-4.04284406212650e-001

2.08493152168224e+004,-1.23328785031691e+001,-4.09928014541490e-001

2.11403608112276e+004,-1.23328782920908e+001,-4.15650405060169e-001

2.14354692507258e+004,-1.23328780750784e+001,-4.21452677543385e-001

2.17346972505211e+004,-1.23328778519654e+001,-4.27335947115476e-001

2.20381023175322e+004,-1.23328776225800e+001,-4.33301344471631e-001

2.23457427614443e+004,-1.23328773867460e+001,-4.39350016089720e-001

2.26576777059159e+004,-1.23328771442822e+001,-4.45483124452082e-001

2.29739670999406e+004,-1.23328768950021e+001,-4.51701848270743e-001

2.32946717293690e+004,-1.23328766387142e+001,-4.58007382712487e-001

2.36198532285905e+004,-1.23328763752214e+001,-4.64400939627951e-001

2.39495740923785e+004,-1.23328761043212e+001,-4.70883747786570e-001

2.42838976879009e+004,-1.23328758258053e+001,-4.77457053111052e-001

2.46228882668982e+004,-1.23328755394599e+001,-4.84122118916614e-001

2.49666109780322e+004,-1.23328752450647e+001,-4.90880226156858e-001

2.53151318794055e+004,-1.23328749423933e+001,-4.97732673666039e-001

2.56685179512580e+004,-1.23328746312132e+001,-5.04680778410995e-001

2.60268371088386e+004,-1.23328743112852e+001,-5.11725875743748e-001

2.63901582154578e+004,-1.23328739823634e+001,-5.18869319658689e-001

2.67585510957221e+004,-1.23328736441951e+001,-5.26112483051646e-001

2.71320865489533e+004,-1.23328732965201e+001,-5.33456757985955e-001

2.75108363627948e+004,-1.23328729390714e+001,-5.40903555957053e-001

2.78948733270080e+004,-1.23328725715741e+001,-5.48454308167153e-001

2.82842712474618e+004,-1.23328721937460e+001,-5.56110465796828e-001

2.86791049603164e+004,-1.23328718052964e+001,-5.63873500287521e-001

2.90794503464061e+004,-1.23328714059269e+001,-5.71744903622535e-001

2.94853843458219e+004,-1.23328709953305e+001,-5.79726188612728e-001

2.98969849726987e+004,-1.23328705731917e+001,-5.87818889190234e-001

3.03143313302078e+004,-1.23328701391860e+001,-5.96024560700884e-001

3.07375036257601e+004,-1.23328696929798e+001,-6.04344780204545e-001

3.11665831864199e+004,-1.23328692342302e+001,-6.12781146777855e-001

3.16016524745350e+004,-1.23328687625846e+001,-6.21335281821298e-001

3.20427951035848e+004,-1.23328682776805e+001,-6.30008829372129e-001

3.24900958542493e+004,-1.23328677791452e+001,-6.38803456419130e-001

3.29436406907028e+004,-1.23328672665957e+001,-6.47720853223004e-001

3.34035167771346e+004,-1.23328667396380e+001,-6.56762733643048e-001

3.38698124945009e+004,-1.23328661978671e+001,-6.65930835464949e-001

3.43426174575100e+004,-1.23328656408667e+001,-6.75226920735102e-001

3.48220225318448e+004,-1.23328650682086e+001,-6.84652776101321e-001

3.53081198516260e+004,-1.23328644794528e+001,-6.94210213152818e-001

3.58010028371187e+004,-1.23328638741468e+001,-7.03901068772252e-001

3.63007662126863e+004,-1.23328632518256e+001,-7.13727205485202e-001

3.68075060249948e+004,-1.23328626120107e+001,-7.23690511822616e-001

3.73213196614721e+004,-1.23328619542106e+001,-7.33792902679885e-001

3.78423058690237e+004,-1.23328612779196e+001,-7.44036319687697e-001

3.83705647730104e+004,-1.23328605826182e+001,-7.54422731582843e-001

3.89061978964912e+004,-1.23328598677721e+001,-7.64954134589779e-001

3.94493081797342e+004,-1.23328591328318e+001,-7.75632552803411e-001

3.99999999999998e+004,-1.23328583772327e+001,-7.86460038576252e-001

4.05583791916010e+004,-1.23328576003941e+001,-7.97438672916021e-001

4.11245530662425e+004,-1.23328568017191e+001,-8.08570565884025e-001

4.16986304336447e+004,-1.23328559805940e+001,-8.19857857001743e-001

4.22807216224550e+004,-1.23328551363878e+001,-8.31302715662032e-001

4.28709385014515e+004,-1.23328542684519e+001,-8.42907341545175e-001

4.34693945010421e+004,-1.23328533761194e+001,-8.54673965044425e-001

4.40762046350642e+004,-1.23328524587046e+001,-8.66604847692558e-001

4.46914855228886e+004,-1.23328515155027e+001,-8.78702282598179e-001

4.53153554118317e+004,-1.23328505457889e+001,-8.90968594885872e-001

4.59479341998812e+004,-1.23328495488182e+001,-9.03406142143636e-001

4.65893434587380e+004,-1.23328485238245e+001,-9.16017314878147e-001

4.72397064571810e+004,-1.23328474700206e+001,-9.28804536969436e-001

4.78991481847569e+004,-1.23328463865965e+001,-9.41770266144695e-001

4.85677953758016e+004,-1.23328452727201e+001,-9.54916994443141e-001

4.92457765337964e+004,-1.23328441275356e+001,-9.68247248700692e-001

4.99332219560642e+004,-1.23328429501631e+001,-9.81763591035025e-001

5.06302637588109e+004,-1.23328417396982e+001,-9.95468619335952e-001

5.13370359025159e+004,-1.23328404952111e+001,-1.00936496776789e+000

5.20536742176771e+004,-1.23328392157456e+001,-1.02345530727569e+000

5.27803164309155e+004,-1.23328379003189e+001,-1.03774234609803e+000

5.35171021914442e+004,-1.23328365479206e+001,-1.05222883028880e+000

5.42641730979066e+004,-1.23328351575119e+001,-1.06691754424472e+000

5.50216727255895e+004,-1.23328337280246e+001,-1.08181131124259e+000

5.57897466540159e+004,-1.23328322583608e+001,-1.09691299398114e+000

5.65685424949235e+004,-1.23328307473917e+001,-1.11222549513186e+000

5.73582099206328e+004,-1.23328291939568e+001,-1.12775175789748e+000

5.81589006928121e+004,-1.23328275968627e+001,-1.14349476657942e+000

5.89707686916437e+004,-1.23328259548831e+001,-1.15945754715034e+000

5.97939699453972e+004,-1.23328242667568e+001,-1.17564316783752e+000

6.06286626604156e+004,-1.23328225311874e+001,-1.19205473971296e+000

6.14750072515201e+004,-1.23328207468418e+001,-1.20869541729225e+000

6.23331663728396e+004,-1.23328189123500e+001,-1.22556839914056e+000

6.32033049490698e+004,-1.23328170263032e+001,-1.24267692848936e+000

6.40855902071694e+004,-1.23328150872530e+001,-1.26002429386166e+000

6.49801917084985e+004,-1.23328130937105e+001,-1.27761382970133e+000

6.58872813814055e+004,-1.23328110441449e+001,-1.29544891701919e+000

6.68070335542691e+004,-1.23328089369826e+001,-1.31353298403994e+000

6.77396249890018e+004,-1.23328067706056e+001,-1.33186950686503e+000

6.86852349150199e+004,-1.23328045433508e+001,-1.35046201014031e+000

6.96440450636895e+004,-1.23328022535080e+001,-1.36931406773432e+000

7.06162397032520e+004,-1.23327998993195e+001,-1.38842930342752e+000

7.16020056742374e+004,-1.23327974789778e+001,-1.40781139160917e+000

7.26015324253724e+004,-1.23327949906251e+001,-1.42746405798363e+000

7.36150120499896e+004,-1.23327924323512e+001,-1.44739108029129e+000

7.46426393229441e+004,-1.23327898021925e+001,-1.46759628903101e+000

7.56846117380472e+004,-1.23327870981300e+001,-1.48808356820254e+000

7.67411295460207e+004,-1.23327843180884e+001,-1.50885685605080e+000

7.78123957929823e+004,-1.23327814599341e+001,-1.52992014582626e+000

7.88986163594682e+004,-1.23327785214735e+001,-1.55127748655450e+000

7.99999999999995e+004,-1.23327755004517e+001,-1.57293298381336e+000

8.11167583832018e+004,-1.23327723945504e+001,-1.59489080052704e+000

8.22491061324848e+004,-1.23327692013863e+001,-1.61715515776589e+000

8.33972608672892e+004,-1.23327659185093e+001,-1.63973033556065e+000

8.45614432449099e+004,-1.23327625434006e+001,-1.66262067372582e+000

8.57418770029029e+004,-1.23327590734709e+001,-1.68583057269734e+000

8.69387890020841e+004,-1.23327555060581e+001,-1.70936449437907e+000

8.81524092701283e+004,-1.23327518384255e+001,-1.73322696300417e+000

8.93829710457770e+004,-1.23327480677598e+001,-1.75742256600499e+000

9.06307108236633e+004,-1.23327441911688e+001,-1.78195595489893e+000

9.18958683997622e+004,-1.23327402056792e+001,-1.80683184618426e+000

9.31786869174758e+004,-1.23327361082346e+001,-1.83205502224860e+000

9.44794129143618e+004,-1.23327318956926e+001,-1.85763033229250e+000

9.57982963695136e+004,-1.23327275648229e+001,-1.88356269326310e+000

9.71355907516031e+004,-1.23327231123048e+001,-1.90985709080212e+000

9.84915530675926e+004,-1.23327185347245e+001,-1.93651858020790e+000

9.98664439121282e+004,-1.23327138285727e+001,-1.96355228740922e+000

1.01260527517622e+005,-1.23327089902415e+001,-1.99096340995546e+000

1.02674071805032e+005,-1.23327040160222e+001,-2.01875721801754e+000

1.04107348435354e+005,-1.23326989021024e+001,-2.04693905540585e+000

1.05560632861831e+005,-1.23326936445626e+001,-2.07551434059975e+000

1.07034204382888e+005,-1.23326882393738e+001,-2.10448856779457e+000

1.08528346195813e+005,-1.23326826823942e+001,-2.13386730796048e+000

1.10043345451179e+005,-1.23326769693660e+001,-2.16365620991859e+000

1.11579493308032e+005,-1.23326710959123e+001,-2.19386100143038e+000

1.13137084989847e+005,-1.23326650575339e+001,-2.22448749030373e+000

1.14716419841265e+005,-1.23326588496053e+001,-2.25554156551423e+000

1.16317801385624e+005,-1.23326524673721e+001,-2.28702919834220e+000

1.17941537383287e+005,-1.23326459059465e+001,-2.31895644352531e+000

1.19587939890794e+005,-1.23326391603044e+001,-2.35132944042856e+000

1.21257325320831e+005,-1.23326322252809e+001,-2.38415441422957e+000

1.22950014503040e+005,-1.23326250955669e+001,-2.41743767712149e+000

1.24666332745679e+005,-1.23326177657048e+001,-2.45118562953261e+000

1.26406609898139e+005,-1.23326102300846e+001,-2.48540476136261e+000

1.28171180414339e+005,-1.23326024829393e+001,-2.52010165323792e+000

1.29960383416997e+005,-1.23325945183411e+001,-2.55528297778245e+000

1.31774562762811e+005,-1.23325863301964e+001,-2.59095550090886e+000

1.33614067108538e+005,-1.23325779122414e+001,-2.62712608312609e+000

1.35479249978003e+005,-1.23325692580376e+001,-2.66380168086553e+000

1.37370469830040e+005,-1.23325603609666e+001,-2.70098934782831e+000

1.39288090127379e+005,-1.23325512142252e+001,-2.73869623634831e+000

1.41232479406504e+005,-1.23325418108205e+001,-2.77692959877708e+000

1.43204011348474e+005,-1.23325321435646e+001,-2.81569678888669e+000

1.45203064850745e+005,-1.23325222050687e+001,-2.85500526329443e+000

1.47230024099979e+005,-1.23325119877384e+001,-2.89486258290441e+000

1.49285278645888e+005,-1.23325014837672e+001,-2.93527641437439e+000

1.51369223476094e+005,-1.23324906851313e+001,-2.97625453159814e+000

1.53482259092041e+005,-1.23324795835831e+001,-3.01780481721357e+000

1.55624791585964e+005,-1.23324681706452e+001,-3.05993526412922e+000

1.57797232718936e+005,-1.23324564376042e+001,-3.10265397707326e+000

1.59999999999999e+005,-1.23324443755039e+001,-3.14596917416570e+000

1.62233516766403e+005,-1.23324319751390e+001,-3.18988918851065e+000

1.64498212264969e+005,-1.23324192270477e+001,-3.23442246981413e+000

1.66794521734578e+005,-1.23324061215053e+001,-3.27957758602185e+000

1.69122886489819e+005,-1.23323926485163e+001,-3.32536322498370e+000

1.71483754005805e+005,-1.23323787978074e+001,-3.37178819613858e+000

1.73877578004168e+005,-1.23323645588197e+001,-3.41886143222568e+000

1.76304818540256e+005,-1.23323499207010e+001,-3.46659199101970e+000

1.78765942091554e+005,-1.23323348722974e+001,-3.51498905708983e+000

1.81261421647326e+005,-1.23323194021455e+001,-3.56406194358555e+000

1.83791736799524e+005,-1.23323034984634e+001,-3.61382009404622e+000

1.86357373834951e+005,-1.23322871491426e+001,-3.66427308423823e+000

1.88958825828723e+005,-1.23322703417385e+001,-3.71543062401779e+000

1.91596592739027e+005,-1.23322530634613e+001,-3.76730255921914e+000

1.94271181503206e+005,-1.23322353011670e+001,-3.81989887357290e+000

1.96983106135185e+005,-1.23322170413471e+001,-3.87322969064881e+000

1.99732887824256e+005,-1.23321982701193e+001,-3.92730527582839e+000

2.02521055035243e+005,-1.23321789732168e+001,-3.98213603830508e+000

2.05348143610063e+005,-1.23321591359779e+001,-4.03773253311343e+000

2.08214696870707e+005,-1.23321387433358e+001,-4.09410546318803e+000

2.11121265723661e+005,-1.23321177798066e+001,-4.15126568145106e+000

2.14068408765776e+005,-1.23320962294790e+001,-4.20922419293104e+000

2.17056692391625e+005,-1.23320740760021e+001,-4.26799215691102e+000

2.20086690902357e+005,-1.23320513025737e+001,-4.32758088910929e+000

2.23158986616063e+005,-1.23320278919278e+001,-4.38800186389030e+000

2.26274169979693e+005,-1.23320038263226e+001,-4.44926671650903e+000

2.29432839682530e+005,-1.23319790875272e+001,-4.51138724538578e+000

2.32635602771247e+005,-1.23319536568085e+001,-4.57437541441633e+000

2.35883074766574e+005,-1.23319275149178e+001,-4.63824335531435e+000

2.39175879781588e+005,-1.23319006420770e+001,-4.70300336998777e+000

2.42514650641661e+005,-1.23318730179638e+001,-4.76866793295098e+000

2.45900029006080e+005,-1.23318446216981e+001,-4.83524969377003e+000

2.49332665491357e+005,-1.23318154318261e+001,-4.90276147954626e+000

2.52813219796278e+005,-1.23317854263055e+001,-4.97121629743372e+000

2.56342360828676e+005,-1.23317545824895e+001,-5.04062733719509e+000

2.59920766833993e+005,-1.23317228771108e+001,-5.11100797379430e+000

2.63549125525621e+005,-1.23316902862654e+001,-5.18237177002680e+000

2.67228134217075e+005,-1.23316567853949e+001,-5.25473247918998e+000

2.70958499956006e+005,-1.23316223492698e+001,-5.32810404779108e+000

2.74740939660078e+005,-1.23315869519716e+001,-5.40250061829564e+000

2.78576180254757e+005,-1.23315505668742e+001,-5.47793653191702e+000

2.82464958813007e+005,-1.23315131666256e+001,-5.55442633144646e+000

2.86408022696948e+005,-1.23314747231290e+001,-5.63198476412471e+000

2.90406129701488e+005,-1.23314352075223e+001,-5.71062678455759e+000

2.94460048199957e+005,-1.23313945901591e+001,-5.79036755767277e+000

2.98570557291775e+005,-1.23313528405874e+001,-5.87122246172193e+000

3.02738446952187e+005,-1.23313099275289e+001,-5.95320709132746e+000

3.06964518184081e+005,-1.23312658188576e+001,-6.03633726057361e+000

3.11249583171928e+005,-1.23312204815770e+001,-6.12062900614480e+000

3.15594465437872e+005,-1.23311738817987e+001,-6.20609859051036e+000

3.19999999999997e+005,-1.23311259847181e+001,-6.29276250515666e+000

3.24467033532806e+005,-1.23310767545918e+001,-6.38063747386881e+000

3.28996424529938e+005,-1.23310261547126e+001,-6.46974045606015e+000

3.33589043469155e+005,-1.23309741473855e+001,-6.56008865015277e+000

3.38245772979638e+005,-1.23309206939015e+001,-6.65169949700960e+000

3.42967508011610e+005,-1.23308657545128e+001,-6.74459068341655e+000

3.47755156008335e+005,-1.23308092884055e+001,-6.83878014561899e+000

3.52609637080511e+005,-1.23307512536730e+001,-6.93428607291149e+000

3.57531884183106e+005,-1.23306916072884e+001,-7.03112691128149e+000

3.62522843294651e+005,-1.23306303050759e+001,-7.12932136710925e+000

3.67583473599047e+005,-1.23305673016825e+001,-7.22888841092335e+000

3.72714747669902e+005,-1.23305025505481e+001,-7.32984728121508e+000

3.77917651657445e+005,-1.23304360038758e+001,-7.43221748830965e+000

3.83193185478053e+005,-1.23303676126009e+001,-7.53601881829776e+000

3.88542363006410e+005,-1.23302973263597e+001,-7.64127133702811e+000

3.93966212270369e+005,-1.23302250934577e+001,-7.74799539415979e+000

3.99465775648511e+005,-1.23301508608368e+001,-7.85621162727962e+000

4.05042110070485e+005,-1.23300745740421e+001,-7.96594096608172e+000

4.10696287220124e+005,-1.23299961771880e+001,-8.07720463661243e+000

4.16429393741414e+005,-1.23299156129238e+001,-8.19002416558154e+000

4.22242531447321e+005,-1.23298328223985e+001,-8.30442138474065e+000

4.28136817531551e+005,-1.23297477452246e+001,-8.42041843533077e+000

4.34113384783250e+005,-1.23296603194422e+001,-8.53803777259804e+000

4.40173381804713e+005,-1.23295704814814e+001,-8.65730217038239e+000

4.46317973232124e+005,-1.23294781661249e+001,-8.77823472577792e+000

4.52548339959385e+005,-1.23293833064691e+001,-8.90085886386657e+000

4.58865679365059e+005,-1.23292858338856e+001,-9.02519834252711e+000

4.65271205542494e+005,-1.23291856779812e+001,-9.15127725732173e+000

4.71766149533147e+005,-1.23290827665577e+001,-9.27912004645858e+000

4.78351759563174e+005,-1.23289770255709e+001,-9.40875149583540e+000

4.85029301283321e+005,-1.23288683790893e+001,-9.54019674416379e+000

4.91800058012158e+005,-1.23287567492520e+001,-9.67348128817487e+000

4.98665330982714e+005,-1.23286420562260e+001,-9.80863098791026e+000

5.05626439592555e+005,-1.23285242181628e+001,-9.94567207209883e+000

5.12684721657352e+005,-1.23284031511552e+001,-1.00846311436191e+001

5.19841533667984e+005,-1.23282787691927e+001,-1.02255351850525e+001

5.27098251051240e+005,-1.23281509841170e+001,-1.03684115643267e+001

5.34456268434150e+005,-1.23280197055770e+001,-1.05132880404508e+001

5.41916999912011e+005,-1.23278848409828e+001,-1.06601927693463e+001

