Freq.,VOut,OutRef

1.00000000000000e+004,-1.84041481664290e+001,-5.03087200200343e-002

1.01395947979003e+004,-1.84041481889806e+001,-5.10110035329999e-002

1.02811382665607e+004,-1.84041482121660e+001,-5.17230905583113e-002

1.04246576084112e+004,-1.84041482360035e+001,-5.24451179442041e-002

1.05701804056138e+004,-1.84041482605109e+001,-5.31772244561417e-002

1.07177346253629e+004,-1.84041482857076e+001,-5.39195507901034e-002

1.08673486252606e+004,-1.84041483116126e+001,-5.46722396115074e-002

1.10190511587661e+004,-1.84041483382457e+001,-5.54354355758944e-002

1.11728713807222e+004,-1.84041483656275e+001,-5.62092853573035e-002

1.13288388529580e+004,-1.84041483937794e+001,-5.69939376742746e-002

1.14869835499703e+004,-1.84041484227226e+001,-5.77895433277838e-002

1.16473358646846e+004,-1.84041484524795e+001,-5.85962552193136e-002

1.18099266142953e+004,-1.84041484830729e+001,-5.94142283866031e-002

1.19747870461893e+004,-1.84041485145267e+001,-6.02436200288023e-002

1.21419488439505e+004,-1.84041485468644e+001,-6.10845895462188e-002

1.23114441334492e+004,-1.84041485801115e+001,-6.19372985552053e-002

1.24833054890161e+004,-1.84041486142932e+001,-6.28019109352928e-002

1.26575659397028e+004,-1.84041486494359e+001,-6.36785928510865e-002

1.28342589756290e+004,-1.84041486855667e+001,-6.45675127863617e-002

1.30134185544193e+004,-1.84041487227131e+001,-6.54688415779950e-002

1.31950791077289e+004,-1.84041487609037e+001,-6.63827524468166e-002

1.33792755478611e+004,-1.84041488001682e+001,-6.73094210306672e-002

1.35660432744767e+004,-1.84041488405365e+001,-6.82490254218525e-002

1.37554181813974e+004,-1.84041488820400e+001,-6.92017461949031e-002

1.39474366635040e+004,-1.84041489247099e+001,-7.01677664519718e-002

1.41421356237309e+004,-1.84041489685798e+001,-7.11472718422456e-002

1.43395524801583e+004,-1.84041490136828e+001,-7.21404506134022e-002

1.45397251732031e+004,-1.84041490600538e+001,-7.31474936390590e-002

1.47426921729110e+004,-1.84041491077285e+001,-7.41685944551989e-002

1.49484924863494e+004,-1.84041491567435e+001,-7.52039493006735e-002

1.51571656651040e+004,-1.84041492071367e+001,-7.62537571547556e-002

1.53687518128801e+004,-1.84041492589465e+001,-7.73182197740565e-002

1.55832915932100e+004,-1.84041493122127e+001,-7.83975417319076e-002

1.58008262372675e+004,-1.84041493669765e+001,-7.94919304551493e-002

1.60213975517924e+004,-1.84041494232802e+001,-8.06015962667635e-002

1.62450479271247e+004,-1.84041494811665e+001,-8.17267524293240e-002

1.64718203453514e+004,-1.84041495406802e+001,-8.28676151788064e-002

1.67017583885674e+004,-1.84041496018672e+001,-8.40244037695115e-002

1.69349062472505e+004,-1.84041496647746e+001,-8.51973405173101e-002

1.71713087287550e+004,-1.84041497294503e+001,-8.63866508440305e-002

1.74110112659224e+004,-1.84041497959443e+001,-8.75925633145362e-002

1.76540599258131e+004,-1.84041498643076e+001,-8.88153096861008e-002

1.79005014185594e+004,-1.84041499345930e+001,-9.00551249500515e-002

1.81503831063432e+004,-1.84041500068543e+001,-9.13122473792704e-002

1.84037530124975e+004,-1.84041500811474e+001,-9.25869185712973e-002

1.86606598307361e+004,-1.84041501575288e+001,-9.38793834997845e-002

1.89211529345119e+004,-1.84041502360577e+001,-9.51898905536503e-002

1.91852823865052e+004,-1.84041503167944e+001,-9.65186915907773e-002

1.94530989482457e+004,-1.84041503998010e+001,-9.78660419854945e-002

1.97246540898671e+004,-1.84041504851411e+001,-9.92322006771028e-002

1.99999999999999e+004,-1.84041505728804e+001,-1.00617430219306e-001

2.02791895958005e+004,-1.84041506630865e+001,-1.02021996829607e-001

2.05622765331213e+004,-1.84041507558286e+001,-1.03446170443249e-001

2.08493152168224e+004,-1.84041508511779e+001,-1.04890224763650e-001

2.11403608112276e+004,-1.84041509492079e+001,-1.06354437314009e-001

2.14354692507258e+004,-1.84041510499940e+001,-1.07839089491421e-001

2.17346972505211e+004,-1.84041511536135e+001,-1.09344466622130e-001

2.20381023175322e+004,-1.84041512601461e+001,-1.10870858015311e-001

2.23457427614443e+004,-1.84041513696739e+001,-1.12418557017297e-001

2.26576777059159e+004,-1.84041514822809e+001,-1.13987861071025e-001

2.29739670999406e+004,-1.84041515980536e+001,-1.15579071771451e-001

2.32946717293690e+004,-1.84041517170811e+001,-1.17192494922660e-001

2.36198532285905e+004,-1.84041518394550e+001,-1.18828440597337e-001

2.39495740923785e+004,-1.84041519652693e+001,-1.20487223197494e-001

2.42838976879009e+004,-1.84041520946206e+001,-1.22169161514249e-001

2.46228882668982e+004,-1.84041522276085e+001,-1.23874578787193e-001

2.49666109780322e+004,-1.84041523643353e+001,-1.25603802769913e-001

2.53151318794055e+004,-1.84041525049060e+001,-1.27357165789511e-001

2.56685179512580e+004,-1.84041526494287e+001,-1.29135004814380e-001

2.60268371088386e+004,-1.84041527980144e+001,-1.30937661515242e-001

2.63901582154578e+004,-1.84041529507774e+001,-1.32765482332389e-001

2.67585510957221e+004,-1.84041531078350e+001,-1.34618818543224e-001

2.71320865489533e+004,-1.84041532693083e+001,-1.36498026325532e-001

2.75108363627948e+004,-1.84041534353210e+001,-1.38403466834249e-001

2.78948733270080e+004,-1.84041536060012e+001,-1.40335506260550e-001

2.82842712474618e+004,-1.84041537814798e+001,-1.42294515911380e-001

2.86791049603164e+004,-1.84041539618918e+001,-1.44280872274574e-001

2.90794503464061e+004,-1.84041541473757e+001,-1.46294957094953e-001

2.94853843458219e+004,-1.84041543380744e+001,-1.48337157444579e-001

2.98969849726987e+004,-1.84041545341344e+001,-1.50407865799674e-001

3.03143313302078e+004,-1.84041547357061e+001,-1.52507480116712e-001

3.07375036257601e+004,-1.84041549429451e+001,-1.54636403902732e-001

3.11665831864199e+004,-1.84041551560101e+001,-1.56795046303570e-001

3.16016524745350e+004,-1.84041553750653e+001,-1.58983822171069e-001

3.20427951035848e+004,-1.84041556002789e+001,-1.61203152151787e-001

3.24900958542493e+004,-1.84041558318242e+001,-1.63453462760983e-001

3.29436406907028e+004,-1.84041560698791e+001,-1.65735186470926e-001

3.34035167771346e+004,-1.84041563146266e+001,-1.68048761788531e-001

3.38698124945009e+004,-1.84041565662548e+001,-1.70394633344155e-001

3.43426174575100e+004,-1.84041568249573e+001,-1.72773251971491e-001

3.48220225318448e+004,-1.84041570909328e+001,-1.75185074801200e-001

3.53081198516260e+004,-1.84041573643859e+001,-1.77630565342569e-001

3.58010028371187e+004,-1.84041576455268e+001,-1.80110193576416e-001

3.63007662126863e+004,-1.84041579345716e+001,-1.82624436042851e-001

3.68075060249948e+004,-1.84041582317427e+001,-1.85173775934775e-001

3.73213196614721e+004,-1.84041585372682e+001,-1.87758703191136e-001

3.78423058690237e+004,-1.84041588513833e+001,-1.90379714588455e-001

3.83705647730104e+004,-1.84041591743292e+001,-1.93037313838578e-001

3.89061978964912e+004,-1.84041595063544e+001,-1.95732011684377e-001

3.94493081797342e+004,-1.84041598477140e+001,-1.98464325998528e-001

3.99999999999998e+004,-1.84041601986707e+001,-2.01234781881765e-001

4.05583791916010e+004,-1.84041605594939e+001,-2.04043911766768e-001

4.11245530662425e+004,-1.84041609304612e+001,-2.06892255517216e-001

4.16986304336447e+004,-1.84041613118578e+001,-2.09780360531923e-001

4.22807216224550e+004,-1.84041617039770e+001,-2.12708781852084e-001

4.28709385014515e+004,-1.84041621071200e+001,-2.15678082267362e-001

4.34693945010421e+004,-1.84041625215968e+001,-2.18688832422463e-001

4.40762046350642e+004,-1.84041629477263e+001,-2.21741610926551e-001

4.46914855228886e+004,-1.84041633858357e+001,-2.24837004467931e-001

4.53153554118317e+004,-1.84041638362620e+001,-2.27975607923666e-001

4.59479341998812e+004,-1.84041642993515e+001,-2.31158024473972e-001

4.65893434587380e+004,-1.84041647754602e+001,-2.34384865718901e-001

4.72397064571810e+004,-1.84041652649539e+001,-2.37656751797380e-001

4.78991481847569e+004,-1.84041657682092e+001,-2.40974311503221e-001

4.85677953758016e+004,-1.84041662856129e+001,-2.44338182407009e-001

4.92457765337964e+004,-1.84041668175627e+001,-2.47749010981579e-001

4.99332219560642e+004,-1.84041673644675e+001,-2.51207452721860e-001

5.06302637588109e+004,-1.84041679267478e+001,-2.54714172273251e-001

5.13370359025159e+004,-1.84041685048359e+001,-2.58269843558456e-001

5.20536742176771e+004,-1.84041690991763e+001,-2.61875149907211e-001

5.27803164309155e+004,-1.84041697102256e+001,-2.65530784190101e-001

5.35171021914442e+004,-1.84041703384539e+001,-2.69237448945700e-001

5.42641730979066e+004,-1.84041709843439e+001,-2.72995856522283e-001

5.50216727255895e+004,-1.84041716483922e+001,-2.76806729209938e-001

5.57897466540159e+004,-1.84041723311095e+001,-2.80670799380417e-001

5.65685424949235e+004,-1.84041730330202e+001,-2.84588809631342e-001

5.73582099206328e+004,-1.84041737546643e+001,-2.88561512922928e-001

5.81589006928121e+004,-1.84041744965964e+001,-2.92589672726858e-001

5.89707686916437e+004,-1.84041752593870e+001,-2.96674063172166e-001

5.97939699453972e+004,-1.84041760436224e+001,-3.00815469193882e-001

6.06286626604156e+004,-1.84041768499053e+001,-3.05014686683184e-001

6.14750072515201e+004,-1.84041776788559e+001,-3.09272522640452e-001

6.23331663728396e+004,-1.84041785311113e+001,-3.13589795330983e-001

6.32033049490698e+004,-1.84041794073265e+001,-3.17967334442822e-001

6.40855902071694e+004,-1.84041803081754e+001,-3.22405981242584e-001

6.49801917084985e+004,-1.84041812343503e+001,-3.26906588743262e-001

6.58872813814055e+004,-1.84041821865634e+001,-3.31470021861373e-001

6.68070335542691e+004,-1.84041831655465e+001,-3.36097157588821e-001

6.77396249890018e+004,-1.84041841720524e+001,-3.40788885157289e-001

6.86852349150199e+004,-1.84041852068547e+001,-3.45546106210666e-001

6.96440450636895e+004,-1.84041862707490e+001,-3.50369734979765e-001

7.06162397032520e+004,-1.84041873645530e+001,-3.55260698455517e-001

7.16020056742374e+004,-1.84041884891078e+001,-3.60219936567430e-001

7.26015324253724e+004,-1.84041896452778e+001,-3.65248402366188e-001

7.36150120499896e+004,-1.84041908339518e+001,-3.70347062204141e-001

7.46426393229441e+004,-1.84041920560436e+001,-3.75516895922823e-001

7.56846117380472e+004,-1.84041933124927e+001,-3.80758897040431e-001

7.67411295460207e+004,-1.84041946042649e+001,-3.86074072942888e-001

7.78123957929823e+004,-1.84041959323533e+001,-3.91463445077403e-001

7.88986163594682e+004,-1.84041972977789e+001,-3.96928049147959e-001

7.99999999999995e+004,-1.84041987015914e+001,-4.02468935314246e-001

8.11167583832018e+004,-1.84042001448699e+001,-4.08087168396844e-001

8.22491061324848e+004,-1.84042016287238e+001,-4.13783828076161e-001

8.33972608672892e+004,-1.84042031542939e+001,-4.19560009103887e-001

8.45614432449099e+004,-1.84042047227532e+001,-4.25416821511263e-001

8.57418770029029e+004,-1.84042063353071e+001,-4.31355390824009e-001

8.69387890020841e+004,-1.84042079931953e+001,-4.37376858277584e-001

8.81524092701283e+004,-1.84042096976924e+001,-4.43482381035335e-001

8.93829710457770e+004,-1.84042114501086e+001,-4.49673132412677e-001

9.06307108236633e+004,-1.84042132517912e+001,-4.55950302101302e-001

9.18958683997622e+004,-1.84042151041250e+001,-4.62315096399339e-001

9.31786869174758e+004,-1.84042170085341e+001,-4.68768738439889e-001

9.44794129143618e+004,-1.84042189664826e+001,-4.75312468427840e-001

9.57982963695136e+004,-1.84042209794753e+001,-4.81947543880408e-001

9.71355907516031e+004,-1.84042230490598e+001,-4.88675239863707e-001

9.84915530675926e+004,-1.84042251768272e+001,-4.95496849241022e-001

9.98664439121282e+004,-1.84042273644131e+001,-5.02413682920943e-001

1.01260527517622e+005,-1.84042296134990e+001,-5.09427070108746e-001

1.02674071805032e+005,-1.84042319258140e+001,-5.16538358559472e-001

1.04107348435354e+005,-1.84042343031356e+001,-5.23748914840588e-001

1.05560632861831e+005,-1.84042367472912e+001,-5.31060124592602e-001

1.07034204382888e+005,-1.84042392601598e+001,-5.38473392793711e-001

1.08528346195813e+005,-1.84042418436731e+001,-5.45990144031760e-001

1.10043345451179e+005,-1.84042444998170e+001,-5.53611822777957e-001

1.11579493308032e+005,-1.84042472306334e+001,-5.61339893662029e-001

1.13137084989847e+005,-1.84042500382213e+001,-5.69175841756180e-001

1.14716419841265e+005,-1.84042529247393e+001,-5.77121172856630e-001

1.16317801385624e+005,-1.84042558924061e+001,-5.85177413777129e-001

1.17941537383287e+005,-1.84042589435029e+001,-5.93346112639778e-001

1.19587939890794e+005,-1.84042620803753e+001,-6.01628839170655e-001

1.21257325320831e+005,-1.84042653054345e+001,-6.10027185005393e-001

1.22950014503040e+005,-1.84042686211596e+001,-6.18542763990981e-001

1.24666332745679e+005,-1.84042720300995e+001,-6.27177212497308e-001

1.26406609898139e+005,-1.84042755348745e+001,-6.35932189730941e-001

1.28171180414339e+005,-1.84042791381789e+001,-6.44809378054531e-001

1.29960383416997e+005,-1.84042828427825e+001,-6.53810483307038e-001

1.31774562762811e+005,-1.84042866515329e+001,-6.62937235135419e-001

1.33614067108538e+005,-1.84042905673580e+001,-6.72191387323083e-001

1.35479249978003e+005,-1.84042945932677e+001,-6.81574718128378e-001

1.37370469830040e+005,-1.84042987323568e+001,-6.91089030624815e-001

1.39288090127379e+005,-1.84043029878069e+001,-7.00736153048223e-001

1.41232479406504e+005,-1.84043073628891e+001,-7.10517939146842e-001

1.43204011348474e+005,-1.84043118609664e+001,-7.20436268537327e-001

1.45203064850745e+005,-1.84043164854965e+001,-7.30493047065523e-001

1.47230024099979e+005,-1.84043212400339e+001,-7.40690207172849e-001

1.49285278645888e+005,-1.84043261282336e+001,-7.51029708265804e-001

1.51369223476094e+005,-1.84043311538527e+001,-7.61513537092897e-001

1.53482259092041e+005,-1.84043363207544e+001,-7.72143708125865e-001

1.55624791585964e+005,-1.84043416329103e+001,-7.82922263946251e-001

1.57797232718936e+005,-1.84043470944036e+001,-7.93851275636370e-001

1.59999999999999e+005,-1.84043527094323e+001,-8.04932843177653e-001

1.62233516766403e+005,-1.84043584823124e+001,-8.16169095853784e-001

1.64498212264969e+005,-1.84043644174813e+001,-8.27562192657821e-001

1.66794521734578e+005,-1.84043705195009e+001,-8.39114322707877e-001

1.69122886489819e+005,-1.84043767930617e+001,-8.50827705666099e-001

1.71483754005805e+005,-1.84043832429856e+001,-8.62704592164661e-001

1.73877578004168e+005,-1.84043898742303e+001,-8.74747264238124e-001

1.76304818540256e+005,-1.84043966918927e+001,-8.86958035759530e-001

1.78765942091554e+005,-1.84044037012132e+001,-8.99339252885419e-001

1.81261421647326e+005,-1.84044109075793e+001,-9.11893294506030e-001

1.83791736799524e+005,-1.84044183165298e+001,-9.24622572699875e-001

1.86357373834951e+005,-1.84044259337595e+001,-9.37529533198493e-001

1.88958825828723e+005,-1.84044337651229e+001,-9.50616655852975e-001

1.91596592739027e+005,-1.84044418166394e+001,-9.63886455111474e-001

1.94271181503206e+005,-1.84044500944972e+001,-9.77341480500041e-001

1.96983106135185e+005,-1.84044586050589e+001,-9.90984317110986e-001

1.99732887824256e+005,-1.84044673548654e+001,-1.00481758609998e+000

2.02521055035243e+005,-1.84044763506418e+001,-1.01884394518738e+000

2.05348143610063e+005,-1.84044855993020e+001,-1.03306608916781e+000

2.08214696870707e+005,-1.84044951079543e+001,-1.04748675042592e+000

2.11121265723661e+005,-1.84045048839068e+001,-1.06210869946151e+000

2.14068408765776e+005,-1.84045149346729e+001,-1.07693474541829e+000

2.17056692391625e+005,-1.84045252679772e+001,-1.09196773662434e+000

2.20086690902357e+005,-1.84045358917615e+001,-1.10721056113590e+000

2.23158986616063e+005,-1.84045468141904e+001,-1.12266614729247e+000

2.26274169979693e+005,-1.84045580436583e+001,-1.13833746427521e+000

2.29432839682530e+005,-1.84045695887955e+001,-1.15422752267737e+000

2.32635602771247e+005,-1.84045814584747e+001,-1.17033937508150e+000

2.35883074766574e+005,-1.84045936618179e+001,-1.18667611664152e+000

2.39175879781588e+005,-1.84046062082035e+001,-1.20324088567758e+000

2.42514650641661e+005,-1.84046191072735e+001,-1.22003686427566e+000

2.45900029006080e+005,-1.84046323689408e+001,-1.23706727889752e+000

2.49332665491357e+005,-1.84046460033968e+001,-1.25433540099698e+000

2.52813219796278e+005,-1.84046600211192e+001,-1.27184454764759e+000

2.56342360828676e+005,-1.84046744328804e+001,-1.28959808217630e+000

2.59920766833993e+005,-1.84046892497552e+001,-1.30759941480708e+000

2.63549125525621e+005,-1.84047044831298e+001,-1.32585200331395e+000

2.67228134217075e+005,-1.84047201447101e+001,-1.34435935368127e+000

2.70958499956006e+005,-1.84047362465311e+001,-1.36312502077578e+000

2.74740939660078e+005,-1.84047528009658e+001,-1.38215260902504e+000

2.78576180254757e+005,-1.84047698207350e+001,-1.40144577310752e+000

2.82464958813007e+005,-1.84047873189167e+001,-1.42100821865093e+000

2.86408022696948e+005,-1.84048053089566e+001,-1.44084370294056e+000

2.90406129701488e+005,-1.84048238046778e+001,-1.46095603563735e+000

2.94460048199957e+005,-1.84048428202922e+001,-1.48134907950604e+000

2.98570557291775e+005,-1.84048623704105e+001,-1.50202675115293e+000

3.02738446952187e+005,-1.84048824700542e+001,-1.52299302177451e+000

3.06964518184081e+005,-1.84049031346666e+001,-1.54425191791580e+000

3.11249583171928e+005,-1.84049243801249e+001,-1.56580752223876e+000

3.15594465437872e+005,-1.84049462227525e+001,-1.58766397430216e+000

3.19999999999997e+005,-1.84049686793309e+001,-1.60982547135258e+000

3.24467033532806e+005,-1.84049917671135e+001,-1.63229626912378e+000

3.28996424529938e+005,-1.84050155038379e+001,-1.65508068265061e+000

3.33589043469155e+005,-1.84050399077402e+001,-1.67818308709076e+000

3.38245772979638e+005,-1.84050649975687e+001,-1.70160791856006e+000

3.42967508011610e+005,-1.84050907925982e+001,-1.72535967497843e+000

3.47755156008335e+005,-1.84051173126449e+001,-1.74944291692735e+000

3.52609637080511e+005,-1.84051445780815e+001,-1.77386226851931e+000

3.57531884183106e+005,-1.84051726098530e+001,-1.79862241827870e+000

3.62522843294651e+005,-1.84052014294925e+001,-1.82372812003523e+000

3.67583473599047e+005,-1.84052310591380e+001,-1.84918419382972e+000

3.72714747669902e+005,-1.84052615215490e+001,-1.87499552683232e+000

3.77917651657445e+005,-1.84052928401241e+001,-1.90116707427146e+000

3.83193185478053e+005,-1.84053250389192e+001,-1.92770386037898e+000

3.88542363006410e+005,-1.84053581426656e+001,-1.95461097934446e+000

3.93966212270369e+005,-1.84053921767887e+001,-1.98189359628587e+000

3.99465775648511e+005,-1.84054271674283e+001,-2.00955694823054e+000

4.05042110070485e+005,-1.84054631414579e+001,-2.03760634511081e+000

4.10696287220124e+005,-1.84055001265054e+001,-2.06604717077484e+000

4.16429393741414e+005,-1.84055381509746e+001,-2.09488488400734e+000

4.22242531447321e+005,-1.84055772440663e+001,-2.12412501956843e+000

4.28136817531551e+005,-1.84056174358015e+001,-2.15377318924276e+000

4.34113384783250e+005,-1.84056587570437e+001,-2.18383508290626e+000

4.40173381804713e+005,-1.84057012395227e+001,-2.21431646960502e+000

4.46317973232124e+005,-1.84057449158591e+001,-2.24522319864904e+000

4.52548339959385e+005,-1.84057898195890e+001,-2.27656120072272e+000

4.58865679365059e+005,-1.84058359851898e+001,-2.30833648900714e+000

4.65271205542494e+005,-1.84058834481063e+001,-2.34055516032098e+000

4.71766149533147e+005,-1.84059322447783e+001,-2.37322339627452e+000

4.78351759563174e+005,-1.84059824126681e+001,-2.40634746443869e+000

4.85029301283321e+005,-1.84060339902892e+001,-2.43993371953351e+000

4.91800058012158e+005,-1.84060870172357e+001,-2.47398860462759e+000

4.98665330982714e+005,-1.84061415342128e+001,-2.50851865235796e+000

5.05626439592555e+005,-1.84061975830676e+001,-2.54353048616351e+000

5.12684721657352e+005,-1.84062552068213e+001,-2.57903082153635e+000

5.19841533667984e+005,-1.84063144497020e+001,-2.61502646728965e+000

5.27098251051240e+005,-1.84063753571784e+001,-2.65152432684203e+000

5.34456268434150e+005,-1.84064379759946e+001,-2.68853139952065e+000

5.41916999912011e+005,-1.84065023542058e+001,-2.72605478187877e+000

