Freq.,VOut,OutRef

1.00000000000000e+004,-8.80432255046974e+000,-6.29343687647175e-002

1.01395947979003e+004,-8.80432251910248e+000,-6.38128999252244e-002

1.02811382665607e+004,-8.80432248685351e+000,-6.47036949272330e-002

1.04246576084112e+004,-8.80432245369773e+000,-6.56069249703125e-002

1.05701804056138e+004,-8.80432241961011e+000,-6.65227636381945e-002

1.07177346253629e+004,-8.80432238456394e+000,-6.74513869441522e-002

1.08673486252606e+004,-8.80432234853246e+000,-6.83929733540329e-002

1.10190511587661e+004,-8.80432231148800e+000,-6.93477038263308e-002

1.11728713807222e+004,-8.80432227340189e+000,-7.03157618464811e-002

1.13288388529580e+004,-8.80432223424538e+000,-7.12973334571958e-002

1.14869835499703e+004,-8.80432219398793e+000,-7.22926073041753e-002

1.16473358646846e+004,-8.80432215259855e+000,-7.33017746641217e-002

1.18099266142953e+004,-8.80432211004569e+000,-7.43250294816353e-002

1.19747870461893e+004,-8.80432206629654e+000,-7.53625684114105e-002

1.21419488439505e+004,-8.80432202131738e+000,-7.64145908530774e-002

1.23114441334492e+004,-8.80432197507372e+000,-7.74812989885096e-002

1.24833054890161e+004,-8.80432192752983e+000,-7.85628978241742e-002

1.26575659397028e+004,-8.80432187864955e+000,-7.96595952240184e-002

1.28342589756290e+004,-8.80432182839483e+000,-8.07716019595627e-002

1.30134185544193e+004,-8.80432177672720e+000,-8.18991317409229e-002

1.31950791077289e+004,-8.80432172360714e+000,-8.30424012603093e-002

1.33792755478611e+004,-8.80432166899373e+000,-8.42016302376238e-002

1.35660432744767e+004,-8.80432161284491e+000,-8.53770414594616e-002

1.37554181813974e+004,-8.80432155511750e+000,-8.65688608217360e-002

1.39474366635040e+004,-8.80432149576720e+000,-8.77773173739346e-002

1.41421356237309e+004,-8.80432143474829e+000,-8.90026433636406e-002

1.43395524801583e+004,-8.80432137201378e+000,-9.02450742801769e-002

1.45397251732031e+004,-8.80432130751569e+000,-9.15048488987766e-002

1.47426921729110e+004,-8.80432124120420e+000,-9.27822093301901e-002

1.49484924863494e+004,-8.80432117302866e+000,-9.40774010619526e-002

1.51571656651040e+004,-8.80432110293647e+000,-9.53906730114403e-002

1.53687518128801e+004,-8.80432103087348e+000,-9.67222775714710e-002

1.55832915932100e+004,-8.80432095678458e+000,-9.80724706546214e-002

1.58008262372675e+004,-8.80432088061283e+000,-9.94415117473509e-002

1.60213975517924e+004,-8.80432080229965e+000,-1.00829663959400e-001

1.62450479271247e+004,-8.80432072178474e+000,-1.02237194072878e-001

1.64718203453514e+004,-8.80432063900612e+000,-1.03664372594941e-001

1.67017583885674e+004,-8.80432055390053e+000,-1.05111473805307e-001

1.69349062472505e+004,-8.80432046640222e+000,-1.06578775817506e-001

1.71713087287550e+004,-8.80432037644379e+000,-1.08066560625618e-001

1.74110112659224e+004,-8.80432028395651e+000,-1.09575114157391e-001

1.76540599258131e+004,-8.80432018886890e+000,-1.11104726336567e-001

1.79005014185594e+004,-8.80432009110811e+000,-1.12655691130482e-001

1.81503831063432e+004,-8.80431999059907e+000,-1.14228306610772e-001

1.84037530124975e+004,-8.80431988726416e+000,-1.15822875013429e-001

1.86606598307361e+004,-8.80431978102401e+000,-1.17439702790309e-001

1.89211529345119e+004,-8.80431967179709e+000,-1.19079100671174e-001

1.91852823865052e+004,-8.80431955949944e+000,-1.20741383723888e-001

1.94530989482457e+004,-8.80431944404480e+000,-1.22426871414557e-001

1.97246540898671e+004,-8.80431932534411e+000,-1.24135887671032e-001

1.99999999999999e+004,-8.80431920330646e+000,-1.25868760939196e-001

2.02791895958005e+004,-8.80431907783776e+000,-1.27625824253522e-001

2.05622765331213e+004,-8.80431894884154e+000,-1.29407415296372e-001

2.08493152168224e+004,-8.80431881621893e+000,-1.31213876461674e-001

2.11403608112276e+004,-8.80431867986775e+000,-1.33045554926262e-001

2.14354692507258e+004,-8.80431853968327e+000,-1.34902802711864e-001

2.17346972505211e+004,-8.80431839555764e+000,-1.36785976755318e-001

2.20381023175322e+004,-8.80431824738011e+000,-1.38695438975279e-001

2.23457427614443e+004,-8.80431809503660e+000,-1.40631556343887e-001

2.26576777059159e+004,-8.80431793841036e+000,-1.42594700952931e-001

2.29739670999406e+004,-8.80431777738064e+000,-1.44585250093036e-001

2.32946717293690e+004,-8.80431761182381e+000,-1.46603586318209e-001

2.36198532285905e+004,-8.80431744161245e+000,-1.48650097525060e-001

2.39495740923785e+004,-8.80431726661595e+000,-1.50725177022549e-001

2.42838976879009e+004,-8.80431708669966e+000,-1.52829223612467e-001

2.46228882668982e+004,-8.80431690172515e+000,-1.54962641663782e-001

2.49666109780322e+004,-8.80431671155026e+000,-1.57125841189222e-001

2.53151318794055e+004,-8.80431651602891e+000,-1.59319237924721e-001

2.56685179512580e+004,-8.80431631501067e+000,-1.61543253411491e-001

2.60268371088386e+004,-8.80431610834115e+000,-1.63798315073525e-001

2.63901582154578e+004,-8.80431589586138e+000,-1.66084856303130e-001

2.67585510957221e+004,-8.80431567740799e+000,-1.68403316541944e-001

2.71320865489533e+004,-8.80431545281300e+000,-1.70754141367072e-001

2.75108363627948e+004,-8.80431522190380e+000,-1.73137782574138e-001

2.78948733270080e+004,-8.80431498450286e+000,-1.75554698267055e-001

2.82842712474618e+004,-8.80431474042782e+000,-1.78005352943164e-001

2.86791049603164e+004,-8.80431448949069e+000,-1.80490217587720e-001

2.90794503464061e+004,-8.80431423149902e+000,-1.83009769755431e-001

2.94853843458219e+004,-8.80431396625420e+000,-1.85564493672501e-001

2.98969849726987e+004,-8.80431369355228e+000,-1.88154880322828e-001

3.03143313302078e+004,-8.80431341318370e+000,-1.90781427544368e-001

3.07375036257601e+004,-8.80431312493292e+000,-1.93444640124983e-001

3.11665831864199e+004,-8.80431282857827e+000,-1.96145029899815e-001

3.16016524745350e+004,-8.80431252389219e+000,-1.98883115847024e-001

3.20427951035848e+004,-8.80431221064006e+000,-2.01659424193817e-001

3.24900958542493e+004,-8.80431188858123e+000,-2.04474488510104e-001

3.29436406907028e+004,-8.80431155746829e+000,-2.07328849814288e-001

3.34035167771346e+004,-8.80431121704643e+000,-2.10223056679881e-001

3.38698124945009e+004,-8.80431086705408e+000,-2.13157665336516e-001

3.43426174575100e+004,-8.80431050722215e+000,-2.16133239779451e-001

3.48220225318448e+004,-8.80431013727392e+000,-2.19150351877710e-001

3.53081198516260e+004,-8.80430975692520e+000,-2.22209581481946e-001

3.58010028371187e+004,-8.80430936588343e+000,-2.25311516539662e-001

3.63007662126863e+004,-8.80430896384805e+000,-2.28456753204870e-001

3.68075060249948e+004,-8.80430855051005e+000,-2.31645895954048e-001

3.73213196614721e+004,-8.80430812555148e+000,-2.34879557703849e-001

3.78423058690237e+004,-8.80430768864576e+000,-2.38158359924773e-001

3.83705647730104e+004,-8.80430723945712e+000,-2.41482932764054e-001

3.89061978964912e+004,-8.80430677764003e+000,-2.44853915167289e-001

3.94493081797342e+004,-8.80430630283966e+000,-2.48271954997627e-001

3.99999999999998e+004,-8.80430581469085e+000,-2.51737709164281e-001

4.05583791916010e+004,-8.80430531281837e+000,-2.55251843746446e-001

4.11245530662425e+004,-8.80430479683641e+000,-2.58815034121594e-001

4.16986304336447e+004,-8.80430426634841e+000,-2.62427965095383e-001

4.22807216224550e+004,-8.80430372094641e+000,-2.66091331034902e-001

4.28709385014515e+004,-8.80430316021120e+000,-2.69805835999415e-001

4.34693945010421e+004,-8.80430258371164e+000,-2.73572193878299e-001

4.40762046350642e+004,-8.80430199100467e+000,-2.77391128525627e-001

4.46914855228886e+004,-8.80430138163455e+000,-2.81263373901905e-001

4.53153554118317e+004,-8.80430075513280e+000,-2.85189674213896e-001

4.59479341998812e+004,-8.80430011101778e+000,-2.89170784057746e-001

4.65893434587380e+004,-8.80429944879449e+000,-2.93207468562644e-001

4.72397064571810e+004,-8.80429876795357e+000,-2.97300503542647e-001

4.78991481847569e+004,-8.80429806797195e+000,-3.01450675638170e-001

4.85677953758016e+004,-8.80429734831123e+000,-3.05658782475776e-001

4.92457765337964e+004,-8.80429660841824e+000,-3.09925632814967e-001

4.99332219560642e+004,-8.80429584772431e+000,-3.14252046705710e-001

5.06302637588109e+004,-8.80429506564446e+000,-3.18638855648657e-001

5.13370359025159e+004,-8.80429426157775e+000,-3.23086902749296e-001

5.20536742176771e+004,-8.80429343490576e+000,-3.27597042887328e-001

5.27803164309155e+004,-8.80429258499312e+000,-3.32170142874212e-001

5.35171021914442e+004,-8.80429171118641e+000,-3.36807081624422e-001

5.42641730979066e+004,-8.80429081281392e+000,-3.41508750321770e-001

5.50216727255895e+004,-8.80428988918504e+000,-3.46276052592178e-001

5.57897466540159e+004,-8.80428893958972e+000,-3.51109904677003e-001

5.65685424949235e+004,-8.80428796329796e+000,-3.56011235609097e-001

5.73582099206328e+004,-8.80428695955928e+000,-3.60980987391256e-001

5.81589006928121e+004,-8.80428592760186e+000,-3.66020115178877e-001

5.89707686916437e+004,-8.80428486663271e+000,-3.71129587459411e-001

5.97939699453972e+004,-8.80428377583603e+000,-3.76310386244246e-001

6.06286626604156e+004,-8.80428265437327e+000,-3.81563507253697e-001

6.14750072515201e+004,-8.80428150138232e+000,-3.86889960109809e-001

6.23331663728396e+004,-8.80428031597693e+000,-3.92290768528990e-001

6.32033049490698e+004,-8.80427909724570e+000,-3.97766970521671e-001

6.40855902071694e+004,-8.80427784425183e+000,-4.03319618589428e-001

6.49801917084985e+004,-8.80427655603207e+000,-4.08949779927709e-001

6.58872813814055e+004,-8.80427523159606e+000,-4.14658536633216e-001

6.68070335542691e+004,-8.80427386992571e+000,-4.20446985908381e-001

6.77396249890018e+004,-8.80427246997420e+000,-4.26316240275280e-001

6.86852349150199e+004,-8.80427103066554e+000,-4.32267427787405e-001

6.96440450636895e+004,-8.80426955089310e+000,-4.38301692249908e-001

7.06162397032520e+004,-8.80426802951929e+000,-4.44420193436046e-001

7.16020056742374e+004,-8.80426646537465e+000,-4.50624107311350e-001

7.26015324253724e+004,-8.80426485725681e+000,-4.56914626259980e-001

7.36150120499896e+004,-8.80426320392961e+000,-4.63292959314357e-001

7.46426393229441e+004,-8.80426150412197e+000,-4.69760332387864e-001

7.56846117380472e+004,-8.80425975652727e+000,-4.76317988509299e-001

7.67411295460207e+004,-8.80425795980205e+000,-4.82967188063040e-001

7.78123957929823e+004,-8.80425611256512e+000,-4.89709209031559e-001

7.88986163594682e+004,-8.80425421339652e+000,-4.96545347239952e-001

7.99999999999995e+004,-8.80425226083634e+000,-5.03476916606666e-001

8.11167583832018e+004,-8.80425025338352e+000,-5.10505249395763e-001

8.22491061324848e+004,-8.80424818949500e+000,-5.17631696472434e-001

8.33972608672892e+004,-8.80424606758411e+000,-5.24857627564349e-001

8.45614432449099e+004,-8.80424388601984e+000,-5.32184431523099e-001

8.57418770029029e+004,-8.80424164312506e+000,-5.39613516593622e-001

8.69387890020841e+004,-8.80423933717583e+000,-5.47146310682265e-001

8.81524092701283e+004,-8.80423696639926e+000,-5.54784261635966e-001

8.93829710457770e+004,-8.80423452897319e+000,-5.62528837514663e-001

9.06307108236633e+004,-8.80423202302380e+000,-5.70381526879573e-001

9.18958683997622e+004,-8.80422944662486e+000,-5.78343839075496e-001

9.31786869174758e+004,-8.80422679779581e+000,-5.86417304523793e-001

9.44794129143618e+004,-8.80422407450047e+000,-5.94603475015696e-001

9.57982963695136e+004,-8.80422127464555e+000,-6.02903924009731e-001

9.71355907516031e+004,-8.80421839607868e+000,-6.11320246937611e-001

9.84915530675926e+004,-8.80421543658732e+000,-6.19854061507294e-001

9.98664439121282e+004,-8.80421239389633e+000,-6.28507008018228e-001

1.01260527517622e+005,-8.80420926566702e+000,-6.37280749673417e-001

1.02674071805032e+005,-8.80420604949465e+000,-6.46176972902125e-001

1.04107348435354e+005,-8.80420274290698e+000,-6.55197387683505e-001

1.05560632861831e+005,-8.80419934336240e+000,-6.64343727874625e-001

1.07034204382888e+005,-8.80419584824763e+000,-6.73617751546795e-001

1.08528346195813e+005,-8.80419225487617e+000,-6.83021241320384e-001

1.10043345451179e+005,-8.80418856048585e+000,-6.92556004710998e-001

1.11579493308032e+005,-8.80418476223693e+000,-7.02223874475927e-001

1.13137084989847e+005,-8.80418085720980e+000,-7.12026708967334e-001

1.14716419841265e+005,-8.80417684240280e+000,-7.21966392489984e-001

1.16317801385624e+005,-8.80417271472988e+000,-7.32044835663884e-001

1.17941537383287e+005,-8.80416847101825e+000,-7.42263975792269e-001

1.19587939890794e+005,-8.80416410800610e+000,-7.52625777233348e-001

1.21257325320831e+005,-8.80415962233974e+000,-7.63132231780789e-001

1.22950014503040e+005,-8.80415501057117e+000,-7.73785359046358e-001

1.24666332745679e+005,-8.80415026915568e+000,-7.84587206847285e-001

1.26406609898139e+005,-8.80414539444886e+000,-7.95539851602440e-001

1.28171180414339e+005,-8.80414038270369e+000,-8.06645398732480e-001

1.29960383416997e+005,-8.80413523006810e+000,-8.17905983062634e-001

1.31774562762811e+005,-8.80412993258164e+000,-8.29323769236822e-001

1.33614067108538e+005,-8.80412448617241e+000,-8.40900952134050e-001

1.35479249978003e+005,-8.80411888665433e+000,-8.52639757288715e-001

1.37370469830040e+005,-8.80411312972338e+000,-8.64542441323791e-001

1.39288090127379e+005,-8.80410721095483e+000,-8.76611292380393e-001

1.41232479406504e+005,-8.80410112579948e+000,-8.88848630562905e-001

1.43204011348474e+005,-8.80409486958014e+000,-9.01256808384234e-001

1.45203064850745e+005,-8.80408843748846e+000,-9.13838211218112e-001

1.47230024099979e+005,-8.80408182458061e+000,-9.26595257761389e-001

1.49285278645888e+005,-8.80407502577410e+000,-9.39530400497356e-001

1.51369223476094e+005,-8.80406803584351e+000,-9.52646126170246e-001

1.53482259092041e+005,-8.80406084941643e+000,-9.65944956264321e-001

1.55624791585964e+005,-8.80405346096972e+000,-9.79429447488771e-001

1.57797232718936e+005,-8.80404586482478e+000,-9.93102192272584e-001

1.59999999999999e+005,-8.80403805514347e+000,-1.00696581926275e+000

1.62233516766403e+005,-8.80403002592379e+000,-1.02102299383057e+000

1.64498212264969e+005,-8.80402177099476e+000,-1.03527641858858e+000

1.66794521734578e+005,-8.80401328401222e+000,-1.04972883390815e+000

1.69122886489819e+005,-8.80400455845356e+000,-1.06438301845090e+000

1.71483754005805e+005,-8.80399558761301e+000,-1.07924178970255e+000

1.73877578004168e+005,-8.80398636459620e+000,-1.09430800451811e+000

1.76304818540256e+005,-8.80397688231521e+000,-1.10958455967173e+000

1.78765942091554e+005,-8.80396713348285e+000,-1.12507439241640e+000

1.81261421647326e+005,-8.80395711060707e+000,-1.14078048105091e+000

1.83791736799524e+005,-8.80394680598543e+000,-1.15670584549402e+000

1.86357373834951e+005,-8.80393621169902e+000,-1.17285354786727e+000

1.88958825828723e+005,-8.80392531960635e+000,-1.18922669308767e+000

1.91596592739027e+005,-8.80391412133721e+000,-1.20582842946458e+000

1.94271181503206e+005,-8.80390260828624e+000,-1.22266194930977e+000

1.96983106135185e+005,-8.80389077160617e+000,-1.23973048955332e+000

1.99732887824256e+005,-8.80387860220132e+000,-1.25703733236795e+000

2.02521055035243e+005,-8.80386609072028e+000,-1.27458580580400e+000

2.05348143610063e+005,-8.80385322754906e+000,-1.29237928443178e+000

2.08214696870707e+005,-8.80384000280332e+000,-1.31042118999519e+000

2.11121265723661e+005,-8.80382640632124e+000,-1.32871499207010e+000

2.14068408765776e+005,-8.80381242765537e+000,-1.34726420873806e+000

2.17056692391625e+005,-8.80379805606486e+000,-1.36607240726333e+000

2.20086690902357e+005,-8.80378328050697e+000,-1.38514320478571e+000

2.23158986616063e+005,-8.80376808962878e+000,-1.40448026901789e+000

2.26274169979693e+005,-8.80375247175858e+000,-1.42408731895466e+000

2.29432839682530e+005,-8.80373641489645e+000,-1.44396812559523e+000

2.32635602771247e+005,-8.80371990670572e+000,-1.46412651266838e+000

2.35883074766574e+005,-8.80370293450296e+000,-1.48456635737627e+000

2.39175879781588e+005,-8.80368548524852e+000,-1.50529159114309e+000

2.42514650641661e+005,-8.80366754553645e+000,-1.52630620037643e+000

2.45900029006080e+005,-8.80364910158426e+000,-1.54761422723917e+000

2.49332665491357e+005,-8.80363013922234e+000,-1.56921977043249e+000

2.52813219796278e+005,-8.80361064388301e+000,-1.59112698599024e+000

2.56342360828676e+005,-8.80359060058956e+000,-1.61334008808295e+000

2.59920766833993e+005,-8.80356999394450e+000,-1.63586334983616e+000

2.63549125525621e+005,-8.80354880811798e+000,-1.65870110415770e+000

2.67228134217075e+005,-8.80352702683564e+000,-1.68185774457770e+000

2.70958499956006e+005,-8.80350463336588e+000,-1.70533772610202e+000

2.74740939660078e+005,-8.80348161050740e+000,-1.72914556607477e+000

2.78576180254757e+005,-8.80345794057578e+000,-1.75328584505600e+000

2.82464958813007e+005,-8.80343360539001e+000,-1.77776320771068e+000

2.86408022696948e+005,-8.80340858625849e+000,-1.80258236371006e+000

2.90406129701488e+005,-8.80338286396496e+000,-1.82774808864598e+000

2.94460048199957e+005,-8.80335641875336e+000,-1.85326522496025e+000

2.98570557291775e+005,-8.80332923031312e+000,-1.87913868288365e+000

3.02738446952187e+005,-8.80330127776329e+000,-1.90537344139166e+000

3.06964518184081e+005,-8.80327253963672e+000,-1.93197454917206e+000

3.11249583171928e+005,-8.80324299386371e+000,-1.95894712560668e+000

3.15594465437872e+005,-8.80321261775487e+000,-1.98629636176813e+000

3.19999999999997e+005,-8.80318138798381e+000,-2.01402752143041e+000

3.24467033532806e+005,-8.80314928056948e+000,-2.04214594209259e+000

3.28996424529938e+005,-8.80311627085762e+000,-2.07065703601944e+000

3.33589043469155e+005,-8.80308233350205e+000,-2.09956629129560e+000

3.38245772979638e+005,-8.80304744244512e+000,-2.12887927289527e+000

3.42967508011610e+005,-8.80301157089790e+000,-2.15860162376806e+000

3.47755156008335e+005,-8.80297469131954e+000,-2.18873906593928e+000

3.52609637080511e+005,-8.80293677539647e+000,-2.21929740162626e+000

3.57531884183106e+005,-8.80289779402050e+000,-2.25028251437210e+000

3.62522843294651e+005,-8.80285771726671e+000,-2.28170037019402e+000

3.67583473599047e+005,-8.80281651437049e+000,-2.31355701875033e+000

3.72714747669902e+005,-8.80277415370406e+000,-2.34585859452232e+000

3.77917651657445e+005,-8.80273060275232e+000,-2.37861131801426e+000

3.83193185478053e+005,-8.80268582808811e+000,-2.41182149697076e+000

3.88542363006410e+005,-8.80263979534639e+000,-2.44549552761260e+000

3.93966212270369e+005,-8.80259246919830e+000,-2.47963989588863e+000

3.99465775648511e+005,-8.80254381332394e+000,-2.51426117874796e+000

4.05042110070485e+005,-8.80249379038494e+000,-2.54936604542877e+000

4.10696287220124e+005,-8.80244236199561e+000,-2.58496125876784e+000

4.16429393741414e+005,-8.80238948869388e+000,-2.62105367652807e+000

4.22242531447321e+005,-8.80233512991117e+000,-2.65765025274530e+000

4.28136817531551e+005,-8.80227924394142e+000,-2.69475803909576e+000

4.34113384783250e+005,-8.80222178790909e+000,-2.73238418628313e+000

4.40173381804713e+005,-8.80216271773686e+000,-2.77053594544536e+000

4.46317973232124e+005,-8.80210198811180e+000,-2.80922066958261e+000

4.52548339959385e+005,-8.80203955245072e+000,-2.84844581500782e+000

4.58865679365059e+005,-8.80197536286491e+000,-2.88821894281577e+000

4.65271205542494e+005,-8.80190937012368e+000,-2.92854772037529e+000

4.71766149533147e+005,-8.80184152361655e+000,-2.96943992284500e+000

4.78351759563174e+005,-8.80177177131511e+000,-3.01090343470847e+000

4.85029301283321e+005,-8.80170005973310e+000,-3.05294625133505e+000

4.91800058012158e+005,-8.80162633388603e+000,-3.09557648056158e+000

4.98665330982714e+005,-8.80155053724908e+000,-3.13880234429951e+000

5.05626439592555e+005,-8.80147261171422e+000,-3.18263218016492e+000

5.12684721657352e+005,-8.80139249754611e+000,-3.22707444313351e+000

5.19841533667984e+005,-8.80131013333661e+000,-3.27213770721923e+000

5.27098251051240e+005,-8.80122545595812e+000,-3.31783066718004e+000

5.34456268434150e+005,-8.80113840051581e+000,-3.36416214024714e+000

5.41916999912011e+005,-8.80104890029803e+000,-3.41114106788214e+000

