Freq.,VOut,OutRef

1.00000000000000e+004,-2.09273696101584e+001,-3.29309380770063e-001

1.01395947979003e+004,-2.09273708306434e+001,-3.33906351214404e-001

1.02811382665607e+004,-2.09273720854405e+001,-3.38567492244910e-001

1.04246576084112e+004,-2.09273733755144e+001,-3.43293699617216e-001

1.05701804056138e+004,-2.09273747018569e+001,-3.48085881591916e-001

1.07177346253629e+004,-2.09273760654875e+001,-3.52944959106741e-001

1.08673486252606e+004,-2.09273774674544e+001,-3.57871865953370e-001

1.10190511587661e+004,-2.09273789088356e+001,-3.62867548957451e-001

1.11728713807222e+004,-2.09273803907391e+001,-3.67932968159471e-001

1.13288388529580e+004,-2.09273819143038e+001,-3.73069097002083e-001

1.14869835499703e+004,-2.09273834807014e+001,-3.78276922511712e-001

1.16473358646846e+004,-2.09273850911358e+001,-3.83557445494379e-001

1.18099266142953e+004,-2.09273867468451e+001,-3.88911680724114e-001

1.19747870461893e+004,-2.09273884491020e+001,-3.94340657138174e-001

1.21419488439505e+004,-2.09273901992151e+001,-3.99845418035513e-001

1.23114441334492e+004,-2.09273919985300e+001,-4.05427021276769e-001

1.24833054890161e+004,-2.09273938484296e+001,-4.11086539488539e-001

1.26575659397028e+004,-2.09273957503362e+001,-4.16825060267399e-001

1.28342589756290e+004,-2.09273977057117e+001,-4.22643686390068e-001

1.30134185544193e+004,-2.09273997160596e+001,-4.28543536024763e-001

1.31950791077289e+004,-2.09274017829250e+001,-4.34525742947111e-001

1.33792755478611e+004,-2.09274039078968e+001,-4.40591456756688e-001

1.35660432744767e+004,-2.09274060926087e+001,-4.46741843097176e-001

1.37554181813974e+004,-2.09274083387399e+001,-4.52978083882558e-001

1.39474366635040e+004,-2.09274106480174e+001,-4.59301377521217e-001

1.41421356237309e+004,-2.09274130222162e+001,-4.65712939148471e-001

1.43395524801583e+004,-2.09274154631615e+001,-4.72214000858830e-001

1.45397251732031e+004,-2.09274179727297e+001,-4.78805811942802e-001

1.47426921729110e+004,-2.09274205528498e+001,-4.85489639126799e-001

1.49484924863494e+004,-2.09274232055055e+001,-4.92266766815997e-001

1.51571656651040e+004,-2.09274259327357e+001,-4.99138497342004e-001

1.53687518128801e+004,-2.09274287366371e+001,-5.06106151211016e-001

1.55832915932100e+004,-2.09274316193650e+001,-5.13171067359846e-001

1.58008262372675e+004,-2.09274345831354e+001,-5.20334603411780e-001

1.60213975517924e+004,-2.09274376302267e+001,-5.27598135935836e-001

1.62450479271247e+004,-2.09274407629810e+001,-5.34963060714319e-001

1.64718203453514e+004,-2.09274439838068e+001,-5.42430793007534e-001

1.67017583885674e+004,-2.09274472951797e+001,-5.50002767827354e-001

1.69349062472505e+004,-2.09274506996455e+001,-5.57680440212050e-001

1.71713087287550e+004,-2.09274541998210e+001,-5.65465285505918e-001

1.74110112659224e+004,-2.09274577983969e+001,-5.73358799643242e-001

1.76540599258131e+004,-2.09274614981394e+001,-5.81362499433814e-001

1.79005014185594e+004,-2.09274653018927e+001,-5.89477922853746e-001

1.81503831063432e+004,-2.09274692125804e+001,-5.97706629344907e-001

1.84037530124975e+004,-2.09274732332089e+001,-6.06050200108197e-001

1.86606598307361e+004,-2.09274773668687e+001,-6.14510238411244e-001

1.89211529345119e+004,-2.09274816167376e+001,-6.23088369894863e-001

1.91852823865052e+004,-2.09274859860820e+001,-6.31786242885831e-001

1.94530989482457e+004,-2.09274904782610e+001,-6.40605528710676e-001

1.97246540898671e+004,-2.09274950967274e+001,-6.49547922020424e-001

1.99999999999999e+004,-2.09274998450315e+001,-6.58615141111710e-001

2.02791895958005e+004,-2.09275047268231e+001,-6.67808928259712e-001

2.05622765331213e+004,-2.09275097458550e+001,-6.77131050049686e-001

2.08493152168224e+004,-2.09275149059849e+001,-6.86583297719475e-001

2.11403608112276e+004,-2.09275202111795e+001,-6.96167487499733e-001

2.14354692507258e+004,-2.09275256655167e+001,-7.05885460963089e-001

2.17346972505211e+004,-2.09275312731889e+001,-7.15739085380562e-001

2.20381023175322e+004,-2.09275370385068e+001,-7.25730254074916e-001

2.23457427614443e+004,-2.09275429659019e+001,-7.35860886787042e-001

2.26576777059159e+004,-2.09275490599303e+001,-7.46132930044453e-001

2.29739670999406e+004,-2.09275553252762e+001,-7.56548357532468e-001

2.32946717293690e+004,-2.09275617667556e+001,-7.67109170474071e-001

2.36198532285905e+004,-2.09275683893196e+001,-7.77817398014058e-001

2.39495740923785e+004,-2.09275751980588e+001,-7.88675097607545e-001

2.42838976879009e+004,-2.09275821982066e+001,-7.99684355414173e-001

2.46228882668982e+004,-2.09275893951435e+001,-8.10847286699511e-001

2.49666109780322e+004,-2.09275967944015e+001,-8.22166036239035e-001

2.53151318794055e+004,-2.09276044016679e+001,-8.33642778730679e-001

2.56685179512580e+004,-2.09276122227896e+001,-8.45279719210887e-001

2.60268371088386e+004,-2.09276202637784e+001,-8.57079093477576e-001

2.63901582154578e+004,-2.09276285308147e+001,-8.69043168518301e-001

2.67585510957221e+004,-2.09276370302525e+001,-8.81174242946256e-001

2.71320865489533e+004,-2.09276457686248e+001,-8.93474647439107e-001

2.75108363627948e+004,-2.09276547526479e+001,-9.05946745186244e-001

2.78948733270080e+004,-2.09276639892268e+001,-9.18592932342279e-001

2.82842712474618e+004,-2.09276734854610e+001,-9.31415638485005e-001

2.86791049603164e+004,-2.09276832486489e+001,-9.44417327082754e-001

2.90794503464061e+004,-2.09276932862945e+001,-9.57600495963509e-001

2.94853843458219e+004,-2.09277036061127e+001,-9.70967677796162e-001

2.98969849726987e+004,-2.09277142160349e+001,-9.84521440574310e-001

3.03143313302078e+004,-2.09277251242156e+001,-9.98264388108639e-001

3.07375036257601e+004,-2.09277363390384e+001,-1.01219916052471e+000

3.11665831864199e+004,-2.09277478691227e+001,-1.02632843476918e+000

3.16016524745350e+004,-2.09277597233299e+001,-1.04065492512330e+000

3.20427951035848e+004,-2.09277719107706e+001,-1.05518138371975e+000

3.24900958542493e+004,-2.09277844408112e+001,-1.06991060107309e+000

3.29436406907028e+004,-2.09277973230816e+001,-1.08484540661151e+000

3.34035167771346e+004,-2.09278105674820e+001,-1.09998866921887e+000

3.38698124945009e+004,-2.09278241841912e+001,-1.11534329778350e+000

3.43426174575100e+004,-2.09278381836738e+001,-1.13091224175609e+000

3.48220225318448e+004,-2.09278525766884e+001,-1.14669849171208e+000

3.53081198516260e+004,-2.09278673742960e+001,-1.16270507992557e+000

3.58010028371187e+004,-2.09278825878684e+001,-1.17893508094816e+000

3.63007662126863e+004,-2.09278982290972e+001,-1.19539161219679e+000

3.68075060249948e+004,-2.09279143100020e+001,-1.21207783455074e+000

3.73213196614721e+004,-2.09279308429407e+001,-1.22899695295603e+000

3.78423058690237e+004,-2.09279478406179e+001,-1.24615221703690e+000

3.83705647730104e+004,-2.09279653160956e+001,-1.26354692171835e+000

3.89061978964912e+004,-2.09279832828027e+001,-1.28118440785417e+000

3.94493081797342e+004,-2.09280017545452e+001,-1.29906806286762e+000

3.99999999999998e+004,-2.09280207455173e+001,-1.31720132139653e+000

4.05583791916010e+004,-2.09280402703118e+001,-1.33558766595022e+000

4.11245530662425e+004,-2.09280603439316e+001,-1.35423062757413e+000

4.16986304336447e+004,-2.09280809818010e+001,-1.37313378652563e+000

4.22807216224550e+004,-2.09281021997777e+001,-1.39230077295524e+000

4.28709385014515e+004,-2.09281240141651e+001,-1.41173526760127e+000

4.34693945010421e+004,-2.09281464417242e+001,-1.43144100249118e+000

4.40762046350642e+004,-2.09281694996872e+001,-1.45142176165508e+000

4.46914855228886e+004,-2.09281932057703e+001,-1.47168138184581e+000

4.53153554118317e+004,-2.09282175781874e+001,-1.49222375327201e+000

4.59479341998812e+004,-2.09282426356640e+001,-1.51305282033941e+000

4.65893434587380e+004,-2.09282683974516e+001,-1.53417258240316e+000

4.72397064571810e+004,-2.09282948833424e+001,-1.55558709452963e+000

4.78991481847569e+004,-2.09283221136848e+001,-1.57730046826950e+000

4.85677953758016e+004,-2.09283501093984e+001,-1.59931687244105e+000

4.92457765337964e+004,-2.09283788919909e+001,-1.62164053392324e+000

4.99332219560642e+004,-2.09284084835734e+001,-1.64427573846289e+000

5.06302637588109e+004,-2.09284389068787e+001,-1.66722683148757e+000

5.13370359025159e+004,-2.09284701852775e+001,-1.69049821893479e+000

5.20536742176771e+004,-2.09285023427972e+001,-1.71409436808976e+000

5.27803164309155e+004,-2.09285354041399e+001,-1.73801980843429e+000

5.35171021914442e+004,-2.09285693947013e+001,-1.76227913250904e+000

5.42641730979066e+004,-2.09286043405905e+001,-1.78687699678602e+000

5.50216727255895e+004,-2.09286402686495e+001,-1.81181812255396e+000

5.57897466540159e+004,-2.09286772064742e+001,-1.83710729681496e+000

5.65685424949235e+004,-2.09287151824353e+001,-1.86274937319323e+000

5.73582099206328e+004,-2.09287542257002e+001,-1.88874927285681e+000

5.81589006928121e+004,-2.09287943662552e+001,-1.91511198545244e+000

5.89707686916437e+004,-2.09288356349284e+001,-1.94184257005083e+000

5.97939699453972e+004,-2.09288780634136e+001,-1.96894615610673e+000

6.06286626604156e+004,-2.09289216842942e+001,-1.99642794443147e+000

6.14750072515201e+004,-2.09289665310683e+001,-2.02429320817821e+000

6.23331663728396e+004,-2.09290126381747e+001,-2.05254729384089e+000

6.32033049490698e+004,-2.09290600410185e+001,-2.08119562226745e+000

6.40855902071694e+004,-2.09291087759989e+001,-2.11024368968373e+000

6.49801917084985e+004,-2.09291588805365e+001,-2.13969706873620e+000

6.58872813814055e+004,-2.09292103931025e+001,-2.16956140954305e+000

6.68070335542691e+004,-2.09292633532475e+001,-2.19984244076421e+000

6.77396249890018e+004,-2.09293178016323e+001,-2.23054597068222e+000

6.86852349150199e+004,-2.09293737800587e+001,-2.26167788830017e+000

6.96440450636895e+004,-2.09294313315015e+001,-2.29324416445254e+000

7.06162397032520e+004,-2.09294905001414e+001,-2.32525085293183e+000

7.16020056742374e+004,-2.09295513313987e+001,-2.35770409162964e+000

7.26015324253724e+004,-2.09296138719681e+001,-2.39061010369466e+000

7.36150120499896e+004,-2.09296781698544e+001,-2.42397519870257e+000

7.46426393229441e+004,-2.09297442744089e+001,-2.45780577384574e+000

7.56846117380472e+004,-2.09298122363677e+001,-2.49210831513570e+000

7.67411295460207e+004,-2.09298821078897e+001,-2.52688939862258e+000

7.78123957929823e+004,-2.09299539425969e+001,-2.56215569163126e+000

7.88986163594682e+004,-2.09300277956152e+001,-2.59791395401282e+000

7.99999999999995e+004,-2.09301037236167e+001,-2.63417103941292e+000

8.11167583832018e+004,-2.09301817848625e+001,-2.67093389655773e+000

8.22491061324848e+004,-2.09302620392475e+001,-2.70820957055509e+000

8.33972608672892e+004,-2.09303445483460e+001,-2.74600520421482e+000

8.45614432449099e+004,-2.09304293754586e+001,-2.78432803938450e+000

8.57418770029029e+004,-2.09305165856606e+001,-2.82318541830337e+000

8.69387890020841e+004,-2.09306062458514e+001,-2.86258478497499e+000

8.81524092701283e+004,-2.09306984248056e+001,-2.90253368655627e+000

8.93829710457770e+004,-2.09307931932255e+001,-2.94303977476503e+000

9.06307108236633e+004,-2.09308906237949e+001,-2.98411080730653e+000

9.18958683997622e+004,-2.09309907912343e+001,-3.02575464931804e+000

9.31786869174758e+004,-2.09310937723578e+001,-3.06797927483111e+000

9.44794129143618e+004,-2.09311996461319e+001,-3.11079276825518e+000

9.57982963695136e+004,-2.09313084937351e+001,-3.15420332587710e+000

9.71355907516031e+004,-2.09314203986201e+001,-3.19821925738321e+000

9.84915530675926e+004,-2.09315354465770e+001,-3.24284898739767e+000

9.98664439121282e+004,-2.09316537257984e+001,-3.28810105704360e+000

1.01260527517622e+005,-2.09317753269468e+001,-3.33398412552124e+000

1.02674071805032e+005,-2.09319003432233e+001,-3.38050697170837e+000

1.04107348435354e+005,-2.09320288704381e+001,-3.42767849578033e+000

1.05560632861831e+005,-2.09321610070839e+001,-3.47550772084907e+000

1.07034204382888e+005,-2.09322968544097e+001,-3.52400379462587e+000

1.08528346195813e+005,-2.09324365164987e+001,-3.57317599110155e+000

1.10043345451179e+005,-2.09325801003466e+001,-3.62303371225033e+000

1.11579493308032e+005,-2.09327277159424e+001,-3.67358648975375e+000

1.13137084989847e+005,-2.09328794763527e+001,-3.72484398674651e+000

1.14716419841265e+005,-2.09330354978064e+001,-3.77681599958262e+000

1.16317801385624e+005,-2.09331958997834e+001,-3.82951245962606e+000

1.17941537383287e+005,-2.09333608051046e+001,-3.88294343505991e+000

1.19587939890794e+005,-2.09335303400250e+001,-3.93711913272139e+000

1.21257325320831e+005,-2.09337046343290e+001,-3.99204989995589e+000

1.22950014503040e+005,-2.09338838214287e+001,-4.04774622649583e+000

1.24666332745679e+005,-2.09340680384648e+001,-4.10421874636131e+000

1.26406609898139e+005,-2.09342574264097e+001,-4.16147823978376e+000

1.28171180414339e+005,-2.09344521301742e+001,-4.21953563515269e+000

1.29960383416997e+005,-2.09346522987168e+001,-4.27840201098531e+000

1.31774562762811e+005,-2.09348580851559e+001,-4.33808859792032e+000

1.33614067108538e+005,-2.09350696468853e+001,-4.39860678073419e+000

1.35479249978003e+005,-2.09352871456925e+001,-4.45996810038220e+000

1.37370469830040e+005,-2.09355107478807e+001,-4.52218425606219e+000

1.39288090127379e+005,-2.09357406243940e+001,-4.58526710730310e+000

1.41232479406504e+005,-2.09359769509452e+001,-4.64922867607744e+000

1.43204011348474e+005,-2.09362199081487e+001,-4.71408114893740e+000

1.45203064850745e+005,-2.09364696816556e+001,-4.77983687917566e+000

1.47230024099979e+005,-2.09367264622929e+001,-4.84650838901160e+000

1.49285278645888e+005,-2.09369904462068e+001,-4.91410837180017e+000

1.51369223476094e+005,-2.09372618350097e+001,-4.98264969426648e+000

1.53482259092041e+005,-2.09375408359307e+001,-5.05214539876537e+000

1.55624791585964e+005,-2.09378276619710e+001,-5.12260870556524e+000

1.57797232718936e+005,-2.09381225320633e+001,-5.19405301515699e+000

1.59999999999999e+005,-2.09384256712346e+001,-5.26649191058728e+000

1.62233516766403e+005,-2.09387373107747e+001,-5.33993915981808e+000

1.64498212264969e+005,-2.09390576884087e+001,-5.41440871810973e+000

1.66794521734578e+005,-2.09393870484738e+001,-5.48991473043009e+000

1.69122886489819e+005,-2.09397256421010e+001,-5.56647153388837e+000

1.71483754005805e+005,-2.09400737274024e+001,-5.64409366019337e+000

1.73877578004168e+005,-2.09404315696627e+001,-5.72279583813811e+000

1.76304818540256e+005,-2.09407994415360e+001,-5.80259299610788e+000

1.78765942091554e+005,-2.09411776232479e+001,-5.88350026461459e+000

1.81261421647326e+005,-2.09415664028033e+001,-5.96553297885477e+000

1.83791736799524e+005,-2.09419660761995e+001,-6.04870668129317e+000

1.86357373834951e+005,-2.09423769476447e+001,-6.13303712427095e+000

1.88958825828723e+005,-2.09427993297827e+001,-6.21854027263786e+000

1.91596592739027e+005,-2.09432335439237e+001,-6.30523230640901e+000

1.94271181503206e+005,-2.09436799202806e+001,-6.39312962344668e+000

1.96983106135185e+005,-2.09441387982122e+001,-6.48224884216483e+000

1.99732887824256e+005,-2.09446105264723e+001,-6.57260680425851e+000

2.02521055035243e+005,-2.09450954634658e+001,-6.66422057745652e+000

2.05348143610063e+005,-2.09455939775113e+001,-6.75710745829700e+000

2.08214696870707e+005,-2.09461064471104e+001,-6.85128497492685e+000

2.11121265723661e+005,-2.09466332612247e+001,-6.94677088992306e+000

2.14068408765776e+005,-2.09471748195593e+001,-7.04358320313761e+000

2.17056692391625e+005,-2.09477315328543e+001,-7.14174015456225e+000

2.20086690902357e+005,-2.09483038231832e+001,-7.24126022721767e+000

2.23158986616063e+005,-2.09488921242599e+001,-7.34216215006150e+000

2.26274169979693e+005,-2.09494968817531e+001,-7.44446490091838e+000

2.29432839682530e+005,-2.09501185536088e+001,-7.54818770942890e+000

2.32635602771247e+005,-2.09507576103813e+001,-7.65335006002009e+000

2.35883074766574e+005,-2.09514145355728e+001,-7.75997169489299e+000

2.39175879781588e+005,-2.09520898259814e+001,-7.86807261702930e+000

2.42514650641661e+005,-2.09527839920584e+001,-7.97767309321675e+000

2.45900029006080e+005,-2.09534975582743e+001,-8.08879365708924e+000

2.49332665491357e+005,-2.09542310634942e+001,-8.20145511218576e+000

2.52813219796278e+005,-2.09549850613630e+001,-8.31567853502258e+000

2.56342360828676e+005,-2.09557601207001e+001,-8.43148527818141e+000

2.59920766833993e+005,-2.09565568259039e+001,-8.54889697341012e+000

2.63549125525621e+005,-2.09573757773669e+001,-8.66793553473680e+000

2.67228134217075e+005,-2.09582175919006e+001,-8.78862316159516e+000

2.70958499956006e+005,-2.09590829031713e+001,-8.91098234196053e+000

2.74740939660078e+005,-2.09599723621469e+001,-9.03503585549489e+000

2.78576180254757e+005,-2.09608866375544e+001,-9.16080677670059e+000

2.82464958813007e+005,-2.09618264163488e+001,-9.28831847808018e+000

2.86408022696948e+005,-2.09627924041935e+001,-9.41759463330215e+000

2.90406129701488e+005,-2.09637853259523e+001,-9.54865922037102e+000

2.94460048199957e+005,-2.09648059261937e+001,-9.68153652479941e+000

2.98570557291775e+005,-2.09658549697070e+001,-9.81625114278095e+000

3.02738446952187e+005,-2.09669332420312e+001,-9.95282798436335e+000

3.06964518184081e+005,-2.09680415499960e+001,-1.00912922766182e+001

3.11249583171928e+005,-2.09691807222765e+001,-1.02316695668069e+001

3.15594465437872e+005,-2.09703516099600e+001,-1.03739857255406e+001

3.19999999999997e+005,-2.09715550871276e+001,-1.05182669499309e+001

3.24467033532806e+005,-2.09727920514477e+001,-1.06645397667319e+001

3.28996424529938e+005,-2.09740634247848e+001,-1.08128310354682e+001

3.33589043469155e+005,-2.09753701538217e+001,-1.09631679515492e+001

3.38245772979638e+005,-2.09767132106959e+001,-1.11155780493655e+001

3.42967508011610e+005,-2.09780935936509e+001,-1.12700892053659e+001

3.47755156008335e+005,-2.09795123277022e+001,-1.14267296411121e+001

3.52609637080511e+005,-2.09809704653179e+001,-1.15855279263077e+001

3.57531884183106e+005,-2.09824690871154e+001,-1.17465129818005e+001

3.62522843294651e+005,-2.09840093025722e+001,-1.19097140825522e+001

3.67583473599047e+005,-2.09855922507540e+001,-1.20751608605758e+001

3.72714747669902e+005,-2.09872191010571e+001,-1.22428833078339e+001

3.77917651657445e+005,-2.09888910539677e+001,-1.24129117790983e+001

3.83193185478053e+005,-2.09906093418376e+001,-1.25852769947636e+001

3.88542363006410e+005,-2.09923752296758e+001,-1.27600100436145e+001

3.93966212270369e+005,-2.09941900159567e+001,-1.29371423855403e+001

3.99465775648511e+005,-2.09960550334460e+001,-1.31167058541949e+001

4.05042110070485e+005,-2.09979716500425e+001,-1.32987326595967e+001

4.10696287220124e+005,-2.09999412696373e+001,-1.34832553906645e+001

4.16429393741414e+005,-2.10019653329906e+001,-1.36703070176854e+001

4.22242531447321e+005,-2.10040453186257e+001,-1.38599208947104e+001

4.28136817531551e+005,-2.10061827437399e+001,-1.40521307618713e+001

4.34113384783250e+005,-2.10083791651340e+001,-1.42469707476166e+001

4.40173381804713e+005,-2.10106361801588e+001,-1.44444753708586e+001

4.46317973232124e+005,-2.10129554276790e+001,-1.46446795430293e+001

4.52548339959385e+005,-2.10153385890557e+001,-1.48476185700368e+001

4.58865679365059e+005,-2.10177873891459e+001,-1.50533281541190e+001

4.65271205542494e+005,-2.10203035973202e+001,-1.52618443955876e+001

4.71766149533147e+005,-2.10228890284982e+001,-1.54732037944567e+001

4.78351759563174e+005,-2.10255455442011e+001,-1.56874432519497e+001

4.85029301283321e+005,-2.10282750536224e+001,-1.59046000718794e+001

4.91800058012158e+005,-2.10310795147161e+001,-1.61247119618918e+001

4.98665330982714e+005,-2.10339609353020e+001,-1.63478170345712e+001

5.05626439592555e+005,-2.10369213741878e+001,-1.65739538083961e+001

5.12684721657352e+005,-2.10399629423093e+001,-1.68031612085399e+001

5.19841533667984e+005,-2.10430878038859e+001,-1.70354785675105e+001

5.27098251051240e+005,-2.10462981775936e+001,-1.72709456256194e+001

5.34456268434150e+005,-2.10495963377535e+001,-1.75096025312736e+001

5.41916999912011e+005,-2.10529846155363e+001,-1.77514898410826e+001

