Freq.,VOut,OutRef

1.00000000000000e+004,-2.56771376559479e+001,-3.97616148318475e-001

1.01395947979003e+004,-2.56771397984944e+001,-4.03166625470589e-001

1.02811382665607e+004,-2.56771420012750e+001,-4.08794582807275e-001

1.04246576084112e+004,-2.56771442659831e+001,-4.14501101843366e-001

1.05701804056138e+004,-2.56771465943598e+001,-4.20287279188488e-001

1.07177346253629e+004,-2.56771489881949e+001,-4.26154226759041e-001

1.08673486252606e+004,-2.56771514493286e+001,-4.32103071987802e-001

1.10190511587661e+004,-2.56771539796528e+001,-4.38134958044792e-001

1.11728713807222e+004,-2.56771565811128e+001,-4.44251044052661e-001

1.13288388529580e+004,-2.56771592557083e+001,-4.50452505312826e-001

1.14869835499703e+004,-2.56771620054954e+001,-4.56740533528817e-001

1.16473358646846e+004,-2.56771648325878e+001,-4.63116337036784e-001

1.18099266142953e+004,-2.56771677391590e+001,-4.69581141034885e-001

1.19747870461893e+004,-2.56771707274431e+001,-4.76136187822764e-001

1.21419488439505e+004,-2.56771737997374e+001,-4.82782737034987e-001

1.23114441334492e+004,-2.56771769584036e+001,-4.89522065886996e-001

1.24833054890161e+004,-2.56771802058699e+001,-4.96355469417918e-001

1.26575659397028e+004,-2.56771835446325e+001,-5.03284260741427e-001

1.28342589756290e+004,-2.56771869772581e+001,-5.10309771295250e-001

1.30134185544193e+004,-2.56771905063854e+001,-5.17433351098050e-001

1.31950791077289e+004,-2.56771941347273e+001,-5.24656369008626e-001

1.33792755478611e+004,-2.56771978650730e+001,-5.31980212988144e-001

1.35660432744767e+004,-2.56772017002898e+001,-5.39406290368194e-001

1.37554181813974e+004,-2.56772056433261e+001,-5.46936028117937e-001

1.39474366635040e+004,-2.56772096972130e+001,-5.54570873120665e-001

1.41421356237309e+004,-2.56772138650665e+001,-5.62312292451162e-001

1.43395524801583e+004,-2.56772181500905e+001,-5.70161773655612e-001

1.45397251732031e+004,-2.56772225555790e+001,-5.78120825037723e-001

1.47426921729110e+004,-2.56772270849184e+001,-5.86190975950082e-001

1.49484924863494e+004,-2.56772317415905e+001,-5.94373777084884e-001

1.51571656651040e+004,-2.56772365291747e+001,-6.02670800773038e-001

1.53687518128801e+004,-2.56772414513513e+001,-6.11083641286005e-001

1.55832915932100e+004,-2.56772465119039e+001,-6.19613915140849e-001

1.58008262372675e+004,-2.56772517147223e+001,-6.28263261411042e-001

1.60213975517924e+004,-2.56772570638061e+001,-6.37033342040353e-001

1.62450479271247e+004,-2.56772625632668e+001,-6.45925842162437e-001

1.64718203453514e+004,-2.56772682173320e+001,-6.54942470422630e-001

1.67017583885674e+004,-2.56772740303476e+001,-6.64084959308272e-001

1.69349062472505e+004,-2.56772800067819e+001,-6.73355065479139e-001

1.71713087287550e+004,-2.56772861512290e+001,-6.82754570104122e-001

1.74110112659224e+004,-2.56772924684118e+001,-6.92285279203759e-001

1.76540599258131e+004,-2.56772989631861e+001,-7.01949023996274e-001

1.79005014185594e+004,-2.56773056405443e+001,-7.11747661249562e-001

1.81503831063432e+004,-2.56773125056189e+001,-7.21683073635325e-001

1.84037530124975e+004,-2.56773195636868e+001,-7.31757170092578e-001

1.86606598307361e+004,-2.56773268201732e+001,-7.41971886190737e-001

1.89211529345119e+004,-2.56773342806558e+001,-7.52329184504197e-001

1.91852823865052e+004,-2.56773419508690e+001,-7.62831054985518e-001

1.94530989482457e+004,-2.56773498367086e+001,-7.73479515348292e-001

1.97246540898671e+004,-2.56773579442358e+001,-7.84276611453543e-001

1.99999999999999e+004,-2.56773662796824e+001,-7.95224417702473e-001

2.02791895958005e+004,-2.56773748494552e+001,-8.06325037433629e-001

2.05622765331213e+004,-2.56773836601412e+001,-8.17580603325390e-001

2.08493152168224e+004,-2.56773927185125e+001,-8.28993277806470e-001

2.11403608112276e+004,-2.56774020315315e+001,-8.40565253466939e-001

2.14354692507258e+004,-2.56774116063563e+001,-8.52298753482656e-001

2.17346972505211e+004,-2.56774214503461e+001,-8.64196032037463e-001

2.20381023175322e+004,-2.56774315710672e+001,-8.76259374757230e-001

2.23457427614443e+004,-2.56774419762983e+001,-8.88491099145842e-001

2.26576777059159e+004,-2.56774526740369e+001,-9.00893555031471e-001

2.29739670999406e+004,-2.56774636725049e+001,-9.13469125014807e-001

2.32946717293690e+004,-2.56774749801559e+001,-9.26220224924706e-001

2.36198532285905e+004,-2.56774866056804e+001,-9.39149304283632e-001

2.39495740923785e+004,-2.56774985580136e+001,-9.52258846773161e-001

2.42838976879009e+004,-2.56775108463417e+001,-9.65551370711676e-001

2.46228882668982e+004,-2.56775234801090e+001,-9.79029429536288e-001

2.49666109780322e+004,-2.56775364690253e+001,-9.92695612289332e-001

2.53151318794055e+004,-2.56775498230732e+001,-1.00655254411757e+000

2.56685179512580e+004,-2.56775635525157e+001,-1.02060288677096e+000

2.60268371088386e+004,-2.56775776679047e+001,-1.03484933911402e+000

2.63901582154578e+004,-2.56775921800880e+001,-1.04929463764078e+000

2.67585510957221e+004,-2.56776071002187e+001,-1.06394155699985e+000

2.71320865489533e+004,-2.56776224397632e+001,-1.07879291052247e+000

2.75108363627948e+004,-2.56776382105099e+001,-1.09385155076425e+000

2.78948733270080e+004,-2.56776544245788e+001,-1.10912037004620e+000

2.82842712474618e+004,-2.56776710944303e+001,-1.12460230101064e+000

2.86791049603164e+004,-2.56776882328748e+001,-1.14030031718087e+000

2.90794503464061e+004,-2.56777058530829e+001,-1.15621743352968e+000

2.94853843458219e+004,-2.56777239685953e+001,-1.17235670705407e+000

2.98969849726987e+004,-2.56777425933329e+001,-1.18872123736141e+000

3.03143313302078e+004,-2.56777617416081e+001,-1.20531416725992e+000

3.07375036257601e+004,-2.56777814281351e+001,-1.22213868335925e+000

3.11665831864199e+004,-2.56778016680416e+001,-1.23919801667980e+000

3.16016524745350e+004,-2.56778224768806e+001,-1.25649544326737e+000

3.20427951035848e+004,-2.56778438706420e+001,-1.27403428482113e+000

3.24900958542493e+004,-2.56778658657646e+001,-1.29181790932586e+000

3.29436406907028e+004,-2.56778884791494e+001,-1.30984973169482e+000

3.34035167771346e+004,-2.56779117281722e+001,-1.32813321442158e+000

3.38698124945009e+004,-2.56779356306970e+001,-1.34667186823938e+000

3.43426174575100e+004,-2.56779602050893e+001,-1.36546925279236e+000

3.48220225318448e+004,-2.56779854702310e+001,-1.38452897731201e+000

3.53081198516260e+004,-2.56780114455342e+001,-1.40385470130708e+000

3.58010028371187e+004,-2.56780381509564e+001,-1.42345013525883e+000

3.63007662126863e+004,-2.56780656070156e+001,-1.44331904132975e+000

3.68075060249948e+004,-2.56780938348064e+001,-1.46346523407853e+000

3.73213196614721e+004,-2.56781228560158e+001,-1.48389258118805e+000

3.78423058690237e+004,-2.56781526929398e+001,-1.50460500420011e+000

3.83705647730104e+004,-2.56781833685011e+001,-1.52560647926163e+000

3.89061978964912e+004,-2.56782149062660e+001,-1.54690103788287e+000

3.94493081797342e+004,-2.56782473304625e+001,-1.56849276770186e+000

3.99999999999998e+004,-2.56782806659995e+001,-1.59038581326430e+000

4.05583791916010e+004,-2.56783149384853e+001,-1.61258437680801e+000

4.11245530662425e+004,-2.56783501742471e+001,-1.63509271906514e+000

4.16986304336447e+004,-2.56783864003521e+001,-1.65791516006814e+000

4.22807216224550e+004,-2.56784236446272e+001,-1.68105607997246e+000

4.28709385014515e+004,-2.56784619356808e+001,-1.70451991988730e+000

4.34693945010421e+004,-2.56785013029247e+001,-1.72831118271856e+000

4.40762046350642e+004,-2.56785417765967e+001,-1.75243443402190e+000

4.46914855228886e+004,-2.56785833877836e+001,-1.77689430287048e+000

4.53153554118317e+004,-2.56786261684449e+001,-1.80169548273089e+000

4.59479341998812e+004,-2.56786701514378e+001,-1.82684273235319e+000

4.65893434587380e+004,-2.56787153705418e+001,-1.85234087667243e+000

4.72397064571810e+004,-2.56787618604847e+001,-1.87819480772089e+000

4.78991481847569e+004,-2.56788096569695e+001,-1.90440948555598e+000

4.85677953758016e+004,-2.56788587967014e+001,-1.93098993919659e+000

4.92457765337964e+004,-2.56789093174160e+001,-1.95794126757513e+000

4.99332219560642e+004,-2.56789612579082e+001,-1.98526864050099e+000

5.06302637588109e+004,-2.56790146580618e+001,-2.01297729963659e+000

5.13370359025159e+004,-2.56790695588801e+001,-2.04107255948818e+000

5.20536742176771e+004,-2.56791260025175e+001,-2.06955980840775e+000

5.27803164309155e+004,-2.56791840323112e+001,-2.09844450961004e+000

5.35171021914442e+004,-2.56792436928148e+001,-2.12773220220195e+000

5.42641730979066e+004,-2.56793050298322e+001,-2.15742850222689e+000

5.50216727255895e+004,-2.56793680904527e+001,-2.18753910372223e+000

5.57897466540159e+004,-2.56794329230869e+001,-2.21806977978973e+000

5.65685424949235e+004,-2.56794995775038e+001,-2.24902638368396e+000

5.73582099206328e+004,-2.56795681048687e+001,-2.28041484990998e+000

5.81589006928121e+004,-2.56796385577827e+001,-2.31224119533941e+000

5.89707686916437e+004,-2.56797109903221e+001,-2.34451152034072e+000

5.97939699453972e+004,-2.56797854580806e+001,-2.37723200992208e+000

6.06286626604156e+004,-2.56798620182112e+001,-2.41040893489247e+000

6.14750072515201e+004,-2.56799407294699e+001,-2.44404865303587e+000

6.23331663728396e+004,-2.56800216522610e+001,-2.47815761030181e+000

6.32033049490698e+004,-2.56801048486826e+001,-2.51274234201056e+000

6.40855902071694e+004,-2.56801903825741e+001,-2.54780947407634e+000

6.49801917084985e+004,-2.56802783195655e+001,-2.58336572424342e+000

6.58872813814055e+004,-2.56803687271267e+001,-2.61941790334065e+000

6.68070335542691e+004,-2.56804616746194e+001,-2.65597291655203e+000

6.77396249890018e+004,-2.56805572333499e+001,-2.69303776470225e+000

6.86852349150199e+004,-2.56806554766235e+001,-2.73061954556062e+000

6.96440450636895e+004,-2.56807564798003e+001,-2.76872545516114e+000

7.06162397032520e+004,-2.56808603203524e+001,-2.80736278913968e+000

7.16020056742374e+004,-2.56809670779235e+001,-2.84653894408805e+000

7.26015324253724e+004,-2.56810768343890e+001,-2.88626141892585e+000

7.36150120499896e+004,-2.56811896739187e+001,-2.92653781629043e+000

7.46426393229441e+004,-2.56813056830406e+001,-2.96737584394268e+000

7.56846117380472e+004,-2.56814249507070e+001,-3.00878331619275e+000

7.67411295460207e+004,-2.56815475683618e+001,-3.05076815534358e+000

7.78123957929823e+004,-2.56816736300105e+001,-3.09333839315084e+000

7.88986163594682e+004,-2.56818032322914e+001,-3.13650217230414e+000

7.99999999999995e+004,-2.56819364745492e+001,-3.18026774792472e+000

8.11167583832018e+004,-2.56820734589101e+001,-3.22464348908250e+000

8.22491061324848e+004,-2.56822142903600e+001,-3.26963788033247e+000

8.33972608672892e+004,-2.56823590768238e+001,-3.31525952327033e+000

8.45614432449099e+004,-2.56825079292471e+001,-3.36151713810700e+000

8.57418770029029e+004,-2.56826609616812e+001,-3.40841956526174e+000

8.69387890020841e+004,-2.56828182913687e+001,-3.45597576697786e+000

8.81524092701283e+004,-2.56829800388329e+001,-3.50419482895431e+000

8.93829710457770e+004,-2.56831463279690e+001,-3.55308596200071e+000

9.06307108236633e+004,-2.56833172861380e+001,-3.60265850371044e+000

9.18958683997622e+004,-2.56834930442633e+001,-3.65292192015452e+000

9.31786869174758e+004,-2.56836737369294e+001,-3.70388580759651e+000

9.44794129143618e+004,-2.56838595024841e+001,-3.75555989422723e+000

9.57982963695136e+004,-2.56840504831429e+001,-3.80795404192084e+000

9.71355907516031e+004,-2.56842468250969e+001,-3.86107824801135e+000

9.84915530675926e+004,-2.56844486786226e+001,-3.91494264709074e+000

9.98664439121282e+004,-2.56846561981960e+001,-3.96955751282735e+000

1.01260527517622e+005,-2.56848695426089e+001,-4.02493325980676e+000

1.02674071805032e+005,-2.56850888750888e+001,-4.08108044539281e+000

1.04107348435354e+005,-2.56853143634220e+001,-4.13800977161161e+000

1.05560632861831e+005,-2.56855461800798e+001,-4.19573208705572e+000

1.07034204382888e+005,-2.56857845023487e+001,-4.25425838881172e+000

1.08528346195813e+005,-2.56860295124640e+001,-4.31359982440755e+000

1.10043345451179e+005,-2.56862813977462e+001,-4.37376769378466e+000

1.11579493308032e+005,-2.56865403507427e+001,-4.43477345128893e+000

1.13137084989847e+005,-2.56868065693718e+001,-4.49662870768727e+000

1.14716419841265e+005,-2.56870802570719e+001,-4.55934523220280e+000

1.16317801385624e+005,-2.56873616229536e+001,-4.62293495457622e+000

1.17941537383287e+005,-2.56876508819568e+001,-4.68740996714528e+000

1.19587939890794e+005,-2.56879482550118e+001,-4.75278252695106e+000

1.21257325320831e+005,-2.56882539692046e+001,-4.81906505786266e+000

1.22950014503040e+005,-2.56885682579470e+001,-4.88627015272698e+000

1.24666332745679e+005,-2.56888913611509e+001,-4.95441057554045e+000

1.26406609898139e+005,-2.56892235254076e+001,-5.02349926364263e+000

1.28171180414339e+005,-2.56895650041720e+001,-5.09354932993204e+000

1.29960383416997e+005,-2.56899160579517e+001,-5.16457406510631e+000

1.31774562762811e+005,-2.56902769545006e+001,-5.23658693992180e+000

1.33614067108538e+005,-2.56906479690192e+001,-5.30960160747868e+000

1.35479249978003e+005,-2.56910293843583e+001,-5.38363190552579e+000

1.37370469830040e+005,-2.56914214912299e+001,-5.45869185878921e+000

1.39288090127379e+005,-2.56918245884229e+001,-5.53479568132212e+000

1.41232479406504e+005,-2.56922389830244e+001,-5.61195777887776e+000

1.43204011348474e+005,-2.56926649906479e+001,-5.69019275130170e+000

1.45203064850745e+005,-2.56931029356663e+001,-5.76951539494933e+000

1.47230024099979e+005,-2.56935531514519e+001,-5.84994070512222e+000

1.49285278645888e+005,-2.56940159806230e+001,-5.93148387852675e+000

1.51369223476094e+005,-2.56944917752961e+001,-6.01416031575314e+000

1.53482259092041e+005,-2.56949808973458e+001,-6.09798562377698e+000

1.55624791585964e+005,-2.56954837186711e+001,-6.18297561847904e+000

1.57797232718936e+005,-2.56960006214683e+001,-6.26914632718737e+000

1.59999999999999e+005,-2.56965319985125e+001,-6.35651399123781e+000

1.62233516766403e+005,-2.56970782534446e+001,-6.44509506855558e+000

1.64498212264969e+005,-2.56976398010675e+001,-6.53490623625408e+000

1.66794521734578e+005,-2.56982170676491e+001,-6.62596439325492e+000

1.69122886489819e+005,-2.56988104912337e+001,-6.71828666292405e+000

1.71483754005805e+005,-2.56994205219613e+001,-6.81189039572696e+000

1.73877578004168e+005,-2.57000476223951e+001,-6.90679317190146e+000

1.76304818540256e+005,-2.57006922678580e+001,-7.00301280414627e+000

1.78765942091554e+005,-2.57013549467773e+001,-7.10056734032633e+000

1.81261421647326e+005,-2.57020361610387e+001,-7.19947506619409e+000

1.83791736799524e+005,-2.57027364263489e+001,-7.29975450812462e+000

1.86357373834951e+005,-2.57034562726087e+001,-7.40142443586611e+000

1.88958825828723e+005,-2.57041962442939e+001,-7.50450386530293e+000

1.91596592739027e+005,-2.57049569008477e+001,-7.60901206123172e+000

1.94271181503206e+005,-2.57057388170819e+001,-7.71496854014875e+000

1.96983106135185e+005,-2.57065425835891e+001,-7.82239307304868e+000

1.99732887824256e+005,-2.57073688071647e+001,-7.93130568823324e+000

2.02521055035243e+005,-2.57082181112403e+001,-8.04172667412754e+000

2.05348143610063e+005,-2.57090911363271e+001,-8.15367658210605e+000

2.08214696870707e+005,-2.57099885404715e+001,-8.26717622932330e+000

2.11121265723661e+005,-2.57109109997213e+001,-8.38224670155152e+000

2.14068408765776e+005,-2.57118592086037e+001,-8.49890935602172e+000

2.17056692391625e+005,-2.57128338806156e+001,-8.61718582426733e+000

2.20086690902357e+005,-2.57138357487259e+001,-8.73709801496985e+000

2.23158986616063e+005,-2.57148655658891e+001,-8.85866811680448e+000

2.26274169979693e+005,-2.57159241055736e+001,-8.98191860128322e+000

2.29432839682530e+005,-2.57170121623011e+001,-9.10687222559593e+000

2.32635602771247e+005,-2.57181305521998e+001,-9.23355203544605e+000

2.35883074766574e+005,-2.57192801135715e+001,-9.36198136787870e+000

2.39175879781588e+005,-2.57204617074715e+001,-9.49218385410166e+000

2.42514650641661e+005,-2.57216762183026e+001,-9.62418342229472e+000

2.45900029006080e+005,-2.57229245544244e+001,-9.75800430040693e+000

2.49332665491357e+005,-2.57242076487752e+001,-9.89367101893833e+000

2.52813219796278e+005,-2.57255264595103e+001,-1.00312084137059e+001

2.56342360828676e+005,-2.57268819706543e+001,-1.01706416285885e+001

2.59920766833993e+005,-2.57282751927690e+001,-1.03119961182514e+001

2.63549125525621e+005,-2.57297071636368e+001,-1.04552976508456e+001

2.67228134217075e+005,-2.57311789489597e+001,-1.06005723106801e+001

2.70958499956006e+005,-2.57326916430748e+001,-1.07478465008644e+001

2.74740939660078e+005,-2.57342463696853e+001,-1.08971469459178e+001

2.78576180254757e+005,-2.57358442826088e+001,-1.10485006943439e+001

2.82464958813007e+005,-2.57374865665419e+001,-1.12019351211641e+001

2.86408022696948e+005,-2.57391744378424e+001,-1.13574779304107e+001

2.90406129701488e+005,-2.57409091453276e+001,-1.15151571575736e+001

2.94460048199957e+005,-2.57426919710920e+001,-1.16750011719962e+001

2.98570557291775e+005,-2.57445242313404e+001,-1.18370386792211e+001

3.02738446952187e+005,-2.57464072772415e+001,-1.20012987232762e+001

3.06964518184081e+005,-2.57483424957973e+001,-1.21678106889012e+001

3.11249583171928e+005,-2.57503313107327e+001,-1.23366043037086e+001

3.15594465437872e+005,-2.57523751834026e+001,-1.25077096402760e+001

3.19999999999997e+005,-2.57544756137183e+001,-1.26811571181631e+001

3.24467033532806e+005,-2.57566341410928e+001,-1.28569775058517e+001

3.28996424529938e+005,-2.57588523454047e+001,-1.30352019226015e+001

3.33589043469155e+005,-2.57611318479822e+001,-1.32158618402174e+001

3.38245772979638e+005,-2.57634743126060e+001,-1.33989890847247e+001

3.42967508011610e+005,-2.57658814465312e+001,-1.35846158379435e+001

3.47755156008335e+005,-2.57683550015305e+001,-1.37727746389607e+001

3.52609637080511e+005,-2.57708967749548e+001,-1.39634983854910e+001

3.57531884183106e+005,-2.57735086108156e+001,-1.41568203351220e+001

3.62522843294651e+005,-2.57761924008859e+001,-1.43527741064381e+001

3.67583473599047e+005,-2.57789500858214e+001,-1.45513936800157e+001

3.72714747669902e+005,-2.57817836563017e+001,-1.47527133992839e+001

3.77917651657445e+005,-2.57846951541908e+001,-1.49567679712441e+001

3.83193185478053e+005,-2.57876866737177e+001,-1.51635924670413e+001

3.88542363006410e+005,-2.57907603626762e+001,-1.53732223223802e+001

3.93966212270369e+005,-2.57939184236449e+001,-1.55856933377799e+001

3.99465775648511e+005,-2.57971631152257e+001,-1.58010416786571e+001

4.05042110070485e+005,-2.58004967533017e+001,-1.60193038752339e+001

4.10696287220124e+005,-2.58039217123145e+001,-1.62405168222589e+001

4.16429393741414e+005,-2.58074404265596e+001,-1.64647177785355e+001

4.22242531447321e+005,-2.58110553914998e+001,-1.66919443662493e+001

4.28136817531551e+005,-2.58147691650974e+001,-1.69222345700849e+001

4.34113384783250e+005,-2.58185843691631e+001,-1.71556267361247e+001

4.40173381804713e+005,-2.58225036907224e+001,-1.73921595705205e+001

4.46317973232124e+005,-2.58265298833983e+001,-1.76318721379288e+001

4.52548339959385e+005,-2.58306657688099e+001,-1.78748038597008e+001

4.58865679365059e+005,-2.58349142379868e+001,-1.81209945118180e+001

4.65271205542494e+005,-2.58392782527970e+001,-1.83704842225639e+001

4.71766149533147e+005,-2.58437608473900e+001,-1.86233134699215e+001

4.78351759563174e+005,-2.58483651296516e+001,-1.88795230786875e+001

4.85029301283321e+005,-2.58530942826717e+001,-1.91391542172948e+001

4.91800058012158e+005,-2.58579515662230e+001,-1.94022483943287e+001

4.98665330982714e+005,-2.58629403182489e+001,-1.96688474547328e+001

5.05626439592555e+005,-2.58680639563617e+001,-1.99389935756891e+001

5.12684721657352e+005,-2.58733259793474e+001,-2.02127292621660e+001

5.19841533667984e+005,-2.58787299686770e+001,-2.04900973421203e+001

5.27098251051240e+005,-2.58842795900231e+001,-2.07711409613466e+001

5.34456268434150e+005,-2.58899785947794e+001,-2.10559035779602e+001

5.41916999912011e+005,-2.58958308215824e+001,-2.13444289565054e+001

