Freq.,VOut,OutRef

1.00000000000000e+004,-2.28931380586435e+001,-4.01917062246201e-001

1.01395947979003e+004,-2.28931400727743e+001,-4.07527580184726e-001

1.02811382665607e+004,-2.28931421435292e+001,-4.13216416540814e-001

1.04246576084112e+004,-2.28931442724999e+001,-4.18984664536182e-001

1.05701804056138e+004,-2.28931464613231e+001,-4.24833432650019e-001

1.07177346253629e+004,-2.28931487116814e+001,-4.30763844832619e-001

1.08673486252606e+004,-2.28931510253048e+001,-4.36777040719551e-001

1.10190511587661e+004,-2.28931534039717e+001,-4.42874175855080e-001

1.11728713807222e+004,-2.28931558495108e+001,-4.49056421907897e-001

1.13288388529580e+004,-2.28931583638020e+001,-4.55324966901837e-001

1.14869835499703e+004,-2.28931609487781e+001,-4.61681015439869e-001

1.16473358646846e+004,-2.28931636064262e+001,-4.68125788937292e-001

1.18099266142953e+004,-2.28931663387894e+001,-4.74660525856558e-001

1.19747870461893e+004,-2.28931691479682e+001,-4.81286481943603e-001

1.21419488439505e+004,-2.28931720361219e+001,-4.88004930471159e-001

1.23114441334492e+004,-2.28931750054707e+001,-4.94817162480870e-001

1.24833054890161e+004,-2.28931780582973e+001,-5.01724487031801e-001

1.26575659397028e+004,-2.28931811969484e+001,-5.08728231453893e-001

1.28342589756290e+004,-2.28931844238368e+001,-5.15829741598881e-001

1.30134185544193e+004,-2.28931877414430e+001,-5.23030382102601e-001

1.31950791077289e+004,-2.28931911523173e+001,-5.30331536644908e-001

1.33792755478611e+004,-2.28931946590817e+001,-5.37734608215384e-001

1.35660432744767e+004,-2.28931982644318e+001,-5.45241019382545e-001

1.37554181813974e+004,-2.28932019711393e+001,-5.52852212567855e-001

1.39474366635040e+004,-2.28932057820533e+001,-5.60569650322427e-001

1.41421356237309e+004,-2.28932097001034e+001,-5.68394815606054e-001

1.43395524801583e+004,-2.28932137283014e+001,-5.76329212074032e-001

1.45397251732031e+004,-2.28932178697438e+001,-5.84374364365674e-001

1.47426921729110e+004,-2.28932221276140e+001,-5.92531818394351e-001

1.49484924863494e+004,-2.28932265051853e+001,-6.00803141647339e-001

1.51571656651040e+004,-2.28932310058224e+001,-6.09189923484353e-001

1.53687518128801e+004,-2.28932356329851e+001,-6.17693775444801e-001

1.55832915932100e+004,-2.28932403902302e+001,-6.26316331554138e-001

1.58008262372675e+004,-2.28932452812144e+001,-6.35059248640593e-001

1.60213975517924e+004,-2.28932503096976e+001,-6.43924206649146e-001

1.62450479271247e+004,-2.28932554795450e+001,-6.52912908968716e-001

1.64718203453514e+004,-2.28932607947304e+001,-6.62027082755279e-001

1.67017583885674e+004,-2.28932662593396e+001,-6.71268479264627e-001

1.69349062472505e+004,-2.28932718775732e+001,-6.80638874186635e-001

1.71713087287550e+004,-2.28932776537495e+001,-6.90140067990458e-001

1.74110112659224e+004,-2.28932835923089e+001,-6.99773886263387e-001

1.76540599258131e+004,-2.28932896978158e+001,-7.09542180066868e-001

1.79005014185594e+004,-2.28932959749634e+001,-7.19446826288168e-001

1.81503831063432e+004,-2.28933024285767e+001,-7.29489728001307e-001

1.84037530124975e+004,-2.28933090636164e+001,-7.39672814832185e-001

1.86606598307361e+004,-2.28933158851823e+001,-7.49998043328818e-001

1.89211529345119e+004,-2.28933228985181e+001,-7.60467397334933e-001

1.91852823865052e+004,-2.28933301090144e+001,-7.71082888373094e-001

1.94530989482457e+004,-2.28933375222136e+001,-7.81846556027262e-001

1.97246540898671e+004,-2.28933451438137e+001,-7.92760468337661e-001

1.99999999999999e+004,-2.28933529796729e+001,-8.03826722192694e-001

2.02791895958005e+004,-2.28933610358143e+001,-8.15047443734718e-001

2.05622765331213e+004,-2.28933693184298e+001,-8.26424788765765e-001

2.08493152168224e+004,-2.28933778338858e+001,-8.37960943160902e-001

2.11403608112276e+004,-2.28933865887275e+001,-8.49658123286966e-001

2.14354692507258e+004,-2.28933955896837e+001,-8.61518576428942e-001

2.17346972505211e+004,-2.28934048436731e+001,-8.73544581217710e-001

2.20381023175322e+004,-2.28934143578080e+001,-8.85738448069526e-001

2.23457427614443e+004,-2.28934241394011e+001,-8.98102519626848e-001

2.26576777059159e+004,-2.28934341959705e+001,-9.10639171207886e-001

2.29739670999406e+004,-2.28934445352456e+001,-9.23350811261173e-001

2.32946717293690e+004,-2.28934551651730e+001,-9.36239881827514e-001

2.36198532285905e+004,-2.28934660939228e+001,-9.49308859006754e-001

2.39495740923785e+004,-2.28934773298944e+001,-9.62560253432974e-001

2.42838976879009e+004,-2.28934888817236e+001,-9.75996610754271e-001

2.46228882668982e+004,-2.28935007582886e+001,-9.89620512121149e-001

2.49666109780322e+004,-2.28935129687173e+001,-1.00343457467992e+000

2.53151318794055e+004,-2.28935255223941e+001,-1.01744145207380e+000

2.56685179512580e+004,-2.28935384289670e+001,-1.03164383495140e+000

2.60268371088386e+004,-2.28935516983552e+001,-1.04604445148058e+000

2.63901582154578e+004,-2.28935653407568e+001,-1.06064606787180e+000

2.67585510957221e+004,-2.28935793666563e+001,-1.07545148890571e+000

2.71320865489533e+004,-2.28935937868329e+001,-1.09046355847167e+000

2.75108363627948e+004,-2.28936086123687e+001,-1.10568516011020e+000

2.78948733270080e+004,-2.28936238546571e+001,-1.12111921756581e+000

2.82842712474618e+004,-2.28936395254119e+001,-1.13676869534440e+000

2.86791049603164e+004,-2.28936556366758e+001,-1.15263659928234e+000

2.90794503464061e+004,-2.28936722008302e+001,-1.16872597711802e+000

2.94853843458219e+004,-2.28936892306041e+001,-1.18503991907812e+000

2.98969849726987e+004,-2.28937067390842e+001,-1.20158155846573e+000

3.03143313302078e+004,-2.28937247397252e+001,-1.21835407225909e+000

3.07375036257601e+004,-2.28937432463596e+001,-1.23536068171990e+000

3.11665831864199e+004,-2.28937622732087e+001,-1.25260465300803e+000

3.16016524745350e+004,-2.28937818348931e+001,-1.27008929780508e+000

3.20427951035848e+004,-2.28938019464446e+001,-1.28781797394690e+000

3.24900958542493e+004,-2.28938226233170e+001,-1.30579408606550e+000

3.29436406907028e+004,-2.28938438813984e+001,-1.32402108623741e+000

3.34035167771346e+004,-2.28938657370232e+001,-1.34250247464435e+000

3.38698124945009e+004,-2.28938882069850e+001,-1.36124180023968e+000

3.43426174575100e+004,-2.28939113085489e+001,-1.38024266142547e+000

3.48220225318448e+004,-2.28939350594650e+001,-1.39950870674094e+000

3.53081198516260e+004,-2.28939594779823e+001,-1.41904363555537e+000

3.58010028371187e+004,-2.28939845828623e+001,-1.43885119877546e+000

3.63007662126863e+004,-2.28940103933936e+001,-1.45893519955926e+000

3.68075060249948e+004,-2.28940369294066e+001,-1.47929949404174e+000

3.73213196614721e+004,-2.28940642112887e+001,-1.49994799206858e+000

3.78423058690237e+004,-2.28940922600000e+001,-1.52088465794190e+000

3.83705647730104e+004,-2.28941210970895e+001,-1.54211351117481e+000

3.89061978964912e+004,-2.28941507447112e+001,-1.56363862725602e+000

3.94493081797342e+004,-2.28941812256417e+001,-1.58546413842615e+000

3.99999999999998e+004,-2.28942125632970e+001,-1.60759423446491e+000

4.05583791916010e+004,-2.28942447817510e+001,-1.63003316348595e+000

4.11245530662425e+004,-2.28942779057535e+001,-1.65278523274718e+000

4.16986304336447e+004,-2.28943119607496e+001,-1.67585480946749e+000

4.22807216224550e+004,-2.28943469728988e+001,-1.69924632165852e+000

4.28709385014515e+004,-2.28943829690954e+001,-1.72296425896457e+000

4.34693945010421e+004,-2.28944199769890e+001,-1.74701317351639e+000

4.40762046350642e+004,-2.28944580250053e+001,-1.77139768079506e+000

4.46914855228886e+004,-2.28944971423686e+001,-1.79612246050835e+000

4.53153554118317e+004,-2.28945373591235e+001,-1.82119225747805e+000

4.59479341998812e+004,-2.28945787061585e+001,-1.84661188254062e+000

4.65893434587380e+004,-2.28946212152289e+001,-1.87238621345912e+000

4.72397064571810e+004,-2.28946649189821e+001,-1.89852019584732e+000

4.78991481847569e+004,-2.28947098509818e+001,-1.92501884410779e+000

4.85677953758016e+004,-2.28947560457339e+001,-1.95188724237969e+000

4.92457765337964e+004,-2.28948035387132e+001,-1.97913054550365e+000

4.99332219560642e+004,-2.28948523663902e+001,-2.00675397999454e+000

5.06302637588109e+004,-2.28949025662592e+001,-2.03476284503220e+000

5.13370359025159e+004,-2.28949541768669e+001,-2.06316251346207e+000

5.20536742176771e+004,-2.28950072378422e+001,-2.09195843281068e+000

5.27803164309155e+004,-2.28950617899258e+001,-2.12115612631457e+000

5.35171021914442e+004,-2.28951178750021e+001,-2.15076119396367e+000

5.42641730979066e+004,-2.28951755361310e+001,-2.18077931355693e+000

5.50216727255895e+004,-2.28952348175806e+001,-2.21121624177345e+000

5.57897466540159e+004,-2.28952957648615e+001,-2.24207781525708e+000

5.65685424949235e+004,-2.28953584247610e+001,-2.27336995171797e+000

5.73582099206328e+004,-2.28954228453793e+001,-2.30509865104367e+000

5.81589006928121e+004,-2.28954890761664e+001,-2.33726999643050e+000

5.89707686916437e+004,-2.28955571679593e+001,-2.36989015552650e+000

5.97939699453972e+004,-2.28956271730213e+001,-2.40296538159073e+000

6.06286626604156e+004,-2.28956991450818e+001,-2.43650201466790e+000

6.14750072515201e+004,-2.28957731393772e+001,-2.47050648277854e+000

6.23331663728396e+004,-2.28958492126935e+001,-2.50498530312347e+000

6.32033049490698e+004,-2.28959274234089e+001,-2.53994508330786e+000

6.40855902071694e+004,-2.28960078315393e+001,-2.57539252257601e+000

6.49801917084985e+004,-2.28960904987833e+001,-2.61133441306754e+000

6.58872813814055e+004,-2.28961754885697e+001,-2.64777764108664e+000

6.68070335542691e+004,-2.28962628661056e+001,-2.68472918838909e+000

6.77396249890018e+004,-2.28963526984265e+001,-2.72219613348644e+000

6.86852349150199e+004,-2.28964450544472e+001,-2.76018565296617e+000

6.96440450636895e+004,-2.28965400050141e+001,-2.79870502283051e+000

7.06162397032520e+004,-2.28966376229597e+001,-2.83776161985052e+000

7.16020056742374e+004,-2.28967379831577e+001,-2.87736292293993e+000

7.26015324253724e+004,-2.28968411625801e+001,-2.91751651454487e+000

7.36150120499896e+004,-2.28969472403560e+001,-2.95823008205372e+000

7.46426393229441e+004,-2.28970562978315e+001,-2.99951141922181e+000

7.56846117380472e+004,-2.28971684186322e+001,-3.04136842761773e+000

7.67411295460207e+004,-2.28972836887259e+001,-3.08380911808614e+000

7.78123957929823e+004,-2.28974021964891e+001,-3.12684161222963e+000

7.88986163594682e+004,-2.28975240327732e+001,-3.17047414391061e+000

7.99999999999995e+004,-2.28976492909744e+001,-3.21471506076952e+000

8.11167583832018e+004,-2.28977780671039e+001,-3.25957282576580e+000

8.22491061324848e+004,-2.28979104598615e+001,-3.30505601873525e+000

8.33972608672892e+004,-2.28980465707102e+001,-3.35117333796828e+000

8.45614432449099e+004,-2.28981865039533e+001,-3.39793360180880e+000

8.57418770029029e+004,-2.28983303668137e+001,-3.44534575027076e+000

8.69387890020841e+004,-2.28984782695149e+001,-3.49341884667764e+000

8.81524092701283e+004,-2.28986303253650e+001,-3.54216207931948e+000

8.93829710457770e+004,-2.28987866508423e+001,-3.59158476313270e+000

9.06307108236633e+004,-2.28989473656837e+001,-3.64169634139900e+000

9.18958683997622e+004,-2.28991125929755e+001,-3.69250638746615e+000

9.31786869174758e+004,-2.28992824592462e+001,-3.74402460648910e+000

9.44794129143618e+004,-2.28994570945627e+001,-3.79626083719310e+000

9.57982963695136e+004,-2.28996366326285e+001,-3.84922505365654e+000

9.71355907516031e+004,-2.28998212108848e+001,-3.90292736711761e+000

9.84915530675926e+004,-2.29000109706144e+001,-3.95737802780057e+000

9.98664439121282e+004,-2.29002060570483e+001,-4.01258742676480e+000

1.01260527517622e+005,-2.29004066194757e+001,-4.06856609777588e+000

1.02674071805032e+005,-2.29006128113563e+001,-4.12532471919844e+000

1.04107348435354e+005,-2.29008247904363e+001,-4.18287411591134e+000

1.05560632861831e+005,-2.29010427188670e+001,-4.24122526124601e+000

1.07034204382888e+005,-2.29012667633273e+001,-4.30038927894518e+000

1.08528346195813e+005,-2.29014970951493e+001,-4.36037744514734e+000

1.10043345451179e+005,-2.29017338904466e+001,-4.42120119039128e+000

1.11579493308032e+005,-2.29019773302476e+001,-4.48287210164460e+000

1.13137084989847e+005,-2.29022276006311e+001,-4.54540192435606e+000

1.14716419841265e+005,-2.29024848928658e+001,-4.60880256452927e+000

1.16317801385624e+005,-2.29027494035548e+001,-4.67308609082054e+000

1.17941537383287e+005,-2.29030213347820e+001,-4.73826473666065e+000

1.19587939890794e+005,-2.29033008942644e+001,-4.80435090239825e+000

1.21257325320831e+005,-2.29035882955072e+001,-4.87135715746854e+000

1.22950014503040e+005,-2.29038837579642e+001,-4.93929624258349e+000

1.24666332745679e+005,-2.29041875072014e+001,-5.00818107194748e+000

1.26406609898139e+005,-2.29044997750655e+001,-5.07802473549563e+000

1.28171180414339e+005,-2.29048207998578e+001,-5.14884050115472e+000

1.29960383416997e+005,-2.29051508265113e+001,-5.22064181712950e+000

1.31774562762811e+005,-2.29054901067738e+001,-5.29344231421175e+000

1.33614067108538e+005,-2.29058388993949e+001,-5.36725580811209e+000

1.35479249978003e+005,-2.29061974703192e+001,-5.44209630181707e+000

1.37370469830040e+005,-2.29065660928836e+001,-5.51797798796805e+000

1.39288090127379e+005,-2.29069450480206e+001,-5.59491525126475e+000

1.41232479406504e+005,-2.29073346244667e+001,-5.67292267089144e+000

1.43204011348474e+005,-2.29077351189763e+001,-5.75201502296649e+000

1.45203064850745e+005,-2.29081468365420e+001,-5.83220728301550e+000

1.47230024099979e+005,-2.29085700906198e+001,-5.91351462846673e+000

1.49285278645888e+005,-2.29090052033606e+001,-5.99595244117056e+000

1.51369223476094e+005,-2.29094525058489e+001,-6.07953630994013e+000

1.53482259092041e+005,-2.29099123383457e+001,-6.16428203311578e+000

1.55624791585964e+005,-2.29103850505405e+001,-6.25020562115083e+000

1.57797232718936e+005,-2.29108710018071e+001,-6.33732329922041e+000

1.59999999999999e+005,-2.29113705614687e+001,-6.42565150985111e+000

1.62233516766403e+005,-2.29118841090684e+001,-6.51520691557268e+000

1.64498212264969e+005,-2.29124120346474e+001,-6.60600640159105e+000

1.66794521734578e+005,-2.29129547390305e+001,-6.69806707848131e+000

1.69122886489819e+005,-2.29135126341188e+001,-6.79140628490218e+000

1.71483754005805e+005,-2.29140861431904e+001,-6.88604159032998e+000

1.73877578004168e+005,-2.29146757012088e+001,-6.98199079781215e+000

1.76304818540256e+005,-2.29152817551393e+001,-7.07927194674027e+000

1.78765942091554e+005,-2.29159047642733e+001,-7.17790331564113e+000

1.81261421647326e+005,-2.29165452005620e+001,-7.27790342498659e+000

1.83791736799524e+005,-2.29172035489574e+001,-7.37929104002021e+000

1.86357373834951e+005,-2.29178803077633e+001,-7.48208517360096e+000

1.88958825828723e+005,-2.29185759889941e+001,-7.58630508906315e+000

1.91596592739027e+005,-2.29192911187443e+001,-7.69197030309202e+000

1.94271181503206e+005,-2.29200262375659e+001,-7.79910058861371e+000

1.96983106135185e+005,-2.29207819008564e+001,-7.90771597769881e+000

1.99732887824256e+005,-2.29215586792566e+001,-8.01783676447989e+000

2.02521055035243e+005,-2.29223571590580e+001,-8.12948350808009e+000

2.05348143610063e+005,-2.29231779426207e+001,-8.24267703555359e+000

2.08214696870707e+005,-2.29240216488023e+001,-8.35743844483537e+000

2.11121265723661e+005,-2.29248889133968e+001,-8.47378910770140e+000

2.14068408765776e+005,-2.29257803895849e+001,-8.59175067273506e+000

2.17056692391625e+005,-2.29266967483954e+001,-8.71134506830120e+000

2.20086690902357e+005,-2.29276386791783e+001,-8.83259450552571e+000

2.23158986616063e+005,-2.29286068900891e+001,-8.95552148127867e+000

2.26274169979693e+005,-2.29296021085854e+001,-9.08014878116044e+000

2.29432839682530e+005,-2.29306250819358e+001,-9.20649948248865e+000

2.32635602771247e+005,-2.29316765777406e+001,-9.33459695728561e+000

2.35883074766574e+005,-2.29327573844659e+001,-9.46446487526245e+000

2.39175879781588e+005,-2.29338683119902e+001,-9.59612720680075e+000

2.42514650641661e+005,-2.29350101921640e+001,-9.72960822592783e+000

2.45900029006080e+005,-2.29361838793835e+001,-9.86493251328509e+000

2.49332665491357e+005,-2.29373902511769e+001,-1.00021249590864e+001

2.52813219796278e+005,-2.29386302088059e+001,-1.01412107660659e+001

2.56342360828676e+005,-2.29399046778800e+001,-1.02822154524111e+001

2.59920766833993e+005,-2.29412146089863e+001,-1.04251648546814e+001

2.63549125525621e+005,-2.29425609783337e+001,-1.05700851307063e+001

2.67228134217075e+005,-2.29439447884112e+001,-1.07170027624654e+001

2.70958499956006e+005,-2.29453670686629e+001,-1.08659445589429e+001

2.74740939660078e+005,-2.29468288761766e+001,-1.10169376589572e+001

2.78576180254757e+005,-2.29483312963899e+001,-1.11700095339611e+001

2.82464958813007e+005,-2.29498754438104e+001,-1.13251879908106e+001

2.86408022696948e+005,-2.29514624627535e+001,-1.14825011744989e+001

2.90406129701488e+005,-2.29530935280956e+001,-1.16419775708514e+001

2.94460048199957e+005,-2.29547698460442e+001,-1.18036460091805e+001

2.98570557291775e+005,-2.29564926549252e+001,-1.19675356648952e+001

3.02738446952187e+005,-2.29582632259863e+001,-1.21336760620619e+001

3.06964518184081e+005,-2.29600828642184e+001,-1.23020970759130e+001

3.11249583171928e+005,-2.29619529091942e+001,-1.24728289353005e+001

3.15594465437872e+005,-2.29638747359245e+001,-1.26459022250880e+001

3.19999999999997e+005,-2.29658497557320e+001,-1.28213478884799e+001

3.24467033532806e+005,-2.29678794171431e+001,-1.29991972292810e+001

3.28996424529938e+005,-2.29699652067984e+001,-1.31794819140832e+001

3.33589043469155e+005,-2.29721086503812e+001,-1.33622339743749e+001

3.38245772979638e+005,-2.29743113135633e+001,-1.35474858085674e+001

3.42967508011610e+005,-2.29765748029716e+001,-1.37352701839338e+001

3.47755156008335e+005,-2.29789007671711e+001,-1.39256202384552e+001

3.52609637080511e+005,-2.29812908976680e+001,-1.41185694825687e+001

3.57531884183106e+005,-2.29837469299311e+001,-1.43141518008120e+001

3.62522843294651e+005,-2.29862706444321e+001,-1.45124014533582e+001

3.67583473599047e+005,-2.29888638677044e+001,-1.47133530774363e+001

3.72714747669902e+005,-2.29915284734215e+001,-1.49170416886289e+001

3.77917651657445e+005,-2.29942663834937e+001,-1.51235026820437e+001

3.83193185478053e+005,-2.29970795691836e+001,-1.53327718333505e+001

3.88542363006410e+005,-2.29999700522404e+001,-1.55448852996770e+001

3.93966212270369e+005,-2.30029399060529e+001,-1.57598796203579e+001

3.99465775648511e+005,-2.30059912568205e+001,-1.59777917175288e+001

4.05042110070485e+005,-2.30091262847432e+001,-1.61986588965585e+001

4.10696287220124e+005,-2.30123472252290e+001,-1.64225188463124e+001

4.16429393741414e+005,-2.30156563701193e+001,-1.66494096392380e+001

4.22242531447321e+005,-2.30190560689320e+001,-1.68793697312670e+001

4.28136817531551e+005,-2.30225487301214e+001,-1.71124379615243e+001

4.34113384783250e+005,-2.30261368223552e+001,-1.73486535518355e+001

4.40173381804713e+005,-2.30298228758078e+001,-1.75880561060258e+001

4.46317973232124e+005,-2.30336094834691e+001,-1.78306856090015e+001

4.52548339959385e+005,-2.30374993024694e+001,-1.80765824256038e+001

4.58865679365059e+005,-2.30414950554181e+001,-1.83257872992280e+001

4.65271205542494e+005,-2.30455995317571e+001,-1.85783413501985e+001

4.71766149533147e+005,-2.30498155891275e+001,-1.88342860738890e+001

4.78351759563174e+005,-2.30541461547486e+001,-1.90936633385803e+001

4.85029301283321e+005,-2.30585942268090e+001,-1.93565153830457e+001

4.91800058012158e+005,-2.30631628758679e+001,-1.96228848138536e+001

4.98665330982714e+005,-2.30678552462671e+001,-1.98928146023783e+001

5.05626439592555e+005,-2.30726745575508e+001,-2.01663480815086e+001

5.12684721657352e+005,-2.30776241058938e+001,-2.04435289420454e+001

5.19841533667984e+005,-2.30827072655350e+001,-2.07244012287764e+001

5.27098251051240e+005,-2.30879274902171e+001,-2.10090093362192e+001

5.34456268434150e+005,-2.30932883146292e+001,-2.12973980040223e+001

5.41916999912011e+005,-2.30987933558508e+001,-2.15896123120140e+001

