Freq.,VOut,OutRef

1.00000000000000e+004,-5.09595616897866e+000,-6.99516775658857e-002

1.01395947979003e+004,-5.09595612079730e+000,-7.09281667796277e-002

1.02811382665607e+004,-5.09595607126117e+000,-7.19182872839285e-002

1.04246576084112e+004,-5.09595602033266e+000,-7.29222293618791e-002

1.05701804056138e+004,-5.09595596797223e+000,-7.39401859583626e-002

1.07177346253629e+004,-5.09595591413983e+000,-7.49723527075819e-002

1.08673486252606e+004,-5.09595585879394e+000,-7.60189279775719e-002

1.10190511587661e+004,-5.09595580189192e+000,-7.70801129042526e-002

1.11728713807222e+004,-5.09595574339045e+000,-7.81561114288690e-002

1.13288388529580e+004,-5.09595568324419e+000,-7.92471303442420e-002

1.14869835499703e+004,-5.09595562140690e+000,-8.03533793274047e-002

1.16473358646846e+004,-5.09595555783120e+000,-8.14750709820618e-002

1.18099266142953e+004,-5.09595549246818e+000,-8.26124208802504e-002

1.19747870461893e+004,-5.09595542526753e+000,-8.37656476038219e-002

1.21419488439505e+004,-5.09595535617760e+000,-8.49349727857437e-002

1.23114441334492e+004,-5.09595528514526e+000,-8.61206211523537e-002

1.24833054890161e+004,-5.09595521211583e+000,-8.73228205682721e-002

1.26575659397028e+004,-5.09595513703339e+000,-8.85418020763260e-002

1.28342589756290e+004,-5.09595505984015e+000,-8.97777999469005e-002

1.30134185544193e+004,-5.09595498047659e+000,-9.10310517217820e-002

1.31950791077289e+004,-5.09595489888187e+000,-9.23017982556187e-002

1.33792755478611e+004,-5.09595481499320e+000,-9.35902837673049e-002

1.35660432744767e+004,-5.09595472874617e+000,-9.48967558840595e-002

1.37554181813974e+004,-5.09595464007430e+000,-9.62214656913662e-002

1.39474366635040e+004,-5.09595454890963e+000,-9.75646677774577e-002

1.41421356237309e+004,-5.09595445518179e+000,-9.89266202875272e-002

1.43395524801583e+004,-5.09595435881907e+000,-1.00307584966100e-001

1.45397251732031e+004,-5.09595425974728e+000,-1.01707827215283e-001

1.47426921729110e+004,-5.09595415789024e+000,-1.03127616140695e-001

1.49484924863494e+004,-5.09595405316929e+000,-1.04567224606985e-001

1.51571656651040e+004,-5.09595394550459e+000,-1.06026929281643e-001

1.53687518128801e+004,-5.09595383481275e+000,-1.07507010702021e-001

1.55832915932100e+004,-5.09595372100921e+000,-1.09007753314694e-001

1.58008262372675e+004,-5.09595360400606e+000,-1.10529445543078e-001

1.60213975517924e+004,-5.09595348371338e+000,-1.12072379833697e-001

1.62450479271247e+004,-5.09595336003906e+000,-1.13636852713961e-001

1.64718203453514e+004,-5.09595323288778e+000,-1.15223164853943e-001

1.67017583885674e+004,-5.09595310216160e+000,-1.16831621121071e-001

1.69349062472505e+004,-5.09595296776032e+000,-1.18462530635374e-001

1.71713087287550e+004,-5.09595282958056e+000,-1.20116206834204e-001

1.74110112659224e+004,-5.09595268751602e+000,-1.21792967530794e-001

1.76540599258131e+004,-5.09595254145751e+000,-1.23493134974118e-001

1.79005014185594e+004,-5.09595239129267e+000,-1.25217035912248e-001

1.81503831063432e+004,-5.09595223690602e+000,-1.26965001654631e-001

1.84037530124975e+004,-5.09595207817917e+000,-1.28737368133281e-001

1.86606598307361e+004,-5.09595191498993e+000,-1.30534475972560e-001

1.89211529345119e+004,-5.09595174721277e+000,-1.32356670551824e-001

1.91852823865052e+004,-5.09595157471868e+000,-1.34204302070830e-001

1.94530989482457e+004,-5.09595139737508e+000,-1.36077725618119e-001

1.97246540898671e+004,-5.09595121504587e+000,-1.37977301237832e-001

1.99999999999999e+004,-5.09595102759075e+000,-1.39903394002315e-001

2.02791895958005e+004,-5.09595083486539e+000,-1.41856374081173e-001

2.05622765331213e+004,-5.09595063672170e+000,-1.43836616809170e-001

2.08493152168224e+004,-5.09595043300767e+000,-1.45844502759317e-001

2.11403608112276e+004,-5.09595022356627e+000,-1.47880417822571e-001

2.14354692507258e+004,-5.09595000823676e+000,-1.49944753271458e-001

2.17346972505211e+004,-5.09594978685371e+000,-1.52037905842249e-001

2.20381023175322e+004,-5.09594955924648e+000,-1.54160277813062e-001

2.23457427614443e+004,-5.09594932524049e+000,-1.56312277071891e-001

2.26576777059159e+004,-5.09594908465562e+000,-1.58494317205776e-001

2.29739670999406e+004,-5.09594883730705e+000,-1.60706817571764e-001

2.32946717293690e+004,-5.09594858300468e+000,-1.62950203382498e-001

2.36198532285905e+004,-5.09594832155290e+000,-1.65224905787356e-001

2.39495740923785e+004,-5.09594805275049e+000,-1.67531361955115e-001

2.42838976879009e+004,-5.09594777639129e+000,-1.69870015152872e-001

2.46228882668982e+004,-5.09594749226251e+000,-1.72241314841018e-001

2.49666109780322e+004,-5.09594720014585e+000,-1.74645716751110e-001

2.53151318794055e+004,-5.09594689981651e+000,-1.77083682979435e-001

2.56685179512580e+004,-5.09594659104395e+000,-1.79555682069041e-001

2.60268371088386e+004,-5.09594627359063e+000,-1.82062189107170e-001

2.63901582154578e+004,-5.09594594721243e+000,-1.84603685812788e-001

2.67585510957221e+004,-5.09594561165869e+000,-1.87180660627586e-001

2.71320865489533e+004,-5.09594526667111e+000,-1.89793608815443e-001

2.75108363627948e+004,-5.09594491198475e+000,-1.92443032550167e-001

2.78948733270080e+004,-5.09594454732666e+000,-1.95129441019580e-001

2.82842712474618e+004,-5.09594417241678e+000,-1.97853350516483e-001

2.86791049603164e+004,-5.09594378696684e+000,-2.00615284542855e-001

2.90794503464061e+004,-5.09594339068043e+000,-2.03415773909160e-001

2.94853843458219e+004,-5.09594298325287e+000,-2.06255356835317e-001

2.98969849726987e+004,-5.09594256437115e+000,-2.09134579054141e-001

3.03143313302078e+004,-5.09594213371293e+000,-2.12053993919299e-001

3.07375036257601e+004,-5.09594169094737e+000,-2.15014162506619e-001

3.11665831864199e+004,-5.09594123573398e+000,-2.18015653726234e-001

3.16016524745350e+004,-5.09594076772295e+000,-2.21059044428930e-001

3.20427951035848e+004,-5.09594028655433e+000,-2.24144919520479e-001

3.24900958542493e+004,-5.09593979185832e+000,-2.27273872070281e-001

3.29436406907028e+004,-5.09593928325464e+000,-2.30446503427585e-001

3.34035167771346e+004,-5.09593876035207e+000,-2.33663423338090e-001

3.38698124945009e+004,-5.09593822274892e+000,-2.36925250056744e-001

3.43426174575100e+004,-5.09593767003169e+000,-2.40232610472134e-001

3.48220225318448e+004,-5.09593710177550e+000,-2.43586140223487e-001

3.53081198516260e+004,-5.09593651754368e+000,-2.46986483822252e-001

3.58010028371187e+004,-5.09593591688689e+000,-2.50434294780424e-001

3.63007662126863e+004,-5.09593529934340e+000,-2.53930235731355e-001

3.68075060249948e+004,-5.09593466443840e+000,-2.57474978559805e-001

3.73213196614721e+004,-5.09593401168412e+000,-2.61069204527878e-001

3.78423058690237e+004,-5.09593334057839e+000,-2.64713604412623e-001

3.83705647730104e+004,-5.09593265060547e+000,-2.68408878631413e-001

3.89061978964912e+004,-5.09593194123487e+000,-2.72155737381020e-001

3.94493081797342e+004,-5.09593121192130e+000,-2.75954900772458e-001

3.99999999999998e+004,-5.09593046210393e+000,-2.79807098971285e-001

4.05583791916010e+004,-5.09592969120665e+000,-2.83713072333384e-001

4.11245530662425e+004,-5.09592889863658e+000,-2.87673571554111e-001

4.16986304336447e+004,-5.09592808378447e+000,-2.91689357806950e-001

4.22807216224550e+004,-5.09592724602405e+000,-2.95761202891417e-001

4.28709385014515e+004,-5.09592638471103e+000,-2.99889889384593e-001

4.34693945010421e+004,-5.09592549918342e+000,-3.04076210785926e-001

4.40762046350642e+004,-5.09592458876035e+000,-3.08320971674732e-001

4.46914855228886e+004,-5.09592365274216e+000,-3.12624987860934e-001

4.53153554118317e+004,-5.09592269040907e+000,-3.16989086545816e-001

4.59479341998812e+004,-5.09592170102147e+000,-3.21414106477398e-001

4.65893434587380e+004,-5.09592068381847e+000,-3.25900898116158e-001

4.72397064571810e+004,-5.09591963801837e+000,-3.30450323792427e-001

4.78991481847569e+004,-5.09591856281719e+000,-3.35063257876997e-001

4.85677953758016e+004,-5.09591745738814e+000,-3.39740586949211e-001

4.92457765337964e+004,-5.09591632088163e+000,-3.44483209963565e-001

4.99332219560642e+004,-5.09591515242388e+000,-3.49292038426740e-001

5.06302637588109e+004,-5.09591395111671e+000,-3.54167996569946e-001

5.13370359025159e+004,-5.09591271603651e+000,-3.59112021529015e-001

5.20536742176771e+004,-5.09591144623387e+000,-3.64125063522401e-001

5.27803164309155e+004,-5.09591014073267e+000,-3.69208086035062e-001

5.35171021914442e+004,-5.09590879852927e+000,-3.74362066003870e-001

5.42641730979066e+004,-5.09590741859188e+000,-3.79587994004799e-001

5.50216727255895e+004,-5.09590599985964e+000,-3.84886874444447e-001

5.57897466540159e+004,-5.09590454124192e+000,-3.90259725751481e-001

5.65685424949235e+004,-5.09590304161745e+000,-3.95707580573886e-001

5.73582099206328e+004,-5.09590149983330e+000,-4.01231485977956e-001

5.81589006928121e+004,-5.09589991470441e+000,-4.06832503646763e-001

5.89707686916437e+004,-5.09589828501205e+000,-4.12511710088934e-001

5.97939699453972e+004,-5.09589660950355e+000,-4.18270196841079e-001

6.06286626604156e+004,-5.09589488689072e+000,-4.24109070681469e-001

6.14750072515201e+004,-5.09589311584952e+000,-4.30029453839220e-001

6.23331663728396e+004,-5.09589129501835e+000,-4.36032484213907e-001

6.32033049490698e+004,-5.09588942299749e+000,-4.42119315591733e-001

6.40855902071694e+004,-5.09588749834778e+000,-4.48291117869267e-001

6.49801917084985e+004,-5.09588551958990e+000,-4.54549077274736e-001

6.58872813814055e+004,-5.09588348520249e+000,-4.60894396602930e-001

6.68070335542691e+004,-5.09588139362171e+000,-4.67328295439862e-001

6.77396249890018e+004,-5.09587924323981e+000,-4.73852010400066e-001

6.86852349150199e+004,-5.09587703240355e+000,-4.80466795366373e-001

6.96440450636895e+004,-5.09587475941345e+000,-4.87173921727530e-001

7.06162397032520e+004,-5.09587242252238e+000,-4.93974678623858e-001

7.16020056742374e+004,-5.09587001993363e+000,-5.00870373198593e-001

7.26015324253724e+004,-5.09586754980046e+000,-5.07862330843562e-001

7.36150120499896e+004,-5.09586501022388e+000,-5.14951895459451e-001

7.46426393229441e+004,-5.09586239925190e+000,-5.22140429709427e-001

7.56846117380472e+004,-5.09585971487711e+000,-5.29429315287450e-001

7.67411295460207e+004,-5.09585695503615e+000,-5.36819953177713e-001

7.78123957929823e+004,-5.09585411760757e+000,-5.44313763927458e-001

7.88986163594682e+004,-5.09585120040997e+000,-5.51912187922062e-001

7.99999999999995e+004,-5.09584820120099e+000,-5.59616685657390e-001

8.11167583832018e+004,-5.09584511767521e+000,-5.67428738024283e-001

8.22491061324848e+004,-5.09584194746199e+000,-5.75349846594575e-001

8.33972608672892e+004,-5.09583868812466e+000,-5.83381533904874e-001

8.45614432449099e+004,-5.09583533715754e+000,-5.91525343755807e-001

8.57418770029029e+004,-5.09583189198482e+000,-5.99782841504549e-001

8.69387890020841e+004,-5.09582834995817e+000,-6.08155614368168e-001

8.81524092701283e+004,-5.09582470835483e+000,-6.16645271728945e-001

8.93829710457770e+004,-5.09582096437547e+000,-6.25253445443387e-001

9.06307108236633e+004,-5.09581711514215e+000,-6.33981790156737e-001

9.18958683997622e+004,-5.09581315769604e+000,-6.42831983621710e-001

9.31786869174758e+004,-5.09580908899487e+000,-6.51805727022392e-001

9.44794129143618e+004,-5.09580490591130e+000,-6.60904745298113e-001

9.57982963695136e+004,-5.09580060522972e+000,-6.70130787480105e-001

9.71355907516031e+004,-5.09579618364425e+000,-6.79485627025749e-001

9.84915530675926e+004,-5.09579163775615e+000,-6.88971062159301e-001

9.98664439121282e+004,-5.09578696407109e+000,-6.98588916220342e-001

1.01260527517622e+005,-5.09578215899641e+000,-7.08341038014027e-001

1.02674071805032e+005,-5.09577721883868e+000,-7.18229302165361e-001

1.04107348435354e+005,-5.09577213980049e+000,-7.28255609482936e-001

1.05560632861831e+005,-5.09576691797769e+000,-7.38421887323505e-001

1.07034204382888e+005,-5.09576154935654e+000,-7.48730089962777e-001

1.08528346195813e+005,-5.09575602981031e+000,-7.59182198973145e-001

1.10043345451179e+005,-5.09575035509637e+000,-7.69780223604176e-001

1.11579493308032e+005,-5.09574452085278e+000,-7.80526201170737e-001

1.13137084989847e+005,-5.09573852259501e+000,-7.91422197444593e-001

1.14716419841265e+005,-5.09573235571252e+000,-8.02470307052381e-001

1.16317801385624e+005,-5.09572601546518e+000,-8.13672653879680e-001

1.17941537383287e+005,-5.09571949697956e+000,-8.25031391480059e-001

1.19587939890794e+005,-5.09571279524527e+000,-8.36548703490525e-001

1.21257325320831e+005,-5.09570590511123e+000,-8.48226804050835e-001

1.22950014503040e+005,-5.09569882128130e+000,-8.60067938232476e-001

1.24666332745679e+005,-5.09569153831071e+000,-8.72074382469458e-001

1.26406609898139e+005,-5.09568405060162e+000,-8.84248444997617e-001

1.28171180414339e+005,-5.09567635239881e+000,-8.96592466299744e-001

1.29960383416997e+005,-5.09566843778531e+000,-9.09108819557835e-001

1.31774562762811e+005,-5.09566030067787e+000,-9.21799911108697e-001

1.33614067108538e+005,-5.09565193482221e+000,-9.34668180909238e-001

1.35479249978003e+005,-5.09564333378830e+000,-9.47716103007000e-001

1.37370469830040e+005,-5.09563449096554e+000,-9.60946186015655e-001

1.39288090127379e+005,-5.09562539955728e+000,-9.74360973601890e-001

1.41232479406504e+005,-5.09561605257601e+000,-9.87963044973577e-001

1.43204011348474e+005,-5.09560644283783e+000,-1.00175501537798e+000

1.45203064850745e+005,-5.09559656295692e+000,-1.01573953660656e+000

1.47230024099979e+005,-5.09558640533984e+000,-1.02991929750729e+000

1.49285278645888e+005,-5.09557596217984e+000,-1.04429702450233e+000

1.51369223476094e+005,-5.09556522545069e+000,-1.05887548211470e+000

1.53482259092041e+005,-5.09555418690069e+000,-1.07365747350218e+000

1.55624791585964e+005,-5.09554283804614e+000,-1.08864584099861e+000

1.57797232718936e+005,-5.09553117016509e+000,-1.10384346666155e+000

1.59999999999999e+005,-5.09551917429025e+000,-1.11925327283064e+000

1.62233516766403e+005,-5.09550684120249e+000,-1.13487822269054e+000

1.64498212264969e+005,-5.09549416142357e+000,-1.15072132084366e+000

1.66794521734578e+005,-5.09548112520893e+000,-1.16678561389062e+000

1.69122886489819e+005,-5.09546772254012e+000,-1.18307419101923e+000

1.71483754005805e+005,-5.09545394311733e+000,-1.19959018460029e+000

1.73877578004168e+005,-5.09543977635104e+000,-1.21633677079522e+000

1.76304818540256e+005,-5.09542521135436e+000,-1.23331717016761e+000

1.78765942091554e+005,-5.09541023693461e+000,-1.25053464830651e+000

1.81261421647326e+005,-5.09539484158419e+000,-1.26799251645996e+000

1.83791736799524e+005,-5.09537901347267e+000,-1.28569413217113e+000

1.86357373834951e+005,-5.09536274043682e+000,-1.30364289993233e+000

1.88958825828723e+005,-5.09534600997181e+000,-1.32184227184077e+000

1.91596592739027e+005,-5.09532880922150e+000,-1.34029574826708e+000

1.94271181503206e+005,-5.09531112496841e+000,-1.35900687853370e+000

1.96983106135185e+005,-5.09529294362375e+000,-1.37797926160109e+000

1.99732887824256e+005,-5.09527425121705e+000,-1.39721654676411e+000

2.02521055035243e+005,-5.09525503338518e+000,-1.41672243436013e+000

2.05348143610063e+005,-5.09523527536164e+000,-1.43650067648431e+000

2.08214696870707e+005,-5.09521496196490e+000,-1.45655507771804e+000

2.11121265723661e+005,-5.09519407758711e+000,-1.47688949586431e+000

2.14068408765776e+005,-5.09517260618175e+000,-1.49750784269786e+000

2.17056692391625e+005,-5.09515053125179e+000,-1.51841408472023e+000

2.20086690902357e+005,-5.09512783583648e+000,-1.53961224393299e+000

2.23158986616063e+005,-5.09510450249881e+000,-1.56110639861432e+000

2.26274169979693e+005,-5.09508051331191e+000,-1.58290068411254e+000

2.29432839682530e+005,-5.09505584984530e+000,-1.60499929364777e+000

2.32635602771247e+005,-5.09503049315089e+000,-1.62740647912574e+000

2.35883074766574e+005,-5.09500442374831e+000,-1.65012655196382e+000

2.39175879781588e+005,-5.09497762161005e+000,-1.67316388392843e+000

2.42514650641661e+005,-5.09495006614606e+000,-1.69652290798447e+000

2.45900029006080e+005,-5.09492173618807e+000,-1.72020811915632e+000

2.49332665491357e+005,-5.09489260997312e+000,-1.74422407540299e+000

2.52813219796278e+005,-5.09486266512733e+000,-1.76857539850208e+000

2.56342360828676e+005,-5.09483187864821e+000,-1.79326677495224e+000

2.59920766833993e+005,-5.09480022688740e+000,-1.81830295688250e+000

2.63549125525621e+005,-5.09476768553242e+000,-1.84368876297846e+000

2.67228134217075e+005,-5.09473422958815e+000,-1.86942907942043e+000

2.70958499956006e+005,-5.09469983335750e+000,-1.89552886083551e+000

2.74740939660078e+005,-5.09466447042186e+000,-1.92199313126324e+000

2.78576180254757e+005,-5.09462811362083e+000,-1.94882698513454e+000

2.82464958813007e+005,-5.09459073503140e+000,-1.97603558826637e+000

2.86408022696948e+005,-5.09455230594660e+000,-2.00362417886842e+000

2.90406129701488e+005,-5.09451279685357e+000,-2.03159806856652e+000

2.94460048199957e+005,-5.09447217741076e+000,-2.05996264343979e+000

2.98570557291775e+005,-5.09443041642489e+000,-2.08872336507303e+000

3.02738446952187e+005,-5.09438748182718e+000,-2.11788577162312e+000

3.06964518184081e+005,-5.09434334064842e+000,-2.14745547890428e+000

3.11249583171928e+005,-5.09429795899415e+000,-2.17743818148431e+000

3.15594465437872e+005,-5.09425130201837e+000,-2.20783965380178e+000

3.19999999999997e+005,-5.09420333389728e+000,-2.23866575129426e+000

3.24467033532806e+005,-5.09415401780151e+000,-2.26992241154831e+000

3.28996424529938e+005,-5.09410331586812e+000,-2.30161565546150e+000

3.33589043469155e+005,-5.09405118917169e+000,-2.33375158842477e+000

3.38245772979638e+005,-5.09399759769437e+000,-2.36633640152065e+000

3.42967508011610e+005,-5.09394250029554e+000,-2.39937637273838e+000

3.47755156008335e+005,-5.09388585468021e+000,-2.43287786820781e+000

3.52609637080511e+005,-5.09382761736671e+000,-2.46684734345198e+000

3.57531884183106e+005,-5.09376774365339e+000,-2.50129134465684e+000

3.62522843294651e+005,-5.09370618758468e+000,-2.53621650995930e+000

3.67583473599047e+005,-5.09364290191580e+000,-2.57162957075622e+000

3.72714747669902e+005,-5.09357783807685e+000,-2.60753735303044e+000

3.77917651657445e+005,-5.09351094613536e+000,-2.64394677869870e+000

3.83193185478053e+005,-5.09344217475881e+000,-2.68086486697674e+000

3.88542363006410e+005,-5.09337147117468e+000,-2.71829873576763e+000

3.93966212270369e+005,-5.09329878113087e+000,-2.75625560306796e+000

3.99465775648511e+005,-5.09322404885383e+000,-2.79474278839707e+000

4.05042110070485e+005,-5.09314721700634e+000,-2.83376771424566e+000

4.10696287220124e+005,-5.09306822664344e+000,-2.87333790754856e+000

4.16429393741414e+005,-5.09298701716789e+000,-2.91346100117592e+000

4.22242531447321e+005,-5.09290352628371e+000,-2.95414473545024e+000

4.28136817531551e+005,-5.09281768994872e+000,-2.99539695968369e+000

4.34113384783250e+005,-5.09272944232583e+000,-3.03722563374046e+000

4.40173381804713e+005,-5.09263871573294e+000,-3.07963882961986e+000

4.46317973232124e+005,-5.09254544059123e+000,-3.12264473306678e+000

4.52548339959385e+005,-5.09244954537239e+000,-3.16625164520330e+000

4.58865679365059e+005,-5.09235095654395e+000,-3.21046798418751e+000

4.65271205542494e+005,-5.09224959851360e+000,-3.25530228689530e+000

4.71766149533147e+005,-5.09214539357149e+000,-3.30076321062946e+000

4.78351759563174e+005,-5.09203826183122e+000,-3.34685953485391e+000

4.85029301283321e+005,-5.09192812116907e+000,-3.39360016295428e+000

4.91800058012158e+005,-5.09181488716171e+000,-3.44099412402630e+000

4.98665330982714e+005,-5.09169847302192e+000,-3.48905057469030e+000

5.05626439592555e+005,-5.09157878953273e+000,-3.53777880093543e+000

5.12684721657352e+005,-5.09145574497984e+000,-3.58718821998966e+000

5.19841533667984e+005,-5.09132924508167e+000,-3.63728838222223e+000

5.27098251051240e+005,-5.09119919291828e+000,-3.68808897307145e+000

5.34456268434150e+005,-5.09106548885761e+000,-3.73959981500592e+000

5.41916999912011e+005,-5.09092803047987e+000,-3.79183086951463e+000

