Freq.,VOut,OutRef

1.00000000000000e+004,-3.16879088568631e+001,-8.54292784181183e-002

1.01395947979003e+004,-3.16879089628925e+001,-8.66218263020347e-002

1.02811382665607e+004,-3.16879090719027e+001,-8.78310215168842e-002

1.04246576084112e+004,-3.16879091839776e+001,-8.90570964502690e-002

1.05701804056138e+004,-3.16879092992035e+001,-9.03002867327332e-002

1.07177346253629e+004,-3.16879094176685e+001,-9.15608312870952e-002

1.08673486252606e+004,-3.16879095394643e+001,-9.28389723662119e-002

1.10190511587661e+004,-3.16879096646842e+001,-9.41349556087101e-002

1.11728713807222e+004,-3.16879097934244e+001,-9.54490300824383e-002

1.13288388529580e+004,-3.16879099257841e+001,-9.67814483279523e-002

1.14869835499703e+004,-3.16879100618648e+001,-9.81324664163325e-002

1.16473358646846e+004,-3.16879102017713e+001,-9.95023439895444e-002

1.18099266142953e+004,-3.16879103456111e+001,-1.00891344315109e-001

1.19747870461893e+004,-3.16879104934949e+001,-1.02299734335097e-001

1.21419488439505e+004,-3.16879106455361e+001,-1.03727784719594e-001

1.23114441334492e+004,-3.16879108018518e+001,-1.05175769915625e-001

1.24833054890161e+004,-3.16879109625622e+001,-1.06643968199933e-001

1.26575659397028e+004,-3.16879111277908e+001,-1.08132661737375e-001

1.28342589756290e+004,-3.16879112976645e+001,-1.09642136629267e-001

1.30134185544193e+004,-3.16879114723140e+001,-1.11172682970740e-001

1.31950791077289e+004,-3.16879116518736e+001,-1.12724594906467e-001

1.33792755478611e+004,-3.16879118364813e+001,-1.14298170688476e-001

1.35660432744767e+004,-3.16879120262790e+001,-1.15893712730387e-001

1.37554181813974e+004,-3.16879122214126e+001,-1.17511527668536e-001

1.39474366635040e+004,-3.16879124220323e+001,-1.19151926418340e-001

1.41421356237309e+004,-3.16879126282920e+001,-1.20815224237807e-001

1.43395524801583e+004,-3.16879128403505e+001,-1.22501740782917e-001

1.45397251732031e+004,-3.16879130583707e+001,-1.24211800173426e-001

1.47426921729110e+004,-3.16879132825204e+001,-1.25945731053050e-001

1.49484924863494e+004,-3.16879135129718e+001,-1.27703866653083e-001

1.51571656651040e+004,-3.16879137499020e+001,-1.29486544857244e-001

1.53687518128801e+004,-3.16879139934932e+001,-1.31294108264855e-001

1.55832915932100e+004,-3.16879142439326e+001,-1.33126904257924e-001

1.58008262372675e+004,-3.16879145014129e+001,-1.34985285067586e-001

1.60213975517924e+004,-3.16879147661319e+001,-1.36869607842302e-001

1.62450479271247e+004,-3.16879150382931e+001,-1.38780234715262e-001

1.64718203453514e+004,-3.16879153181058e+001,-1.40717532875637e-001

1.67017583885674e+004,-3.16879156057853e+001,-1.42681874636230e-001

1.69349062472505e+004,-3.16879159015523e+001,-1.44673637510678e-001

1.71713087287550e+004,-3.16879162056345e+001,-1.46693204279676e-001

1.74110112659224e+004,-3.16879165182656e+001,-1.48740963066223e-001

1.76540599258131e+004,-3.16879168396859e+001,-1.50817307414766e-001

1.79005014185594e+004,-3.16879171701425e+001,-1.52922636360106e-001

1.81503831063432e+004,-3.16879175098896e+001,-1.55057354507828e-001

1.84037530124975e+004,-3.16879178591883e+001,-1.57221872112650e-001

1.86606598307361e+004,-3.16879182183071e+001,-1.59416605155218e-001

1.89211529345119e+004,-3.16879185875218e+001,-1.61641975424226e-001

1.91852823865052e+004,-3.16879189671168e+001,-1.63898410592365e-001

1.94530989482457e+004,-3.16879193573835e+001,-1.66186344306594e-001

1.97246540898671e+004,-3.16879197586220e+001,-1.68506216265323e-001

1.99999999999999e+004,-3.16879201711411e+001,-1.70858472303029e-001

2.02791895958005e+004,-3.16879205952573e+001,-1.73243564481756e-001

2.05622765331213e+004,-3.16879210312973e+001,-1.75661951168812e-001

2.08493152168224e+004,-3.16879214795958e+001,-1.78114097134872e-001

2.11403608112276e+004,-3.16879219404977e+001,-1.80600473634231e-001

2.14354692507258e+004,-3.16879224143573e+001,-1.83121558501453e-001

2.17346972505211e+004,-3.16879229015389e+001,-1.85677836240739e-001

2.20381023175322e+004,-3.16879234024169e+001,-1.88269798119901e-001

2.23457427614443e+004,-3.16879239173764e+001,-1.90897942263134e-001

2.26576777059159e+004,-3.16879244468134e+001,-1.93562773749360e-001

2.29739670999406e+004,-3.16879249911349e+001,-1.96264804705764e-001

2.32946717293690e+004,-3.16879255507592e+001,-1.99004554410757e-001

2.36198532285905e+004,-3.16879261261168e+001,-2.01782549388915e-001

2.39495740923785e+004,-3.16879267176496e+001,-2.04599323517127e-001

2.42838976879009e+004,-3.16879273258127e+001,-2.07455418122071e-001

2.46228882668982e+004,-3.16879279510735e+001,-2.10351382087033e-001

2.49666109780322e+004,-3.16879285939126e+001,-2.13287771958954e-001

2.53151318794055e+004,-3.16879292548245e+001,-2.16265152050446e-001

2.56685179512580e+004,-3.16879299343169e+001,-2.19284094554244e-001

2.60268371088386e+004,-3.16879306329124e+001,-2.22345179648318e-001

2.63901582154578e+004,-3.16879313511479e+001,-2.25448995609741e-001

2.67585510957221e+004,-3.16879320895757e+001,-2.28596138925964e-001

2.71320865489533e+004,-3.16879328487634e+001,-2.31787214412659e-001

2.75108363627948e+004,-3.16879336292947e+001,-2.35022835326394e-001

2.78948733270080e+004,-3.16879344317695e+001,-2.38303623484030e-001

2.82842712474618e+004,-3.16879352568049e+001,-2.41630209382530e-001

2.86791049603164e+004,-3.16879361050350e+001,-2.45003232319711e-001

2.90794503464061e+004,-3.16879369771121e+001,-2.48423340515876e-001

2.94853843458219e+004,-3.16879378737063e+001,-2.51891191241345e-001

2.98969849726987e+004,-3.16879387955071e+001,-2.55407450939603e-001

3.03143313302078e+004,-3.16879397432230e+001,-2.58972795357227e-001

3.07375036257601e+004,-3.16879407175827e+001,-2.62587909672274e-001

3.11665831864199e+004,-3.16879417193351e+001,-2.66253488627162e-001

3.16016524745350e+004,-3.16879427492504e+001,-2.69970236662499e-001

3.20427951035848e+004,-3.16879438081204e+001,-2.73738868050036e-001

3.24900958542493e+004,-3.16879448967591e+001,-2.77560107033288e-001

3.29436406907028e+004,-3.16879460160033e+001,-2.81434687963555e-001

3.34035167771346e+004,-3.16879471667134e+001,-2.85363355443665e-001

3.38698124945009e+004,-3.16879483497742e+001,-2.89346864468068e-001

3.43426174575100e+004,-3.16879495660949e+001,-2.93385980570787e-001

3.48220225318448e+004,-3.16879508166109e+001,-2.97481479970279e-001

3.53081198516260e+004,-3.16879521022833e+001,-3.01634149719820e-001

3.58010028371187e+004,-3.16879534241006e+001,-3.05844787858379e-001

3.63007662126863e+004,-3.16879547830787e+001,-3.10114203565222e-001

3.68075060249948e+004,-3.16879561802626e+001,-3.14443217311111e-001

3.73213196614721e+004,-3.16879576167264e+001,-3.18832661020904e-001

3.78423058690237e+004,-3.16879590935741e+001,-3.23283378231618e-001

3.83705647730104e+004,-3.16879606119412e+001,-3.27796224252160e-001

3.89061978964912e+004,-3.16879621729950e+001,-3.32372066331384e-001

3.94493081797342e+004,-3.16879637779354e+001,-3.37011783822692e-001

3.99999999999998e+004,-3.16879654279963e+001,-3.41716268351376e-001

4.05583791916010e+004,-3.16879671244462e+001,-3.46486423990103e-001

4.11245530662425e+004,-3.16879688685892e+001,-3.51323167429060e-001

4.16986304336447e+004,-3.16879706617661e+001,-3.56227428151755e-001

4.22807216224550e+004,-3.16879725053553e+001,-3.61200148617385e-001

4.28709385014515e+004,-3.16879744007742e+001,-3.66242284436849e-001

4.34693945010421e+004,-3.16879763494799e+001,-3.71354804560102e-001

4.40762046350642e+004,-3.16879783529703e+001,-3.76538691461598e-001

4.46914855228886e+004,-3.16879804127857e+001,-3.81794941325963e-001

4.53153554118317e+004,-3.16879825305095e+001,-3.87124564244001e-001

4.59479341998812e+004,-3.16879847077696e+001,-3.92528584403435e-001

4.65893434587380e+004,-3.16879869462399e+001,-3.98008040285724e-001

4.72397064571810e+004,-3.16879892476411e+001,-4.03563984867633e-001

4.78991481847569e+004,-3.16879916137424e+001,-4.09197485820961e-001

4.85677953758016e+004,-3.16879940463627e+001,-4.14909625718742e-001

4.92457765337964e+004,-3.16879965473720e+001,-4.20701502243830e-001

4.99332219560642e+004,-3.16879991186929e+001,-4.26574228398843e-001

5.06302637588109e+004,-3.16880017623022e+001,-4.32528932718717e-001

5.13370359025159e+004,-3.16880044802321e+001,-4.38566759489699e-001

5.20536742176771e+004,-3.16880072745716e+001,-4.44688868968798e-001

5.27803164309155e+004,-3.16880101474692e+001,-4.50896437603536e-001

5.35171021914442e+004,-3.16880131011332e+001,-4.57190658261861e-001

5.42641730979066e+004,-3.16880161378342e+001,-4.63572740458936e-001

5.50216727255895e+004,-3.16880192599066e+001,-4.70043910588969e-001

5.57897466540159e+004,-3.16880224697503e+001,-4.76605412162838e-001

5.65685424949235e+004,-3.16880257698329e+001,-4.83258506044537e-001

5.73582099206328e+004,-3.16880291626911e+001,-4.90004470694696e-001

5.81589006928121e+004,-3.16880326509332e+001,-4.96844602414833e-001

5.89707686916437e+004,-3.16880362372406e+001,-5.03780215596944e-001

5.97939699453972e+004,-3.16880399243701e+001,-5.10812642976591e-001

6.06286626604156e+004,-3.16880437151561e+001,-5.17943235886624e-001

6.14750072515201e+004,-3.16880476125126e+001,-5.25173364518332e-001

6.23331663728396e+004,-3.16880516194356e+001,-5.32504418183673e-001

6.32033049490698e+004,-3.16880557390051e+001,-5.39937805582742e-001

6.40855902071694e+004,-3.16880599743879e+001,-5.47474955072972e-001

6.49801917084985e+004,-3.16880643288399e+001,-5.55117314942996e-001

6.58872813814055e+004,-3.16880688057081e+001,-5.62866353692932e-001

6.68070335542691e+004,-3.16880734084341e+001,-5.70723560313557e-001

6.77396249890018e+004,-3.16880781405560e+001,-5.78690444572884e-001

6.86852349150199e+004,-3.16880830057112e+001,-5.86768537307533e-001

6.96440450636895e+004,-3.16880880076396e+001,-5.94959390713410e-001

7.06162397032520e+004,-3.16880931501862e+001,-6.03264578645616e-001

7.16020056742374e+004,-3.16880984373038e+001,-6.11685696921027e-001

7.26015324253724e+004,-3.16881038730569e+001,-6.20224363620693e-001

7.36150120499896e+004,-3.16881094616235e+001,-6.28882219405639e-001

7.46426393229441e+004,-3.16881152072996e+001,-6.37660927827694e-001

7.56846117380472e+004,-3.16881211145018e+001,-6.46562175648835e-001

7.67411295460207e+004,-3.16881271877708e+001,-6.55587673167253e-001

7.78123957929823e+004,-3.16881334317748e+001,-6.64739154542607e-001

7.88986163594682e+004,-3.16881398513137e+001,-6.74018378130067e-001

7.99999999999995e+004,-3.16881464513217e+001,-6.83427126817396e-001

8.11167583832018e+004,-3.16881532368721e+001,-6.92967208366048e-001

8.22491061324848e+004,-3.16881602131807e+001,-7.02640455759285e-001

8.33972608672892e+004,-3.16881673856099e+001,-7.12448727551598e-001

8.45614432449099e+004,-3.16881747596728e+001,-7.22393908227550e-001

8.57418770029029e+004,-3.16881823410375e+001,-7.32477908560275e-001

8.69387890020841e+004,-3.16881901355314e+001,-7.42702665980803e-001

8.81524092701283e+004,-3.16881981491456e+001,-7.53070144946547e-001

8.93829710457770e+004,-3.16882063880398e+001,-7.63582337319659e-001

9.06307108236633e+004,-3.16882148585468e+001,-7.74241262747921e-001

9.18958683997622e+004,-3.16882235671771e+001,-7.85048969053128e-001

9.31786869174758e+004,-3.16882325206246e+001,-7.96007532621188e-001

9.44794129143618e+004,-3.16882417257710e+001,-8.07119058802592e-001

9.57982963695136e+004,-3.16882511896916e+001,-8.18385682313321e-001

9.71355907516031e+004,-3.16882609196606e+001,-8.29809567645670e-001

9.84915530675926e+004,-3.16882709231565e+001,-8.41392909482442e-001

9.98664439121282e+004,-3.16882812078680e+001,-8.53137933116976e-001

1.01260527517622e+005,-3.16882917817002e+001,-8.65046894879168e-001

1.02674071805032e+005,-3.16883026527799e+001,-8.77122082568456e-001

1.04107348435354e+005,-3.16883138294626e+001,-8.89365815891071e-001

1.05560632861831e+005,-3.16883253203385e+001,-9.01780446904813e-001

1.07034204382888e+005,-3.16883371342395e+001,-9.14368360468424e-001

1.08528346195813e+005,-3.16883492802453e+001,-9.27131974699266e-001

1.10043345451179e+005,-3.16883617676911e+001,-9.40073741435831e-001

1.11579493308032e+005,-3.16883746061742e+001,-9.53196146706495e-001

1.13137084989847e+005,-3.16883878055619e+001,-9.66501711205639e-001

1.14716419841265e+005,-3.16884013759985e+001,-9.79992990776148e-001

1.16317801385624e+005,-3.16884153279136e+001,-9.93672576898218e-001

1.17941537383287e+005,-3.16884296720299e+001,-1.00754309718431e+000

1.19587939890794e+005,-3.16884444193713e+001,-1.02160721588365e+000

1.21257325320831e+005,-3.16884595812715e+001,-1.03586763438958e+000

1.22950014503040e+005,-3.16884751693829e+001,-1.05032709175766e+000

1.24666332745679e+005,-3.16884911956850e+001,-1.06498836522881e+000

1.26406609898139e+005,-3.16885076724943e+001,-1.07985427076010e+000

1.28171180414339e+005,-3.16885246124731e+001,-1.09492766356318e+000

1.29960383416997e+005,-3.16885420286398e+001,-1.11021143864907e+000

1.31774562762811e+005,-3.16885599343782e+001,-1.12570853138385e+000

1.33614067108538e+005,-3.16885783434487e+001,-1.14142191804593e+000

1.35479249978003e+005,-3.16885972699979e+001,-1.15735461639709e+000

1.37370469830040e+005,-3.16886167285702e+001,-1.17350968625807e+000

1.39288090127379e+005,-3.16886367341184e+001,-1.18989023009301e+000

1.41232479406504e+005,-3.16886573020157e+001,-1.20649939360073e+000

1.43204011348474e+005,-3.16886784480671e+001,-1.22334036631653e+000

1.45203064850745e+005,-3.16887001885217e+001,-1.24041638222072e+000

1.47230024099979e+005,-3.16887225400852e+001,-1.25773072035402e+000

1.49285278645888e+005,-3.16887455199324e+001,-1.27528670544559e+000

1.51369223476094e+005,-3.16887691457211e+001,-1.29308770854492e+000

1.53482259092041e+005,-3.16887934356046e+001,-1.31113714766594e+000

1.55624791585964e+005,-3.16888184082467e+001,-1.32943848843884e+000

1.57797232718936e+005,-3.16888440828353e+001,-1.34799524476830e+000

1.59999999999999e+005,-3.16888704790974e+001,-1.36681097950632e+000

1.62233516766403e+005,-3.16888976173143e+001,-1.38588930512854e+000

1.64498212264969e+005,-3.16889255183366e+001,-1.40523388442362e+000

1.66794521734578e+005,-3.16889542036012e+001,-1.42484843118974e+000

1.69122886489819e+005,-3.16889836951469e+001,-1.44473671094179e+000

1.71483754005805e+005,-3.16890140156313e+001,-1.46490254162908e+000

1.73877578004168e+005,-3.16890451883489e+001,-1.48534979435963e+000

1.76304818540256e+005,-3.16890772372483e+001,-1.50608239413810e+000

1.78765942091554e+005,-3.16891101869508e+001,-1.52710432061174e+000

1.81261421647326e+005,-3.16891440627692e+001,-1.54841960882648e+000

1.83791736799524e+005,-3.16891788907271e+001,-1.57003234999375e+000

1.86357373834951e+005,-3.16892146975794e+001,-1.59194669226847e+000

1.88958825828723e+005,-3.16892515108320e+001,-1.61416684153544e+000

1.91596592739027e+005,-3.16892893587634e+001,-1.63669706220926e+000

1.94271181503206e+005,-3.16893282704464e+001,-1.65954167804271e+000

1.96983106135185e+005,-3.16893682757700e+001,-1.68270507294665e+000

1.99732887824256e+005,-3.16894094054627e+001,-1.70619169182221e+000

2.02521055035243e+005,-3.16894516911158e+001,-1.73000604140348e+000

2.05348143610063e+005,-3.16894951652075e+001,-1.75415269111099e+000

2.08214696870707e+005,-3.16895398611283e+001,-1.77863627391654e+000

2.11121265723661e+005,-3.16895858132060e+001,-1.80346148722224e+000

2.14068408765776e+005,-3.16896330567323e+001,-1.82863309374769e+000

2.17056692391625e+005,-3.16896816279895e+001,-1.85415592243250e+000

2.20086690902357e+005,-3.16897315642787e+001,-1.88003486934841e+000

2.23158986616063e+005,-3.16897829039482e+001,-1.90627489862466e+000

2.26274169979693e+005,-3.16898356864229e+001,-1.93288104338627e+000

2.29432839682530e+005,-3.16898899522340e+001,-1.95985840670438e+000

2.32635602771247e+005,-3.16899457430508e+001,-1.98721216255958e+000

2.35883074766574e+005,-3.16900031017120e+001,-2.01494755681631e+000

2.39175879781588e+005,-3.16900620722588e+001,-2.04306990821455e+000

2.42514650641661e+005,-3.16901226999683e+001,-2.07158460936945e+000

2.45900029006080e+005,-3.16901850313884e+001,-2.10049712778861e+000

2.49332665491357e+005,-3.16902491143733e+001,-2.12981300690032e+000

2.52813219796278e+005,-3.16903149981199e+001,-2.15953786709708e+000

2.56342360828676e+005,-3.16903827332058e+001,-2.18967740679057e+000

2.59920766833993e+005,-3.16904523716277e+001,-2.22023740348478e+000

2.63549125525621e+005,-3.16905239668411e+001,-2.25122371485806e+000

2.67228134217075e+005,-3.16905975738012e+001,-2.28264227986404e+000

2.70958499956006e+005,-3.16906732490052e+001,-2.31449911984444e+000

2.74740939660078e+005,-3.16907510505348e+001,-2.34680033965722e+000

2.78576180254757e+005,-3.16908310381013e+001,-2.37955212882010e+000

2.82464958813007e+005,-3.16909132730905e+001,-2.41276076266825e+000

2.86408022696948e+005,-3.16909978186100e+001,-2.44643260352747e+000

2.90406129701488e+005,-3.16910847395375e+001,-2.48057410190232e+000

2.94460048199957e+005,-3.16911741025698e+001,-2.51519179768116e+000

2.98570557291775e+005,-3.16912659762741e+001,-2.55029232135522e+000

3.02738446952187e+005,-3.16913604311401e+001,-2.58588239525320e+000

3.06964518184081e+005,-3.16914575396339e+001,-2.62196883479501e+000

3.11249583171928e+005,-3.16915573762532e+001,-2.65855854975730e+000

3.15594465437872e+005,-3.16916600175839e+001,-2.69565854555877e+000

3.19999999999997e+005,-3.16917655423590e+001,-2.73327592456043e+000

3.24467033532806e+005,-3.16918740315179e+001,-2.77141788738241e+000

3.28996424529938e+005,-3.16919855682685e+001,-2.81009173423933e+000

3.33589043469155e+005,-3.16921002381506e+001,-2.84930486628991e+000

3.38245772979638e+005,-3.16922181291007e+001,-2.88906478700705e+000

3.42967508011610e+005,-3.16923393315192e+001,-2.92937910356200e+000

3.47755156008335e+005,-3.16924639383391e+001,-2.97025552822886e+000

3.52609637080511e+005,-3.16925920450968e+001,-3.01170187980499e+000

3.57531884183106e+005,-3.16927237500044e+001,-3.05372608505085e+000

3.62522843294651e+005,-3.16928591540250e+001,-3.09633618014568e+000

3.67583473599047e+005,-3.16929983609487e+001,-3.13954031216394e+000

3.72714747669902e+005,-3.16931414774721e+001,-3.18334674056772e+000

3.77917651657445e+005,-3.16932886132788e+001,-3.22776383872056e+000

3.83193185478053e+005,-3.16934398811232e+001,-3.27280009541665e+000

3.88542363006410e+005,-3.16935953969156e+001,-3.31846411643221e+000

3.93966212270369e+005,-3.16937552798105e+001,-3.36476462609270e+000

3.99465775648511e+005,-3.16939196522967e+001,-3.41171046886185e+000

4.05042110070485e+005,-3.16940886402903e+001,-3.45931061094925e+000

4.10696287220124e+005,-3.16942623732304e+001,-3.50757414193592e+000

4.16429393741414e+005,-3.16944409841764e+001,-3.55651027642246e+000

4.22242531447321e+005,-3.16946246099096e+001,-3.60612835569406e+000

4.28136817531551e+005,-3.16948133910363e+001,-3.65643784940731e+000

4.34113384783250e+005,-3.16950074720941e+001,-3.70744835729681e+000

4.40173381804713e+005,-3.16952070016613e+001,-3.75916961090072e+000

4.46317973232124e+005,-3.16954121324696e+001,-3.81161147530894e+000

4.52548339959385e+005,-3.16956230215188e+001,-3.86478395092912e+000

4.58865679365059e+005,-3.16958398301958e+001,-3.91869717527617e+000

4.65271205542494e+005,-3.16960627243963e+001,-3.97336142477904e+000

4.71766149533147e+005,-3.16962918746501e+001,-4.02878711661214e+000

4.78351759563174e+005,-3.16965274562493e+001,-4.08498481054395e+000

4.85029301283321e+005,-3.16967696493807e+001,-4.14196521081031e+000

4.91800058012158e+005,-3.16970186392615e+001,-4.19973916800525e+000

4.98665330982714e+005,-3.16972746162786e+001,-4.25831768099597e+000

5.05626439592555e+005,-3.16975377761318e+001,-4.31771189885720e+000

5.12684721657352e+005,-3.16978083199811e+001,-4.37793312282805e+000

5.19841533667984e+005,-3.16980864545975e+001,-4.43899280828989e+000

5.27098251051240e+005,-3.16983723925187e+001,-4.50090256676515e+000

5.34456268434150e+005,-3.16986663522081e+001,-4.56367416793883e+000

5.41916999912011e+005,-3.16989685582189e+001,-4.62731954170058e+000

