Freq.,VOut,OutRef

1.00000000000000e+004,-2.13115536098117e+001,-2.19096572759428e-001

1.01395947979003e+004,-2.13115541632180e+001,-2.22155041730901e-001

1.02811382665607e+004,-2.13115547321827e+001,-2.25256205116166e-001

1.04246576084112e+004,-2.13115553171430e+001,-2.28400658899863e-001

1.05701804056138e+004,-2.13115559185487e+001,-2.31589007381325e-001

1.07177346253629e+004,-2.13115565368621e+001,-2.34821863298952e-001

1.08673486252606e+004,-2.13115571725587e+001,-2.38099847941415e-001

1.10190511587661e+004,-2.13115578261270e+001,-2.41423591272745e-001

1.11728713807222e+004,-2.13115584980694e+001,-2.44793732047902e-001

1.13288388529580e+004,-2.13115591889027e+001,-2.48210917939132e-001

1.14869835499703e+004,-2.13115598991578e+001,-2.51675805659377e-001

1.16473358646846e+004,-2.13115606293808e+001,-2.55189061087927e-001

1.18099266142953e+004,-2.13115613801330e+001,-2.58751359399669e-001

1.19747870461893e+004,-2.13115621519915e+001,-2.62363385193206e-001

1.21419488439505e+004,-2.13115629455499e+001,-2.66025832623530e-001

1.23114441334492e+004,-2.13115637614181e+001,-2.69739405534385e-001

1.24833054890161e+004,-2.13115646002233e+001,-2.73504817595868e-001

1.26575659397028e+004,-2.13115654626103e+001,-2.77322792438075e-001

1.28342589756290e+004,-2.13115663492422e+001,-2.81194063792565e-001

1.30134185544193e+004,-2.13115672608004e+001,-2.85119375633587e-001

1.31950791077289e+004,-2.13115681979860e+001,-2.89099482317381e-001

1.33792755478611e+004,-2.13115691615191e+001,-2.93135148733006e-001

1.35660432744767e+004,-2.13115701521407e+001,-2.97227150444227e-001

1.37554181813974e+004,-2.13115711706121e+001,-3.01376273841040e-001

1.39474366635040e+004,-2.13115722177164e+001,-3.05583316290175e-001

1.41421356237309e+004,-2.13115732942586e+001,-3.09849086287528e-001

1.43395524801583e+004,-2.13115744010663e+001,-3.14174403614101e-001

1.45397251732031e+004,-2.13115755389903e+001,-3.18560099495576e-001

1.47426921729110e+004,-2.13115767089053e+001,-3.23007016758026e-001

1.49484924863494e+004,-2.13115779117108e+001,-3.27516009992559e-001

1.51571656651040e+004,-2.13115791483315e+001,-3.32087945717662e-001

1.53687518128801e+004,-2.13115804197178e+001,-3.36723702549145e-001

1.55832915932100e+004,-2.13115817268474e+001,-3.41424171363836e-001

1.58008262372675e+004,-2.13115830707249e+001,-3.46190255475325e-001

1.60213975517924e+004,-2.13115844523836e+001,-3.51022870804689e-001

1.62450479271247e+004,-2.13115858728856e+001,-3.55922946057048e-001

1.64718203453514e+004,-2.13115873333228e+001,-3.60891422901842e-001

1.67017583885674e+004,-2.13115888348180e+001,-3.65929256150292e-001

1.69349062472505e+004,-2.13115903785255e+001,-3.71037413941934e-001

1.71713087287550e+004,-2.13115919656318e+001,-3.76216877929142e-001

1.74110112659224e+004,-2.13115935973573e+001,-3.81468643464164e-001

1.76540599258131e+004,-2.13115952749562e+001,-3.86793719794481e-001

1.79005014185594e+004,-2.13115969997180e+001,-3.92193130253259e-001

1.81503831063432e+004,-2.13115987729689e+001,-3.97667912456035e-001

1.84037530124975e+004,-2.13116005960718e+001,-4.03219118502389e-001

1.86606598307361e+004,-2.13116024704285e+001,-4.08847815174184e-001

1.89211529345119e+004,-2.13116043974795e+001,-4.14555084145653e-001

1.91852823865052e+004,-2.13116063787065e+001,-4.20342022185199e-001

1.94530989482457e+004,-2.13116084156324e+001,-4.26209741371505e-001

1.97246540898671e+004,-2.13116105098232e+001,-4.32159369303222e-001

1.99999999999999e+004,-2.13116126628886e+001,-4.38192049317791e-001

2.02791895958005e+004,-2.13116148764838e+001,-4.44308940710008e-001

2.05622765331213e+004,-2.13116171523106e+001,-4.50511218954372e-001

2.08493152168224e+004,-2.13116194921182e+001,-4.56800075932336e-001

2.11403608112276e+004,-2.13116218977055e+001,-4.63176720159541e-001

2.14354692507258e+004,-2.13116243709218e+001,-4.69642377018465e-001

2.17346972505211e+004,-2.13116269136681e+001,-4.76198288994396e-001

2.20381023175322e+004,-2.13116295278992e+001,-4.82845715912403e-001

2.23457427614443e+004,-2.13116322156248e+001,-4.89585935181686e-001

2.26576777059159e+004,-2.13116349789109e+001,-4.96420242038299e-001

2.29739670999406e+004,-2.13116378198818e+001,-5.03349949795586e-001

2.32946717293690e+004,-2.13116407407212e+001,-5.10376390096412e-001

2.36198532285905e+004,-2.13116437436747e+001,-5.17500913166487e-001

2.39495740923785e+004,-2.13116468310505e+001,-5.24724888076640e-001

2.42838976879009e+004,-2.13116500052221e+001,-5.32049703004242e-001

2.46228882668982e+004,-2.13116532686293e+001,-5.39476765499953e-001

2.49666109780322e+004,-2.13116566237809e+001,-5.47007502757278e-001

2.53151318794055e+004,-2.13116600732560e+001,-5.54643361887808e-001

2.56685179512580e+004,-2.13116636197062e+001,-5.62385810197856e-001

2.60268371088386e+004,-2.13116672658577e+001,-5.70236335470493e-001

2.63901582154578e+004,-2.13116710145133e+001,-5.78196446252064e-001

2.67585510957221e+004,-2.13116748685547e+001,-5.86267672139561e-001

2.71320865489533e+004,-2.13116788309444e+001,-5.94451564077587e-001

2.75108363627948e+004,-2.13116829047283e+001,-6.02749694652178e-001

2.78948733270080e+004,-2.13116870930380e+001,-6.11163658396087e-001

2.82842712474618e+004,-2.13116913990929e+001,-6.19695072091494e-001

2.86791049603164e+004,-2.13116958262031e+001,-6.28345575084432e-001

2.90794503464061e+004,-2.13117003777717e+001,-6.37116829594116e-001

2.94853843458219e+004,-2.13117050572973e+001,-6.46010521037742e-001

2.98969849726987e+004,-2.13117098683772e+001,-6.55028358349228e-001

3.03143313302078e+004,-2.13117148147094e+001,-6.64172074309562e-001

3.07375036257601e+004,-2.13117199000962e+001,-6.73443425877622e-001

3.11665831864199e+004,-2.13117251284465e+001,-6.82844194530499e-001

3.16016524745350e+004,-2.13117305037794e+001,-6.92376186600357e-001

3.20427951035848e+004,-2.13117360302265e+001,-7.02041233626555e-001

3.24900958542493e+004,-2.13117417120360e+001,-7.11841192701844e-001

3.29436406907028e+004,-2.13117475535753e+001,-7.21777946831903e-001

3.34035167771346e+004,-2.13117535593345e+001,-7.31853405295668e-001

3.38698124945009e+004,-2.13117597339300e+001,-7.42069504012082e-001

3.43426174575100e+004,-2.13117660821080e+001,-7.52428205909248e-001

3.48220225318448e+004,-2.13117726087481e+001,-7.62931501303711e-001

3.53081198516260e+004,-2.13117793188669e+001,-7.73581408280837e-001

3.58010028371187e+004,-2.13117862176222e+001,-7.84379973081329e-001

3.63007662126863e+004,-2.13117933103166e+001,-7.95329270494480e-001

3.68075060249948e+004,-2.13118006024019e+001,-8.06431404256660e-001

3.73213196614721e+004,-2.13118080994830e+001,-8.17688507452081e-001

3.78423058690237e+004,-2.13118158073224e+001,-8.29102742924676e-001

3.83705647730104e+004,-2.13118237318447e+001,-8.40676303690602e-001

3.89061978964912e+004,-2.13118318791407e+001,-8.52411413360549e-001

3.94493081797342e+004,-2.13118402554727e+001,-8.64310326563736e-001

3.99999999999998e+004,-2.13118488672788e+001,-8.76375329382421e-001

4.05583791916010e+004,-2.13118577211782e+001,-8.88608739787487e-001

4.11245530662425e+004,-2.13118668239760e+001,-9.01012908085186e-001

4.16986304336447e+004,-2.13118761826687e+001,-9.13590217365943e-001

4.22807216224550e+004,-2.13118858044493e+001,-9.26343083961128e-001

4.28709385014515e+004,-2.13118956967132e+001,-9.39273957906383e-001

4.34693945010421e+004,-2.13119058670631e+001,-9.52385323411875e-001

4.40762046350642e+004,-2.13119163233161e+001,-9.65679699335048e-001

4.46914855228886e+004,-2.13119270735085e+001,-9.79159639666804e-001

4.53153554118317e+004,-2.13119381259026e+001,-9.92827734018537e-001

4.59479341998812e+004,-2.13119494889928e+001,-1.00668660811823e+000

4.65893434587380e+004,-2.13119611715124e+001,-1.02073892431434e+000

4.72397064571810e+004,-2.13119731824401e+001,-1.03498738208373e+000

4.78991481847569e+004,-2.13119855310067e+001,-1.04943471855021e+000

4.85677953758016e+004,-2.13119982267027e+001,-1.06408370900737e+000

4.92457765337964e+004,-2.13120112792852e+001,-1.07893716744993e+000

4.99332219560642e+004,-2.13120246987854e+001,-1.09399794711350e+000

5.06302637588109e+004,-2.13120384955164e+001,-1.10926894101819e+000

5.13370359025159e+004,-2.13120526800813e+001,-1.12475308252474e+000

5.20536742176771e+004,-2.13120672633810e+001,-1.14045334589362e+000

5.27803164309155e+004,-2.13120822566226e+001,-1.15637274685511e+000

5.35171021914442e+004,-2.13120976713285e+001,-1.17251434318579e+000

5.42641730979066e+004,-2.13121135193445e+001,-1.18888123529360e+000

5.50216727255895e+004,-2.13121298128494e+001,-1.20547656680963e+000

5.57897466540159e+004,-2.13121465643642e+001,-1.22230352519063e+000

5.65685424949235e+004,-2.13121637867618e+001,-1.23936534232666e+000

5.73582099206328e+004,-2.13121814932767e+001,-1.25666529516022e+000

5.81589006928121e+004,-2.13121996975153e+001,-1.27420670631186e+000

5.89707686916437e+004,-2.13122184134662e+001,-1.29199294471455e+000

5.97939699453972e+004,-2.13122376555112e+001,-1.31002742625796e+000

6.06286626604156e+004,-2.13122574384361e+001,-1.32831361444054e+000

6.14750072515201e+004,-2.13122777774420e+001,-1.34685502103108e+000

6.23331663728396e+004,-2.13122986881574e+001,-1.36565520673900e+000

6.32033049490698e+004,-2.13123201866494e+001,-1.38471778189435e+000

6.40855902071694e+004,-2.13123422894369e+001,-1.40404640713625e+000

6.49801917084985e+004,-2.13123650135028e+001,-1.42364479411242e+000

6.58872813814055e+004,-2.13123883763068e+001,-1.44351670618670e+000

6.68070335542691e+004,-2.13124123957994e+001,-1.46366595915653e+000

6.77396249890018e+004,-2.13124370904354e+001,-1.48409642198126e+000

6.86852349150199e+004,-2.13124624791877e+001,-1.50481201751973e+000

6.96440450636895e+004,-2.13124885815623e+001,-1.52581672327803e+000

7.06162397032520e+004,-2.13125154176134e+001,-1.54711457216678e+000

7.16020056742374e+004,-2.13125430079581e+001,-1.56870965327036e+000

7.26015324253724e+004,-2.13125713737928e+001,-1.59060611262571e+000

7.36150120499896e+004,-2.13126005369090e+001,-1.61280815401230e+000

7.46426393229441e+004,-2.13126305197109e+001,-1.63532003975051e+000

7.56846117380472e+004,-2.13126613452312e+001,-1.65814609151551e+000

7.67411295460207e+004,-2.13126930371499e+001,-1.68129069115804e+000

7.78123957929823e+004,-2.13127256198120e+001,-1.70475828153765e+000

7.88986163594682e+004,-2.13127591182461e+001,-1.72855336736956e+000

7.99999999999995e+004,-2.13127935581838e+001,-1.75268051607879e+000

8.11167583832018e+004,-2.13128289660791e+001,-1.77714435866943e+000

8.22491061324848e+004,-2.13128653691290e+001,-1.80194959060495e+000

8.33972608672892e+004,-2.13129027952944e+001,-1.82710097269853e+000

8.45614432449099e+004,-2.13129412733208e+001,-1.85260333201890e+000

8.57418770029029e+004,-2.13129808327615e+001,-1.87846156280488e+000

8.69387890020841e+004,-2.13130215039989e+001,-1.90468062739542e+000

8.81524092701283e+004,-2.13130633182688e+001,-1.93126555716986e+000

8.93829710457770e+004,-2.13131063076841e+001,-1.95822145350243e+000

9.06307108236633e+004,-2.13131505052588e+001,-1.98555348872867e+000

9.18958683997622e+004,-2.13131959449341e+001,-2.01326690712615e+000

9.31786869174758e+004,-2.13132426616039e+001,-2.04136702590678e+000

9.44794129143618e+004,-2.13132906911413e+001,-2.06985923622400e+000

9.57982963695136e+004,-2.13133400704268e+001,-2.09874900419212e+000

9.71355907516031e+004,-2.13133908373758e+001,-2.12804187192187e+000

9.84915530675926e+004,-2.13134430309679e+001,-2.15774345856614e+000

9.98664439121282e+004,-2.13134966912768e+001,-2.18785946138266e+000

1.01260527517622e+005,-2.13135518595008e+001,-2.21839565681039e+000

1.02674071805032e+005,-2.13136085779941e+001,-2.24935790155978e+000

1.04107348435354e+005,-2.13136668902999e+001,-2.28075213371787e+000

1.05560632861831e+005,-2.13137268411829e+001,-2.31258437386780e+000

1.07034204382888e+005,-2.13137884766638e+001,-2.34486072622432e+000

1.08528346195813e+005,-2.13138518440547e+001,-2.37758737978287e+000

1.10043345451179e+005,-2.13139169919950e+001,-2.41077060948565e+000

1.11579493308032e+005,-2.13139839704885e+001,-2.44441677740200e+000

1.13137084989847e+005,-2.13140528309419e+001,-2.47853233392447e+000

1.14716419841265e+005,-2.13141236262037e+001,-2.51312381898223e+000

1.16317801385624e+005,-2.13141964106049e+001,-2.54819786326784e+000

1.17941537383287e+005,-2.13142712400001e+001,-2.58376118948324e+000

1.19587939890794e+005,-2.13143481718105e+001,-2.61982061359965e+000

1.21257325320831e+005,-2.13144272650676e+001,-2.65638304613608e+000

1.22950014503040e+005,-2.13145085804580e+001,-2.69345549345331e+000

1.24666332745679e+005,-2.13145921803700e+001,-2.73104505906484e+000

1.26406609898139e+005,-2.13146781289412e+001,-2.76915894496693e+000

1.28171180414339e+005,-2.13147664921070e+001,-2.80780445298272e+000

1.29960383416997e+005,-2.13148573376513e+001,-2.84698898612684e+000

1.31774562762811e+005,-2.13149507352579e+001,-2.88672004998705e+000

1.33614067108538e+005,-2.13150467565639e+001,-2.92700525412236e+000

1.35479249978003e+005,-2.13151454752137e+001,-2.96785231348167e+000

1.37370469830040e+005,-2.13152469669159e+001,-3.00926904983838e+000

1.39288090127379e+005,-2.13153513094999e+001,-3.05126339324587e+000

1.41232479406504e+005,-2.13154585829761e+001,-3.09384338350980e+000

1.43204011348474e+005,-2.13155688695963e+001,-3.13701717168031e+000

1.45203064850745e+005,-2.13156822539164e+001,-3.18079302156308e+000

1.47230024099979e+005,-2.13157988228606e+001,-3.22517931125009e+000

1.49285278645888e+005,-2.13159186657874e+001,-3.27018453466973e+000

1.51369223476094e+005,-2.13160418745579e+001,-3.31581730315517e+000

1.53482259092041e+005,-2.13161685436051e+001,-3.36208634703634e+000

1.55624791585964e+005,-2.13162987700060e+001,-3.40900051724791e+000

1.57797232718936e+005,-2.13164326535552e+001,-3.45656878695921e+000

1.59999999999999e+005,-2.13165702968404e+001,-3.50480025322620e+000

1.62233516766403e+005,-2.13167118053206e+001,-3.55370413866171e+000

1.64498212264969e+005,-2.13168572874058e+001,-3.60328979312744e+000

1.66794521734578e+005,-2.13170068545393e+001,-3.65356669544781e+000

1.69122886489819e+005,-2.13171606212821e+001,-3.70454445514391e+000

1.71483754005805e+005,-2.13173187054000e+001,-3.75623281418916e+000

1.73877578004168e+005,-2.13174812279519e+001,-3.80864164878778e+000

1.76304818540256e+005,-2.13176483133827e+001,-3.86178097117295e+000

1.78765942091554e+005,-2.13178200896162e+001,-3.91566093142864e+000

1.81261421647326e+005,-2.13179966881526e+001,-3.97029181933327e+000

1.83791736799524e+005,-2.13181782441677e+001,-4.02568406622496e+000

1.86357373834951e+005,-2.13183648966149e+001,-4.08184824688967e+000

1.88958825828723e+005,-2.13185567883303e+001,-4.13879508147313e+000

1.91596592739027e+005,-2.13187540661403e+001,-4.19653543741367e+000

1.94271181503206e+005,-2.13189568809726e+001,-4.25508033139884e+000

1.96983106135185e+005,-2.13191653879695e+001,-4.31444093134624e+000

1.99732887824256e+005,-2.13193797466057e+001,-4.37462855840565e+000

2.02521055035243e+005,-2.13196001208072e+001,-4.43565468898612e+000

2.05348143610063e+005,-2.13198266790758e+001,-4.49753095680604e+000

2.08214696870707e+005,-2.13200595946150e+001,-4.56026915496705e+000

2.11121265723661e+005,-2.13202990454607e+001,-4.62388123805161e+000

2.14068408765776e+005,-2.13205452146146e+001,-4.68837932424467e+000

2.17056692391625e+005,-2.13207982901820e+001,-4.75377569747922e+000

2.20086690902357e+005,-2.13210584655125e+001,-4.82008280960616e+000

2.23158986616063e+005,-2.13213259393451e+001,-4.88731328258864e+000

2.26274169979693e+005,-2.13216009159572e+001,-4.95547991072026e+000

2.29432839682530e+005,-2.13218836053173e+001,-5.02459566286796e+000

2.32635602771247e+005,-2.13221742232424e+001,-5.09467368473921e+000

2.35883074766574e+005,-2.13224729915588e+001,-5.16572730117438e+000

2.39175879781588e+005,-2.13227801382684e+001,-5.23777001846260e+000

2.42514650641661e+005,-2.13230958977183e+001,-5.31081552668363e+000

2.45900029006080e+005,-2.13234205107759e+001,-5.38487770207315e+000

2.49332665491357e+005,-2.13237542250080e+001,-5.45997060941327e+000

2.52813219796278e+005,-2.13240972948656e+001,-5.53610850444817e+000

2.56342360828676e+005,-2.13244499818725e+001,-5.61330583632347e+000

2.59920766833993e+005,-2.13248125548198e+001,-5.69157725005077e+000

2.63549125525621e+005,-2.13251852899658e+001,-5.77093758899665e+000

2.67228134217075e+005,-2.13255684712403e+001,-5.85140189739680e+000

2.70958499956006e+005,-2.13259623904551e+001,-5.93298542289329e+000

2.74740939660078e+005,-2.13263673475198e+001,-6.01570361909760e+000

2.78576180254757e+005,-2.13267836506640e+001,-6.09957214817668e+000

2.82464958813007e+005,-2.13272116166638e+001,-6.18460688346473e+000

2.86408022696948e+005,-2.13276515710767e+001,-6.27082391209629e+000

2.90406129701488e+005,-2.13281038484802e+001,-6.35823953766643e+000

2.94460048199957e+005,-2.13285687927187e+001,-6.44687028291155e+000

2.98570557291775e+005,-2.13290467571560e+001,-6.53673289241560e+000

3.02738446952187e+005,-2.13295381049340e+001,-6.62784433533833e+000

3.06964518184081e+005,-2.13300432092399e+001,-6.72022180816632e+000

3.11249583171928e+005,-2.13305624535781e+001,-6.81388273748742e+000

3.15594465437872e+005,-2.13310962320514e+001,-6.90884478278659e+000

3.19999999999997e+005,-2.13316449496481e+001,-7.00512583926389e+000

3.24467033532806e+005,-2.13322090225371e+001,-7.10274404067372e+000

3.28996424529938e+005,-2.13327888783708e+001,-7.20171776218524e+000

3.33589043469155e+005,-2.13333849565958e+001,-7.30206562326337e+000

3.38245772979638e+005,-2.13339977087710e+001,-7.40380649057029e+000

3.42967508011610e+005,-2.13346275988954e+001,-7.50695948088526e+000

3.47755156008335e+005,-2.13352751037428e+001,-7.61154396404434e+000

3.52609637080511e+005,-2.13359407132059e+001,-7.71757956589877e+000

3.57531884183106e+005,-2.13366249306490e+001,-7.82508617129013e+000

3.62522843294651e+005,-2.13373282732702e+001,-7.93408392704325e+000

3.67583473599047e+005,-2.13380512724718e+001,-8.04459324497456e+000

3.72714747669902e+005,-2.13387944742412e+001,-8.15663480491705e+000

3.77917651657445e+005,-2.13395584395407e+001,-8.27022955775906e+000

3.83193185478053e+005,-2.13403437447079e+001,-8.38539872849682e+000

3.88542363006410e+005,-2.13411509818650e+001,-8.50216381930035e+000

3.93966212270369e+005,-2.13419807593398e+001,-8.62054661259041e+000

3.99465775648511e+005,-2.13428337020960e+001,-8.74056917412670e+000

4.05042110070485e+005,-2.13437104521749e+001,-8.86225385610576e+000

4.10696287220124e+005,-2.13446116691482e+001,-8.98562330026676e+000

4.16429393741414e+005,-2.13455380305813e+001,-9.11070044100489e+000

4.22242531447321e+005,-2.13464902325082e+001,-9.23750850849087e+000

4.28136817531551e+005,-2.13474689899189e+001,-9.36607103179412e+000

4.34113384783250e+005,-2.13484750372575e+001,-9.49641184200975e+000

4.40173381804713e+005,-2.13495091289332e+001,-9.62855507538677e+000

4.46317973232124e+005,-2.13505720398433e+001,-9.76252517645594e+000

4.52548339959385e+005,-2.13516645659088e+001,-9.89834690115619e+000

4.58865679365059e+005,-2.13527875246231e+001,-1.00360453199576e+001

4.65271205542494e+005,-2.13539417556135e+001,-1.01756458209780e+001

4.71766149533147e+005,-2.13551281212159e+001,-1.03171741130932e+001

4.78351759563174e+005,-2.13563475070638e+001,-1.04606562290376e+001

4.85029301283321e+005,-2.13576008226900e+001,-1.06061185284923e+001

4.91800058012158e+005,-2.13588890021430e+001,-1.07535877011611e+001

4.98665330982714e+005,-2.13602130046178e+001,-1.09030907698282e+001

5.05626439592555e+005,-2.13615738151006e+001,-1.10546550933992e+001

5.12684721657352e+005,-2.13629724450286e+001,-1.12083083699198e+001

5.19841533667984e+005,-2.13644099329651e+001,-1.13640786395709e+001

5.27098251051240e+005,-2.13658873452890e+001,-1.15219942876374e+001

5.34456268434150e+005,-2.13674057769005e+001,-1.16820840474469e+001

5.41916999912011e+005,-2.13689663519418e+001,-1.18443770032763e+001

