Freq.,VOut,OutRef

1.00000000000000e+004,-2.51593330925325e+001,-1.69108852676276e-001

1.01395947979003e+004,-2.51593334755805e+001,-1.71469521446513e-001

1.02811382665607e+004,-2.51593338693977e+001,-1.73863143802368e-001

1.04246576084112e+004,-2.51593342742864e+001,-1.76290179756526e-001

1.05701804056138e+004,-2.51593346905581e+001,-1.78751095738094e-001

1.07177346253629e+004,-2.51593351185327e+001,-1.81246364690262e-001

1.08673486252606e+004,-2.51593355585393e+001,-1.83776466156395e-001

1.10190511587661e+004,-2.51593360109161e+001,-1.86341886374384e-001

1.11728713807222e+004,-2.51593364760110e+001,-1.88943118368760e-001

1.13288388529580e+004,-2.51593369541815e+001,-1.91580662046587e-001

1.14869835499703e+004,-2.51593374457950e+001,-1.94255024294426e-001

1.16473358646846e+004,-2.51593379512296e+001,-1.96966719072742e-001

1.18099266142953e+004,-2.51593384708739e+001,-1.99716267516679e-001

1.19747870461893e+004,-2.51593390051273e+001,-2.02504198035231e-001

1.21419488439505e+004,-2.51593395544005e+001,-2.05331046415548e-001

1.23114441334492e+004,-2.51593401191159e+001,-2.08197355920808e-001

1.24833054890161e+004,-2.51593406997075e+001,-2.11103677399386e-001

1.26575659397028e+004,-2.51593412966215e+001,-2.14050569390050e-001

1.28342589756290e+004,-2.51593419103172e+001,-2.17038598223819e-001

1.30134185544193e+004,-2.51593425412662e+001,-2.20068338140820e-001

1.31950791077289e+004,-2.51593431899534e+001,-2.23140371396456e-001

1.33792755478611e+004,-2.51593438568776e+001,-2.26255288372188e-001

1.35660432744767e+004,-2.51593445425513e+001,-2.29413687691684e-001

1.37554181813974e+004,-2.51593452475020e+001,-2.32616176333221e-001

1.39474366635040e+004,-2.51593459722714e+001,-2.35863369748858e-001

1.41421356237309e+004,-2.51593467174168e+001,-2.39155891981229e-001

1.43395524801583e+004,-2.51593474835110e+001,-2.42494375783301e-001

1.45397251732031e+004,-2.51593482711428e+001,-2.45879462741594e-001

1.47426921729110e+004,-2.51593490809179e+001,-2.49311803397036e-001

1.49484924863494e+004,-2.51593499134586e+001,-2.52792057371726e-001

1.51571656651040e+004,-2.51593507694051e+001,-2.56320893494838e-001

1.53687518128801e+004,-2.51593516494154e+001,-2.59898989930920e-001

1.55832915932100e+004,-2.51593525541661e+001,-2.63527034311520e-001

1.58008262372675e+004,-2.51593534843524e+001,-2.67205723866675e-001

1.60213975517924e+004,-2.51593544406898e+001,-2.70935765557246e-001

1.62450479271247e+004,-2.51593554239133e+001,-2.74717876213144e-001

1.64718203453514e+004,-2.51593564347786e+001,-2.78552782670565e-001

1.67017583885674e+004,-2.51593574740631e+001,-2.82441221909609e-001

1.69349062472505e+004,-2.51593585425655e+001,-2.86383941198573e-001

1.71713087287550e+004,-2.51593596411075e+001,-2.90381698235172e-001

1.74110112659224e+004,-2.51593607705334e+001,-2.94435261293623e-001

1.76540599258131e+004,-2.51593619317115e+001,-2.98545409373230e-001

1.79005014185594e+004,-2.51593631255345e+001,-3.02712932344797e-001

1.81503831063432e+004,-2.51593643529200e+001,-3.06938631105493e-001

1.84037530124975e+004,-2.51593656148118e+001,-3.11223317729919e-001

1.86606598307361e+004,-2.51593669121798e+001,-3.15567815629127e-001

1.89211529345119e+004,-2.51593682460214e+001,-3.19972959707179e-001

1.91852823865052e+004,-2.51593696173621e+001,-3.24439596519951e-001

1.94530989482457e+004,-2.51593710272559e+001,-3.28968584442211e-001

1.97246540898671e+004,-2.51593724767868e+001,-3.33560793827239e-001

1.99999999999999e+004,-2.51593739670691e+001,-3.38217107178221e-001

2.02791895958005e+004,-2.51593754992486e+001,-3.42938419314927e-001

2.05622765331213e+004,-2.51593770745030e+001,-3.47725637546939e-001

2.08493152168224e+004,-2.51593786940431e+001,-3.52579681849353e-001

2.11403608112276e+004,-2.51593803591142e+001,-3.57501485036058e-001

2.14354692507258e+004,-2.51593820709962e+001,-3.62491992940914e-001

2.17346972505211e+004,-2.51593838310051e+001,-3.67552164599690e-001

2.20381023175322e+004,-2.51593856404940e+001,-3.72682972433706e-001

2.23457427614443e+004,-2.51593875008537e+001,-3.77885402437267e-001

2.26576777059159e+004,-2.51593894135146e+001,-3.83160454364935e-001

2.29739670999406e+004,-2.51593913799469e+001,-3.88509141927246e-001

2.32946717293690e+004,-2.51593934016622e+001,-3.93932492982214e-001

2.36198532285905e+004,-2.51593954802148e+001,-3.99431549732807e-001

2.39495740923785e+004,-2.51593976172026e+001,-4.05007368929497e-001

2.42838976879009e+004,-2.51593998142683e+001,-4.10661022070996e-001

2.46228882668982e+004,-2.51594020731007e+001,-4.16393595611852e-001

2.49666109780322e+004,-2.51594043954367e+001,-4.22206191168393e-001

2.53151318794055e+004,-2.51594067830610e+001,-4.28099925733959e-001

2.56685179512580e+004,-2.51594092378095e+001,-4.34075931889938e-001

2.60268371088386e+004,-2.51594117615690e+001,-4.40135358024885e-001

2.63901582154578e+004,-2.51594143562796e+001,-4.46279368556131e-001

2.67585510957221e+004,-2.51594170239360e+001,-4.52509144150367e-001

2.71320865489533e+004,-2.51594197665888e+001,-4.58825881952971e-001

2.75108363627948e+004,-2.51594225863466e+001,-4.65230795816620e-001

2.78948733270080e+004,-2.51594254853768e+001,-4.71725116535595e-001

2.82842712474618e+004,-2.51594284659080e+001,-4.78310092081116e-001

2.86791049603164e+004,-2.51594315302313e+001,-4.84986987839827e-001

2.90794503464061e+004,-2.51594346807025e+001,-4.91757086859631e-001

2.94853843458219e+004,-2.51594379197433e+001,-4.98621690092980e-001

2.98969849726987e+004,-2.51594412498436e+001,-5.05582116648778e-001

3.03143313302078e+004,-2.51594446735635e+001,-5.12639704044656e-001

3.07375036257601e+004,-2.51594481935345e+001,-5.19795808464737e-001

3.11665831864199e+004,-2.51594518124628e+001,-5.27051805017700e-001

3.16016524745350e+004,-2.51594555331302e+001,-5.34409088003112e-001

3.20427951035848e+004,-2.51594593583966e+001,-5.41869071178851e-001

3.24900958542493e+004,-2.51594632912028e+001,-5.49433188029866e-001

3.29436406907028e+004,-2.51594673345718e+001,-5.57102892046891e-001

3.34035167771346e+004,-2.51594714916119e+001,-5.64879657003542e-001

3.38698124945009e+004,-2.51594757655185e+001,-5.72764977238565e-001

3.43426174575100e+004,-2.51594801595770e+001,-5.80760367943990e-001

3.48220225318448e+004,-2.51594846771650e+001,-5.88867365455901e-001

3.53081198516260e+004,-2.51594893217553e+001,-5.97087527547400e-001

3.58010028371187e+004,-2.51594940969181e+001,-6.05422433729835e-001

3.63007662126863e+004,-2.51594990063240e+001,-6.13873685555284e-001

3.68075060249948e+004,-2.51595040537469e+001,-6.22442906922118e-001

3.73213196614721e+004,-2.51595092430666e+001,-6.31131744388227e-001

3.78423058690237e+004,-2.51595145782721e+001,-6.39941867488054e-001

3.83705647730104e+004,-2.51595200634643e+001,-6.48874969050057e-001

3.89061978964912e+004,-2.51595257028597e+001,-6.57932765523261e-001

3.94493081797342e+004,-2.51595315007932e+001,-6.67116997305537e-001

3.99999999999998e+004,-2.51595374617215e+001,-6.76429429078990e-001

4.05583791916010e+004,-2.51595435902265e+001,-6.85871850147361e-001

4.11245530662425e+004,-2.51595498910191e+001,-6.95446074778079e-001

4.16986304336447e+004,-2.51595563689424e+001,-7.05153942553065e-001

4.22807216224550e+004,-2.51595630289757e+001,-7.14997318718938e-001

4.28709385014515e+004,-2.51595698762384e+001,-7.24978094546176e-001

4.34693945010421e+004,-2.51595769159937e+001,-7.35098187690661e-001

4.40762046350642e+004,-2.51595841536525e+001,-7.45359542562922e-001

4.46914855228886e+004,-2.51595915947783e+001,-7.55764130698857e-001

4.53153554118317e+004,-2.51595992450905e+001,-7.66313951139760e-001

4.59479341998812e+004,-2.51596071104694e+001,-7.77011030814445e-001

4.65893434587380e+004,-2.51596151969608e+001,-7.87857424927423e-001

4.72397064571810e+004,-2.51596235107801e+001,-7.98855217353957e-001

4.78991481847569e+004,-2.51596320583176e+001,-8.10006521038894e-001

4.85677953758016e+004,-2.51596408461433e+001,-8.21313478400783e-001

4.92457765337964e+004,-2.51596498810114e+001,-8.32778261744476e-001

4.99332219560642e+004,-2.51596591698665e+001,-8.44403073675307e-001

5.06302637588109e+004,-2.51596687198480e+001,-8.56190147521958e-001

5.13370359025159e+004,-2.51596785382961e+001,-8.68141747764610e-001

5.20536742176771e+004,-2.51596886327574e+001,-8.80260170468297e-001

5.27803164309155e+004,-2.51596990109903e+001,-8.92547743722409e-001

5.35171021914442e+004,-2.51597096809717e+001,-9.05006828087596e-001

5.42641730979066e+004,-2.51597206509022e+001,-9.17639817047394e-001

5.50216727255895e+004,-2.51597319292132e+001,-9.30449137465503e-001

5.57897466540159e+004,-2.51597435245729e+001,-9.43437250052973e-001

5.65685424949235e+004,-2.51597554458932e+001,-9.56606649835958e-001

5.73582099206328e+004,-2.51597677023365e+001,-9.69959866636342e-001

5.81589006928121e+004,-2.51597803033225e+001,-9.83499465554117e-001

5.89707686916437e+004,-2.51597932585359e+001,-9.97228047459753e-001

5.97939699453972e+004,-2.51598065779332e+001,-1.01114824949028e+000

6.06286626604156e+004,-2.51598202717511e+001,-1.02526274555532e+000

6.14750072515201e+004,-2.51598343505138e+001,-1.03957424684743e+000

6.23331663728396e+004,-2.51598488250410e+001,-1.05408550236252e+000

6.32033049490698e+004,-2.51598637064570e+001,-1.06879929942301e+000

6.40855902071694e+004,-2.51598790061982e+001,-1.08371846421425e+000

6.49801917084985e+004,-2.51598947360226e+001,-1.09884586232161e+000

6.58872813814055e+004,-2.51599109080186e+001,-1.11418439928087e+000

6.68070335542691e+004,-2.51599275346143e+001,-1.12973702113162e+000

6.77396249890018e+004,-2.51599446285868e+001,-1.14550671498244e+000

6.86852349150199e+004,-2.51599622030727e+001,-1.16149650957987e+000

6.96440450636895e+004,-2.51599802715773e+001,-1.17770947588882e+000

7.06162397032520e+004,-2.51599988479854e+001,-1.19414872767806e+000

7.16020056742374e+004,-2.51600179465722e+001,-1.21081742211477e+000

7.26015324253724e+004,-2.51600375820138e+001,-1.22771876036896e+000

7.36150120499896e+004,-2.51600577693987e+001,-1.24485598822361e+000

7.46426393229441e+004,-2.51600785242394e+001,-1.26223239669409e+000

7.56846117380472e+004,-2.51600998624841e+001,-1.27985132265727e+000

7.67411295460207e+004,-2.51601218005293e+001,-1.29771614948782e+000

7.78123957929823e+004,-2.51601443552318e+001,-1.31583030770382e+000

7.88986163594682e+004,-2.51601675439224e+001,-1.33419727562128e+000

7.99999999999995e+004,-2.51601913844186e+001,-1.35282058001687e+000

8.11167583832018e+004,-2.51602158950384e+001,-1.37170379680153e+000

8.22491061324848e+004,-2.51602410946145e+001,-1.39085055170158e+000

8.33972608672892e+004,-2.51602670025087e+001,-1.41026452094966e+000

8.45614432449099e+004,-2.51602936386265e+001,-1.42994943198532e+000

8.57418770029029e+004,-2.51603210234327e+001,-1.44990906416562e+000

8.69387890020841e+004,-2.51603491779671e+001,-1.47014724948383e+000

8.81524092701283e+004,-2.51603781238603e+001,-1.49066787330074e+000

8.93829710457770e+004,-2.51604078833506e+001,-1.51147487508181e+000

9.06307108236633e+004,-2.51604384793009e+001,-1.53257224915039e+000

9.18958683997622e+004,-2.51604699352163e+001,-1.55396404544357e+000

9.31786869174758e+004,-2.51605022752620e+001,-1.57565437028627e+000

9.44794129143618e+004,-2.51605355242821e+001,-1.59764738716953e+000

9.57982963695136e+004,-2.51605697078183e+001,-1.61994731754280e+000

9.71355907516031e+004,-2.51606048521297e+001,-1.64255844161636e+000

9.84915530675926e+004,-2.51606409842127e+001,-1.66548509917414e+000

9.98664439121282e+004,-2.51606781318222e+001,-1.68873169039748e+000

1.01260527517622e+005,-2.51607163234922e+001,-1.71230267670193e+000

1.02674071805032e+005,-2.51607555885580e+001,-1.73620258158181e+000

1.04107348435354e+005,-2.51607959571789e+001,-1.76043599147034e+000

1.05560632861831e+005,-2.51608374603607e+001,-1.78500755660800e+000

1.07034204382888e+005,-2.51608801299803e+001,-1.80992199192458e+000

1.08528346195813e+005,-2.51609239988089e+001,-1.83518407793375e+000

1.10043345451179e+005,-2.51609691005385e+001,-1.86079866163598e+000

1.11579493308032e+005,-2.51610154698067e+001,-1.88677065743940e+000

1.13137084989847e+005,-2.51610631422236e+001,-1.91310504808676e+000

1.14716419841265e+005,-2.51611121543988e+001,-1.93980688560126e+000

1.16317801385624e+005,-2.51611625439701e+001,-1.96688129223895e+000

1.17941537383287e+005,-2.51612143496312e+001,-1.99433346145937e+000

1.19587939890794e+005,-2.51612676111624e+001,-2.02216865890446e+000

1.21257325320831e+005,-2.51613223694604e+001,-2.05039222339531e+000

1.22950014503040e+005,-2.51613786665697e+001,-2.07900956793678e+000

1.24666332745679e+005,-2.51614365457150e+001,-2.10802618074225e+000

1.26406609898139e+005,-2.51614960513341e+001,-2.13744762626439e+000

1.28171180414339e+005,-2.51615572291115e+001,-2.16727954624711e+000

1.29960383416997e+005,-2.51616201260141e+001,-2.19752766078633e+000

1.31774562762811e+005,-2.51616847903267e+001,-2.22819776940662e+000

1.33614067108538e+005,-2.51617512716886e+001,-2.25929575215274e+000

1.35479249978003e+005,-2.51618196211320e+001,-2.29082757069522e+000

1.37370469830040e+005,-2.51618898911211e+001,-2.32279926944973e+000

1.39288090127379e+005,-2.51619621355916e+001,-2.35521697671227e+000

1.41232479406504e+005,-2.51620364099924e+001,-2.38808690580908e+000

1.43204011348474e+005,-2.51621127713277e+001,-2.42141535626194e+000

1.45203064850745e+005,-2.51621912782008e+001,-2.45520871496854e+000

1.47230024099979e+005,-2.51622719908583e+001,-2.48947345739784e+000

1.49285278645888e+005,-2.51623549712368e+001,-2.52421614880176e+000

1.51369223476094e+005,-2.51624402830096e+001,-2.55944344544343e+000

1.53482259092041e+005,-2.51625279916357e+001,-2.59516209583955e+000

1.55624791585964e+005,-2.51626181644091e+001,-2.63137894202122e+000

1.57797232718936e+005,-2.51627108705111e+001,-2.66810092080882e+000

1.59999999999999e+005,-2.51628061810622e+001,-2.70533506510563e+000

1.62233516766403e+005,-2.51629041691764e+001,-2.74308850520685e+000

1.64498212264969e+005,-2.51630049100176e+001,-2.78136847012604e+000

1.66794521734578e+005,-2.51631084808562e+001,-2.82018228893871e+000

1.69122886489819e+005,-2.51632149611281e+001,-2.85953739214246e+000

1.71483754005805e+005,-2.51633244324953e+001,-2.89944131303661e+000

1.73877578004168e+005,-2.51634369789082e+001,-2.93990168911613e+000

1.76304818540256e+005,-2.51635526866691e+001,-2.98092626348724e+000

1.78765942091554e+005,-2.51636716444984e+001,-3.02252288629748e+000

1.81261421647326e+005,-2.51637939436014e+001,-3.06469951618754e+000

1.83791736799524e+005,-2.51639196777385e+001,-3.10746422175766e+000

1.86357373834951e+005,-2.51640489432959e+001,-3.15082518305507e+000

1.88958825828723e+005,-2.51641818393588e+001,-3.19479069308077e+000

1.91596592739027e+005,-2.51643184677872e+001,-3.23936915931192e+000

1.94271181503206e+005,-2.51644589332927e+001,-3.28456910524675e+000

1.96983106135185e+005,-2.51646033435185e+001,-3.33039917196720e+000

1.99732887824256e+005,-2.51647518091208e+001,-3.37686811972039e+000

2.02521055035243e+005,-2.51649044438525e+001,-3.42398482952175e+000

2.05348143610063e+005,-2.51650613646503e+001,-3.47175830477496e+000

2.08214696870707e+005,-2.51652226917224e+001,-3.52019767291460e+000

2.11121265723661e+005,-2.51653885486405e+001,-3.56931218706677e+000

2.14068408765776e+005,-2.51655590624326e+001,-3.61911122773235e+000

2.17056692391625e+005,-2.51657343636798e+001,-3.66960430448740e+000

2.20086690902357e+005,-2.51659145866146e+001,-3.72080105770739e+000

2.23158986616063e+005,-2.51660998692230e+001,-3.77271126031003e+000

2.26274169979693e+005,-2.51662903533487e+001,-3.82534481951948e+000

2.29432839682530e+005,-2.51664861848000e+001,-3.87871177865288e+000

2.32635602771247e+005,-2.51666875134602e+001,-3.93282231892503e+000

2.35883074766574e+005,-2.51668944934010e+001,-3.98768676127808e+000

2.39175879781588e+005,-2.51671072829982e+001,-4.04331556822990e+000

2.42514650641661e+005,-2.51673260450519e+001,-4.09971934574497e+000

2.45900029006080e+005,-2.51675509469087e+001,-4.15690884512698e+000

2.49332665491357e+005,-2.51677821605880e+001,-4.21489496493342e+000

2.52813219796278e+005,-2.51680198629117e+001,-4.27368875291120e+000

2.56342360828676e+005,-2.51682642356369e+001,-4.33330140795606e+000

2.59920766833993e+005,-2.51685154655932e+001,-4.39374428209137e+000

2.63549125525621e+005,-2.51687737448226e+001,-4.45502888247222e+000

2.67228134217075e+005,-2.51690392707239e+001,-4.51716687340944e+000

2.70958499956006e+005,-2.51693122462015e+001,-4.58017007841700e+000

2.74740939660078e+005,-2.51695928798167e+001,-4.64405048228168e+000

2.78576180254757e+005,-2.51698813859448e+001,-4.70882023315572e+000

2.82464958813007e+005,-2.51701779849355e+001,-4.77449164467087e+000

2.86408022696948e+005,-2.51704829032778e+001,-4.84107719807600e+000

2.90406129701488e+005,-2.51707963737695e+001,-4.90858954439704e+000

2.94460048199957e+005,-2.51711186356914e+001,-4.97704150661959e+000

2.98570557291775e+005,-2.51714499349857e+001,-5.04644608189372e+000

3.02738446952187e+005,-2.51717905244400e+001,-5.11681644376214e+000

3.06964518184081e+005,-2.51721406638755e+001,-5.18816594441047e+000

3.11249583171928e+005,-2.51725006203407e+001,-5.26050811693992e+000

3.15594465437872e+005,-2.51728706683104e+001,-5.33385667766345e+000

3.19999999999997e+005,-2.51732510898893e+001,-5.40822552842249e+000

3.24467033532806e+005,-2.51736421750224e+001,-5.48362875892860e+000

3.28996424529938e+005,-2.51740442217095e+001,-5.56008064912497e+000

3.33589043469155e+005,-2.51744575362269e+001,-5.63759567157142e+000

3.38245772979638e+005,-2.51748824333536e+001,-5.71618849385133e+000

3.42967508011610e+005,-2.51753192366051e+001,-5.79587398099955e+000

3.47755156008335e+005,-2.51757682784717e+001,-5.87666719795361e+000

3.52609637080511e+005,-2.51762299006647e+001,-5.95858341202450e+000

3.57531884183106e+005,-2.51767044543682e+001,-6.04163809539019e+000

3.62522843294651e+005,-2.51771923004976e+001,-6.12584692760952e+000

3.67583473599047e+005,-2.51776938099659e+001,-6.21122579815667e+000

3.72714747669902e+005,-2.51782093639555e+001,-6.29779080897675e+000

3.77917651657445e+005,-2.51787393541985e+001,-6.38555827706104e+000

3.83193185478053e+005,-2.51792841832636e+001,-6.47454473704186e+000

3.88542363006410e+005,-2.51798442648510e+001,-6.56476694380721e+000

3.93966212270369e+005,-2.51804200240949e+001,-6.65624187513460e+000

3.99465775648511e+005,-2.51810118978732e+001,-6.74898673434247e+000

4.05042110070485e+005,-2.51816203351270e+001,-6.84301895296081e+000

4.10696287220124e+005,-2.51822457971863e+001,-6.93835619341854e+000

4.16429393741414e+005,-2.51828887581059e+001,-7.03501635174818e+000

4.22242531447321e+005,-2.51835497050091e+001,-7.13301756030702e+000

4.28136817531551e+005,-2.51842291384403e+001,-7.23237819051404e+000

4.34113384783250e+005,-2.51849275727275e+001,-7.33311685560169e+000

4.40173381804713e+005,-2.51856455363527e+001,-7.43525241338200e+000

4.46317973232124e+005,-2.51863835723334e+001,-7.53880396902708e+000

4.52548339959385e+005,-2.51871422386127e+001,-7.64379087786181e+000

4.58865679365059e+005,-2.51879221084599e+001,-7.75023274816802e+000

4.65271205542494e+005,-2.51887237708809e+001,-7.85814944400129e+000

4.71766149533147e+005,-2.51895478310398e+001,-7.96756108801595e+000

4.78351759563174e+005,-2.51903949106900e+001,-8.07848806430047e+000

4.85029301283321e+005,-2.51912656486171e+001,-8.19095102122072e+000

4.91800058012158e+005,-2.51921607010926e+001,-8.30497087426923e+000

4.98665330982714e+005,-2.51930807423391e+001,-8.42056880892144e+000

5.05626439592555e+005,-2.51940264650064e+001,-8.53776628349488e+000

5.12684721657352e+005,-2.51949985806608e+001,-8.65658503201274e+000

5.19841533667984e+005,-2.51959978202851e+001,-8.77704706706846e+000

5.27098251051240e+005,-2.51970249347916e+001,-8.89917468269055e+000

5.34456268434150e+005,-2.51980806955481e+001,-9.02299045720596e+000

5.41916999912011e+005,-2.51991658949157e+001,-9.14851725610090e+000

