Freq.,VOut,OutRef

1.00000000000000e+004,-1.38680571957929e+000,-4.81011803150941e-002

1.01395947979003e+004,-1.38680571090892e+000,-4.87726477934060e-002

1.02811382665607e+004,-1.38680570199486e+000,-4.94534886088364e-002

1.04246576084112e+004,-1.38680569283007e+000,-5.01438336098984e-002

1.05701804056138e+004,-1.38680568340778e+000,-5.08438154679645e-002

1.07177346253629e+004,-1.38680567372042e+000,-5.15535687109308e-002

1.08673486252606e+004,-1.38680566376077e+000,-5.22732297408010e-002

1.10190511587661e+004,-1.38680565352117e+000,-5.30029368650222e-002

1.11728713807222e+004,-1.38680564299362e+000,-5.37428303229927e-002

1.13288388529580e+004,-1.38680563217016e+000,-5.44930523098886e-002

1.14869835499703e+004,-1.38680562104244e+000,-5.52537470065060e-002

1.16473358646846e+004,-1.38680560960164e+000,-5.60250606083091e-002

1.18099266142953e+004,-1.38680559783932e+000,-5.68071413475316e-002

1.19747870461893e+004,-1.38680558574645e+000,-5.76001395276081e-002

1.21419488439505e+004,-1.38680557331340e+000,-5.84042075529722e-002

1.23114441334492e+004,-1.38680556053109e+000,-5.92194999494719e-002

1.24833054890161e+004,-1.38680554738914e+000,-6.00461734074507e-002

1.26575659397028e+004,-1.38680553387802e+000,-6.08843867967274e-002

1.28342589756290e+004,-1.38680551998667e+000,-6.17343012132398e-002

1.30134185544193e+004,-1.38680550570511e+000,-6.25960799928890e-002

1.31950791077289e+004,-1.38680549102185e+000,-6.34698887593290e-002

1.33792755478611e+004,-1.38680547592584e+000,-6.43558954434243e-002

1.35660432744767e+004,-1.38680546040539e+000,-6.52542703224803e-002

1.37554181813974e+004,-1.38680544444874e+000,-6.61651860489405e-002

1.39474366635040e+004,-1.38680542804335e+000,-6.70888176886957e-002

1.41421356237309e+004,-1.38680541117685e+000,-6.80253427475258e-002

1.43395524801583e+004,-1.38680539383602e+000,-6.89749412126515e-002

1.45397251732031e+004,-1.38680537600773e+000,-6.99377955808558e-002

1.47426921729110e+004,-1.38680535767828e+000,-7.09140908978270e-002

1.49484924863494e+004,-1.38680533883351e+000,-7.19040147925108e-002

1.51571656651040e+004,-1.38680531945887e+000,-7.29077575134509e-002

1.53687518128801e+004,-1.38680529953958e+000,-7.39255119642215e-002

1.55832915932100e+004,-1.38680527906039e+000,-7.49574737399168e-002

1.58008262372675e+004,-1.38680525800532e+000,-7.60038411698694e-002

1.60213975517924e+004,-1.38680523635821e+000,-7.70648153494538e-002

1.62450479271247e+004,-1.38680521410270e+000,-7.81406001793168e-002

1.64718203453514e+004,-1.38680519122145e+000,-7.92314024103090e-002

1.67017583885674e+004,-1.38680516769699e+000,-8.03374316769178e-002

1.69349062472505e+004,-1.38680514351111e+000,-8.14589005414991e-002

1.71713087287550e+004,-1.38680511864529e+000,-8.25960245327579e-002

1.74110112659224e+004,-1.38680509308028e+000,-8.37490221890105e-002

1.76540599258131e+004,-1.38680506679665e+000,-8.49181150970564e-002

1.79005014185594e+004,-1.38680503977401e+000,-8.61035279397208e-002

1.81503831063432e+004,-1.38680501199174e+000,-8.73054885341375e-002

1.84037530124975e+004,-1.38680498342842e+000,-8.85242278789743e-002

1.86606598307361e+004,-1.38680495406201e+000,-8.97599801973351e-002

1.89211529345119e+004,-1.38680492387008e+000,-9.10129829812308e-002

1.91852823865052e+004,-1.38680489282923e+000,-9.22834770393565e-002

1.94530989482457e+004,-1.38680486091573e+000,-9.35717065400588e-002

1.97246540898671e+004,-1.38680482810509e+000,-9.48779190614429e-002

1.99999999999999e+004,-1.38680479437198e+000,-9.62023656376210e-002

2.02791895958005e+004,-1.38680475969054e+000,-9.75453008067122e-002

2.05622765331213e+004,-1.38680472403389e+000,-9.89069826612071e-002

2.08493152168224e+004,-1.38680468737501e+000,-1.00287672893129e-001

2.11403608112276e+004,-1.38680464968538e+000,-1.01687636852095e-001

2.14354692507258e+004,-1.38680461093633e+000,-1.03107143587634e-001

2.17346972505211e+004,-1.38680457109780e+000,-1.04546465909115e-001

2.20381023175322e+004,-1.38680453013919e+000,-1.06005880431528e-001

2.23457427614443e+004,-1.38680448802914e+000,-1.07485667631580e-001

2.26576777059159e+004,-1.38680444473513e+000,-1.08986111902474e-001

2.29739670999406e+004,-1.38680440022398e+000,-1.10507501606197e-001

2.32946717293690e+004,-1.38680435446165e+000,-1.12050129129134e-001

2.36198532285905e+004,-1.38680430741254e+000,-1.13614290943588e-001

2.39495740923785e+004,-1.38680425904080e+000,-1.15200287655170e-001

2.42838976879009e+004,-1.38680420930920e+000,-1.16808424069003e-001

2.46228882668982e+004,-1.38680415817936e+000,-1.18439009244999e-001

2.49666109780322e+004,-1.38680410561203e+000,-1.20092356556554e-001

2.53151318794055e+004,-1.38680405156686e+000,-1.21768783751179e-001

2.56685179512580e+004,-1.38680399600242e+000,-1.23468613012474e-001

2.60268371088386e+004,-1.38680393887570e+000,-1.25192171023127e-001

2.63901582154578e+004,-1.38680388014294e+000,-1.26939789024131e-001

2.67585510957221e+004,-1.38680381975909e+000,-1.28711802880599e-001

2.71320865489533e+004,-1.38680375767756e+000,-1.30508553147339e-001

2.75108363627948e+004,-1.38680369385063e+000,-1.32330385132985e-001

2.78948733270080e+004,-1.38680362822935e+000,-1.34177648965214e-001

2.82842712474618e+004,-1.38680356076325e+000,-1.36050699660286e-001

2.86791049603164e+004,-1.38680349140033e+000,-1.37949897191058e-001

2.90794503464061e+004,-1.38680342008734e+000,-1.39875606554580e-001

2.94853843458219e+004,-1.38680334676954e+000,-1.41828197842315e-001

2.98969849726987e+004,-1.38680327139057e+000,-1.43808046313272e-001

3.03143313302078e+004,-1.38680319389222e+000,-1.45815532465801e-001

3.07375036257601e+004,-1.38680311421519e+000,-1.47851042107316e-001

3.11665831864199e+004,-1.38680303229816e+000,-1.49914966432418e-001

3.16016524745350e+004,-1.38680294807815e+000,-1.52007702096774e-001

3.20427951035848e+004,-1.38680286149039e+000,-1.54129651293024e-001

3.24900958542493e+004,-1.38680277246840e+000,-1.56281221827548e-001

3.29436406907028e+004,-1.38680268094357e+000,-1.58462827201288e-001

3.34035167771346e+004,-1.38680258684564e+000,-1.60674886685833e-001

3.38698124945009e+004,-1.38680249010223e+000,-1.62917825406222e-001

3.43426174575100e+004,-1.38680239063898e+000,-1.65192074422251e-001

3.48220225318448e+004,-1.38680228837961e+000,-1.67498070809643e-001

3.53081198516260e+004,-1.38680218324525e+000,-1.69836257748745e-001

3.58010028371187e+004,-1.38680207515506e+000,-1.72207084604340e-001

3.63007662126863e+004,-1.38680196402616e+000,-1.74611007013226e-001

3.68075060249948e+004,-1.38680184977301e+000,-1.77048486974928e-001

3.73213196614721e+004,-1.38680173230774e+000,-1.79519992937277e-001

3.78423058690237e+004,-1.38680161154018e+000,-1.82025999887253e-001

3.83705647730104e+004,-1.38680148737730e+000,-1.84566989443617e-001

3.89061978964912e+004,-1.38680135972383e+000,-1.87143449946378e-001

3.94493081797342e+004,-1.38680122848151e+000,-1.89755876554705e-001

3.99999999999998e+004,-1.38680109354941e+000,-1.92404771339557e-001

4.05583791916010e+004,-1.38680095482393e+000,-1.95090643379273e-001

4.11245530662425e+004,-1.38680081219833e+000,-1.97814008860262e-001

4.16986304336447e+004,-1.38680066556297e+000,-2.00575391174232e-001

4.22807216224550e+004,-1.38680051480521e+000,-2.03375321018619e-001

4.28709385014515e+004,-1.38680035980917e+000,-2.06214336500011e-001

4.34693945010421e+004,-1.38680020045542e+000,-2.09092983238201e-001

4.40762046350642e+004,-1.38680003662174e+000,-2.12011814466130e-001

4.46914855228886e+004,-1.38679986818213e+000,-2.14971391142795e-001

4.53153554118317e+004,-1.38679969500708e+000,-2.17972282056260e-001

4.59479341998812e+004,-1.38679951696336e+000,-2.21015063936740e-001

4.65893434587380e+004,-1.38679933391424e+000,-2.24100321563021e-001

4.72397064571810e+004,-1.38679914571882e+000,-2.27228647879505e-001

4.78991481847569e+004,-1.38679895223264e+000,-2.30400644105389e-001

4.85677953758016e+004,-1.38679875330684e+000,-2.33616919855241e-001

4.92457765337964e+004,-1.38679854878852e+000,-2.36878093252258e-001

4.99332219560642e+004,-1.38679833852039e+000,-2.40184791049479e-001

5.06302637588109e+004,-1.38679812234091e+000,-2.43537648748155e-001

5.13370359025159e+004,-1.38679790008382e+000,-2.46937310722093e-001

5.20536742176771e+004,-1.38679767157832e+000,-2.50384430339362e-001

5.27803164309155e+004,-1.38679743664868e+000,-2.53879670090228e-001

5.35171021914442e+004,-1.38679719511425e+000,-2.57423701712555e-001

5.42641730979066e+004,-1.38679694678946e+000,-2.61017206320916e-001

5.50216727255895e+004,-1.38679669148336e+000,-2.64660874539283e-001

5.57897466540159e+004,-1.38679642899966e+000,-2.68355406631992e-001

5.65685424949235e+004,-1.38679615913661e+000,-2.72101512639014e-001

5.73582099206328e+004,-1.38679588168675e+000,-2.75899912512559e-001

5.81589006928121e+004,-1.38679559643678e+000,-2.79751336255226e-001

5.89707686916437e+004,-1.38679530316747e+000,-2.83656524060176e-001

5.97939699453972e+004,-1.38679500165317e+000,-2.87616226454880e-001

6.06286626604156e+004,-1.38679469166237e+000,-2.91631204441431e-001

6.14750072515201e+004,-1.38679437295652e+000,-2.95702229648793e-001

6.23331663728396e+004,-1.38679404529074e+000,-2.99830084475305e-001

6.32033049490698e+004,-1.38679370841313e+000,-3.04015562242303e-001

6.40855902071694e+004,-1.38679336206469e+000,-3.08259467346452e-001

6.49801917084985e+004,-1.38679300597915e+000,-3.12562615413315e-001

6.58872813814055e+004,-1.38679263988284e+000,-3.16925833454301e-001

6.68070335542691e+004,-1.38679226349424e+000,-3.21349960026848e-001

6.77396249890018e+004,-1.38679187652405e+000,-3.25835845393784e-001

6.86852349150199e+004,-1.38679147867475e+000,-3.30384351688207e-001

6.96440450636895e+004,-1.38679106964053e+000,-3.34996353078348e-001

7.06162397032520e+004,-1.38679064910696e+000,-3.39672735935888e-001

7.16020056742374e+004,-1.38679021675070e+000,-3.44414399007003e-001

7.26015324253724e+004,-1.38678977223939e+000,-3.49222253583695e-001

7.36150120499896e+004,-1.38678931523138e+000,-3.54097223679972e-001

7.46426393229441e+004,-1.38678884537525e+000,-3.59040246209664e-001

7.56846117380472e+004,-1.38678836230994e+000,-3.64052271165036e-001

7.67411295460207e+004,-1.38678786566389e+000,-3.69134261802426e-001

7.78123957929823e+004,-1.38678735505551e+000,-3.74287194822822e-001

7.88986163594682e+004,-1.38678683009220e+000,-3.79512060564363e-001

7.99999999999995e+004,-1.38678629037039e+000,-3.84809863189677e-001

8.11167583832018e+004,-1.38678573547517e+000,-3.90181620879890e-001

8.22491061324848e+004,-1.38678516498003e+000,-3.95628366029931e-001

8.33972608672892e+004,-1.38678457844626e+000,-4.01151145449013e-001

8.45614432449099e+004,-1.38678397542312e+000,-4.06751020557535e-001

8.57418770029029e+004,-1.38678335544702e+000,-4.12429067595340e-001

8.69387890020841e+004,-1.38678271804139e+000,-4.18186377826803e-001

8.81524092701283e+004,-1.38678206271610e+000,-4.24024057751501e-001

8.93829710457770e+004,-1.38678138896754e+000,-4.29943229314677e-001

9.06307108236633e+004,-1.38678069627769e+000,-4.35945030125901e-001

9.18958683997622e+004,-1.38677998411407e+000,-4.42030613675785e-001

9.31786869174758e+004,-1.38677925192923e+000,-4.48201149558569e-001

9.44794129143618e+004,-1.38677849916033e+000,-4.54457823696245e-001

9.57982963695136e+004,-1.38677772522873e+000,-4.60801838567499e-001

9.71355907516031e+004,-1.38677692953938e+000,-4.67234413438382e-001

9.84915530675926e+004,-1.38677611148081e+000,-4.73756784596122e-001

9.98664439121282e+004,-1.38677527042394e+000,-4.80370205588676e-001

1.01260527517622e+005,-1.38677440572239e+000,-4.87075947463053e-001

1.02674071805032e+005,-1.38677351671139e+000,-4.93875299011952e-001

1.04107348435354e+005,-1.38677260270759e+000,-5.00769567020333e-001

1.05560632861831e+005,-1.38677166300829e+000,-5.07760076517614e-001

1.07034204382888e+005,-1.38677069689127e+000,-5.14848171030523e-001

1.08528346195813e+005,-1.38676970361370e+000,-5.22035212844541e-001

1.10043345451179e+005,-1.38676868241226e+000,-5.29322583261806e-001

1.11579493308032e+005,-1.38676763250172e+000,-5.36711682871224e-001

1.13137084989847e+005,-1.38676655307514e+000,-5.44203931813379e-001

1.14716419841265e+005,-1.38676544330273e+000,-5.51800770056973e-001

1.16317801385624e+005,-1.38676430233144e+000,-5.59503657673451e-001

1.17941537383287e+005,-1.38676312928414e+000,-5.67314075119522e-001

1.19587939890794e+005,-1.38676192325921e+000,-5.75233523519959e-001

1.21257325320831e+005,-1.38676068332946e+000,-5.83263524958012e-001

1.22950014503040e+005,-1.38675940854192e+000,-5.91405622766625e-001

1.24666332745679e+005,-1.38675809791655e+000,-5.99661381826715e-001

1.26406609898139e+005,-1.38675675044596e+000,-6.08032388866224e-001

1.28171180414339e+005,-1.38675536509435e+000,-6.16520252767005e-001

1.29960383416997e+005,-1.38675394079684e+000,-6.25126604873046e-001

1.31774562762811e+005,-1.38675247645857e+000,-6.33853099304844e-001

1.33614067108538e+005,-1.38675097095393e+000,-6.42701413277205e-001

1.35479249978003e+005,-1.38674942312580e+000,-6.51673247421164e-001

1.37370469830040e+005,-1.38674783178425e+000,-6.60770326112929e-001

1.39288090127379e+005,-1.38674619570619e+000,-6.69994397803017e-001

1.41232479406504e+005,-1.38674451363397e+000,-6.79347235354626e-001

1.43204011348474e+005,-1.38674278427469e+000,-6.88830636383199e-001

1.45203064850745e+005,-1.38674100629895e+000,-6.98446423603444e-001

1.47230024099979e+005,-1.38673917834022e+000,-7.08196445178096e-001

1.49285278645888e+005,-1.38673729899343e+000,-7.18082575074815e-001

1.51369223476094e+005,-1.38673536681403e+000,-7.28106713426368e-001

1.53482259092041e+005,-1.38673338031674e+000,-7.38270786896565e-001

1.55624791585964e+005,-1.38673133797480e+000,-7.48576749048832e-001

1.57797232718936e+005,-1.38672923821839e+000,-7.59026580724324e-001

1.59999999999999e+005,-1.38672707943346e+000,-7.69622290422081e-001

1.62233516766403e+005,-1.38672485996079e+000,-7.80365914685133e-001

1.64498212264969e+005,-1.38672257809443e+000,-7.91259518492119e-001

1.66794521734578e+005,-1.38672023208044e+000,-8.02305195655573e-001

1.69122886489819e+005,-1.38671782011570e+000,-8.13505069223311e-001

1.71483754005805e+005,-1.38671534034635e+000,-8.24861291887961e-001

1.73877578004168e+005,-1.38671279086638e+000,-8.36376046400838e-001

1.76304818540256e+005,-1.38671016971630e+000,-8.48051545991318e-001

1.78765942091554e+005,-1.38670747488142e+000,-8.59890034793925e-001

1.81261421647326e+005,-1.38670470429062e+000,-8.71893788278112e-001

1.83791736799524e+005,-1.38670185581440e+000,-8.84065113688494e-001

1.86357373834951e+005,-1.38669892726346e+000,-8.96406350486979e-001

1.88958825828723e+005,-1.38669591638702e+000,-9.08919870803531e-001

1.91596592739027e+005,-1.38669282087100e+000,-9.21608079892724e-001

1.94271181503206e+005,-1.38668963833629e+000,-9.34473416596828e-001

1.96983106135185e+005,-1.38668636633692e+000,-9.47518353814659e-001

1.99732887824256e+005,-1.38668300235814e+000,-9.60745398977725e-001

2.02521055035243e+005,-1.38667954381468e+000,-9.74157094532410e-001

2.05348143610063e+005,-1.38667598804848e+000,-9.87756018430207e-001

2.08214696870707e+005,-1.38667233232675e+000,-1.00154478462348e+000

2.11121265723661e+005,-1.38666857384001e+000,-1.01552604356790e+000

2.14068408765776e+005,-1.38666470969979e+000,-1.02970248273383e+000

2.17056692391625e+005,-1.38666073693648e+000,-1.04407682712266e+000

2.20086690902357e+005,-1.38665665249689e+000,-1.05865183979254e+000

2.23158986616063e+005,-1.38665245324222e+000,-1.07343032238853e+000

2.26274169979693e+005,-1.38664813594536e+000,-1.08841511568408e+000

2.29432839682530e+005,-1.38664369728856e+000,-1.10360910012634e+000

2.32635602771247e+005,-1.38663913386081e+000,-1.11901519639163e+000

2.35883074766574e+005,-1.38663444215525e+000,-1.13463636594790e+000

2.39175879781588e+005,-1.38662961856654e+000,-1.15047561162431e+000

2.42514650641661e+005,-1.38662465938798e+000,-1.16653597819023e+000

2.45900029006080e+005,-1.38661956080877e+000,-1.18282055294116e+000

2.49332665491357e+005,-1.38661431891101e+000,-1.19933246629350e+000

2.52813219796278e+005,-1.38660892966669e+000,-1.21607489238823e+000

2.56342360828676e+005,-1.38660338893466e+000,-1.23305104970098e+000

2.59920766833993e+005,-1.38659769245746e+000,-1.25026420166248e+000

2.63549125525621e+005,-1.38659183585795e+000,-1.26771765728842e+000

2.67228134217075e+005,-1.38658581463608e+000,-1.28541477181509e+000

2.70958499956006e+005,-1.38657962416531e+000,-1.30335894734748e+000

2.74740939660078e+005,-1.38657325968917e+000,-1.32155363351393e+000

2.78576180254757e+005,-1.38656671631758e+000,-1.34000232813100e+000

2.82464958813007e+005,-1.38655998902297e+000,-1.35870857787817e+000

2.86408022696948e+005,-1.38655307263670e+000,-1.37767597898038e+000

2.90406129701488e+005,-1.38654596184485e+000,-1.39690817790208e+000

2.94460048199957e+005,-1.38653865118424e+000,-1.41640887204975e+000

2.98570557291775e+005,-1.38653113503826e+000,-1.43618181048492e+000

3.02738446952187e+005,-1.38652340763248e+000,-1.45623079464672e+000

3.06964518184081e+005,-1.38651546303029e+000,-1.47655967908509e+000

3.11249583171928e+005,-1.38650729512839e+000,-1.49717237220375e+000

3.15594465437872e+005,-1.38649889765201e+000,-1.51807283701450e+000

3.19999999999997e+005,-1.38649026415012e+000,-1.53926509190089e+000

3.24467033532806e+005,-1.38648138799062e+000,-1.56075321139393e+000

3.28996424529938e+005,-1.38647226235499e+000,-1.58254132695805e+000

3.33589043469155e+005,-1.38646288023337e+000,-1.60463362778758e+000

3.38245772979638e+005,-1.38645323441892e+000,-1.62703436161590e+000

3.42967508011610e+005,-1.38644331750251e+000,-1.64974783553419e+000

3.47755156008335e+005,-1.38643312186692e+000,-1.67277841682370e+000

3.52609637080511e+005,-1.38642263968107e+000,-1.69613053379809e+000

3.57531884183106e+005,-1.38641186289385e+000,-1.71980867665883e+000

3.62522843294651e+005,-1.38640078322828e+000,-1.74381739836081e+000

3.67583473599047e+005,-1.38638939217487e+000,-1.76816131549318e+000

3.72714747669902e+005,-1.38637768098529e+000,-1.79284510916976e+000

3.77917651657445e+005,-1.38636564066543e+000,-1.81787352593368e+000

3.83193185478053e+005,-1.38635326196897e+000,-1.84325137867361e+000

3.88542363006410e+005,-1.38634053538973e+000,-1.86898354755479e+000

3.93966212270369e+005,-1.38632745115479e+000,-1.89507498096076e+000

3.99465775648511e+005,-1.38631399921700e+000,-1.92153069645008e+000

4.05042110070485e+005,-1.38630016924697e+000,-1.94835578172697e+000

4.10696287220124e+005,-1.38628595062559e+000,-1.97555539562324e+000

4.16429393741414e+005,-1.38627133243561e+000,-2.00313476909699e+000

4.22242531447321e+005,-1.38625630345338e+000,-2.03109920624394e+000

4.28136817531551e+005,-1.38624085214023e+000,-2.05945408532331e+000

4.34113384783250e+005,-1.38622496663383e+000,-2.08820485979749e+000

4.40173381804713e+005,-1.38620863473879e+000,-2.11735705938824e+000

4.46317973232124e+005,-1.38619184391764e+000,-2.14691629114648e+000

4.52548339959385e+005,-1.38617458128110e+000,-2.17688824053706e+000

4.58865679365059e+005,-1.38615683357825e+000,-2.20727867254025e+000

4.65271205542494e+005,-1.38613858718638e+000,-2.23809343276736e+000

4.71766149533147e+005,-1.38611982810069e+000,-2.26933844859348e+000

4.78351759563174e+005,-1.38610054192344e+000,-2.30101973030502e+000

4.85029301283321e+005,-1.38608071385307e+000,-2.33314337226512e+000

4.91800058012158e+005,-1.38606032867291e+000,-2.36571555409401e+000

4.98665330982714e+005,-1.38603937073940e+000,-2.39874254186728e+000

5.05626439592555e+005,-1.38601782397037e+000,-2.43223068933100e+000

5.12684721657352e+005,-1.38599567183259e+000,-2.46618643913363e+000

5.19841533667984e+005,-1.38597289732925e+000,-2.50061632407613e+000

5.27098251051240e+005,-1.38594948298701e+000,-2.53552696837957e+000

5.34456268434150e+005,-1.38592541084258e+000,-2.57092508897094e+000

5.41916999912011e+005,-1.38590066242914e+000,-2.60681749678693e+000

