Freq.,VOut,OutRef

1.00000000000000e+004,-1.20240987095779e+001,-1.03229622255400e-001

1.01395947979003e+004,-1.20240986893839e+001,-1.04670654253446e-001

1.02811382665607e+004,-1.20240986686221e+001,-1.06131802315558e-001

1.04246576084112e+004,-1.20240986472766e+001,-1.07613347252735e-001

1.05701804056138e+004,-1.20240986253310e+001,-1.09115573793935e-001

1.07177346253629e+004,-1.20240986027683e+001,-1.10638770645172e-001

1.08673486252606e+004,-1.20240985795714e+001,-1.12183230540796e-001

1.10190511587661e+004,-1.20240985557222e+001,-1.13749250301985e-001

1.11728713807222e+004,-1.20240985312029e+001,-1.15337130892481e-001

1.13288388529580e+004,-1.20240985059939e+001,-1.16947177481311e-001

1.14869835499703e+004,-1.20240984800764e+001,-1.18579699492065e-001

1.16473358646846e+004,-1.20240984534301e+001,-1.20235010672633e-001

1.18099266142953e+004,-1.20240984260346e+001,-1.21913429146922e-001

1.19747870461893e+004,-1.20240983978692e+001,-1.23615277480631e-001

1.21419488439505e+004,-1.20240983689118e+001,-1.25340882744679e-001

1.23114441334492e+004,-1.20240983391403e+001,-1.27090576572784e-001

1.24833054890161e+004,-1.20240983085319e+001,-1.28864695229174e-001

1.26575659397028e+004,-1.20240982770629e+001,-1.30663579673712e-001

1.28342589756290e+004,-1.20240982447092e+001,-1.32487575622831e-001

1.30134185544193e+004,-1.20240982114459e+001,-1.34337033622076e-001

1.31950791077289e+004,-1.20240981772475e+001,-1.36212309107820e-001

1.33792755478611e+004,-1.20240981420875e+001,-1.38113762480724e-001

1.35660432744767e+004,-1.20240981059391e+001,-1.40041759170057e-001

1.37554181813974e+004,-1.20240980687746e+001,-1.41996669706743e-001

1.39474366635040e+004,-1.20240980305650e+001,-1.43978869797233e-001

1.41421356237309e+004,-1.20240979912814e+001,-1.45988740388213e-001

1.43395524801583e+004,-1.20240979508934e+001,-1.48026667746111e-001

1.45397251732031e+004,-1.20240979093698e+001,-1.50093043532235e-001

1.47426921729110e+004,-1.20240978666789e+001,-1.52188264869406e-001

1.49484924863494e+004,-1.20240978227877e+001,-1.54312734430467e-001

1.51571656651040e+004,-1.20240977776626e+001,-1.56466860504320e-001

1.53687518128801e+004,-1.20240977312691e+001,-1.58651057080888e-001

1.55832915932100e+004,-1.20240976835710e+001,-1.60865743932579e-001

1.58008262372675e+004,-1.20240976345320e+001,-1.63111346686368e-001

1.60213975517924e+004,-1.20240975841145e+001,-1.65388296913597e-001

1.62450479271247e+004,-1.20240975322795e+001,-1.67697032211049e-001

1.64718203453514e+004,-1.20240974789871e+001,-1.70037996282541e-001

1.67017583885674e+004,-1.20240974241965e+001,-1.72411639025992e-001

1.69349062472505e+004,-1.20240973678655e+001,-1.74818416620346e-001

1.71713087287550e+004,-1.20240973099511e+001,-1.77258791610831e-001

1.74110112659224e+004,-1.20240972504082e+001,-1.79733233003358e-001

1.76540599258131e+004,-1.20240971891915e+001,-1.82242216347179e-001

1.79005014185594e+004,-1.20240971262537e+001,-1.84786223832145e-001

1.81503831063432e+004,-1.20240970615465e+001,-1.87365744378142e-001

1.84037530124975e+004,-1.20240969950202e+001,-1.89981273730938e-001

1.86606598307361e+004,-1.20240969266236e+001,-1.92633314557090e-001

1.89211529345119e+004,-1.20240968563040e+001,-1.95322376539210e-001

1.91852823865052e+004,-1.20240967840076e+001,-1.98048976475373e-001

1.94530989482457e+004,-1.20240967096786e+001,-2.00813638377593e-001

1.97246540898671e+004,-1.20240966332600e+001,-2.03616893573497e-001

1.99999999999999e+004,-1.20240965546930e+001,-2.06459280807611e-001

2.02791895958005e+004,-1.20240964739171e+001,-2.09341346345390e-001

2.05622765331213e+004,-1.20240963908704e+001,-2.12263644076839e-001

2.08493152168224e+004,-1.20240963054889e+001,-2.15226735626215e-001

2.11403608112276e+004,-1.20240962177072e+001,-2.18231190454543e-001

2.14354692507258e+004,-1.20240961274573e+001,-2.21277585977167e-001

2.17346972505211e+004,-1.20240960346705e+001,-2.24366507664469e-001

2.20381023175322e+004,-1.20240959392749e+001,-2.27498549164658e-001

2.23457427614443e+004,-1.20240958411975e+001,-2.30674312409807e-001

2.26576777059159e+004,-1.20240957403628e+001,-2.33894407735962e-001

2.29739670999406e+004,-1.20240956366932e+001,-2.37159454000012e-001

2.32946717293690e+004,-1.20240955301092e+001,-2.40470078695713e-001

2.36198532285905e+004,-1.20240954205287e+001,-2.43826918079146e-001

2.39495740923785e+004,-1.20240953078674e+001,-2.47230617286974e-001

2.42838976879009e+004,-1.20240951920389e+001,-2.50681830461343e-001

2.46228882668982e+004,-1.20240950729541e+001,-2.54181220876729e-001

2.49666109780322e+004,-1.20240949505214e+001,-2.57729461067131e-001

2.53151318794055e+004,-1.20240948246467e+001,-2.61327232953444e-001

2.56685179512580e+004,-1.20240946952331e+001,-2.64975227978375e-001

2.60268371088386e+004,-1.20240945621813e+001,-2.68674147234614e-001

2.63901582154578e+004,-1.20240944253890e+001,-2.72424701603454e-001

2.67585510957221e+004,-1.20240942847510e+001,-2.76227611889210e-001

2.71320865489533e+004,-1.20240941401591e+001,-2.80083608959031e-001

2.75108363627948e+004,-1.20240939915024e+001,-2.83993433881453e-001

2.78948733270080e+004,-1.20240938386664e+001,-2.87957838072822e-001

2.82842712474618e+004,-1.20240936815335e+001,-2.91977583437402e-001

2.86791049603164e+004,-1.20240935199832e+001,-2.96053442514195e-001

2.90794503464061e+004,-1.20240933538912e+001,-3.00186198629119e-001

2.94853843458219e+004,-1.20240931831298e+001,-3.04376646042641e-001

2.98969849726987e+004,-1.20240930075676e+001,-3.08625590102496e-001

3.03143313302078e+004,-1.20240928270699e+001,-3.12933847398370e-001

3.07375036257601e+004,-1.20240926414978e+001,-3.17302245920154e-001

3.11665831864199e+004,-1.20240924507086e+001,-3.21731625217743e-001

3.16016524745350e+004,-1.20240922545558e+001,-3.26222836558063e-001

3.20427951035848e+004,-1.20240920528883e+001,-3.30776743094904e-001

3.24900958542493e+004,-1.20240918455515e+001,-3.35394220027824e-001

3.29436406907028e+004,-1.20240916323857e+001,-3.40076154778820e-001

3.34035167771346e+004,-1.20240914132271e+001,-3.44823447153962e-001

3.38698124945009e+004,-1.20240911879074e+001,-3.49637009522487e-001

3.43426174575100e+004,-1.20240909562531e+001,-3.54517766991344e-001

3.48220225318448e+004,-1.20240907180863e+001,-3.59466657579201e-001

3.53081198516260e+004,-1.20240904732238e+001,-3.64484632402680e-001

3.58010028371187e+004,-1.20240902214777e+001,-3.69572655852566e-001

3.63007662126863e+004,-1.20240899626540e+001,-3.74731705786021e-001

3.68075060249948e+004,-1.20240896965541e+001,-3.79962773708335e-001

3.73213196614721e+004,-1.20240894229733e+001,-3.85266864968190e-001

3.78423058690237e+004,-1.20240891417013e+001,-3.90644998947844e-001

3.83705647730104e+004,-1.20240888525219e+001,-3.96098209261001e-001

3.89061978964912e+004,-1.20240885552129e+001,-4.01627543949688e-001

3.94493081797342e+004,-1.20240882495456e+001,-4.07234065687953e-001

3.99999999999998e+004,-1.20240879352850e+001,-4.12918851985003e-001

4.05583791916010e+004,-1.20240876121898e+001,-4.18682995390407e-001

4.11245530662425e+004,-1.20240872800113e+001,-4.24527603708215e-001

4.16986304336447e+004,-1.20240869384945e+001,-4.30453800205620e-001

4.22807216224550e+004,-1.20240865873766e+001,-4.36462723833342e-001

4.28709385014515e+004,-1.20240862263878e+001,-4.42555529439864e-001

4.34693945010421e+004,-1.20240858552506e+001,-4.48733387996336e-001

4.40762046350642e+004,-1.20240854736797e+001,-4.54997486821533e-001

4.46914855228886e+004,-1.20240850813819e+001,-4.61349029808928e-001

4.53153554118317e+004,-1.20240846780555e+001,-4.67789237659489e-001

4.59479341998812e+004,-1.20240842633905e+001,-4.74319348115325e-001

4.65893434587380e+004,-1.20240838370682e+001,-4.80940616197528e-001

4.72397064571810e+004,-1.20240833987610e+001,-4.87654314447515e-001

4.78991481847569e+004,-1.20240829481317e+001,-4.94461733173885e-001

4.85677953758016e+004,-1.20240824848343e+001,-5.01364180695415e-001

4.92457765337964e+004,-1.20240820085123e+001,-5.08362983599300e-001

4.99332219560642e+004,-1.20240815187998e+001,-5.15459486988841e-001

5.06302637588109e+004,-1.20240810153203e+001,-5.22655054749304e-001

5.13370359025159e+004,-1.20240804976868e+001,-5.29951069804157e-001

5.20536742176771e+004,-1.20240799655015e+001,-5.37348934383880e-001

5.27803164309155e+004,-1.20240794183552e+001,-5.44850070295235e-001

5.35171021914442e+004,-1.20240788558274e+001,-5.52455919195020e-001

5.42641730979066e+004,-1.20240782774858e+001,-5.60167942865211e-001

5.50216727255895e+004,-1.20240776828858e+001,-5.67987623496572e-001

5.57897466540159e+004,-1.20240770715703e+001,-5.75916463971659e-001

5.65685424949235e+004,-1.20240764430696e+001,-5.83955988154730e-001

5.73582099206328e+004,-1.20240757969004e+001,-5.92107741184825e-001

5.81589006928121e+004,-1.20240751325662e+001,-6.00373289771831e-001

5.89707686916437e+004,-1.20240744495563e+001,-6.08754222499839e-001

5.97939699453972e+004,-1.20240737473458e+001,-6.17252150128756e-001

6.06286626604156e+004,-1.20240730253949e+001,-6.25868705908801e-001

6.14750072515201e+004,-1.20240722831488e+001,-6.34605545890166e-001

6.23331663728396e+004,-1.20240715200368e+001,-6.43464349244917e-001

6.32033049490698e+004,-1.20240707354727e+001,-6.52446818587143e-001

6.40855902071694e+004,-1.20240699288533e+001,-6.61554680302042e-001

6.49801917084985e+004,-1.20240690995585e+001,-6.70789684877692e-001

6.58872813814055e+004,-1.20240682469512e+001,-6.80153607240005e-001

6.68070335542691e+004,-1.20240673703761e+001,-6.89648247096271e-001

6.77396249890018e+004,-1.20240664691593e+001,-6.99275429280441e-001

6.86852349150199e+004,-1.20240655426082e+001,-7.09037004103081e-001

6.96440450636895e+004,-1.20240645900108e+001,-7.18934847708220e-001

7.06162397032520e+004,-1.20240636106350e+001,-7.28970862433697e-001

7.16020056742374e+004,-1.20240626037280e+001,-7.39146977177400e-001

7.26015324253724e+004,-1.20240615685159e+001,-7.49465147768091e-001

7.36150120499896e+004,-1.20240605042033e+001,-7.59927357340358e-001

7.46426393229441e+004,-1.20240594099721e+001,-7.70535616718013e-001

7.56846117380472e+004,-1.20240582849814e+001,-7.81291964799386e-001

7.67411295460207e+004,-1.20240571283668e+001,-7.92198468948989e-001

7.78123957929823e+004,-1.20240559392391e+001,-8.03257225398025e-001

7.88986163594682e+004,-1.20240547166848e+001,-8.14470359643423e-001

7.99999999999995e+004,-1.20240534597643e+001,-8.25840026859069e-001

8.11167583832018e+004,-1.20240521675115e+001,-8.37368412311002e-001

8.22491061324848e+004,-1.20240508389335e+001,-8.49057731776085e-001

8.33972608672892e+004,-1.20240494730093e+001,-8.60910231967835e-001

8.45614432449099e+004,-1.20240480686894e+001,-8.72928190970567e-001

8.57418770029029e+004,-1.20240466248944e+001,-8.85113918676267e-001

8.69387890020841e+004,-1.20240451405150e+001,-8.97469757229616e-001

8.81524092701283e+004,-1.20240436144106e+001,-9.09998081476661e-001

8.93829710457770e+004,-1.20240420454084e+001,-9.22701299424491e-001

9.06307108236633e+004,-1.20240404323029e+001,-9.35581852702170e-001

9.18958683997622e+004,-1.20240387738545e+001,-9.48642217032258e-001

9.31786869174758e+004,-1.20240370687889e+001,-9.61884902704729e-001

9.44794129143618e+004,-1.20240353157960e+001,-9.75312455062682e-001

9.57982963695136e+004,-1.20240335135289e+001,-9.88927454989799e-001

9.71355907516031e+004,-1.20240316606028e+001,-1.00273251940818e+000

9.84915530675926e+004,-1.20240297555940e+001,-1.01673030178184e+000

9.98664439121282e+004,-1.20240277970389e+001,-1.03092349262620e+000

1.01260527517622e+005,-1.20240257834326e+001,-1.04531482002729e+000

1.02674071805032e+005,-1.20240237132282e+001,-1.05990705016463e+000

1.04107348435354e+005,-1.20240215848351e+001,-1.07470298784612e+000

1.05560632861831e+005,-1.20240193966182e+001,-1.08970547704564e+000

1.07034204382888e+005,-1.20240171468964e+001,-1.10491740145125e+000

1.08528346195813e+005,-1.20240148339412e+001,-1.12034168502092e+000

1.10043345451179e+005,-1.20240124559759e+001,-1.13598129254302e+000

1.11579493308032e+005,-1.20240100111736e+001,-1.15183923020984e+000

1.13137084989847e+005,-1.20240074976562e+001,-1.16791854619383e+000

1.14716419841265e+005,-1.20240049134930e+001,-1.18422233123485e+000

1.16317801385624e+005,-1.20240022566988e+001,-1.20075371923685e+000

1.17941537383287e+005,-1.20239995252330e+001,-1.21751588786846e+000

1.19587939890794e+005,-1.20239967169972e+001,-1.23451205917669e+000

1.21257325320831e+005,-1.20239938298347e+001,-1.25174550020607e+000

1.22950014503040e+005,-1.20239908615276e+001,-1.26921952362876e+000

1.24666332745679e+005,-1.20239878097961e+001,-1.28693748838183e+000

1.26406609898139e+005,-1.20239846722964e+001,-1.30490280031295e+000

1.28171180414339e+005,-1.20239814466187e+001,-1.32311891283810e+000

1.29960383416997e+005,-1.20239781302858e+001,-1.34158932760527e+000

1.31774562762811e+005,-1.20239747207506e+001,-1.36031759516974e+000

1.33614067108538e+005,-1.20239712153948e+001,-1.37930731567631e+000

1.35479249978003e+005,-1.20239676115264e+001,-1.39856213955475e+000

1.37370469830040e+005,-1.20239639063780e+001,-1.41808576822103e+000

1.39288090127379e+005,-1.20239600971044e+001,-1.43788195479211e+000

1.41232479406504e+005,-1.20239561807805e+001,-1.45795450480745e+000

1.43204011348474e+005,-1.20239521543993e+001,-1.47830727696230e+000

1.45203064850745e+005,-1.20239480148690e+001,-1.49894418385248e+000

1.47230024099979e+005,-1.20239437590116e+001,-1.51986919272601e+000

1.49285278645888e+005,-1.20239393835594e+001,-1.54108632625003e+000

1.51369223476094e+005,-1.20239348851532e+001,-1.56259966328405e+000

1.53482259092041e+005,-1.20239302603397e+001,-1.58441333966646e+000

1.55624791585964e+005,-1.20239255055683e+001,-1.60653154901301e+000

1.57797232718936e+005,-1.20239206171891e+001,-1.62895854352321e+000

1.59999999999999e+005,-1.20239155914497e+001,-1.65169863480074e+000

1.62233516766403e+005,-1.20239104244924e+001,-1.67475619468484e+000

1.64498212264969e+005,-1.20239051123513e+001,-1.69813565609366e+000

1.66794521734578e+005,-1.20238996509492e+001,-1.72184151387769e+000

1.69122886489819e+005,-1.20238940360947e+001,-1.74587832568731e+000

1.71483754005805e+005,-1.20238882634786e+001,-1.77025071285189e+000

1.73877578004168e+005,-1.20238823286709e+001,-1.79496336127097e+000

1.76304818540256e+005,-1.20238762271175e+001,-1.82002102231769e+000

1.78765942091554e+005,-1.20238699541365e+001,-1.84542851375599e+000

1.81261421647326e+005,-1.20238635049147e+001,-1.87119072066930e+000

1.83791736799524e+005,-1.20238568745039e+001,-1.89731259640430e+000

1.86357373834951e+005,-1.20238500578171e+001,-1.92379916352563e+000

1.88958825828723e+005,-1.20238430496251e+001,-1.95065551478543e+000

1.91596592739027e+005,-1.20238358445516e+001,-1.97788681410734e+000

1.94271181503206e+005,-1.20238284370699e+001,-2.00549829758184e+000

1.96983106135185e+005,-1.20238208214982e+001,-2.03349527447811e+000

1.99732887824256e+005,-1.20238129919957e+001,-2.06188312826883e+000

2.02521055035243e+005,-1.20238049425577e+001,-2.09066731766991e+000

2.05348143610063e+005,-1.20237966670113e+001,-2.11985337769505e+000

2.08214696870707e+005,-1.20237881590109e+001,-2.14944692072414e+000

2.11121265723661e+005,-1.20237794120327e+001,-2.17945363758800e+000

2.14068408765776e+005,-1.20237704193704e+001,-2.20987929866876e+000

2.17056692391625e+005,-1.20237611741298e+001,-2.24072975501363e+000

2.20086690902357e+005,-1.20237516692237e+001,-2.27201093946613e+000

2.23158986616063e+005,-1.20237418973664e+001,-2.30372886781325e+000

2.26274169979693e+005,-1.20237318510680e+001,-2.33588963994964e+000

2.29432839682530e+005,-1.20237215226292e+001,-2.36849944105455e+000

2.32635602771247e+005,-1.20237109041350e+001,-2.40156454279025e+000

2.35883074766574e+005,-1.20236999874488e+001,-2.43509130451494e+000

2.39175879781588e+005,-1.20236887642065e+001,-2.46908617451194e+000

2.42514650641661e+005,-1.20236772258096e+001,-2.50355569123966e+000

2.45900029006080e+005,-1.20236653634195e+001,-2.53850648459426e+000

2.49332665491357e+005,-1.20236531679497e+001,-2.57394527719578e+000

2.52813219796278e+005,-1.20236406300600e+001,-2.60987888568879e+000

2.56342360828676e+005,-1.20236277401489e+001,-2.64631422206155e+000

2.59920766833993e+005,-1.20236144883463e+001,-2.68325829498731e+000

2.63549125525621e+005,-1.20236008645060e+001,-2.72071821117982e+000

2.67228134217075e+005,-1.20235868581986e+001,-2.75870117677176e+000

2.70958499956006e+005,-1.20235724587026e+001,-2.79721449871220e+000

2.74740939660078e+005,-1.20235576549974e+001,-2.83626558618145e+000

2.78576180254757e+005,-1.20235424357542e+001,-2.87586195203021e+000

2.82464958813007e+005,-1.20235267893276e+001,-2.91601121423528e+000

2.86408022696948e+005,-1.20235107037471e+001,-2.95672109737841e+000

2.90406129701488e+005,-1.20234941667079e+001,-2.99799943414564e+000

2.94460048199957e+005,-1.20234771655615e+001,-3.03985416684733e+000

2.98570557291775e+005,-1.20234596873064e+001,-3.08229334896145e+000

3.02738446952187e+005,-1.20234417185783e+001,-3.12532514669683e+000

3.06964518184081e+005,-1.20234232456397e+001,-3.16895784058107e+000

3.11249583171928e+005,-1.20234042543700e+001,-3.21319982706919e+000

3.15594465437872e+005,-1.20233847302548e+001,-3.25805962017674e+000

3.19999999999997e+005,-1.20233646583750e+001,-3.30354585313494e+000

3.24467033532806e+005,-1.20233440233951e+001,-3.34966728007142e+000

3.28996424529938e+005,-1.20233228095526e+001,-3.39643277771291e+000

3.33589043469155e+005,-1.20233010006456e+001,-3.44385134711393e+000

3.38245772979638e+005,-1.20232785800208e+001,-3.49193211540988e+000

3.42967508011610e+005,-1.20232555305611e+001,-3.54068433759499e+000

3.47755156008335e+005,-1.20232318346727e+001,-3.59011739832693e+000

3.52609637080511e+005,-1.20232074742721e+001,-3.64024081375545e+000

3.57531884183106e+005,-1.20231824307724e+001,-3.69106423337976e+000

3.62522843294651e+005,-1.20231566850698e+001,-3.74259744193072e+000

3.67583473599047e+005,-1.20231302175289e+001,-3.79485036128142e+000

3.72714747669902e+005,-1.20231030079685e+001,-3.84783305238478e+000

3.77917651657445e+005,-1.20230750356464e+001,-3.90155571723974e+000

3.83193185478053e+005,-1.20230462792439e+001,-3.95602870088515e+000

3.88542363006410e+005,-1.20230167168504e+001,-4.01126249342313e+000

3.93966212270369e+005,-1.20229863259466e+001,-4.06726773207163e+000

3.99465775648511e+005,-1.20229550833882e+001,-4.12405520324725e+000

4.05042110070485e+005,-1.20229229653885e+001,-4.18163584467711e+000

4.10696287220124e+005,-1.20228899475013e+001,-4.24002074754300e+000

4.16429393741414e+005,-1.20228560046024e+001,-4.29922115865528e+000

4.22242531447321e+005,-1.20228211108711e+001,-4.35924848266035e+000

4.28136817531551e+005,-1.20227852397716e+001,-4.42011428427846e+000

4.34113384783250e+005,-1.20227483640330e+001,-4.48183029057478e+000

4.40173381804713e+005,-1.20227104556297e+001,-4.54440839326522e+000

4.46317973232124e+005,-1.20226714857603e+001,-4.60786065105352e+000

4.52548339959385e+005,-1.20226314248272e+001,-4.67219929200489e+000

4.58865679365059e+005,-1.20225902424144e+001,-4.73743671595321e+000

4.65271205542494e+005,-1.20225479072655e+001,-4.80358549694396e+000

4.71766149533147e+005,-1.20225043872611e+001,-4.87065838571348e+000

4.78351759563174e+005,-1.20224596493949e+001,-4.93866831220445e+000

4.85029301283321e+005,-1.20224136597502e+001,-5.00762838811900e+000

4.91800058012158e+005,-1.20223663834751e+001,-5.07755190950886e+000

4.98665330982714e+005,-1.20223177847573e+001,-5.14845235940431e+000

5.05626439592555e+005,-1.20222678267980e+001,-5.22034341048293e+000

5.12684721657352e+005,-1.20222164717858e+001,-5.29323892777640e+000

5.19841533667984e+005,-1.20221636808688e+001,-5.36715297141910e+000

5.27098251051240e+005,-1.20221094141273e+001,-5.44209979943692e+000

5.34456268434150e+005,-1.20220536305447e+001,-5.51809387057794e+000

5.41916999912011e+005,-1.20219962879785e+001,-5.59514984718542e+000

