Freq.,VOut,OutRef

1.00000000000000e+004,-1.97277734378563e+001,-1.91234345983910e-001

1.01395947979003e+004,-1.97277738132732e+001,-1.93903874943913e-001

1.02811382665607e+004,-1.97277741992444e+001,-1.96610669011026e-001

1.04246576084112e+004,-1.97277745960668e+001,-1.99355248380799e-001

1.05701804056138e+004,-1.97277750040452e+001,-2.02138140512279e-001

1.07177346253629e+004,-1.97277754234935e+001,-2.04959880223395e-001

1.08673486252606e+004,-1.97277758547340e+001,-2.07821009801816e-001

1.10190511587661e+004,-1.97277762980983e+001,-2.10722079102151e-001

1.11728713807222e+004,-1.97277767539273e+001,-2.13663645655380e-001

1.13288388529580e+004,-1.97277772225713e+001,-2.16646274775648e-001

1.14869835499703e+004,-1.97277777043905e+001,-2.19670539667894e-001

1.16473358646846e+004,-1.97277781997556e+001,-2.22737021537428e-001

1.18099266142953e+004,-1.97277787090471e+001,-2.25846309704281e-001

1.19747870461893e+004,-1.97277792326567e+001,-2.28999001713073e-001

1.21419488439505e+004,-1.97277797709869e+001,-2.32195703450028e-001

1.23114441334492e+004,-1.97277803244516e+001,-2.35437029259635e-001

1.24833054890161e+004,-1.97277808934762e+001,-2.38723602061412e-001

1.26575659397028e+004,-1.97277814784982e+001,-2.42056053469878e-001

1.28342589756290e+004,-1.97277820799674e+001,-2.45435023916155e-001

1.30134185544193e+004,-1.97277826983459e+001,-2.48861162771795e-001

1.31950791077289e+004,-1.97277833341095e+001,-2.52335128471127e-001

1.33792755478611e+004,-1.97277839877466e+001,-2.55857588641488e-001

1.35660432744767e+004,-1.97277846597599e+001,-2.59429220227765e-001

1.37554181813974e+004,-1.97277853506659e+001,-2.63050709625486e-001

1.39474366635040e+004,-1.97277860609959e+001,-2.66722752809231e-001

1.41421356237309e+004,-1.97277867912957e+001,-2.70446055472288e-001

1.43395524801583e+004,-1.97277875421271e+001,-2.74221333153582e-001

1.45397251732031e+004,-1.97277883140669e+001,-2.78049311384615e-001

1.47426921729110e+004,-1.97277891077088e+001,-2.81930725821122e-001

1.49484924863494e+004,-1.97277899236629e+001,-2.85866322388022e-001

1.51571656651040e+004,-1.97277907625563e+001,-2.89856857424713e-001

1.53687518128801e+004,-1.97277916250341e+001,-2.93903097824734e-001

1.55832915932100e+004,-1.97277925117594e+001,-2.98005821187540e-001

1.58008262372675e+004,-1.97277934234136e+001,-3.02165815968075e-001

1.60213975517924e+004,-1.97277943606977e+001,-3.06383881625294e-001

1.62450479271247e+004,-1.97277953243322e+001,-3.10660828777542e-001

1.64718203453514e+004,-1.97277963150580e+001,-3.14997479357547e-001

1.67017583885674e+004,-1.97277973336366e+001,-3.19394666773268e-001

1.69349062472505e+004,-1.97277983808510e+001,-3.23853236063119e-001

1.71713087287550e+004,-1.97277994575065e+001,-3.28374044061595e-001

1.74110112659224e+004,-1.97278005644305e+001,-3.32957959563550e-001

1.76540599258131e+004,-1.97278017024741e+001,-3.37605863490395e-001

1.79005014185594e+004,-1.97278028725121e+001,-3.42318649059522e-001

1.81503831063432e+004,-1.97278040754440e+001,-3.47097221956275e-001

1.84037530124975e+004,-1.97278053121945e+001,-3.51942500507244e-001

1.86606598307361e+004,-1.97278065837146e+001,-3.56855415857078e-001

1.89211529345119e+004,-1.97278078909814e+001,-3.61836912148030e-001

1.91852823865052e+004,-1.97278092350001e+001,-3.66887946700616e-001

1.94530989482457e+004,-1.97278106168038e+001,-3.72009490197450e-001

1.97246540898671e+004,-1.97278120374550e+001,-3.77202526868293e-001

1.99999999999999e+004,-1.97278134980454e+001,-3.82468054683908e-001

2.02791895958005e+004,-1.97278149996982e+001,-3.87807085541462e-001

2.05622765331213e+004,-1.97278165435676e+001,-3.93220645463927e-001

2.08493152168224e+004,-1.97278181308404e+001,-3.98709774794728e-001

2.11403608112276e+004,-1.97278197627370e+001,-4.04275528397075e-001

2.14354692507258e+004,-1.97278214405117e+001,-4.09918975859732e-001

2.17346972505211e+004,-1.97278231654544e+001,-4.15641201698035e-001

2.20381023175322e+004,-1.97278249388911e+001,-4.21443305565964e-001

2.23457427614443e+004,-1.97278267621851e+001,-4.27326402465401e-001

2.26576777059159e+004,-1.97278286367380e+001,-4.33291622960910e-001

2.29739670999406e+004,-1.97278305639909e+001,-4.39340113397102e-001

2.32946717293690e+004,-1.97278325454253e+001,-4.45473036117227e-001

2.36198532285905e+004,-1.97278345825644e+001,-4.51691569689521e-001

2.39495740923785e+004,-1.97278366769742e+001,-4.57996909130512e-001

2.42838976879009e+004,-1.97278388302649e+001,-4.64390266134996e-001

2.46228882668982e+004,-1.97278410440916e+001,-4.70872869311575e-001

2.49666109780322e+004,-1.97278433201562e+001,-4.77445964414991e-001

2.53151318794055e+004,-1.97278456602083e+001,-4.84110814587496e-001

2.56685179512580e+004,-1.97278480660469e+001,-4.90868700600120e-001

2.60268371088386e+004,-1.97278505395214e+001,-4.97720921100084e-001

2.63901582154578e+004,-1.97278530825333e+001,-5.04668792858882e-001

2.67585510957221e+004,-1.97278556970373e+001,-5.11713651026585e-001

2.71320865489533e+004,-1.97278583850432e+001,-5.18856849386586e-001

2.75108363627948e+004,-1.97278611486174e+001,-5.26099760616210e-001

2.78948733270080e+004,-1.97278639898844e+001,-5.33443776551046e-001

2.82842712474618e+004,-1.97278669110283e+001,-5.40890308450406e-001

2.86791049603164e+004,-1.97278699142945e+001,-5.48440787270921e-001

2.90794503464061e+004,-1.97278730019918e+001,-5.56096663938343e-001

2.94853843458219e+004,-1.97278761764936e+001,-5.63859409628995e-001

2.98969849726987e+004,-1.97278794402404e+001,-5.71730516049263e-001

3.03143313302078e+004,-1.97278827957408e+001,-5.79711495725036e-001

3.07375036257601e+004,-1.97278862455743e+001,-5.87803882289529e-001

3.11665831864199e+004,-1.97278897923929e+001,-5.96009230779077e-001

3.16016524745350e+004,-1.97278934389230e+001,-6.04329117931585e-001

3.20427951035848e+004,-1.97278971879676e+001,-6.12765142487808e-001

3.24900958542493e+004,-1.97279010424087e+001,-6.21318925500928e-001

3.29436406907028e+004,-1.97279050052092e+001,-6.29992110645250e-001

3.34035167771346e+004,-1.97279090794151e+001,-6.38786364532922e-001

3.38698124945009e+004,-1.97279132681584e+001,-6.47703377033669e-001

3.43426174575100e+004,-1.97279175746590e+001,-6.56744861597371e-001

3.48220225318448e+004,-1.97279220022270e+001,-6.65912555587064e-001

3.53081198516260e+004,-1.97279265542660e+001,-6.75208220608503e-001

3.58010028371187e+004,-1.97279312342749e+001,-6.84633642849375e-001

3.63007662126863e+004,-1.97279360458514e+001,-6.94190633422024e-001

3.68075060249948e+004,-1.97279409926939e+001,-7.03881028711900e-001

3.73213196614721e+004,-1.97279460786048e+001,-7.13706690729027e-001

3.78423058690237e+004,-1.97279513074937e+001,-7.23669507465512e-001

3.83705647730104e+004,-1.97279566833797e+001,-7.33771393257407e-001

3.89061978964912e+004,-1.97279622103953e+001,-7.44014289152488e-001

3.94493081797342e+004,-1.97279678927887e+001,-7.54400163283026e-001

3.99999999999998e+004,-1.97279737349277e+001,-7.64931011242101e-001

4.05583791916010e+004,-1.97279797413032e+001,-7.75608856467072e-001

4.11245530662425e+004,-1.97279859165316e+001,-7.86435750629157e-001

4.16986304336447e+004,-1.97279922653599e+001,-7.97413774023602e-001

4.22807216224550e+004,-1.97279987926678e+001,-8.08545035972010e-001

4.28709385014515e+004,-1.97280055034725e+001,-8.19831675225732e-001

4.34693945010421e+004,-1.97280124029324e+001,-8.31275860374374e-001

4.40762046350642e+004,-1.97280194963506e+001,-8.42879790264177e-001

4.46914855228886e+004,-1.97280267891790e+001,-8.54645694419597e-001

4.53153554118317e+004,-1.97280342870236e+001,-8.66575833467289e-001

4.59479341998812e+004,-1.97280419956470e+001,-8.78672499574367e-001

4.65893434587380e+004,-1.97280499209744e+001,-8.90938016884098e-001

4.72397064571810e+004,-1.97280580690973e+001,-9.03374741963997e-001

4.78991481847569e+004,-1.97280664462783e+001,-9.15985064255862e-001

4.85677953758016e+004,-1.97280750589563e+001,-9.28771406534165e-001

4.92457765337964e+004,-1.97280839137510e+001,-9.41736225370791e-001

4.99332219560642e+004,-1.97280930174681e+001,-9.54882011606118e-001

5.06302637588109e+004,-1.97281023771047e+001,-9.68211290825157e-001

5.13370359025159e+004,-1.97281119998545e+001,-9.81726623842922e-001

5.20536742176771e+004,-1.97281218931132e+001,-9.95430607194166e-001

5.27803164309155e+004,-1.97281320644846e+001,-1.00932587363048e+000

5.35171021914442e+004,-1.97281425217862e+001,-1.02341509262594e+000

5.42641730979066e+004,-1.97281532730551e+001,-1.03770097088715e+000

5.50216727255895e+004,-1.97281643265542e+001,-1.05218625287313e+000

5.57897466540159e+004,-1.97281756907786e+001,-1.06687372131942e+000

5.65685424949235e+004,-1.97281873744625e+001,-1.08176619777112e+000

5.73582099206328e+004,-1.97281993865849e+001,-1.09686654312476e+000

5.81589006928121e+004,-1.97282117363778e+001,-1.11217765817420e+000

5.89707686916437e+004,-1.97282244333323e+001,-1.12770248416598e+000

5.97939699453972e+004,-1.97282374872062e+001,-1.14344400336440e+000

6.06286626604156e+004,-1.97282509080315e+001,-1.15940523962031e+000

6.14750072515201e+004,-1.97282647061222e+001,-1.17558925894960e+000

6.23331663728396e+004,-1.97282788920822e+001,-1.19199917012173e+000

6.32033049490698e+004,-1.97282934768131e+001,-1.20863812525289e+000

6.40855902071694e+004,-1.97283084715231e+001,-1.22550932040929e+000

6.49801917084985e+004,-1.97283238877351e+001,-1.24261599621932e+000

6.58872813814055e+004,-1.97283397372961e+001,-1.25996143849217e+000

6.68070335542691e+004,-1.97283560323856e+001,-1.27754897884757e+000

6.77396249890018e+004,-1.97283727855256e+001,-1.29538199535110e+000

6.86852349150199e+004,-1.97283900095899e+001,-1.31346391316082e+000

6.96440450636895e+004,-1.97284077178139e+001,-1.33179820518243e+000

7.06162397032520e+004,-1.97284259238048e+001,-1.35038839273221e+000

7.16020056742374e+004,-1.97284446415525e+001,-1.36923804621057e+000

7.26015324253724e+004,-1.97284638854394e+001,-1.38835078578306e+000

7.36150120499896e+004,-1.97284836702524e+001,-1.40773028207348e+000

7.46426393229441e+004,-1.97285040111938e+001,-1.42738025686317e+000

7.56846117380472e+004,-1.97285249238926e+001,-1.44730448380328e+000

7.67411295460207e+004,-1.97285464244174e+001,-1.46750678913392e+000

7.78123957929823e+004,-1.97285685292879e+001,-1.48799105241583e+000

7.88986163594682e+004,-1.97285912554879e+001,-1.50876120726937e+000

7.99999999999995e+004,-1.97286146204783e+001,-1.52982124212600e+000

8.11167583832018e+004,-1.97286386422106e+001,-1.55117520098942e+000

8.22491061324848e+004,-1.97286633391405e+001,-1.57282718420579e+000

8.33972608672892e+004,-1.97286887302421e+001,-1.59478134924613e+000

8.45614432449099e+004,-1.97287148350225e+001,-1.61704191149957e+000

8.57418770029029e+004,-1.97287416735366e+001,-1.63961314507602e+000

8.69387890020841e+004,-1.97287692664027e+001,-1.66249938362096e+000

8.81524092701283e+004,-1.97287976348182e+001,-1.68570502114044e+000

8.93829710457770e+004,-1.97288268005760e+001,-1.70923451283964e+000

9.06307108236633e+004,-1.97288567860807e+001,-1.73309237596883e+000

9.18958683997622e+004,-1.97288876143663e+001,-1.75728319068605e+000

9.31786869174758e+004,-1.97289193091138e+001,-1.78181160092571e+000

9.44794129143618e+004,-1.97289518946691e+001,-1.80668231528506e+000

9.57982963695136e+004,-1.97289853960619e+001,-1.83190010791816e+000

9.71355907516031e+004,-1.97290198390244e+001,-1.85746981944420e+000

9.84915530675926e+004,-1.97290552500119e+001,-1.88339635786705e+000

9.98664439121282e+004,-1.97290916562221e+001,-1.90968469950958e+000

1.01260527517622e+005,-1.97291290856167e+001,-1.93633988995711e+000

1.02674071805032e+005,-1.97291675669421e+001,-1.96336704501701e+000

1.04107348435354e+005,-1.97292071297521e+001,-1.99077135168950e+000

1.05560632861831e+005,-1.97292478044301e+001,-2.01855806915195e+000

1.07034204382888e+005,-1.97292896222126e+001,-2.04673252975706e+000

1.08528346195813e+005,-1.97293326152128e+001,-2.07530014004362e+000

1.10043345451179e+005,-1.97293768164455e+001,-2.10426638176198e+000

1.11579493308032e+005,-1.97294222598523e+001,-2.13363681291281e+000

1.13137084989847e+005,-1.97294689803274e+001,-2.16341706879931e+000

1.14716419841265e+005,-1.97295170137444e+001,-2.19361286309603e+000

1.16317801385624e+005,-1.97295663969839e+001,-2.22422998892749e+000

1.17941537383287e+005,-1.97296171679614e+001,-2.25527431996706e+000

1.19587939890794e+005,-1.97296693656565e+001,-2.28675181154648e+000

1.21257325320831e+005,-1.97297230301428e+001,-2.31866850178125e+000

1.22950014503040e+005,-1.97297782026184e+001,-2.35103051271159e+000

1.24666332745679e+005,-1.97298349254372e+001,-2.38384405145942e+000

1.26406609898139e+005,-1.97298932421417e+001,-2.41711541139933e+000

1.28171180414339e+005,-1.97299531974959e+001,-2.45085097334544e+000

1.29960383416997e+005,-1.97300148375199e+001,-2.48505720675509e+000

1.31774562762811e+005,-1.97300782095244e+001,-2.51974067094823e+000

1.33614067108538e+005,-1.97301433621477e+001,-2.55490801634205e+000

1.35479249978003e+005,-1.97302103453922e+001,-2.59056598570389e+000

1.37370469830040e+005,-1.97302792106626e+001,-2.62672141541909e+000

1.39288090127379e+005,-1.97303500108057e+001,-2.66338123677632e+000

1.41232479406504e+005,-1.97304228001501e+001,-2.70055247727050e+000

1.43204011348474e+005,-1.97304976345479e+001,-2.73824226192173e+000

1.45203064850745e+005,-1.97305745714175e+001,-2.77645781461290e+000

1.47230024099979e+005,-1.97306536697871e+001,-2.81520645944458e+000

1.49285278645888e+005,-1.97307349903397e+001,-2.85449562210648e+000

1.51369223476094e+005,-1.97308185954598e+001,-2.89433283126917e+000

1.53482259092041e+005,-1.97309045492805e+001,-2.93472571999250e+000

1.55624791585964e+005,-1.97309929177324e+001,-2.97568202715256e+000

1.57797232718936e+005,-1.97310837685942e+001,-3.01720959888847e+000

1.59999999999999e+005,-1.97311771715439e+001,-3.05931639006577e+000

1.62233516766403e+005,-1.97312731982121e+001,-3.10201046576167e+000

1.64498212264969e+005,-1.97313719222365e+001,-3.14530000276759e+000

1.66794521734578e+005,-1.97314734193178e+001,-3.18919329111187e+000

1.69122886489819e+005,-1.97315777672776e+001,-3.23369873560184e+000

1.71483754005805e+005,-1.97316850461173e+001,-3.27882485738672e+000

1.73877578004168e+005,-1.97317953380789e+001,-3.32458029553943e+000

1.76304818540256e+005,-1.97319087277080e+001,-3.37097380865954e+000

1.78765942091554e+005,-1.97320253019173e+001,-3.41801427649599e+000

1.81261421647326e+005,-1.97321451500532e+001,-3.46571070159248e+000

1.83791736799524e+005,-1.97322683639636e+001,-3.51407221095022e+000

1.86357373834951e+005,-1.97323950380674e+001,-3.56310805771632e+000

1.88958825828723e+005,-1.97325252694261e+001,-3.61282762288963e+000

1.91596592739027e+005,-1.97326591578178e+001,-3.66324041705084e+000

1.94271181503206e+005,-1.97327968058127e+001,-3.71435608211211e+000

1.96983106135185e+005,-1.97329383188504e+001,-3.76618439309157e+000

1.99732887824256e+005,-1.97330838053207e+001,-3.81873525990700e+000

2.02521055035243e+005,-1.97332333766450e+001,-3.87201872919370e+000

2.05348143610063e+005,-1.97333871473606e+001,-3.92604498614490e+000

2.08214696870707e+005,-1.97335452352079e+001,-3.98082435637408e+000

2.11121265723661e+005,-1.97337077612192e+001,-4.03636730780119e+000

2.14068408765776e+005,-1.97338748498101e+001,-4.09268445256131e+000

2.17056692391625e+005,-1.97340466288735e+001,-4.14978654893736e+000

2.20086690902357e+005,-1.97342232298767e+001,-4.20768450331654e+000

2.23158986616063e+005,-1.97344047879598e+001,-4.26638937216890e+000

2.26274169979693e+005,-1.97345914420387e+001,-4.32591236405212e+000

2.29432839682530e+005,-1.97347833349087e+001,-4.38626484163933e+000

2.32635602771247e+005,-1.97349806133534e+001,-4.44745832377057e+000

2.35883074766574e+005,-1.97351834282542e+001,-4.50950448752991e+000

2.39175879781588e+005,-1.97353919347047e+001,-4.57241517034659e+000

2.42514650641661e+005,-1.97356062921267e+001,-4.63620237212145e+000

2.45900029006080e+005,-1.97358266643906e+001,-4.70087825737740e+000

2.49332665491357e+005,-1.97360532199387e+001,-4.76645515743586e+000

2.52813219796278e+005,-1.97362861319110e+001,-4.83294557261847e+000

2.56342360828676e+005,-1.97365255782759e+001,-4.90036217447339e+000

2.59920766833993e+005,-1.97367717419632e+001,-4.96871780802789e+000

2.63549125525621e+005,-1.97370248110015e+001,-5.03802549406679e+000

2.67228134217075e+005,-1.97372849786589e+001,-5.10829843143580e+000

2.70958499956006e+005,-1.97375524435877e+001,-5.17954999937104e+000

2.74740939660078e+005,-1.97378274099731e+001,-5.25179375985517e+000

2.78576180254757e+005,-1.97381100876854e+001,-5.32504345999934e+000

2.82464958813007e+005,-1.97384006924372e+001,-5.39931303445066e+000

2.86408022696948e+005,-1.97386994459441e+001,-5.47461660782616e+000

2.90406129701488e+005,-1.97390065760898e+001,-5.55096849717449e+000

2.94460048199957e+005,-1.97393223170964e+001,-5.62838321446102e+000

2.98570557291775e+005,-1.97396469096978e+001,-5.70687546908272e+000

3.02738446952187e+005,-1.97399806013198e+001,-5.78646017040676e+000

3.06964518184081e+005,-1.97403236462630e+001,-5.86715243033653e+000

3.11249583171928e+005,-1.97406763058916e+001,-5.94896756590496e+000

3.15594465437872e+005,-1.97410388488277e+001,-6.03192110189242e+000

3.19999999999997e+005,-1.97414115511494e+001,-6.11602877347265e+000

3.24467033532806e+005,-1.97417946965961e+001,-6.20130652888397e+000

3.28996424529938e+005,-1.97421885767768e+001,-6.28777053212703e+000

3.33589043469155e+005,-1.97425934913865e+001,-6.37543716568893e+000

3.38245772979638e+005,-1.97430097484266e+001,-6.46432303329343e+000

3.42967508011610e+005,-1.97434376644317e+001,-6.55444496267610e+000

3.47755156008335e+005,-1.97438775647024e+001,-6.64582000838725e+000

3.52609637080511e+005,-1.97443297835446e+001,-6.73846545461796e+000

3.57531884183106e+005,-1.97447946645140e+001,-6.83239881805390e+000

3.62522843294651e+005,-1.97452725606685e+001,-6.92763785075264e+000

3.67583473599047e+005,-1.97457638348262e+001,-7.02420054304651e+000

3.72714747669902e+005,-1.97462688598300e+001,-7.12210512647097e+000

3.77917651657445e+005,-1.97467880188205e+001,-7.22137007671555e+000

3.83193185478053e+005,-1.97473217055143e+001,-7.32201411660033e+000

3.88542363006410e+005,-1.97478703244906e+001,-7.42405621907576e+000

3.93966212270369e+005,-1.97484342914847e+001,-7.52751561024569e+000

3.99465775648511e+005,-1.97490140336898e+001,-7.63241177241319e+000

4.05042110070485e+005,-1.97496099900658e+001,-7.73876444714880e+000

4.10696287220124e+005,-1.97502226116565e+001,-7.84659363838098e+000

4.16429393741414e+005,-1.97508523619148e+001,-7.95591961550779e+000

4.22242531447321e+005,-1.97514997170364e+001,-8.06676291652900e+000

4.28136817531551e+005,-1.97521651663017e+001,-8.17914435119952e+000

4.34113384783250e+005,-1.97528492124268e+001,-8.29308500420074e+000

4.40173381804713e+005,-1.97535523719231e+001,-8.40860623833246e+000

4.46317973232124e+005,-1.97542751754662e+001,-8.52572969772137e+000

4.52548339959385e+005,-1.97550181682740e+001,-8.64447731104807e+000

4.58865679365059e+005,-1.97557819104946e+001,-8.76487129478970e+000

4.65271205542494e+005,-1.97565669776031e+001,-8.88693415647833e+000

4.71766149533147e+005,-1.97573739608095e+001,-9.01068869797415e+000

4.78351759563174e+005,-1.97582034674757e+001,-9.13615801875196e+000

4.85029301283321e+005,-1.97590561215435e+001,-9.26336551920040e+000

4.91800058012158e+005,-1.97599325639730e+001,-9.39233490393206e+000

4.98665330982714e+005,-1.97608334531914e+001,-9.52309018510445e+000

5.05626439592555e+005,-1.97617594655534e+001,-9.65565568574926e+000

5.12684721657352e+005,-1.97627112958124e+001,-9.79005604310928e+000

5.19841533667984e+005,-1.97636896576034e+001,-9.92631621198170e+000

5.27098251051240e+005,-1.97646952839372e+001,-1.00644614680659e+001

5.34456268434150e+005,-1.97657289277069e+001,-1.02045174113144e+001

5.41916999912011e+005,-1.97667913622062e+001,-1.03465099692848e+001

