Freq.,VOut,OutRef

1.00000000000000e+004,-7.73844187150476e+000,-7.49677407534340e-002

1.01395947979003e+004,-7.73844181958331e+000,-7.60142516296575e-002

1.02811382665607e+004,-7.73844176620194e+000,-7.70753712637282e-002

1.04246576084112e+004,-7.73844171131988e+000,-7.81513035849042e-002

1.05701804056138e+004,-7.73844165489506e+000,-7.92422553704688e-002

1.07177346253629e+004,-7.73844159688361e+000,-8.03484362877715e-002

1.08673486252606e+004,-7.73844153724155e+000,-8.14700589240040e-002

1.10190511587661e+004,-7.73844147592240e+000,-8.26073388418464e-002

1.11728713807222e+004,-7.73844141287953e+000,-8.37604946064548e-002

1.13288388529580e+004,-7.73844134806430e+000,-8.49297478376530e-002

1.14869835499703e+004,-7.73844128142697e+000,-8.61153232478698e-002

1.16473358646846e+004,-7.73844121291610e+000,-8.73174486879405e-002

1.18099266142953e+004,-7.73844114247894e+000,-8.85363551888099e-002

1.19747870461893e+004,-7.73844107006179e+000,-8.97722770031246e-002

1.21419488439505e+004,-7.73844099560858e+000,-9.10254516589585e-002

1.23114441334492e+004,-7.73844091906236e+000,-9.22961199957883e-002

1.24833054890161e+004,-7.73844084036388e+000,-9.35845262194104e-002

1.26575659397028e+004,-7.73844075945302e+000,-9.48909179400294e-002

1.28342589756290e+004,-7.73844067626761e+000,-9.62155462260575e-002

1.30134185544193e+004,-7.73844059074336e+000,-9.75586656535767e-002

1.31950791077289e+004,-7.73844050281474e+000,-9.89205343487821e-002

1.33792755478611e+004,-7.73844041241397e+000,-1.00301414043312e-001

1.35660432744767e+004,-7.73844031947188e+000,-1.01701570119748e-001

1.37554181813974e+004,-7.73844022391665e+000,-1.03121271669905e-001

1.39474366635040e+004,-7.73844012567523e+000,-1.04560791536293e-001

1.41421356237309e+004,-7.73844002467175e+000,-1.06020406375765e-001

1.43395524801583e+004,-7.73843992082861e+000,-1.07500396704295e-001

1.45397251732031e+004,-7.73843981406616e+000,-1.09001046952984e-001

1.47426921729110e+004,-7.73843970430219e+000,-1.10522645525519e-001

1.49484924863494e+004,-7.73843959145232e+000,-1.12065484850689e-001

1.51571656651040e+004,-7.73843947542988e+000,-1.13629861439198e-001

1.53687518128801e+004,-7.73843935614551e+000,-1.15216075941987e-001

1.55832915932100e+004,-7.73843923350757e+000,-1.16824433206395e-001

1.58008262372675e+004,-7.73843910742200e+000,-1.18455242333155e-001

1.60213975517924e+004,-7.73843897779141e+000,-1.20108816743366e-001

1.62450479271247e+004,-7.73843884451674e+000,-1.21785474226093e-001

1.64718203453514e+004,-7.73843870749494e+000,-1.23485537014402e-001

1.67017583885674e+004,-7.73843856662102e+000,-1.25209331833319e-001

1.69349062472505e+004,-7.73843842178660e+000,-1.26957189972042e-001

1.71713087287550e+004,-7.73843827288042e+000,-1.28729447343008e-001

1.74110112659224e+004,-7.73843811978778e+000,-1.30526444550183e-001

1.76540599258131e+004,-7.73843796239119e+000,-1.32348526949476e-001

1.79005014185594e+004,-7.73843780056960e+000,-1.34196044719296e-001

1.81503831063432e+004,-7.73843763419866e+000,-1.36069352925868e-001

1.84037530124975e+004,-7.73843746315031e+000,-1.37968811593427e-001

1.86606598307361e+004,-7.73843728729329e+000,-1.39894785769396e-001

1.89211529345119e+004,-7.73843710649212e+000,-1.41847645600715e-001

1.91852823865052e+004,-7.73843692060795e+000,-1.43827766398933e-001

1.94530989482457e+004,-7.73843672949805e+000,-1.45835528713989e-001

1.97246540898671e+004,-7.73843653301507e+000,-1.47871318412605e-001

1.99999999999999e+004,-7.73843633100832e+000,-1.49935526742742e-001

2.02791895958005e+004,-7.73843612332249e+000,-1.52028550417083e-001

2.05622765331213e+004,-7.73843590979773e+000,-1.54150791686561e-001

2.08493152168224e+004,-7.73843569026998e+000,-1.56302658416265e-001

2.11403608112276e+004,-7.73843546457045e+000,-1.58484564165679e-001

2.14354692507258e+004,-7.73843523252574e+000,-1.60696928266639e-001

2.17346972505211e+004,-7.73843499395731e+000,-1.62940175906092e-001

2.20381023175322e+004,-7.73843474868180e+000,-1.65214738205723e-001

2.23457427614443e+004,-7.73843449651079e+000,-1.67521052304634e-001

2.26576777059159e+004,-7.73843423725023e+000,-1.69859561446879e-001

2.29739670999406e+004,-7.73843397070102e+000,-1.72230715061243e-001

2.32946717293690e+004,-7.73843369665798e+000,-1.74634968853489e-001

2.36198532285905e+004,-7.73843341491056e+000,-1.77072784888619e-001

2.39495740923785e+004,-7.73843312524211e+000,-1.79544631683096e-001

2.42838976879009e+004,-7.73843282743000e+000,-1.82050984293291e-001

2.46228882668982e+004,-7.73843252124532e+000,-1.84592324407273e-001

2.49666109780322e+004,-7.73843220645277e+000,-1.87169140437042e-001

2.53151318794055e+004,-7.73843188281012e+000,-1.89781927614915e-001

2.56685179512580e+004,-7.73843155006861e+000,-1.92431188085018e-001

2.60268371088386e+004,-7.73843120797258e+000,-1.95117431000765e-001

2.63901582154578e+004,-7.73843085625885e+000,-1.97841172625098e-001

2.67585510957221e+004,-7.73843049465734e+000,-2.00602936425186e-001

2.71320865489533e+004,-7.73843012288974e+000,-2.03403253179761e-001

2.75108363627948e+004,-7.73842974067023e+000,-2.06242661075339e-001

2.78948733270080e+004,-7.73842934770527e+000,-2.09121705809346e-001

2.82842712474618e+004,-7.73842894369260e+000,-2.12040940700074e-001

2.86791049603164e+004,-7.73842852832164e+000,-2.15000926789320e-001

2.90794503464061e+004,-7.73842810127312e+000,-2.18002232950889e-001

2.94853843458219e+004,-7.73842766221847e+000,-2.21045436001436e-001

2.98969849726987e+004,-7.73842721082061e+000,-2.24131120806680e-001

3.03143313302078e+004,-7.73842674673212e+000,-2.27259880401515e-001

3.07375036257601e+004,-7.73842626959642e+000,-2.30432316096422e-001

3.11665831864199e+004,-7.73842577904675e+000,-2.33649037596860e-001

3.16016524745350e+004,-7.73842527470582e+000,-2.36910663122051e-001

3.20427951035848e+004,-7.73842475618612e+000,-2.40217819518146e-001

3.24900958542493e+004,-7.73842422308873e+000,-2.43571142386460e-001

3.29436406907028e+004,-7.73842367500424e+000,-2.46971276196622e-001

3.34035167771346e+004,-7.73842311151087e+000,-2.50418874420134e-001

3.38698124945009e+004,-7.73842253217586e+000,-2.53914599646365e-001

3.43426174575100e+004,-7.73842193655348e+000,-2.57459123719163e-001

3.48220225318448e+004,-7.73842132418595e+000,-2.61053127858922e-001

3.53081198516260e+004,-7.73842069460266e+000,-2.64697302795819e-001

3.58010028371187e+004,-7.73842004731938e+000,-2.68392348904918e-001

3.63007662126863e+004,-7.73841938183857e+000,-2.72138976337729e-001

3.68075060249948e+004,-7.73841869764880e+000,-2.75937905158509e-001

3.73213196614721e+004,-7.73841799422389e+000,-2.79789865486250e-001

3.78423058690237e+004,-7.73841727102317e+000,-2.83695597631395e-001

3.83705647730104e+004,-7.73841652749065e+000,-2.87655852240110e-001

3.89061978964912e+004,-7.73841576305473e+000,-2.91671390437492e-001

3.94493081797342e+004,-7.73841497712786e+000,-2.95742983974118e-001

3.99999999999998e+004,-7.73841416910570e+000,-2.99871415376469e-001

4.05583791916010e+004,-7.73841333836701e+000,-3.04057478094388e-001

4.11245530662425e+004,-7.73841248427336e+000,-3.08301976653989e-001

4.16986304336447e+004,-7.73841160616816e+000,-3.12605726813626e-001

4.22807216224550e+004,-7.73841070337614e+000,-3.16969555722353e-001

4.28709385014515e+004,-7.73840977520343e+000,-3.21394302074255e-001

4.34693945010421e+004,-7.73840882093656e+000,-3.25880816272844e-001

4.40762046350642e+004,-7.73840783984180e+000,-3.30429960594854e-001

4.46914855228886e+004,-7.73840683116509e+000,-3.35042609354411e-001

4.53153554118317e+004,-7.73840579413074e+000,-3.39719649073441e-001

4.59479341998812e+004,-7.73840472794176e+000,-3.44461978648215e-001

4.65893434587380e+004,-7.73840363177846e+000,-3.49270509525957e-001

4.72397064571810e+004,-7.73840250479816e+000,-3.54146165878759e-001

4.78991481847569e+004,-7.73840134613445e+000,-3.59089884781049e-001

4.85677953758016e+004,-7.73840015489666e+000,-3.64102616389427e-001

4.92457765337964e+004,-7.73839893016910e+000,-3.69185324125812e-001

4.99332219560642e+004,-7.73839767101005e+000,-3.74338984864836e-001

5.06302637588109e+004,-7.73839637645180e+000,-3.79564589115725e-001

5.13370359025159e+004,-7.73839504549899e+000,-3.84863141220107e-001

5.20536742176771e+004,-7.73839367712842e+000,-3.90235659540727e-001

5.27803164309155e+004,-7.73839227028831e+000,-3.95683176656524e-001

5.35171021914442e+004,-7.73839082389713e+000,-4.01206739564624e-001

5.42641730979066e+004,-7.73838933684298e+000,-4.06807409879096e-001

5.50216727255895e+004,-7.73838780798255e+000,-4.12486264037472e-001

5.57897466540159e+004,-7.73838623614082e+000,-4.18244393502963e-001

5.65685424949235e+004,-7.73838462010914e+000,-4.24082904981665e-001

5.73582099206328e+004,-7.73838295864548e+000,-4.30002920627439e-001

5.81589006928121e+004,-7.73838125047252e+000,-4.36005578263964e-001

5.89707686916437e+004,-7.73837949427699e+000,-4.42092031601387e-001

5.97939699453972e+004,-7.73837768870896e+000,-4.48263450456600e-001

6.06286626604156e+004,-7.73837583238052e+000,-4.54521020979690e-001

6.14750072515201e+004,-7.73837392386448e+000,-4.60865945883465e-001

6.23331663728396e+004,-7.73837196169384e+000,-4.67299444671962e-001

6.32033049490698e+004,-7.73836994436020e+000,-4.73822753876999e-001

6.40855902071694e+004,-7.73836787031265e+000,-4.80437127295856e-001

6.49801917084985e+004,-7.73836573795683e+000,-4.87143836231481e-001

6.58872813814055e+004,-7.73836354565375e+000,-4.93944169736318e-001

6.68070335542691e+004,-7.73836129171795e+000,-5.00839434863678e-001

6.77396249890018e+004,-7.73835897441687e+000,-5.07830956915429e-001

6.86852349150199e+004,-7.73835659196904e+000,-5.14920079699650e-001

6.96440450636895e+004,-7.73835414254314e+000,-5.22108165786649e-001

7.06162397032520e+004,-7.73835162425624e+000,-5.29396596773361e-001

7.16020056742374e+004,-7.73834903517240e+000,-5.36786773548237e-001

7.26015324253724e+004,-7.73834637330140e+000,-5.44280116560428e-001

7.36150120499896e+004,-7.73834363659702e+000,-5.51878066093210e-001

7.46426393229441e+004,-7.73834082295546e+000,-5.59582082541998e-001

7.56846117380472e+004,-7.73833793021407e+000,-5.67393646692628e-001

7.67411295460207e+004,-7.73833495614891e+000,-5.75314260011368e-001

7.78123957929823e+004,-7.73833189847389e+000,-5.83345444928280e-001

7.88986163594682e+004,-7.73832875483855e+000,-5.91488745133674e-001

7.99999999999995e+004,-7.73832552282644e+000,-5.99745725873272e-001

8.11167583832018e+004,-7.73832219995304e+000,-6.08117974251126e-001

8.22491061324848e+004,-7.73831878366402e+000,-6.16607099534224e-001

8.33972608672892e+004,-7.73831527133339e+000,-6.25214733461079e-001

8.45614432449099e+004,-7.73831166026118e+000,-6.33942530558017e-001

8.57418770029029e+004,-7.73830794767164e+000,-6.42792168455708e-001

8.69387890020841e+004,-7.73830413071085e+000,-6.51765348213631e-001

8.81524092701283e+004,-7.73830020644480e+000,-6.60863794645966e-001

8.93829710457770e+004,-7.73829617185710e+000,-6.70089256653971e-001

9.06307108236633e+004,-7.73829202384611e+000,-6.79443507565375e-001

9.18958683997622e+004,-7.73828775922363e+000,-6.88928345470089e-001

9.31786869174758e+004,-7.73828337471146e+000,-6.98545593571842e-001

9.44794129143618e+004,-7.73827886693918e+000,-7.08297100537477e-001

9.57982963695136e+004,-7.73827423244198e+000,-7.18184740850609e-001

9.71355907516031e+004,-7.73826946765745e+000,-7.28210415175692e-001

9.84915530675926e+004,-7.73826456892297e+000,-7.38376050722822e-001

9.98664439121282e+004,-7.73825953247313e+000,-7.48683601618394e-001

1.01260527517622e+005,-7.73825435443656e+000,-7.59135049282337e-001

1.02674071805032e+005,-7.73824903083310e+000,-7.69732402809070e-001

1.04107348435354e+005,-7.73824355757084e+000,-7.80477699353798e-001

1.05560632861831e+005,-7.73823793044271e+000,-7.91373004526918e-001

1.07034204382888e+005,-7.73823214512342e+000,-8.02420412790453e-001

1.08528346195813e+005,-7.73822619716611e+000,-8.13622047861809e-001

1.10043345451179e+005,-7.73822008199898e+000,-8.24980063122529e-001

1.11579493308032e+005,-7.73821379492161e+000,-8.36496642034511e-001

1.13137084989847e+005,-7.73820733110170e+000,-8.48173998558274e-001

1.14716419841265e+005,-7.73820068557083e+000,-8.60014377582984e-001

1.16317801385624e+005,-7.73819385322115e+000,-8.72020055356040e-001

1.17941537383287e+005,-7.73818682880123e+000,-8.84193339922911e-001

1.19587939890794e+005,-7.73817960691184e+000,-8.96536571572984e-001

1.21257325320831e+005,-7.73817218200234e+000,-9.09052123288330e-001

1.22950014503040e+005,-7.73816454836576e+000,-9.21742401203772e-001

1.24666332745679e+005,-7.73815670013489e+000,-9.34609845069039e-001

1.26406609898139e+005,-7.73814863127766e+000,-9.47656928719184e-001

1.28171180414339e+005,-7.73814033559243e+000,-9.60886160552309e-001

1.29960383416997e+005,-7.73813180670317e+000,-9.74300084013754e-001

1.31774562762811e+005,-7.73812303805467e+000,-9.87901278085578e-001

1.33614067108538e+005,-7.73811402290778e+000,-1.00169235778291e+000

1.35479249978003e+005,-7.73810475433358e+000,-1.01567597466185e+000

1.37370469830040e+005,-7.73809522520846e+000,-1.02985481732843e+000

1.39288090127379e+005,-7.73808542820893e+000,-1.04423161195661e+000

1.41232479406504e+005,-7.73807535580538e+000,-1.05880912281714e+000

1.43204011348474e+005,-7.73806500025668e+000,-1.07359015280879e+000

1.45203064850745e+005,-7.73805435360419e+000,-1.08857754399993e+000

1.47230024099979e+005,-7.73804340766562e+000,-1.10377417817717e+000

1.49285278645888e+005,-7.73803215402875e+000,-1.11918297740187e+000

1.51369223476094e+005,-7.73802058404484e+000,-1.13480690457467e+000

1.53482259092041e+005,-7.73800868882230e+000,-1.15064896400579e+000

1.55624791585964e+005,-7.73799645921953e+000,-1.16671220199827e+000

1.57797232718936e+005,-7.73798388583805e+000,-1.18299970743376e+000

1.59999999999999e+005,-7.73797095901549e+000,-1.19951461236976e+000

1.62233516766403e+005,-7.73795766881765e+000,-1.21626009264622e+000

1.64498212264969e+005,-7.73794400503151e+000,-1.23323936849721e+000

1.66794521734578e+005,-7.73792995715678e+000,-1.25045570517537e+000

1.69122886489819e+005,-7.73791551439839e+000,-1.26791241358030e+000

1.71483754005805e+005,-7.73790066565775e+000,-1.28561285090195e+000

1.73877578004168e+005,-7.73788539952452e+000,-1.30356042126764e+000

1.76304818540256e+005,-7.73786970426776e+000,-1.32175857640054e+000

1.78765942091554e+005,-7.73785356782696e+000,-1.34021081628762e+000

1.81261421647326e+005,-7.73783697780268e+000,-1.35892068985737e+000

1.83791736799524e+005,-7.73781992144714e+000,-1.37789179566579e+000

1.86357373834951e+005,-7.73780238565449e+000,-1.39712778259258e+000

1.88958825828723e+005,-7.73778435695053e+000,-1.41663235054889e+000

1.91596592739027e+005,-7.73776582148263e+000,-1.43640925119163e+000

1.94271181503206e+005,-7.73774676500898e+000,-1.45646228865166e+000

1.96983106135185e+005,-7.73772717288757e+000,-1.47679532027010e+000

1.99732887824256e+005,-7.73770703006523e+000,-1.49741225734492e+000

2.02521055035243e+005,-7.73768632106584e+000,-1.51831706589026e+000

2.05348143610063e+005,-7.73766502997854e+000,-1.53951376740387e+000

2.08214696870707e+005,-7.73764314044547e+000,-1.56100643964768e+000

2.11121265723661e+005,-7.73762063564937e+000,-1.58279921743812e+000

2.14068408765776e+005,-7.73759749830061e+000,-1.60489629344764e+000

2.17056692391625e+005,-7.73757371062378e+000,-1.62730191901961e+000

2.20086690902357e+005,-7.73754925434439e+000,-1.65002040499171e+000

2.23158986616063e+005,-7.73752411067458e+000,-1.67305612253382e+000

2.26274169979693e+005,-7.73749826029884e+000,-1.69641350399619e+000

2.29432839682530e+005,-7.73747168335904e+000,-1.72009704377161e+000

2.32635602771247e+005,-7.73744435943964e+000,-1.74411129916604e+000

2.35883074766574e+005,-7.73741626755146e+000,-1.76846089128757e+000

2.39175879781588e+005,-7.73738738611604e+000,-1.79315050594188e+000

2.42514650641661e+005,-7.73735769294882e+000,-1.81818489454599e+000

2.45900029006080e+005,-7.73732716524251e+000,-1.84356887505012e+000

2.49332665491357e+005,-7.73729577954923e+000,-1.86930733287721e+000

2.52813219796278e+005,-7.73726351176262e+000,-1.89540522187338e+000

2.56342360828676e+005,-7.73723033709965e+000,-1.92186756527214e+000

2.59920766833993e+005,-7.73719623008129e+000,-1.94869945667371e+000

2.63549125525621e+005,-7.73716116451321e+000,-1.97590606103723e+000

2.67228134217075e+005,-7.73712511346575e+000,-2.00349261568738e+000

2.70958499956006e+005,-7.73708804925305e+000,-2.03146443133719e+000

2.74740939660078e+005,-7.73704994341219e+000,-2.05982689312279e+000

2.78576180254757e+005,-7.73701076668120e+000,-2.08858546165507e+000

2.82464958813007e+005,-7.73697048897667e+000,-2.11774567408638e+000

2.86408022696948e+005,-7.73692907937073e+000,-2.14731314519234e+000

2.90406129701488e+005,-7.73688650606757e+000,-2.17729356846872e+000

2.94460048199957e+005,-7.73684273637881e+000,-2.20769271724511e+000

2.98570557291775e+005,-7.73679773669878e+000,-2.23851644581489e+000

3.02738446952187e+005,-7.73675147247858e+000,-2.26977069058063e+000

3.06964518184081e+005,-7.73670390819983e+000,-2.30146147121719e+000

3.11249583171928e+005,-7.73665500734752e+000,-2.33359489185022e+000

3.15594465437872e+005,-7.73660473238192e+000,-2.36617714225418e+000

3.19999999999997e+005,-7.73655304471004e+000,-2.39921449906616e+000

3.24467033532806e+005,-7.73649990465608e+000,-2.43271332701736e+000

3.28996424529938e+005,-7.73644527143119e+000,-2.46668008018313e+000

3.33589043469155e+005,-7.73638910310221e+000,-2.50112130325165e+000

3.38245772979638e+005,-7.73633135655965e+000,-2.53604363281025e+000

3.42967508011610e+005,-7.73627198748481e+000,-2.57145379865198e+000

3.47755156008335e+005,-7.73621095031595e+000,-2.60735862509965e+000

3.52609637080511e+005,-7.73614819821347e+000,-2.64376503235065e+000

3.57531884183106e+005,-7.73608368302423e+000,-2.68068003784105e+000

3.62522843294651e+005,-7.73601735524464e+000,-2.71811075763068e+000

3.67583473599047e+005,-7.73594916398306e+000,-2.75606440780724e+000

3.72714747669902e+005,-7.73587905692099e+000,-2.79454830591230e+000

3.77917651657445e+005,-7.73580698027297e+000,-2.83356987238839e+000

3.83193185478053e+005,-7.73573287874586e+000,-2.87313663204644e+000

3.88542363006410e+005,-7.73565669549641e+000,-2.91325621555757e+000

3.93966212270369e+005,-7.73557837208824e+000,-2.95393636096356e+000

3.99465775648511e+005,-7.73549784844690e+000,-2.99518491521419e+000

4.05042110070485e+005,-7.73541506281466e+000,-3.03700983572226e+000

4.10696287220124e+005,-7.73532995170303e+000,-3.07941919194740e+000

4.16429393741414e+005,-7.73524244984458e+000,-3.12242116700021e+000

4.22242531447321e+005,-7.73515249014334e+000,-3.16602405927133e+000

4.28136817531551e+005,-7.73506000362369e+000,-3.21023628408474e+000

4.34113384783250e+005,-7.73496491937793e+000,-3.25506637537732e+000

4.40173381804713e+005,-7.73486716451223e+000,-3.30052298740315e+000

4.46317973232124e+005,-7.73476666409138e+000,-3.34661489646210e+000

4.52548339959385e+005,-7.73466334108185e+000,-3.39335100265705e+000

4.58865679365059e+005,-7.73455711629312e+000,-3.44074033167721e+000

4.65271205542494e+005,-7.73444790831767e+000,-3.48879203660695e+000

4.71766149533147e+005,-7.73433563346923e+000,-3.53751539976512e+000

4.78351759563174e+005,-7.73422020571911e+000,-3.58691983457024e+000

4.85029301283321e+005,-7.73410153663098e+000,-3.63701488743565e+000

4.91800058012158e+005,-7.73397953529403e+000,-3.68781023969302e+000

4.98665330982714e+005,-7.73385410825369e+000,-3.73931570954655e+000

5.05626439592555e+005,-7.73372515944122e+000,-3.79154125405604e+000

5.12684721657352e+005,-7.73359259010059e+000,-3.84449697115280e+000

5.19841533667984e+005,-7.73345629871408e+000,-3.89819310168393e+000

5.27098251051240e+005,-7.73331618092496e+000,-3.95264003149268e+000

5.34456268434150e+005,-7.73317212945924e+000,-4.00784829352636e+000

5.41916999912011e+005,-7.73302403404396e+000,-4.06382856998172e+000

