Freq.,VOut,OutRef

1.00000000000000e+004,-3.22031191769064e+001,-1.27190813748596e-001

1.01395947979003e+004,-3.22031194125552e+001,-1.28966330012864e-001

1.02811382665607e+004,-3.22031196548289e+001,-1.30766631504764e-001

1.04246576084112e+004,-3.22031199039138e+001,-1.32592064209670e-001

1.05701804056138e+004,-3.22031201600015e+001,-1.34442978944097e-001

1.07177346253629e+004,-3.22031204232887e+001,-1.36319731422225e-001

1.08673486252606e+004,-3.22031206939780e+001,-1.38222682320718e-001

1.10190511587661e+004,-3.22031209722774e+001,-1.40152197354871e-001

1.11728713807222e+004,-3.22031212584008e+001,-1.42108647342943e-001

1.13288388529580e+004,-3.22031215525681e+001,-1.44092408280055e-001

1.14869835499703e+004,-3.22031218550057e+001,-1.46103861408131e-001

1.16473358646846e+004,-3.22031221659459e+001,-1.48143393293429e-001

1.18099266142953e+004,-3.22031224856278e+001,-1.50211395897756e-001

1.19747870461893e+004,-3.22031228142972e+001,-1.52308266653355e-001

1.21419488439505e+004,-3.22031231522066e+001,-1.54434408541343e-001

1.23114441334492e+004,-3.22031234996161e+001,-1.56590230166544e-001

1.24833054890161e+004,-3.22031238567926e+001,-1.58776145838401e-001

1.26575659397028e+004,-3.22031242240104e+001,-1.60992575652205e-001

1.28342589756290e+004,-3.22031246015523e+001,-1.63239945561790e-001

1.30134185544193e+004,-3.22031249897083e+001,-1.65518687472774e-001

1.31950791077289e+004,-3.22031253887768e+001,-1.67829239315495e-001

1.33792755478611e+004,-3.22031257990645e+001,-1.70172045136253e-001

1.35660432744767e+004,-3.22031262208869e+001,-1.72547555177836e-001

1.37554181813974e+004,-3.22031266545686e+001,-1.74956225967036e-001

1.39474366635040e+004,-3.22031271004425e+001,-1.77398520407851e-001

1.41421356237309e+004,-3.22031275588514e+001,-1.79874907862167e-001

1.43395524801583e+004,-3.22031280301482e+001,-1.82385864243170e-001

1.45397251732031e+004,-3.22031285146947e+001,-1.84931872109380e-001

1.47426921729110e+004,-3.22031290128638e+001,-1.87513420754471e-001

1.49484924863494e+004,-3.22031295250382e+001,-1.90131006301721e-001

1.51571656651040e+004,-3.22031300516118e+001,-1.92785131800576e-001

1.53687518128801e+004,-3.22031305929892e+001,-1.95476307323105e-001

1.55832915932100e+004,-3.22031311495869e+001,-1.98205050058553e-001

1.58008262372675e+004,-3.22031317218324e+001,-2.00971884418830e-001

1.60213975517924e+004,-3.22031323101659e+001,-2.03777342133642e-001

1.62450479271247e+004,-3.22031329150398e+001,-2.06621962355532e-001

1.64718203453514e+004,-3.22031335369188e+001,-2.09506291764084e-001

1.67017583885674e+004,-3.22031341762811e+001,-2.12430884668941e-001

1.69349062472505e+004,-3.22031348336184e+001,-2.15396303116460e-001

1.71713087287550e+004,-3.22031355094357e+001,-2.18403117000858e-001

1.74110112659224e+004,-3.22031362042527e+001,-2.21451904168388e-001

1.76540599258131e+004,-3.22031369186037e+001,-2.24543250532634e-001

1.79005014185594e+004,-3.22031376530376e+001,-2.27677750185991e-001

1.81503831063432e+004,-3.22031384081193e+001,-2.30856005513025e-001

1.84037530124975e+004,-3.22031391844291e+001,-2.34078627307564e-001

1.86606598307361e+004,-3.22031399825637e+001,-2.37346234888593e-001

1.89211529345119e+004,-3.22031408031369e+001,-2.40659456219134e-001

1.91852823865052e+004,-3.22031416467793e+001,-2.44018928029653e-001

1.94530989482457e+004,-3.22031425141397e+001,-2.47425295935951e-001

1.97246540898671e+004,-3.22031434058846e+001,-2.50879214568279e-001

1.99999999999999e+004,-3.22031443226998e+001,-2.54381347692165e-001

2.02791895958005e+004,-3.22031452652899e+001,-2.57932368339520e-001

2.05622765331213e+004,-3.22031462343798e+001,-2.61532958935945e-001

2.08493152168224e+004,-3.22031472307142e+001,-2.65183811433024e-001

2.11403608112276e+004,-3.22031482550592e+001,-2.68885627441288e-001

2.14354692507258e+004,-3.22031493082022e+001,-2.72639118364128e-001

2.17346972505211e+004,-3.22031503909529e+001,-2.76445005533631e-001

2.20381023175322e+004,-3.22031515041436e+001,-2.80304020352624e-001

2.23457427614443e+004,-3.22031526486301e+001,-2.84216904431194e-001

2.26576777059159e+004,-3.22031538252923e+001,-2.88184409731140e-001

2.29739670999406e+004,-3.22031550350346e+001,-2.92207298711715e-001

2.32946717293690e+004,-3.22031562787871e+001,-2.96286344473060e-001

2.36198532285905e+004,-3.22031575575059e+001,-3.00422330907303e-001

2.39495740923785e+004,-3.22031588721740e+001,-3.04616052846659e-001

2.42838976879009e+004,-3.22031602238023e+001,-3.08868316218222e-001

2.46228882668982e+004,-3.22031616134295e+001,-3.13179938199418e-001

2.49666109780322e+004,-3.22031630421240e+001,-3.17551747372118e-001

2.53151318794055e+004,-3.22031645109842e+001,-3.21984583883750e-001

2.56685179512580e+004,-3.22031660211392e+001,-3.26479299608613e-001

2.60268371088386e+004,-3.22031675737500e+001,-3.31036758310891e-001

2.63901582154578e+004,-3.22031691700101e+001,-3.35657835811398e-001

2.67585510957221e+004,-3.22031708111467e+001,-3.40343420154237e-001

2.71320865489533e+004,-3.22031724984213e+001,-3.45094411779707e-001

2.75108363627948e+004,-3.22031742331311e+001,-3.49911723694679e-001

2.78948733270080e+004,-3.22031760166096e+001,-3.54796281650794e-001

2.82842712474618e+004,-3.22031778502279e+001,-3.59749024319637e-001

2.86791049603164e+004,-3.22031797353954e+001,-3.64770903474307e-001

2.90794503464061e+004,-3.22031816735615e+001,-3.69862884172339e-001

2.94853843458219e+004,-3.22031836662161e+001,-3.75025944940259e-001

2.98969849726987e+004,-3.22031857148909e+001,-3.80261077962846e-001

3.03143313302078e+004,-3.22031878211611e+001,-3.85569289271402e-001

3.07375036257601e+004,-3.22031899866456e+001,-3.90951598940397e-001

3.11665831864199e+004,-3.22031922130092e+001,-3.96409041279527e-001

3.16016524745350e+004,-3.22031945019633e+001,-4.01942665035812e-001

3.20427951035848e+004,-3.22031968552676e+001,-4.07553533591474e-001

3.24900958542493e+004,-3.22031992747312e+001,-4.13242725172194e-001

3.29436406907028e+004,-3.22032017622139e+001,-4.19011333050334e-001

3.34035167771346e+004,-3.22032043196280e+001,-4.24860465757659e-001

3.38698124945009e+004,-3.22032069489394e+001,-4.30791247296448e-001

3.43426174575100e+004,-3.22032096521694e+001,-4.36804817356465e-001

3.48220225318448e+004,-3.22032124313960e+001,-4.42902331532198e-001

3.53081198516260e+004,-3.22032152887557e+001,-4.49084961548229e-001

3.58010028371187e+004,-3.22032182264450e+001,-4.55353895479107e-001

3.63007662126863e+004,-3.22032212467222e+001,-4.61710337981617e-001

3.68075060249948e+004,-3.22032243519090e+001,-4.68155510524520e-001

3.73213196614721e+004,-3.22032275443926e+001,-4.74690651622845e-001

3.78423058690237e+004,-3.22032308266269e+001,-4.81317017076334e-001

3.83705647730104e+004,-3.22032342011352e+001,-4.88035880210074e-001

3.89061978964912e+004,-3.22032376705114e+001,-4.94848532118929e-001

3.94493081797342e+004,-3.22032412374225e+001,-5.01756281915175e-001

3.99999999999998e+004,-3.22032449046106e+001,-5.08760456980608e-001

4.05583791916010e+004,-3.22032486748945e+001,-5.15862403220862e-001

4.11245530662425e+004,-3.22032525511726e+001,-5.23063485323566e-001

4.16986304336447e+004,-3.22032565364245e+001,-5.30365087019877e-001

4.22807216224550e+004,-3.22032606337139e+001,-5.37768611351195e-001

4.28709385014515e+004,-3.22032648461902e+001,-5.45275480938197e-001

4.34693945010421e+004,-3.22032691770917e+001,-5.52887138252587e-001

4.40762046350642e+004,-3.22032736297474e+001,-5.60605045896113e-001

4.46914855228886e+004,-3.22032782075802e+001,-5.68430686878781e-001

4.53153554118317e+004,-3.22032829141091e+001,-5.76365564904742e-001

4.59479341998812e+004,-3.22032877529519e+001,-5.84411204661107e-001

4.65893434587380e+004,-3.22032927278282e+001,-5.92569152110453e-001

4.72397064571810e+004,-3.22032978425622e+001,-6.00840974786575e-001

4.78991481847569e+004,-3.22033031010854e+001,-6.09228262095865e-001

4.85677953758016e+004,-3.22033085074401e+001,-6.17732625621909e-001

4.92457765337964e+004,-3.22033140657820e+001,-6.26355699435526e-001

4.99332219560642e+004,-3.22033197803838e+001,-6.35099140406697e-001

5.06302637588109e+004,-3.22033256556381e+001,-6.43964628523773e-001

5.13370359025159e+004,-3.22033316960611e+001,-6.52953867215777e-001

5.20536742176771e+004,-3.22033379062960e+001,-6.62068583676872e-001

5.27803164309155e+004,-3.22033442911162e+001,-6.71310529201314e-001

5.35171021914442e+004,-3.22033508554296e+001,-6.80681479516106e-001

5.42641730979066e+004,-3.22033576042821e+001,-6.90183235122579e-001

5.50216727255895e+004,-3.22033645428612e+001,-6.99817621642485e-001

5.57897466540159e+004,-3.22033716765002e+001,-7.09586490166964e-001

5.65685424949235e+004,-3.22033790106825e+001,-7.19491717611893e-001

5.73582099206328e+004,-3.22033865510456e+001,-7.29535207077283e-001

5.81589006928121e+004,-3.22033943033854e+001,-7.39718888212719e-001

5.89707686916437e+004,-3.22034022736605e+001,-7.50044717587541e-001

5.97939699453972e+004,-3.22034104679974e+001,-7.60514679064973e-001

6.06286626604156e+004,-3.22034188926944e+001,-7.71130784182517e-001

6.14750072515201e+004,-3.22034275542271e+001,-7.81895072537918e-001

6.23331663728396e+004,-3.22034364592530e+001,-7.92809612179569e-001

6.32033049490698e+004,-3.22034456146168e+001,-8.03876500003029e-001

6.40855902071694e+004,-3.22034550273554e+001,-8.15097862152951e-001

6.49801917084985e+004,-3.22034647047037e+001,-8.26475854430371e-001

6.58872813814055e+004,-3.22034746540998e+001,-8.38012662704613e-001

6.68070335542691e+004,-3.22034848831908e+001,-8.49710503334378e-001

6.77396249890018e+004,-3.22034953998390e+001,-8.61571623589490e-001

6.86852349150199e+004,-3.22035062121274e+001,-8.73598302082934e-001

6.96440450636895e+004,-3.22035173283662e+001,-8.85792849207628e-001

7.06162397032520e+004,-3.22035287570994e+001,-8.98157607576420e-001

7.16020056742374e+004,-3.22035405071107e+001,-9.10694952474254e-001

7.26015324253724e+004,-3.22035525874311e+001,-9.23407292308896e-001

7.36150120499896e+004,-3.22035650073452e+001,-9.36297069075033e-001

7.46426393229441e+004,-3.22035777763984e+001,-9.49366758819988e-001

7.56846117380472e+004,-3.22035909044047e+001,-9.62618872118411e-001

7.67411295460207e+004,-3.22036044014535e+001,-9.76055954552477e-001

7.78123957929823e+004,-3.22036182779182e+001,-9.89680587197676e-001

7.88986163594682e+004,-3.22036325444633e+001,-1.00349538711882e+000

7.99999999999995e+004,-3.22036472120531e+001,-1.01750300786962e+000

8.11167583832018e+004,-3.22036622919602e+001,-1.03170613999880e+000

8.22491061324848e+004,-3.22036777957740e+001,-1.04610751156662e+000

8.33972608672892e+004,-3.22036937354092e+001,-1.06070988866558e+000

8.45614432449099e+004,-3.22037101231156e+001,-1.07551607594998e+000

8.57418770029029e+004,-3.22037269714873e+001,-1.09052891716947e+000

8.69387890020841e+004,-3.22037442934720e+001,-1.10575129571669e+000

8.81524092701283e+004,-3.22037621023816e+001,-1.12118613517394e+000

8.93829710457770e+004,-3.22037804119018e+001,-1.13683639987491e+000

9.06307108236633e+004,-3.22037992361028e+001,-1.15270509546953e+000

9.18958683997622e+004,-3.22038185894504e+001,-1.16879526949789e+000

9.31786869174758e+004,-3.22038384868167e+001,-1.18511001197202e+000

9.44794129143618e+004,-3.22038589434916e+001,-1.20165245596803e+000

9.57982963695136e+004,-3.22038799751949e+001,-1.21842577822016e+000

9.71355907516031e+004,-3.22039015980877e+001,-1.23543319973104e+000

9.84915530675926e+004,-3.22039238287854e+001,-1.25267798638342e+000

9.98664439121282e+004,-3.22039466843703e+001,-1.27016344956505e+000

1.01260527517622e+005,-3.22039701824044e+001,-1.28789294679875e+000

1.02674071805032e+005,-3.22039943409431e+001,-1.30586988238461e+000

1.04107348435354e+005,-3.22040191785493e+001,-1.32409770804663e+000

1.05560632861831e+005,-3.22040447143072e+001,-1.34257992359202e+000

1.07034204382888e+005,-3.22040709678373e+001,-1.36132007757817e+000

1.08528346195813e+005,-3.22040979593110e+001,-1.38032176798869e+000

1.10043345451179e+005,-3.22041257094667e+001,-1.39958864291765e+000

1.11579493308032e+005,-3.22041542396252e+001,-1.41912440126542e+000

1.13137084989847e+005,-3.22041835717060e+001,-1.43893279344268e+000

1.14716419841265e+005,-3.22042137282449e+001,-1.45901762208308e+000

1.16317801385624e+005,-3.22042447324101e+001,-1.47938274276902e+000

1.17941537383287e+005,-3.22042766080210e+001,-1.50003206476197e+000

1.19587939890794e+005,-3.22043093795657e+001,-1.52096955174825e+000

1.21257325320831e+005,-3.22043430722203e+001,-1.54219922259188e+000

1.22950014503040e+005,-3.22043777118681e+001,-1.56372515209781e+000

1.24666332745679e+005,-3.22044133251191e+001,-1.58555147178611e+000

1.26406609898139e+005,-3.22044499393309e+001,-1.60768237067743e+000

1.28171180414339e+005,-3.22044875826291e+001,-1.63012209608773e+000

1.29960383416997e+005,-3.22045262839295e+001,-1.65287495443360e+000

1.31774562762811e+005,-3.22045660729598e+001,-1.67594531205058e+000

1.33614067108538e+005,-3.22046069802824e+001,-1.69933759602113e+000

1.35479249978003e+005,-3.22046490373180e+001,-1.72305629501288e+000

1.37370469830040e+005,-3.22046922763695e+001,-1.74710596013005e+000

1.39288090127379e+005,-3.22047367306471e+001,-1.77149120577511e+000

1.41232479406504e+005,-3.22047824342931e+001,-1.79621671052348e+000

1.43204011348474e+005,-3.22048294224086e+001,-1.82128721800745e+000

1.45203064850745e+005,-3.22048777310802e+001,-1.84670753781549e+000

1.47230024099979e+005,-3.22049273974076e+001,-1.87248254640019e+000

1.49285278645888e+005,-3.22049784595320e+001,-1.89861718800072e+000

1.51369223476094e+005,-3.22050309566653e+001,-1.92511647557782e+000

1.53482259092041e+005,-3.22050849291202e+001,-1.95198549175844e+000

1.55624791585964e+005,-3.22051404183409e+001,-1.97922938979661e+000

1.57797232718936e+005,-3.22051974669350e+001,-2.00685339454526e+000

1.59999999999999e+005,-3.22052561187058e+001,-2.03486280344127e+000

1.62233516766403e+005,-3.22053164186862e+001,-2.06326298750374e+000

1.64498212264969e+005,-3.22053784131728e+001,-2.09205939234576e+000

1.66794521734578e+005,-3.22054421497616e+001,-2.12125753919925e+000

1.69122886489819e+005,-3.22055076773841e+001,-2.15086302595412e+000

1.71483754005805e+005,-3.22055750463450e+001,-2.18088152820981e+000

1.73877578004168e+005,-3.22056443083604e+001,-2.21131880034265e+000

1.76304818540256e+005,-3.22057155165974e+001,-2.24218067658602e+000

1.78765942091554e+005,-3.22057887257148e+001,-2.27347307212543e+000

1.81261421647326e+005,-3.22058639919050e+001,-2.30520198420675e+000

1.83791736799524e+005,-3.22059413729364e+001,-2.33737349326171e+000

1.86357373834951e+005,-3.22060209281983e+001,-2.36999376404456e+000

1.88958825828723e+005,-3.22061027187455e+001,-2.40306904678751e+000

1.91596592739027e+005,-3.22061868073454e+001,-2.43660567836830e+000

1.94271181503206e+005,-3.22062732585256e+001,-2.47061008349437e+000

1.96983106135185e+005,-3.22063621386235e+001,-2.50508877590189e+000

1.99732887824256e+005,-3.22064535158366e+001,-2.54004835957167e+000

2.02521055035243e+005,-3.22065474602747e+001,-2.57549552995879e+000

2.05348143610063e+005,-3.22066440440132e+001,-2.61143707524010e+000

2.08214696870707e+005,-3.22067433411483e+001,-2.64787987757723e+000

2.11121265723661e+005,-3.22068454278534e+001,-2.68483091439468e+000

2.14068408765776e+005,-3.22069503824369e+001,-2.72229725967687e+000

2.17056692391625e+005,-3.22070582854024e+001,-2.76028608527916e+000

2.20086690902357e+005,-3.22071692195094e+001,-2.79880466225772e+000

2.23158986616063e+005,-3.22072832698370e+001,-2.83786036221499e+000

2.26274169979693e+005,-3.22074005238480e+001,-2.87746065866384e+000

2.29432839682530e+005,-3.22075210714560e+001,-2.91761312840674e+000

2.32635602771247e+005,-3.22076450050937e+001,-2.95832545293510e+000

2.35883074766574e+005,-3.22077724197829e+001,-2.99960541984395e+000

2.39175879781588e+005,-3.22079034132072e+001,-3.04146092426667e+000

2.42514650641661e+005,-3.22080380857861e+001,-3.08389997032474e+000

2.45900029006080e+005,-3.22081765407512e+001,-3.12693067259933e+000

2.49332665491357e+005,-3.22083188842249e+001,-3.17056125761826e+000

2.52813219796278e+005,-3.22084652253008e+001,-3.21480006536235e+000

2.56342360828676e+005,-3.22086156761265e+001,-3.25965555079188e+000

2.59920766833993e+005,-3.22087703519889e+001,-3.30513628538881e+000

2.63549125525621e+005,-3.22089293714017e+001,-3.35125095872142e+000

2.67228134217075e+005,-3.22090928561953e+001,-3.39800838002491e+000

2.70958499956006e+005,-3.22092609316086e+001,-3.44541747980467e+000

2.74740939660078e+005,-3.22094337263849e+001,-3.49348731145523e+000

2.78576180254757e+005,-3.22096113728686e+001,-3.54222705290236e+000

2.82464958813007e+005,-3.22097940071060e+001,-3.59164600826170e+000

2.86408022696948e+005,-3.22099817689480e+001,-3.64175360952034e+000

2.90406129701488e+005,-3.22101748021558e+001,-3.69255941823591e+000

2.94460048199957e+005,-3.22103732545099e+001,-3.74407312725750e+000

2.98570557291775e+005,-3.22105772779218e+001,-3.79630456246547e+000

3.02738446952187e+005,-3.22107870285485e+001,-3.84926368453291e+000

3.06964518184081e+005,-3.22110026669109e+001,-3.90296059070773e+000

3.11249583171928e+005,-3.22112243580143e+001,-3.95740551661346e+000

3.15594465437872e+005,-3.22114522714738e+001,-4.01260883807358e+000

3.19999999999997e+005,-3.22116865816413e+001,-4.06858107295430e+000

3.24467033532806e+005,-3.22119274677375e+001,-4.12533288302982e+000

3.28996424529938e+005,-3.22121751139865e+001,-4.18287507586859e+000

3.33589043469155e+005,-3.22124297097549e+001,-4.24121860673973e+000

3.38245772979638e+005,-3.22126914496940e+001,-4.30037458054166e+000

3.42967508011610e+005,-3.22129605338861e+001,-4.36035425375142e+000

3.47755156008335e+005,-3.22132371679949e+001,-4.42116903639603e+000

3.52609637080511e+005,-3.22135215634203e+001,-4.48283049404462e+000

3.57531884183106e+005,-3.22138139374564e+001,-4.54535034982282e+000

3.62522843294651e+005,-3.22141145134549e+001,-4.60874048644761e+000

3.67583473599047e+005,-3.22144235209925e+001,-4.67301294828421e+000

3.72714747669902e+005,-3.22147411960425e+001,-4.73817994342528e+000

3.77917651657445e+005,-3.22150677811516e+001,-4.80425384579084e+000

3.83193185478053e+005,-3.22154035256212e+001,-4.87124719724928e+000

3.88542363006410e+005,-3.22157486856939e+001,-4.93917270976146e+000

3.93966212270369e+005,-3.22161035247442e+001,-5.00804326754490e+000

3.99465775648511e+005,-3.22164683134757e+001,-5.07787192925995e+000

4.05042110070485e+005,-3.22168433301222e+001,-5.14867193021770e+000

4.10696287220124e+005,-3.22172288606553e+001,-5.22045668460856e+000

4.16429393741414e+005,-3.22176251989970e+001,-5.29323978775230e+000

4.22242531447321e+005,-3.22180326472381e+001,-5.36703501836982e+000

4.28136817531551e+005,-3.22184515158625e+001,-5.44185634087474e+000

4.34113384783250e+005,-3.22188821239778e+001,-5.51771790768696e+000

4.40173381804713e+005,-3.22193247995513e+001,-5.59463406156600e+000

4.46317973232124e+005,-3.22197798796532e+001,-5.67261933796548e+000

4.52548339959385e+005,-3.22202477107057e+001,-5.75168846740738e+000

4.58865679365059e+005,-3.22207286487388e+001,-5.83185637787688e+000

4.65271205542494e+005,-3.22212230596532e+001,-5.91313819723669e+000

4.71766149533147e+005,-3.22217313194897e+001,-5.99554925566022e+000

4.78351759563174e+005,-3.22222538147061e+001,-6.07910508808579e+000

4.85029301283321e+005,-3.22227909424616e+001,-6.16382143668694e+000

4.91800058012158e+005,-3.22233431109077e+001,-6.24971425336445e+000

4.98665330982714e+005,-3.22239107394884e+001,-6.33679970225379e+000

5.05626439592555e+005,-3.22244942592464e+001,-6.42509416225179e+000

5.12684721657352e+005,-3.22250941131392e+001,-6.51461422955974e+000

5.19841533667984e+005,-3.22257107563617e+001,-6.60537672024352e+000

5.27098251051240e+005,-3.22263446566788e+001,-6.69739867281037e+000

5.34456268434150e+005,-3.22269962947656e+001,-6.79069735080045e+000

5.41916999912011e+005,-3.22276661645570e+001,-6.88529024539451e+000

