Freq.,VOut,OutRef

1.00000000000000e+004,-3.63613150415748e+001,-1.44515735220557e-001

1.01395947979003e+004,-3.63613153497512e+001,-1.46533097726960e-001

1.02811382665607e+004,-3.63613156665917e+001,-1.48578621480184e-001

1.04246576084112e+004,-3.63613159923397e+001,-1.50652699593955e-001

1.05701804056138e+004,-3.63613163272457e+001,-1.52755730667601e-001

1.07177346253629e+004,-3.63613166715671e+001,-1.54888118866147e-001

1.08673486252606e+004,-3.63613170255687e+001,-1.57050273995707e-001

1.10190511587661e+004,-3.63613173895226e+001,-1.59242611582479e-001

1.11728713807222e+004,-3.63613177637087e+001,-1.61465552952863e-001

1.13288388529580e+004,-3.63613181484146e+001,-1.63719525316555e-001

1.14869835499703e+004,-3.63613185439359e+001,-1.66004961844862e-001

1.16473358646846e+004,-3.63613189505768e+001,-1.68322301756031e-001

1.18099266142953e+004,-3.63613193686499e+001,-1.70671990399348e-001

1.19747870461893e+004,-3.63613197984767e+001,-1.73054479340607e-001

1.21419488439505e+004,-3.63613202403875e+001,-1.75470226450023e-001

1.23114441334492e+004,-3.63613206947220e+001,-1.77919695988761e-001

1.24833054890161e+004,-3.63613211618296e+001,-1.80403358696345e-001

1.26575659397028e+004,-3.63613216420693e+001,-1.82921691887415e-001

1.28342589756290e+004,-3.63613221358104e+001,-1.85475179535742e-001

1.30134185544193e+004,-3.63613226434323e+001,-1.88064312373990e-001

1.31950791077289e+004,-3.63613231653253e+001,-1.90689587981368e-001

1.33792755478611e+004,-3.63613237018908e+001,-1.93351510885450e-001

1.35660432744767e+004,-3.63613242535411e+001,-1.96050592655296e-001

1.37554181813974e+004,-3.63613248207003e+001,-1.98787352001686e-001

1.39474366635040e+004,-3.63613254038045e+001,-2.01562314874797e-001

1.41421356237309e+004,-3.63613260033019e+001,-2.04376014567412e-001

1.43395524801583e+004,-3.63613266196534e+001,-2.07228991816085e-001

1.45397251732031e+004,-3.63613272533327e+001,-2.10121794905835e-001

1.47426921729110e+004,-3.63613279048271e+001,-2.13054979774076e-001

1.49484924863494e+004,-3.63613285746376e+001,-2.16029110117868e-001

1.51571656651040e+004,-3.63613292632788e+001,-2.19044757505895e-001

1.53687518128801e+004,-3.63613299712802e+001,-2.22102501481869e-001

1.55832915932100e+004,-3.63613306991862e+001,-2.25202929680332e-001

1.58008262372675e+004,-3.63613314475563e+001,-2.28346637938549e-001

1.60213975517924e+004,-3.63613322169659e+001,-2.31534230410642e-001

1.62450479271247e+004,-3.63613330080063e+001,-2.34766319684317e-001

1.64718203453514e+004,-3.63613338212858e+001,-2.38043526897241e-001

1.67017583885674e+004,-3.63613346574296e+001,-2.41366481857392e-001

1.69349062472505e+004,-3.63613355170804e+001,-2.44735823165064e-001

1.71713087287550e+004,-3.63613364008991e+001,-2.48152198333258e-001

1.74110112659224e+004,-3.63613373095653e+001,-2.51616263913044e-001

1.76540599258131e+004,-3.63613382437772e+001,-2.55128685621671e-001

1.79005014185594e+004,-3.63613392042535e+001,-2.58690138465356e-001

1.81503831063432e+004,-3.63613401917320e+001,-2.62301306877093e-001

1.84037530124975e+004,-3.63613412069721e+001,-2.65962884839152e-001

1.86606598307361e+004,-3.63613422507544e+001,-2.69675576021793e-001

1.89211529345119e+004,-3.63613433238812e+001,-2.73440093918521e-001

1.91852823865052e+004,-3.63613444271774e+001,-2.77257161980922e-001

1.94530989482457e+004,-3.63613455614912e+001,-2.81127513758759e-001

1.97246540898671e+004,-3.63613467276946e+001,-2.85051893040735e-001

1.99999999999999e+004,-3.63613479266843e+001,-2.89031053997062e-001

2.02791895958005e+004,-3.63613491593818e+001,-2.93065761325797e-001

2.05622765331213e+004,-3.63613504267349e+001,-2.97156790397658e-001

2.08493152168224e+004,-3.63613517297177e+001,-3.01304927406785e-001

2.11403608112276e+004,-3.63613530693320e+001,-3.05510969519846e-001

2.14354692507258e+004,-3.63613544466077e+001,-3.09775725031635e-001

2.17346972505211e+004,-3.63613558626035e+001,-3.14100013517553e-001

2.20381023175322e+004,-3.63613573184079e+001,-3.18484665993870e-001

2.23457427614443e+004,-3.63613588151401e+001,-3.22930525074955e-001

2.26576777059159e+004,-3.63613603539507e+001,-3.27438445137357e-001

2.29739670999406e+004,-3.63613619360227e+001,-3.32009292480653e-001

2.32946717293690e+004,-3.63613635625722e+001,-3.36643945497971e-001

2.36198532285905e+004,-3.63613652348497e+001,-3.41343294842048e-001

2.39495740923785e+004,-3.63613669541409e+001,-3.46108243595598e-001

2.42838976879009e+004,-3.63613687217672e+001,-3.50939707448271e-001

2.46228882668982e+004,-3.63613705390876e+001,-3.55838614868650e-001

2.49666109780322e+004,-3.63613724074991e+001,-3.60805907285178e-001

2.53151318794055e+004,-3.63613743284381e+001,-3.65842539265659e-001

2.56685179512580e+004,-3.63613763033813e+001,-3.70949478700254e-001

2.60268371088386e+004,-3.63613783338469e+001,-3.76127706990480e-001

2.63901582154578e+004,-3.63613804213959e+001,-3.81378219231965e-001

2.67585510957221e+004,-3.63613825676330e+001,-3.86702024412210e-001

2.71320865489533e+004,-3.63613847742080e+001,-3.92100145599041e-001

2.75108363627948e+004,-3.63613870428172e+001,-3.97573620139919e-001

2.78948733270080e+004,-3.63613893752047e+001,-4.03123499859713e-001

2.82842712474618e+004,-3.63613917731634e+001,-4.08750851264048e-001

2.86791049603164e+004,-3.63613942385367e+001,-4.14456755742701e-001

2.90794503464061e+004,-3.63613967732198e+001,-4.20242309778993e-001

2.94853843458219e+004,-3.63613993791613e+001,-4.26108625157333e-001

2.98969849726987e+004,-3.63614020583643e+001,-4.32056829181395e-001

3.03143313302078e+004,-3.63614048128884e+001,-4.38088064885317e-001

3.07375036257601e+004,-3.63614076448513e+001,-4.44203491256662e-001

3.11665831864199e+004,-3.63614105564298e+001,-4.50404283458548e-001

3.16016524745350e+004,-3.63614135498621e+001,-4.56691633054214e-001

3.20427951035848e+004,-3.63614166274495e+001,-4.63066748235613e-001

3.24900958542493e+004,-3.63614197915576e+001,-4.69530854057384e-001

3.29436406907028e+004,-3.63614230446188e+001,-4.76085192669347e-001

3.34035167771346e+004,-3.63614263891339e+001,-4.82731023557299e-001

3.38698124945009e+004,-3.63614298276738e+001,-4.89469623783335e-001

3.43426174575100e+004,-3.63614333628818e+001,-4.96302288231262e-001

3.48220225318448e+004,-3.63614369974753e+001,-5.03230329856558e-001

3.53081198516260e+004,-3.63614407342485e+001,-5.10255079935771e-001

3.58010028371187e+004,-3.63614445760739e+001,-5.17377888323948e-001

3.63007662126863e+004,-3.63614485259045e+001,-5.24600123713981e-001

3.68075060249948e+004,-3.63614525867767e+001,-5.31923173898019e-001

3.73213196614721e+004,-3.63614567618123e+001,-5.39348446033867e-001

3.78423058690237e+004,-3.63614610542205e+001,-5.46877366916497e-001

3.83705647730104e+004,-3.63614654673008e+001,-5.54511383250872e-001

3.89061978964912e+004,-3.63614700044457e+001,-5.62251961928808e-001

3.94493081797342e+004,-3.63614746691429e+001,-5.70100590311790e-001

3.99999999999998e+004,-3.63614794649780e+001,-5.78058776517015e-001

4.05583791916010e+004,-3.63614843956377e+001,-5.86128049703367e-001

4.11245530662425e+004,-3.63614894649121e+001,-5.94309960368702e-001

4.16986304336447e+004,-3.63614946766979e+001,-6.02606080645171e-001

4.22807216224550e+004,-3.63615000350013e+001,-6.11018004602080e-001

4.28709385014515e+004,-3.63615055439411e+001,-6.19547348549854e-001

4.34693945010421e+004,-3.63615112077521e+001,-6.28195751352379e-001

4.40762046350642e+004,-3.63615170307878e+001,-6.36964874739026e-001

4.46914855228886e+004,-3.63615230175243e+001,-6.45856403625899e-001

4.53153554118317e+004,-3.63615291725636e+001,-6.54872046436492e-001

4.59479341998812e+004,-3.63615355006367e+001,-6.64013535431066e-001

4.65893434587380e+004,-3.63615420066078e+001,-6.73282627039443e-001

4.72397064571810e+004,-3.63615486954780e+001,-6.82681102194546e-001

4.78991481847569e+004,-3.63615555723886e+001,-6.92210766678560e-001

4.85677953758016e+004,-3.63615626426258e+001,-7.01873451464049e-001

4.92457765337964e+004,-3.63615699116240e+001,-7.11671013070434e-001

4.99332219560642e+004,-3.63615773849707e+001,-7.21605333915003e-001

5.06302637588109e+004,-3.63615850684102e+001,-7.31678322677805e-001

5.13370359025159e+004,-3.63615929678484e+001,-7.41891914663940e-001

5.20536742176771e+004,-3.63616010893570e+001,-7.52248072177939e-001

5.27803164309155e+004,-3.63616094391788e+001,-7.62748784896547e-001

5.35171021914442e+004,-3.63616180237316e+001,-7.73396070253225e-001

5.42641730979066e+004,-3.63616268496138e+001,-7.84191973822378e-001

5.50216727255895e+004,-3.63616359236093e+001,-7.95138569712426e-001

5.57897466540159e+004,-3.63616452526924e+001,-8.06237960963263e-001

5.65685424949235e+004,-3.63616548440338e+001,-8.17492279948227e-001

5.73582099206328e+004,-3.63616647050054e+001,-8.28903688784206e-001

5.81589006928121e+004,-3.63616748431867e+001,-8.40474379743740e-001

5.89707686916437e+004,-3.63616852663697e+001,-8.52206575677398e-001

5.97939699453972e+004,-3.63616959825658e+001,-8.64102530436941e-001

6.06286626604156e+004,-3.63617070000115e+001,-8.76164529309045e-001

6.14750072515201e+004,-3.63617183271746e+001,-8.88394889451473e-001

6.23331663728396e+004,-3.63617299727612e+001,-9.00795960337241e-001

6.32033049490698e+004,-3.63617419457217e+001,-9.13370124204946e-001

6.40855902071694e+004,-3.63617542552583e+001,-9.26119796513603e-001

6.49801917084985e+004,-3.63617669108317e+001,-9.39047426406224e-001

6.58872813814055e+004,-3.63617799221688e+001,-9.52155497176782e-001

6.68070335542691e+004,-3.63617932992692e+001,-9.65446526748256e-001

6.77396249890018e+004,-3.63618070524141e+001,-9.78923068151141e-001

6.86852349150199e+004,-3.63618211921735e+001,-9.92587710014287e-001

6.96440450636895e+004,-3.63618357294142e+001,-1.00644307705820e+000

7.06162397032520e+004,-3.63618506753088e+001,-1.02049183059896e+000

7.16020056742374e+004,-3.63618660413435e+001,-1.03473666905541e+000

7.26015324253724e+004,-3.63618818393275e+001,-1.04918032846638e+000

7.36150120499896e+004,-3.63618980814016e+001,-1.06382558301329e+000

7.46426393229441e+004,-3.63619147800480e+001,-1.07867524554977e+000

7.56846117380472e+004,-3.63619319480997e+001,-1.09373216814049e+000

7.67411295460207e+004,-3.63619495987500e+001,-1.10899924260466e+000

7.78123957929823e+004,-3.63619677455633e+001,-1.12447940107046e+000

7.88986163594682e+004,-3.63619864024849e+001,-1.14017561653342e+000

7.99999999999995e+004,-3.63620055838521e+001,-1.15609090342467e+000

8.11167583832018e+004,-3.63620253044047e+001,-1.17222831818786e+000

8.22491061324848e+004,-3.63620455792973e+001,-1.18859095986048e+000

8.33972608672892e+004,-3.63620664241096e+001,-1.20518197066751e+000

8.45614432449099e+004,-3.63620878548596e+001,-1.22200453661950e+000

8.57418770029029e+004,-3.63621098880150e+001,-1.23906188812206e+000

8.69387890020841e+004,-3.63621325405064e+001,-1.25635730059005e+000

8.81524092701283e+004,-3.63621558297400e+001,-1.27389409507578e+000

8.93829710457770e+004,-3.63621797736109e+001,-1.29167563889751e+000

9.06307108236633e+004,-3.63622043905172e+001,-1.30970534628667e+000

9.18958683997622e+004,-3.63622296993736e+001,-1.32798667903425e+000

9.31786869174758e+004,-3.63622557196265e+001,-1.34652314715294e+000

9.44794129143618e+004,-3.63622824712683e+001,-1.36531830954600e+000

9.57982963695136e+004,-3.63623099748531e+001,-1.38437577468331e+000

9.71355907516031e+004,-3.63623382515127e+001,-1.40369920129058e+000

9.84915530675926e+004,-3.63623673229720e+001,-1.42329229904432e+000

9.98664439121282e+004,-3.63623972115667e+001,-1.44315882927881e+000

1.01260527517622e+005,-3.63624279402595e+001,-1.46330260570173e+000

1.02674071805032e+005,-3.63624595326583e+001,-1.48372749511971e+000

1.04107348435354e+005,-3.63624920130340e+001,-1.50443741817246e+000

1.05560632861831e+005,-3.63625254063392e+001,-1.52543635007983e+000

1.07034204382888e+005,-3.63625597382276e+001,-1.54672832139633e+000

1.08528346195813e+005,-3.63625950350732e+001,-1.56831741877722e+000

1.10043345451179e+005,-3.63626313239906e+001,-1.59020778575478e+000

1.11579493308032e+005,-3.63626686328561e+001,-1.61240362352459e+000

1.13137084989847e+005,-3.63627069903289e+001,-1.63490919174328e+000

1.14716419841265e+005,-3.63627464258730e+001,-1.65772880933649e+000

1.16317801385624e+005,-3.63627869697797e+001,-1.68086685531899e+000

1.17941537383287e+005,-3.63628286531910e+001,-1.70432776962365e+000

1.19587939890794e+005,-3.63628715081233e+001,-1.72811605394330e+000

1.21257325320831e+005,-3.63629155674923e+001,-1.75223627258371e+000

1.22950014503040e+005,-3.63629608651374e+001,-1.77669305332885e+000

1.24666332745679e+005,-3.63630074358485e+001,-1.80149108831479e+000

1.26406609898139e+005,-3.63630553153923e+001,-1.82663513491938e+000

1.28171180414339e+005,-3.63631045405395e+001,-1.85213001666159e+000

1.29960383416997e+005,-3.63631551490931e+001,-1.87798062411294e+000

1.31774562762811e+005,-3.63632071799174e+001,-1.90419191582142e+000

1.33614067108538e+005,-3.63632606729677e+001,-1.93076891924922e+000

1.35479249978003e+005,-3.63633156693209e+001,-1.95771673172006e+000

1.37370469830040e+005,-3.63633722112069e+001,-1.98504052138276e+000

1.39288090127379e+005,-3.63634303420410e+001,-2.01274552818397e+000

1.41232479406504e+005,-3.63634901064568e+001,-2.04083706485750e+000

1.43204011348474e+005,-3.63635515503408e+001,-2.06932051792396e+000

1.45203064850745e+005,-3.63636147208671e+001,-2.09820134870507e+000

1.47230024099979e+005,-3.63636796665340e+001,-2.12748509435162e+000

1.49285278645888e+005,-3.63637464372002e+001,-2.15717736888446e+000

1.51369223476094e+005,-3.63638150841239e+001,-2.18728386424949e+000

1.53482259092041e+005,-3.63638856600014e+001,-2.21781035138626e+000

1.55624791585964e+005,-3.63639582190074e+001,-2.24876268131229e+000

1.57797232718936e+005,-3.63640328168365e+001,-2.28014678621908e+000

1.59999999999999e+005,-3.63641095107459e+001,-2.31196868058445e+000

1.62233516766403e+005,-3.63641883595989e+001,-2.34423446229983e+000

1.64498212264969e+005,-3.63642694239099e+001,-2.37695031380997e+000

1.66794521734578e+005,-3.63643527658907e+001,-2.41012250327056e+000

1.69122886489819e+005,-3.63644384494979e+001,-2.44375738571888e+000

1.71483754005805e+005,-3.63645265404819e+001,-2.47786140426046e+000

1.73877578004168e+005,-3.63646171064366e+001,-2.51244109127132e+000

1.76304818540256e+005,-3.63647102168517e+001,-2.54750306961549e+000

1.78765942091554e+005,-3.63648059431650e+001,-2.58305405387860e+000

1.81261421647326e+005,-3.63649043588175e+001,-2.61910085161774e+000

1.83791736799524e+005,-3.63650055393087e+001,-2.65565036462632e+000

1.86357373834951e+005,-3.63651095622549e+001,-2.69270959021653e+000

1.88958825828723e+005,-3.63652165074478e+001,-2.73028562251707e+000

1.91596592739027e+005,-3.63653264569155e+001,-2.76838565378933e+000

1.94271181503206e+005,-3.63654394949850e+001,-2.80701697575793e+000

1.96983106135185e+005,-3.63655557083465e+001,-2.84618698096034e+000

1.99732887824256e+005,-3.63656751861190e+001,-2.88590316411306e+000

2.02521055035243e+005,-3.63657980199187e+001,-2.92617312349389e+000

2.05348143610063e+005,-3.63659243039282e+001,-2.96700456234379e+000

2.08214696870707e+005,-3.63660541349686e+001,-3.00840529028451e+000

2.11121265723661e+005,-3.63661876125728e+001,-3.05038322475550e+000

2.14068408765776e+005,-3.63663248390612e+001,-3.09294639246788e+000

2.17056692391625e+005,-3.63664659196194e+001,-3.13610293087731e+000

2.20086690902357e+005,-3.63666109623787e+001,-3.17986108967357e+000

2.23158986616063e+005,-3.63667600784972e+001,-3.22422923229119e+000

2.26274169979693e+005,-3.63669133822452e+001,-3.26921583743661e+000

2.29432839682530e+005,-3.63670709910911e+001,-3.31482950063480e+000

2.32635602771247e+005,-3.63672330257913e+001,-3.36107893579525e+000

2.35883074766574e+005,-3.63673996104810e+001,-3.40797297679622e+000

2.39175879781588e+005,-3.63675708727689e+001,-3.45552057908942e+000

2.42514650641661e+005,-3.63677469438337e+001,-3.50373082132264e+000

2.45900029006080e+005,-3.63679279585233e+001,-3.55261290698379e+000

2.49332665491357e+005,-3.63681140554572e+001,-3.60217616606200e+000

2.52813219796278e+005,-3.63683053771311e+001,-3.65243005673224e+000

2.56342360828676e+005,-3.63685020700251e+001,-3.70338416705547e+000

2.59920766833993e+005,-3.63687042847141e+001,-3.75504821670349e+000

2.63549125525621e+005,-3.63689121759817e+001,-3.80743205869984e+000

2.67228134217075e+005,-3.63691259029373e+001,-3.86054568118454e+000

2.70958499956006e+005,-3.63693456291360e+001,-3.91439920919693e+000

2.74740939660078e+005,-3.63695715227023e+001,-3.96900290648006e+000

2.78576180254757e+005,-3.63698037564564e+001,-4.02436717730603e+000

2.82464958813007e+005,-3.63700425080454e+001,-4.08050256832117e+000

2.86408022696948e+005,-3.63702879600761e+001,-4.13741977041352e+000

2.90406129701488e+005,-3.63705403002534e+001,-4.19512962059931e+000

2.94460048199957e+005,-3.63707997215210e+001,-4.25364310393324e+000

2.98570557291775e+005,-3.63710664222067e+001,-4.31297135543688e+000

3.02738446952187e+005,-3.63713406061715e+001,-4.37312566205082e+000

3.06964518184081e+005,-3.63716224829629e+001,-4.43411746460632e+000

3.11249583171928e+005,-3.63719122679720e+001,-4.49595835981935e+000

3.15594465437872e+005,-3.63722101825949e+001,-4.55866010230561e+000

3.19999999999997e+005,-3.63725164543992e+001,-4.62223460661624e+000

3.24467033532806e+005,-3.63728313172942e+001,-4.68669394929713e+000

3.28996424529938e+005,-3.63731550117059e+001,-4.75205037096640e+000

3.33589043469155e+005,-3.63734877847572e+001,-4.81831627841611e+000

3.38245772979638e+005,-3.63738298904519e+001,-4.88550424673421e+000

3.42967508011610e+005,-3.63741815898656e+001,-4.95362702144699e+000

3.47755156008335e+005,-3.63745431513394e+001,-5.02269752068477e+000

3.52609637080511e+005,-3.63749148506804e+001,-5.09272883736763e+000

3.57531884183106e+005,-3.63752969713675e+001,-5.16373424141222e+000

3.62522843294651e+005,-3.63756898047618e+001,-5.23572718196012e+000

3.67583473599047e+005,-3.63760936503239e+001,-5.30872128962688e+000

3.72714747669902e+005,-3.63765088158357e+001,-5.38273037877256e+000

3.77917651657445e+005,-3.63769356176295e+001,-5.45776844979201e+000

3.83193185478053e+005,-3.63773743808222e+001,-5.53384969142657e+000

3.88542363006410e+005,-3.63778254395561e+001,-5.61098848309561e+000

3.93966212270369e+005,-3.63782891372463e+001,-5.68919939724853e+000

3.99465775648511e+005,-3.63787658268345e+001,-5.76849720173655e+000

4.05042110070485e+005,-3.63792558710495e+001,-5.84889686220459e+000

4.10696287220124e+005,-3.63797596426748e+001,-5.93041354450194e+000

4.16429393741414e+005,-3.63802775248231e+001,-6.01306261711247e+000

4.22242531447321e+005,-3.63808099112182e+001,-6.09685965360380e+000

4.28136817531551e+005,-3.63813572064844e+001,-6.18182043509454e+000

4.34113384783250e+005,-3.63819198264430e+001,-6.26796095274010e+000

4.40173381804713e+005,-3.63824981984179e+001,-6.35529741023490e+000

4.46317973232124e+005,-3.63830927615472e+001,-6.44384622633423e+000

4.52548339959385e+005,-3.63837039671050e+001,-6.53362403739014e+000

4.58865679365059e+005,-3.63843322788306e+001,-6.62464769990513e+000

4.65271205542494e+005,-3.63849781732661e+001,-6.71693429310146e+000

4.71766149533147e+005,-3.63856421401033e+001,-6.81050112150508e+000

4.78351759563174e+005,-3.63863246825393e+001,-6.90536571754402e+000

4.85029301283321e+005,-3.63870263176419e+001,-7.00154584416092e+000

4.91800058012158e+005,-3.63877475767234e+001,-7.09905949743858e+000

4.98665330982714e+005,-3.63884890057248e+001,-7.19792490923769e+000

5.05626439592555e+005,-3.63892511656100e+001,-7.29816054984602e+000

5.12684721657352e+005,-3.63900346327694e+001,-7.39978513063863e+000

5.19841533667984e+005,-3.63908399994345e+001,-7.50281760674737e+000

5.27098251051240e+005,-3.63916678741029e+001,-7.60727717973985e+000

5.34456268434150e+005,-3.63925188819736e+001,-7.71318330030563e+000

5.41916999912011e+005,-3.63933936653942e+001,-7.82055567094941e+000

