Freq.,VOut,OutRef

1.00000000000000e+004,-2.46756166076383e+001,-4.98459014541184e-001

1.01395947979003e+004,-2.46756198949396e+001,-5.05417171308988e-001

1.02811382665607e+004,-2.46756232746573e+001,-5.12472457276992e-001

1.04246576084112e+004,-2.46756267493892e+001,-5.19626228190595e-001

1.05701804056138e+004,-2.46756303218065e+001,-5.26879858712129e-001

1.07177346253629e+004,-2.46756339946553e+001,-5.34234742689741e-001

1.08673486252606e+004,-2.46756377707588e+001,-5.41692293422630e-001

1.10190511587661e+004,-2.46756416530201e+001,-5.49253943931399e-001

1.11728713807222e+004,-2.46756456444232e+001,-5.56921147236287e-001

1.13288388529580e+004,-2.46756497480365e+001,-5.64695376633052e-001

1.14869835499703e+004,-2.46756539670143e+001,-5.72578125977222e-001

1.16473358646846e+004,-2.46756583046000e+001,-5.80570909969714e-001

1.18099266142953e+004,-2.46756627641275e+001,-5.88675264449845e-001

1.19747870461893e+004,-2.46756673490250e+001,-5.96892746686965e-001

1.21419488439505e+004,-2.46756720628170e+001,-6.05224935680574e-001

1.23114441334492e+004,-2.46756769091268e+001,-6.13673432465444e-001

1.24833054890161e+004,-2.46756818916798e+001,-6.22239860414199e-001

1.26575659397028e+004,-2.46756870143060e+001,-6.30925865553874e-001

1.28342589756290e+004,-2.46756922809430e+001,-6.39733116878148e-001

1.30134185544193e+004,-2.46756976956392e+001,-6.48663306668833e-001

1.31950791077289e+004,-2.46757032625569e+001,-6.57718150820131e-001

1.33792755478611e+004,-2.46757089859750e+001,-6.66899389169338e-001

1.35660432744767e+004,-2.46757148702932e+001,-6.76208785827587e-001

1.37554181813974e+004,-2.46757209200345e+001,-6.85648129521691e-001

1.39474366635040e+004,-2.46757271398492e+001,-6.95219233933979e-001

1.41421356237309e+004,-2.46757335345180e+001,-7.04923938053427e-001

1.43395524801583e+004,-2.46757401089566e+001,-7.14764106524320e-001

1.45397251732031e+004,-2.46757468682183e+001,-7.24741630008655e-001

1.47426921729110e+004,-2.46757538174987e+001,-7.34858425544322e-001

1.49484924863494e+004,-2.46757609621393e+001,-7.45116436915082e-001

1.51571656651040e+004,-2.46757683076319e+001,-7.55517635022907e-001

1.53687518128801e+004,-2.46757758596226e+001,-7.66064018265348e-001

1.55832915932100e+004,-2.46757836239161e+001,-7.76757612919443e-001

1.58008262372675e+004,-2.46757916064804e+001,-7.87600473529009e-001

1.60213975517924e+004,-2.46757998134511e+001,-7.98594683299536e-001

1.62450479271247e+004,-2.46758082511363e+001,-8.09742354496896e-001

1.64718203453514e+004,-2.46758169260215e+001,-8.21045628852234e-001

1.67017583885674e+004,-2.46758258447745e+001,-8.32506677972221e-001

1.69349062472505e+004,-2.46758350142503e+001,-8.44127703755913e-001

1.71713087287550e+004,-2.46758444414966e+001,-8.55910938816123e-001

1.74110112659224e+004,-2.46758541337594e+001,-8.67858646907220e-001

1.76540599258131e+004,-2.46758640984882e+001,-8.79973123358274e-001

1.79005014185594e+004,-2.46758743433418e+001,-8.92256695514148e-001

1.81503831063432e+004,-2.46758848761944e+001,-9.04711723179589e-001

1.84037530124975e+004,-2.46758957051414e+001,-9.17340599072611e-001

1.86606598307361e+004,-2.46759068385059e+001,-9.30145749281122e-001

1.89211529345119e+004,-2.46759182848446e+001,-9.43129633730170e-001

1.91852823865052e+004,-2.46759300529549e+001,-9.56294746649803e-001

1.94530989482457e+004,-2.46759421518814e+001,-9.69643617054456e-001

1.97246540898671e+004,-2.46759545909229e+001,-9.83178809226127e-001

1.99999999999999e+004,-2.46759673796394e+001,-9.96902923206876e-001

2.02791895958005e+004,-2.46759805278599e+001,-1.01081859529359e+000

2.05622765331213e+004,-2.46759940456892e+001,-1.02492849854472e+000

2.08493152168224e+004,-2.46760079435162e+001,-1.03923534329203e+000

2.11403608112276e+004,-2.46760222320219e+001,-1.05374187765679e+000

2.14354692507258e+004,-2.46760369221874e+001,-1.06845088807728e+000

2.17346972505211e+004,-2.46760520253023e+001,-1.08336519984121e+000

2.20381023175322e+004,-2.46760675529734e+001,-1.09848767762634e+000

2.23457427614443e+004,-2.46760835171338e+001,-1.11382122604814e+000

2.26576777059159e+004,-2.46760999300519e+001,-1.12936879021367e+000

2.29739670999406e+004,-2.46761168043409e+001,-1.14513335628705e+000

2.32946717293690e+004,-2.46761341529681e+001,-1.16111795205858e+000

2.36198532285905e+004,-2.46761519892655e+001,-1.17732564752333e+000

2.39495740923785e+004,-2.46761703269396e+001,-1.19375955546839e+000

2.42838976879009e+004,-2.46761891800821e+001,-1.21042283206664e+000

2.46228882668982e+004,-2.46762085631805e+001,-1.22731867748045e+000

2.49666109780322e+004,-2.46762284911295e+001,-1.24445033647282e+000

2.53151318794055e+004,-2.46762489792422e+001,-1.26182109902581e+000

2.56685179512580e+004,-2.46762700432620e+001,-1.27943430096932e+000

2.60268371088386e+004,-2.46762916993745e+001,-1.29729332461807e+000

2.63901582154578e+004,-2.46763139642203e+001,-1.31540159941659e+000

2.67585510957221e+004,-2.46763368549072e+001,-1.33376260259352e+000

2.71320865489533e+004,-2.46763603890240e+001,-1.35237985982461e+000

2.75108363627948e+004,-2.46763845846531e+001,-1.37125694590637e+000

2.78948733270080e+004,-2.46764094603855e+001,-1.39039748543549e+000

2.82842712474618e+004,-2.46764350353339e+001,-1.40980515350204e+000

2.86791049603164e+004,-2.46764613291485e+001,-1.42948367638790e+000

2.90794503464061e+004,-2.46764883620309e+001,-1.44943683227808e+000

2.94853843458219e+004,-2.46765161547507e+001,-1.46966845197952e+000

2.98969849726987e+004,-2.46765447286606e+001,-1.49018241965168e+000

3.03143313302078e+004,-2.46765741057132e+001,-1.51098267354445e+000

3.07375036257601e+004,-2.46766043084776e+001,-1.53207320674972e+000

3.11665831864199e+004,-2.46766353601570e+001,-1.55345806795948e+000

3.16016524745350e+004,-2.46766672846063e+001,-1.57514136223632e+000

3.20427951035848e+004,-2.46767001063501e+001,-1.59712725179554e+000

3.24900958542493e+004,-2.46767338506023e+001,-1.61941995679448e+000

3.29436406907028e+004,-2.46767685432845e+001,-1.64202375613580e+000

3.34035167771346e+004,-2.46768042110464e+001,-1.66494298828031e+000

3.38698124945009e+004,-2.46768408812863e+001,-1.68818205207072e+000

3.43426174575100e+004,-2.46768785821717e+001,-1.71174540756758e+000

3.48220225318448e+004,-2.46769173426612e+001,-1.73563757689479e+000

3.53081198516260e+004,-2.46769571925265e+001,-1.75986314509822e+000

3.58010028371187e+004,-2.46769981623753e+001,-1.78442676101588e+000

3.63007662126863e+004,-2.46770402836748e+001,-1.80933313815863e+000

3.68075060249948e+004,-2.46770835887756e+001,-1.83458705560364e+000

3.73213196614721e+004,-2.46771281109367e+001,-1.86019335890062e+000

3.78423058690237e+004,-2.46771738843509e+001,-1.88615696098811e+000

3.83705647730104e+004,-2.46772209441709e+001,-1.91248284312476e+000

3.89061978964912e+004,-2.46772693265363e+001,-1.93917605583152e+000

3.94493081797342e+004,-2.46773190686011e+001,-1.96624171984657e+000

3.99999999999998e+004,-2.46773702085624e+001,-1.99368502709420e+000

4.05583791916010e+004,-2.46774227856895e+001,-2.02151124166452e+000

4.11245530662425e+004,-2.46774768403538e+001,-2.04972570080987e+000

4.16986304336447e+004,-2.46775324140601e+001,-2.07833381594996e+000

4.22807216224550e+004,-2.46775895494778e+001,-2.10734107369509e+000

4.28709385014515e+004,-2.46776482904739e+001,-2.13675303687958e+000

4.34693945010421e+004,-2.46777086821466e+001,-2.16657534561064e+000

4.40762046350642e+004,-2.46777707708595e+001,-2.19681371833114e+000

4.46914855228886e+004,-2.46778346042772e+001,-2.22747395289629e+000

4.53153554118317e+004,-2.46779002314020e+001,-2.25856192766349e+000

4.59479341998812e+004,-2.46779677026107e+001,-2.29008360260000e+000

4.65893434587380e+004,-2.46780370696937e+001,-2.32204502040134e+000

4.72397064571810e+004,-2.46781083858943e+001,-2.35445230762632e+000

4.78991481847569e+004,-2.46781817059495e+001,-2.38731167584806e+000

4.85677953758016e+004,-2.46782570861317e+001,-2.42062942281793e+000

4.92457765337964e+004,-2.46783345842917e+001,-2.45441193364723e+000

4.99332219560642e+004,-2.46784142599028e+001,-2.48866568200221e+000

5.06302637588109e+004,-2.46784961741063e+001,-2.52339723131622e+000

5.13370359025159e+004,-2.46785803897583e+001,-2.55861323601699e+000

5.20536742176771e+004,-2.46786669714774e+001,-2.59432044277084e+000

5.27803164309155e+004,-2.46787559856939e+001,-2.63052569174229e+000

5.35171021914442e+004,-2.46788475007010e+001,-2.66723591787025e+000

5.42641730979066e+004,-2.46789415867063e+001,-2.70445815216130e+000

5.50216727255895e+004,-2.46790383158856e+001,-2.74219952299863e+000

5.57897466540159e+004,-2.46791377624380e+001,-2.78046725746932e+000

5.65685424949235e+004,-2.46792400026421e+001,-2.81926868270821e+000

5.73582099206328e+004,-2.46793451149146e+001,-2.85861122725821e+000

5.81589006928121e+004,-2.46794531798694e+001,-2.89850242245009e+000

5.89707686916437e+004,-2.46795642803796e+001,-2.93894990379747e+000

5.97939699453972e+004,-2.46796785016401e+001,-2.97996141241206e+000

6.06286626604156e+004,-2.46797959312330e+001,-3.02154479643449e+000

6.14750072515201e+004,-2.46799166591934e+001,-3.06370801248652e+000

6.23331663728396e+004,-2.46800407780786e+001,-3.10645912713847e+000

6.32033049490698e+004,-2.46801683830383e+001,-3.14980631839684e+000

6.40855902071694e+004,-2.46802995718867e+001,-3.19375787721064e+000

6.49801917084985e+004,-2.46804344451769e+001,-3.23832220899672e+000

6.58872813814055e+004,-2.46805731062776e+001,-3.28350783518344e+000

6.68070335542691e+004,-2.46807156614511e+001,-3.32932339477441e+000

6.77396249890018e+004,-2.46808622199343e+001,-3.37577764593167e+000

6.86852349150199e+004,-2.46810128940214e+001,-3.42287946757799e+000

6.96440450636895e+004,-2.46811677991492e+001,-3.47063786101888e+000

7.06162397032520e+004,-2.46813270539848e+001,-3.51906195158582e+000

7.16020056742374e+004,-2.46814907805149e+001,-3.56816099029844e+000

7.26015324253724e+004,-2.46816591041390e+001,-3.61794435554691e+000

7.36150120499896e+004,-2.46818321537638e+001,-3.66842155479592e+000

7.46426393229441e+004,-2.46820100619012e+001,-3.71960222630806e+000

7.56846117380472e+004,-2.46821929647682e+001,-3.77149614088910e+000

7.67411295460207e+004,-2.46823810023901e+001,-3.82411320365253e+000

7.78123957929823e+004,-2.46825743187065e+001,-3.87746345580769e+000

7.88986163594682e+004,-2.46827730616796e+001,-3.93155707646719e+000

7.99999999999995e+004,-2.46829773834066e+001,-3.98640438447553e+000

8.11167583832018e+004,-2.46831874402339e+001,-4.04201584026122e+000

8.22491061324848e+004,-2.46834033928755e+001,-4.09840204770844e+000

8.33972608672892e+004,-2.46836254065338e+001,-4.15557375605126e+000

8.45614432449099e+004,-2.46838536510247e+001,-4.21354186179048e+000

8.57418770029029e+004,-2.46840883009046e+001,-4.27231741063136e+000

8.69387890020841e+004,-2.46843295356029e+001,-4.33191159944336e+000

8.81524092701283e+004,-2.46845775395560e+001,-4.39233577824420e+000

8.93829710457770e+004,-2.46848325023466e+001,-4.45360145220305e+000

9.06307108236633e+004,-2.46850946188461e+001,-4.51572028366864e+000

9.18958683997622e+004,-2.46853640893605e+001,-4.57870409421872e+000

9.31786869174758e+004,-2.46856411197814e+001,-4.64256486673237e+000

9.44794129143618e+004,-2.46859259217395e+001,-4.70731474748538e+000

9.57982963695136e+004,-2.46862187127643e+001,-4.77296604826695e+000

9.71355907516031e+004,-2.46865197164462e+001,-4.83953124852034e+000

9.84915530675926e+004,-2.46868291626038e+001,-4.90702299750672e+000

9.98664439121282e+004,-2.46871472874564e+001,-4.97545411648966e+000

1.01260527517622e+005,-2.46874743337998e+001,-5.04483760094445e+000

1.02674071805032e+005,-2.46878105511879e+001,-5.11518662278972e+000

1.04107348435354e+005,-2.46881561961187e+001,-5.18651453264150e+000

1.05560632861831e+005,-2.46885115322256e+001,-5.25883486208963e+000

1.07034204382888e+005,-2.46888768304738e+001,-5.33216132599776e+000

1.08528346195813e+005,-2.46892523693614e+001,-5.40650782482587e+000

1.10043345451179e+005,-2.46896384351270e+001,-5.48188844697474e+000

1.11579493308032e+005,-2.46900353219618e+001,-5.55831747115333e+000

1.13137084989847e+005,-2.46904433322280e+001,-5.63580936876876e+000

1.14716419841265e+005,-2.46908627766829e+001,-5.71437880633748e+000

1.16317801385624e+005,-2.46912939747090e+001,-5.79404064792032e+000

1.17941537383287e+005,-2.46917372545499e+001,-5.87480995757751e+000

1.19587939890794e+005,-2.46921929535531e+001,-5.95670200184730e+000

1.21257325320831e+005,-2.46926614184186e+001,-6.03973225224444e+000

1.22950014503040e+005,-2.46931430054548e+001,-6.12391638778093e+000

1.24666332745679e+005,-2.46936380808401e+001,-6.20927029750786e+000

1.26406609898139e+005,-2.46941470208930e+001,-6.29581008307777e+000

1.28171180414339e+005,-2.46946702123477e+001,-6.38355206132674e+000

1.29960383416997e+005,-2.46952080526379e+001,-6.47251276687864e+000

1.31774562762811e+005,-2.46957609501878e+001,-6.56270895476635e+000

1.33614067108538e+005,-2.46963293247110e+001,-6.65415760307487e+000

1.35479249978003e+005,-2.46969136075165e+001,-6.74687591560180e+000

1.37370469830040e+005,-2.46975142418236e+001,-6.84088132453658e+000

1.39288090127379e+005,-2.46981316830846e+001,-6.93619149315825e+000

1.41232479406504e+005,-2.46987663993154e+001,-7.03282431855022e+000

1.43204011348474e+005,-2.46994188714357e+001,-7.13079793433135e+000

1.45203064850745e+005,-2.47000895936172e+001,-7.23013071340450e+000

1.47230024099979e+005,-2.47007790736409e+001,-7.33084127071953e+000

1.49285278645888e+005,-2.47014878332641e+001,-7.43294846605215e+000

1.51369223476094e+005,-2.47022164085960e+001,-7.53647140679582e+000

1.53482259092041e+005,-2.47029653504840e+001,-7.64142945076792e+000

1.55624791585964e+005,-2.47037352249086e+001,-7.74784220902832e+000

1.57797232718936e+005,-2.47045266133892e+001,-7.85572954870934e+000

1.59999999999999e+005,-2.47053401134004e+001,-7.96511159585602e+000

1.62233516766403e+005,-2.47061763387978e+001,-8.07600873827751e+000

1.64498212264969e+005,-2.47070359202557e+001,-8.18844162840515e+000

1.66794521734578e+005,-2.47079195057149e+001,-8.30243118615976e+000

1.69122886489819e+005,-2.47088277608422e+001,-8.41799860182477e+000

1.71483754005805e+005,-2.47097613695013e+001,-8.53516533892383e+000

1.73877578004168e+005,-2.47107210342354e+001,-8.65395313710328e+000

1.76304818540256e+005,-2.47117074767617e+001,-8.77438401501668e+000

1.78765942091554e+005,-2.47127214384779e+001,-8.89648027320978e+000

1.81261421647326e+005,-2.47137636809818e+001,-9.02026449700625e+000

1.83791736799524e+005,-2.47148349866027e+001,-9.14575955939014e+000

1.86357373834951e+005,-2.47159361589467e+001,-9.27298862388546e+000

1.88958825828723e+005,-2.47170680234543e+001,-9.40197514742950e+000

1.91596592739027e+005,-2.47182314279723e+001,-9.53274288323949e+000

1.94271181503206e+005,-2.47194272433388e+001,-9.66531588366961e+000

1.96983106135185e+005,-2.47206563639824e+001,-9.79971850305688e+000

1.99732887824256e+005,-2.47219197085360e+001,-9.93597540055329e+000

2.02521055035243e+005,-2.47232182204645e+001,-1.00741115429431e+001

2.05348143610063e+005,-2.47245528687074e+001,-1.02141522074414e+001

2.08214696870707e+005,-2.47259246483372e+001,-1.03561229844725e+001

2.11121265723661e+005,-2.47273345812317e+001,-1.05000497804263e+001

2.14068408765776e+005,-2.47287837167631e+001,-1.06459588203880e+001

2.17056692391625e+005,-2.47302731325022e+001,-1.07938766508399e+001

2.20086690902357e+005,-2.47318039349389e+001,-1.09438301423330e+001

2.23158986616063e+005,-2.47333772602188e+001,-1.10958464921233e+001

2.26274169979693e+005,-2.47349942748967e+001,-1.12499532267714e+001

2.29432839682530e+005,-2.47366561767066e+001,-1.14061782047019e+001

2.32635602771247e+005,-2.47383641953485e+001,-1.15645496187185e+001

2.35883074766574e+005,-2.47401195932933e+001,-1.17250959984725e+001

2.39175879781588e+005,-2.47419236666040e+001,-1.18878462128790e+001

2.42514650641661e+005,-2.47437777457759e+001,-1.20528294724802e+001

2.45900029006080e+005,-2.47456831965934e+001,-1.22200753317483e+001

2.49332665491357e+005,-2.47476414210061e+001,-1.23896136913267e+001

2.52813219796278e+005,-2.47496538580224e+001,-1.25614748002035e+001

2.56342360828676e+005,-2.47517219846221e+001,-1.27356892578137e+001

2.59920766833993e+005,-2.47538473166871e+001,-1.29122880160662e+001

2.63549125525621e+005,-2.47560314099519e+001,-1.30913023812886e+001

2.67228134217075e+005,-2.47582758609718e+001,-1.32727640160877e+001

2.70958499956006e+005,-2.47605823081115e+001,-1.34567049411183e+001

2.74740939660078e+005,-2.47629524325520e+001,-1.36431575367569e+001

2.78576180254757e+005,-2.47653879593172e+001,-1.38321545446736e+001

2.82464958813007e+005,-2.47678906583201e+001,-1.40237290692967e+001

2.86408022696948e+005,-2.47704623454280e+001,-1.42179145791650e+001

2.90406129701488e+005,-2.47731048835476e+001,-1.44147449081619e+001

2.94460048199957e+005,-2.47758201837296e+001,-1.46142542566228e+001

2.98570557291775e+005,-2.47786102062924e+001,-1.48164771923132e+001

3.02738446952187e+005,-2.47814769619661e+001,-1.50214486512680e+001

3.06964518184081e+005,-2.47844225130553e+001,-1.52292039384863e+001

3.11249583171928e+005,-2.47874489746209e+001,-1.54397787284748e+001

3.15594465437872e+005,-2.47905585156824e+001,-1.56532090656330e+001

3.19999999999997e+005,-2.47937533604380e+001,-1.58695313644712e+001

3.24467033532806e+005,-2.47970357895039e+001,-1.60887824096570e+001

3.28996424529938e+005,-2.48004081411727e+001,-1.63109993558782e+001

3.33589043469155e+005,-2.48038728126895e+001,-1.65362197275194e+001

3.38245772979638e+005,-2.48074322615464e+001,-1.67644814181381e+001

3.42967508011610e+005,-2.48110890067945e+001,-1.69958226897385e+001

3.47755156008335e+005,-2.48148456303735e+001,-1.72302821718287e+001

3.52609637080511e+005,-2.48187047784574e+001,-1.74678988602566e+001

3.57531884183106e+005,-2.48226691628174e+001,-1.77087121158143e+001

3.62522843294651e+005,-2.48267415621994e+001,-1.79527616626008e+001

3.67583473599047e+005,-2.48309248237177e+001,-1.82000875861363e+001

3.72714747669902e+005,-2.48352218642624e+001,-1.84507303312162e+001

3.77917651657445e+005,-2.48396356719204e+001,-1.87047306994973e+001

3.83193185478053e+005,-2.48441693074096e+001,-1.89621298468052e+001

3.88542363006410e+005,-2.48488259055248e+001,-1.92229692801538e+001

3.93966212270369e+005,-2.48536086765941e+001,-1.94872908544666e+001

3.99465775648511e+005,-2.48585209079460e+001,-1.97551367689906e+001

4.05042110070485e+005,-2.48635659653845e+001,-2.00265495633911e+001

4.10696287220124e+005,-2.48687472946721e+001,-2.03015721135186e+001

4.16429393741414e+005,-2.48740684230191e+001,-2.05802476268381e+001

4.22242531447321e+005,-2.48795329605771e+001,-2.08626196375072e+001

4.28136817531551e+005,-2.48851446019366e+001,-2.11487320010978e+001

4.34113384783250e+005,-2.48909071276260e+001,-2.14386288889463e+001

4.40173381804713e+005,-2.48968244056101e+001,-2.17323547821244e+001

4.46317973232124e+005,-2.49029003927882e+001,-2.20299544650207e+001

4.52548339959385e+005,-2.49091391364868e+001,-2.23314730185210e+001

4.58865679365059e+005,-2.49155447759479e+001,-2.26369558127793e+001

4.65271205542494e+005,-2.49221215438091e+001,-2.29464484995678e+001

4.71766149533147e+005,-2.49288737675731e+001,-2.32599970041978e+001

4.78351759563174e+005,-2.49358058710657e+001,-2.35776475170005e+001

4.85029301283321e+005,-2.49429223758777e+001,-2.38994464843599e+001

4.91800058012158e+005,-2.49502279027901e+001,-2.42254405992872e+001

4.98665330982714e+005,-2.49577271731787e+001,-2.45556767915297e+001

5.05626439592555e+005,-2.49654250103948e+001,-2.48902022172047e+001

5.12684721657352e+005,-2.49733263411202e+001,-2.52290642479513e+001

5.19841533667984e+005,-2.49814361966931e+001,-2.55723104595930e+001

5.27098251051240e+005,-2.49897597143999e+001,-2.59199886203027e+001

5.34456268434150e+005,-2.49983021387319e+001,-2.62721466782665e+001

5.41916999912011e+005,-2.50070688226019e+001,-2.66288327488386e+001

