Freq.,VOut,OutRef

1.00000000000000e+004,-2.94091341934723e+001,-9.88245723518857e-002

1.01395947979003e+004,-2.94091343330878e+001,-1.00204111362299e-001

1.02811382665607e+004,-2.94091344766285e+001,-1.01602907993963e-001

1.04246576084112e+004,-2.94091346242047e+001,-1.03021231071394e-001

1.05701804056138e+004,-2.94091347759300e+001,-1.04459353171909e-001

1.07177346253629e+004,-2.94091349319206e+001,-1.05917550680891e-001

1.08673486252606e+004,-2.94091350922969e+001,-1.07396103837183e-001

1.10190511587661e+004,-2.94091352571818e+001,-1.08895296794646e-001

1.11728713807222e+004,-2.94091354267025e+001,-1.10415417672168e-001

1.13288388529580e+004,-2.94091356009888e+001,-1.11956758612726e-001

1.14869835499703e+004,-2.94091357801749e+001,-1.13519615835015e-001

1.16473358646846e+004,-2.94091359643989e+001,-1.15104289691977e-001

1.18099266142953e+004,-2.94091361538019e+001,-1.16711084732912e-001

1.19747870461893e+004,-2.94091363485298e+001,-1.18340309756422e-001

1.21419488439505e+004,-2.94091365487323e+001,-1.19992277869953e-001

1.23114441334492e+004,-2.94091367545633e+001,-1.21667306554508e-001

1.24833054890161e+004,-2.94091369661808e+001,-1.23365717722822e-001

1.26575659397028e+004,-2.94091371837478e+001,-1.25087837778694e-001

1.28342589756290e+004,-2.94091374074315e+001,-1.26833997683274e-001

1.30134185544193e+004,-2.94091376374036e+001,-1.28604533020222e-001

1.31950791077289e+004,-2.94091378738412e+001,-1.30399784054281e-001

1.33792755478611e+004,-2.94091381169259e+001,-1.32220095802208e-001

1.35660432744767e+004,-2.94091383668446e+001,-1.34065818095327e-001

1.37554181813974e+004,-2.94091386237895e+001,-1.35937305649581e-001

1.39474366635040e+004,-2.94091388879582e+001,-1.37834918131113e-001

1.41421356237309e+004,-2.94091391595536e+001,-1.39759020228680e-001

1.43395524801583e+004,-2.94091394387846e+001,-1.41709981720082e-001

1.45397251732031e+004,-2.94091397258656e+001,-1.43688177546774e-001

1.47426921729110e+004,-2.94091400210178e+001,-1.45693987880154e-001

1.49484924863494e+004,-2.94091403244678e+001,-1.47727798203001e-001

1.51571656651040e+004,-2.94091406364488e+001,-1.49789999378071e-001

1.53687518128801e+004,-2.94091409572009e+001,-1.51880987720720e-001

1.55832915932100e+004,-2.94091412869704e+001,-1.54001165083594e-001

1.58008262372675e+004,-2.94091416260111e+001,-1.56150938924701e-001

1.60213975517924e+004,-2.94091419745835e+001,-1.58330722392125e-001

1.62450479271247e+004,-2.94091423329556e+001,-1.60540934400525e-001

1.64718203453514e+004,-2.94091427014027e+001,-1.62781999712880e-001

1.67017583885674e+004,-2.94091430802083e+001,-1.65054349019830e-001

1.69349062472505e+004,-2.94091434696636e+001,-1.67358419024747e-001

1.71713087287550e+004,-2.94091438700680e+001,-1.69694652527364e-001

1.74110112659224e+004,-2.94091442817292e+001,-1.72063498509014e-001

1.76540599258131e+004,-2.94091447049638e+001,-1.74465412216630e-001

1.79005014185594e+004,-2.94091451400969e+001,-1.76900855253834e-001

1.81503831063432e+004,-2.94091455874634e+001,-1.79370295666149e-001

1.84037530124975e+004,-2.94091460474070e+001,-1.81874208033005e-001

1.86606598307361e+004,-2.94091465202814e+001,-1.84413073558251e-001

1.89211529345119e+004,-2.94091470064500e+001,-1.86987380164486e-001

1.91852823865052e+004,-2.94091475062866e+001,-1.89597622583586e-001

1.94530989482457e+004,-2.94091480201754e+001,-1.92244302453266e-001

1.97246540898671e+004,-2.94091485485116e+001,-1.94927928414160e-001

1.99999999999999e+004,-2.94091490917014e+001,-1.97649016205545e-001

2.02791895958005e+004,-2.94091496501620e+001,-2.00408088769536e-001

2.05622765331213e+004,-2.94091502243233e+001,-2.03205676342541e-001

2.08493152168224e+004,-2.94091508146262e+001,-2.06042316567232e-001

2.11403608112276e+004,-2.94091514215248e+001,-2.08918554588149e-001

2.14354692507258e+004,-2.94091520454855e+001,-2.11834943161313e-001

2.17346972505211e+004,-2.94091526869881e+001,-2.14792042755613e-001

2.20381023175322e+004,-2.94091533465258e+001,-2.17790421666960e-001

2.23457427614443e+004,-2.94091540246053e+001,-2.20830656122945e-001

2.26576777059159e+004,-2.94091547217483e+001,-2.23913330391871e-001

2.29739670999406e+004,-2.94091554384904e+001,-2.27039036901247e-001

2.32946717293690e+004,-2.94091561753829e+001,-2.30208376345496e-001

2.36198532285905e+004,-2.94091569329921e+001,-2.33421957805151e-001

2.39495740923785e+004,-2.94091577119004e+001,-2.36680398863236e-001

2.42838976879009e+004,-2.94091585127068e+001,-2.39984325721033e-001

2.46228882668982e+004,-2.94091593360268e+001,-2.43334373323333e-001

2.49666109780322e+004,-2.94091601824932e+001,-2.46731185476276e-001

2.53151318794055e+004,-2.94091610527570e+001,-2.50175414972377e-001

2.56685179512580e+004,-2.94091619474869e+001,-2.53667723717542e-001

2.60268371088386e+004,-2.94091628673711e+001,-2.57208782854938e-001

2.63901582154578e+004,-2.94091638131165e+001,-2.60799272897537e-001

2.67585510957221e+004,-2.94091647854502e+001,-2.64439883856376e-001

2.71320865489533e+004,-2.94091657851198e+001,-2.68131315373959e-001

2.75108363627948e+004,-2.94091668128937e+001,-2.71874276858288e-001

2.78948733270080e+004,-2.94091678695620e+001,-2.75669487619913e-001

2.82842712474618e+004,-2.94091689559371e+001,-2.79517677010096e-001

2.86791049603164e+004,-2.94091700728541e+001,-2.83419584559319e-001

2.90794503464061e+004,-2.94091712211716e+001,-2.87375960121347e-001

2.94853843458219e+004,-2.94091724017725e+001,-2.91387564016552e-001

2.98969849726987e+004,-2.94091736155643e+001,-2.95455167178150e-001

3.03143313302078e+004,-2.94091748634801e+001,-2.99579551298569e-001

3.07375036257601e+004,-2.94091761464793e+001,-3.03761508983308e-001

3.11665831864199e+004,-2.94091774655481e+001,-3.08001843900341e-001

3.16016524745350e+004,-2.94091788217006e+001,-3.12301370933333e-001

3.20427951035848e+004,-2.94091802159794e+001,-3.16660916342458e-001

3.24900958542493e+004,-2.94091816494564e+001,-3.21081317918801e-001

3.29436406907028e+004,-2.94091831232333e+001,-3.25563425149649e-001

3.34035167771346e+004,-2.94091846384434e+001,-3.30108099375996e-001

3.38698124945009e+004,-2.94091861962513e+001,-3.34716213963738e-001

3.43426174575100e+004,-2.94091877978546e+001,-3.39388654467813e-001

3.48220225318448e+004,-2.94091894444847e+001,-3.44126318802698e-001

3.53081198516260e+004,-2.94091911374072e+001,-3.48930117417552e-001

3.58010028371187e+004,-2.94091928779236e+001,-3.53800973467596e-001

3.63007662126863e+004,-2.94091946673719e+001,-3.58739822992806e-001

3.68075060249948e+004,-2.94091965071278e+001,-3.63747615098891e-001

3.73213196614721e+004,-2.94091983986057e+001,-3.68825312136928e-001

3.78423058690237e+004,-2.94092003432594e+001,-3.73973889891784e-001

3.83705647730104e+004,-2.94092023425840e+001,-3.79194337765881e-001

3.89061978964912e+004,-2.94092043981164e+001,-3.84487658972243e-001

3.94493081797342e+004,-2.94092065114368e+001,-3.89854870723799e-001

3.99999999999998e+004,-2.94092086841698e+001,-3.95297004432987e-001

4.05583791916010e+004,-2.94092109179857e+001,-4.00815105905660e-001

4.11245530662425e+004,-2.94092132146015e+001,-4.06410235545691e-001

4.16986304336447e+004,-2.94092155757830e+001,-4.12083468554584e-001

4.22807216224550e+004,-2.94092180033451e+001,-4.17835895142560e-001

4.28709385014515e+004,-2.94092204991541e+001,-4.23668620732977e-001

4.34693945010421e+004,-2.94092230651284e+001,-4.29582766179630e-001

4.40762046350642e+004,-2.94092257032408e+001,-4.35579467976685e-001

4.46914855228886e+004,-2.94092284155191e+001,-4.41659878482364e-001

4.53153554118317e+004,-2.94092312040484e+001,-4.47825166135825e-001

4.59479341998812e+004,-2.94092340709723e+001,-4.54076515683173e-001

4.65893434587380e+004,-2.94092370184947e+001,-4.60415128405858e-001

4.72397064571810e+004,-2.94092400488813e+001,-4.66842222350536e-001

4.78991481847569e+004,-2.94092431644618e+001,-4.73359032561275e-001

4.85677953758016e+004,-2.94092463676311e+001,-4.79966811319242e-001

4.92457765337964e+004,-2.94092496608517e+001,-4.86666828382285e-001

4.99332219560642e+004,-2.94092530466550e+001,-4.93460371228430e-001

5.06302637588109e+004,-2.94092565276437e+001,-5.00348745302661e-001

5.13370359025159e+004,-2.94092601064939e+001,-5.07333274267690e-001

5.20536742176771e+004,-2.94092637859565e+001,-5.14415300258730e-001

5.27803164309155e+004,-2.94092675688600e+001,-5.21596184141697e-001

5.35171021914442e+004,-2.94092714581124e+001,-5.28877305771389e-001

5.42641730979066e+004,-2.94092754567034e+001,-5.36260064259463e-001

5.50216727255895e+004,-2.94092795677067e+001,-5.43745878242330e-001

5.57897466540159e+004,-2.94092837942825e+001,-5.51336186151498e-001

5.65685424949235e+004,-2.94092881396798e+001,-5.59032446492503e-001

5.73582099206328e+004,-2.94092926072389e+001,-5.66836138122473e-001

5.81589006928121e+004,-2.94092972003939e+001,-5.74748760535700e-001

5.89707686916437e+004,-2.94093019226757e+001,-5.82771834149124e-001

5.97939699453972e+004,-2.94093067777141e+001,-5.90906900597253e-001

6.06286626604156e+004,-2.94093117692414e+001,-5.99155523024466e-001

6.14750072515201e+004,-2.94093169010943e+001,-6.07519286388034e-001

6.23331663728396e+004,-2.94093221772176e+001,-6.15999797760055e-001

6.32033049490698e+004,-2.94093276016672e+001,-6.24598686635902e-001

6.40855902071694e+004,-2.94093331786126e+001,-6.33317605249151e-001

6.49801917084985e+004,-2.94093389123408e+001,-6.42158228885622e-001

6.58872813814055e+004,-2.94093448072590e+001,-6.51122256206473e-001

6.68070335542691e+004,-2.94093508678986e+001,-6.60211409572504e-001

6.77396249890018e+004,-2.94093570989183e+001,-6.69427435376695e-001

6.86852349150199e+004,-2.94093635051077e+001,-6.78772104377205e-001

6.96440450636895e+004,-2.94093700913909e+001,-6.88247212037957e-001

7.06162397032520e+004,-2.94093768628306e+001,-6.97854578872955e-001

7.16020056742374e+004,-2.94093838246317e+001,-7.07596050794575e-001

7.26015324253724e+004,-2.94093909821456e+001,-7.17473499467705e-001

7.36150120499896e+004,-2.94093983408737e+001,-7.27488822670617e-001

7.46426393229441e+004,-2.94094059064724e+001,-7.37643944655004e-001

7.56846117380472e+004,-2.94094136847571e+001,-7.47940816517972e-001

7.67411295460207e+004,-2.94094216817064e+001,-7.58381416575051e-001

7.78123957929823e+004,-2.94094299034670e+001,-7.68967750740043e-001

7.88986163594682e+004,-2.94094383563586e+001,-7.79701852907022e-001

7.99999999999995e+004,-2.94094470468783e+001,-7.90585785343354e-001

8.11167583832018e+004,-2.94094559817058e+001,-8.01621639083446e-001

8.22491061324848e+004,-2.94094651677088e+001,-8.12811534328339e-001

8.33972608672892e+004,-2.94094746119477e+001,-8.24157620854472e-001

8.45614432449099e+004,-2.94094843216816e+001,-8.35662078422865e-001

8.57418770029029e+004,-2.94094943043734e+001,-8.47327117198976e-001

8.69387890020841e+004,-2.94095045676958e+001,-8.59154978173940e-001

8.81524092701283e+004,-2.94095151195374e+001,-8.71147933595781e-001

8.93829710457770e+004,-2.94095259680082e+001,-8.83308287403358e-001

9.06307108236633e+004,-2.94095371214463e+001,-8.95638375667123e-001

9.18958683997622e+004,-2.94095485884241e+001,-9.08140567038734e-001

9.31786869174758e+004,-2.94095603777547e+001,-9.20817263201903e-001

9.44794129143618e+004,-2.94095724984994e+001,-9.33670899332806e-001

9.57982963695136e+004,-2.94095849599737e+001,-9.46703944567824e-001

9.71355907516031e+004,-2.94095977717550e+001,-9.59918902474328e-001

9.84915530675926e+004,-2.94096109436900e+001,-9.73318311529849e-001

9.98664439121282e+004,-2.94096244859020e+001,-9.86904745609036e-001

1.01260527517622e+005,-2.94096384087988e+001,-1.00068081447575e+000

1.02674071805032e+005,-2.94096527230808e+001,-1.01464916428100e+000

1.04107348435354e+005,-2.94096674397489e+001,-1.02881247807071e+000

1.05560632861831e+005,-2.94096825701132e+001,-1.04317347629819e+000

1.07034204382888e+005,-2.94096981258019e+001,-1.05773491734366e+000

1.08528346195813e+005,-2.94097141187696e+001,-1.07249959804321e+000

1.10043345451179e+005,-2.94097305613070e+001,-1.08747035422221e+000

1.11579493308032e+005,-2.94097474660501e+001,-1.10265006123770e+000

1.13137084989847e+005,-2.94097648459902e+001,-1.11804163452758e+000

1.14716419841265e+005,-2.94097827144834e+001,-1.13364803016831e+000

1.16317801385624e+005,-2.94098010852611e+001,-1.14947224544033e+000

1.17941537383287e+005,-2.94098199724407e+001,-1.16551731939811e+000

1.19587939890794e+005,-2.94098393905361e+001,-1.18178633345278e+000

1.21257325320831e+005,-2.94098593544692e+001,-1.19828241195976e+000

1.22950014503040e+005,-2.94098798795810e+001,-1.21500872281586e+000

1.24666332745679e+005,-2.94099009816435e+001,-1.23196847806269e+000

1.26406609898139e+005,-2.94099226768722e+001,-1.24916493450034e+000

1.28171180414339e+005,-2.94099449819377e+001,-1.26660139430990e+000

1.29960383416997e+005,-2.94099679139794e+001,-1.28428120568125e+000

1.31774562762811e+005,-2.94099914906178e+001,-1.30220776345325e+000

1.33614067108538e+005,-2.94100157299688e+001,-1.32038450976081e+000

1.35479249978003e+005,-2.94100406506571e+001,-1.33881493469029e+000

1.37370469830040e+005,-2.94100662718307e+001,-1.35750257694583e+000

1.39288090127379e+005,-2.94100926131755e+001,-1.37645102452301e+000

1.41232479406504e+005,-2.94101196949302e+001,-1.39566391539281e+000

1.43204011348474e+005,-2.94101475379025e+001,-1.41514493819363e+000

1.45203064850745e+005,-2.94101761634841e+001,-1.43489783293537e+000

1.47230024099979e+005,-2.94102055936681e+001,-1.45492639170874e+000

1.49285278645888e+005,-2.94102358510648e+001,-1.47523445941029e+000

1.51369223476094e+005,-2.94102669589202e+001,-1.49582593447102e+000

1.53482259092041e+005,-2.94102989411330e+001,-1.51670476959903e+000

1.55624791585964e+005,-2.94103318222729e+001,-1.53787497253215e+000

1.57797232718936e+005,-2.94103656276000e+001,-1.55934060679790e+000

1.59999999999999e+005,-2.94104003830839e+001,-1.58110579248704e+000

1.62233516766403e+005,-2.94104361154233e+001,-1.60317470703518e+000

1.64498212264969e+005,-2.94104728520669e+001,-1.62555158601812e+000

1.66794521734578e+005,-2.94105106212342e+001,-1.64824072395339e+000

1.69122886489819e+005,-2.94105494519373e+001,-1.67124647511702e+000

1.71483754005805e+005,-2.94105893740028e+001,-1.69457325436948e+000

1.73877578004168e+005,-2.94106304180951e+001,-1.71822553799250e+000

1.76304818540256e+005,-2.94106726157395e+001,-1.74220786453724e+000

1.78765942091554e+005,-2.94107159993466e+001,-1.76652483568569e+000

1.81261421647326e+005,-2.94107606022369e+001,-1.79118111712103e+000

1.83791736799524e+005,-2.94108064586667e+001,-1.81618143941189e+000

1.86357373834951e+005,-2.94108536038539e+001,-1.84153059890753e+000

1.88958825828723e+005,-2.94109020740051e+001,-1.86723345864507e+000

1.91596592739027e+005,-2.94109519063436e+001,-1.89329494926899e+000

1.94271181503206e+005,-2.94110031391374e+001,-1.91972006996378e+000

1.96983106135185e+005,-2.94110558117288e+001,-1.94651388939805e+000

1.99732887824256e+005,-2.94111099645649e+001,-1.97368154668100e+000

2.02521055035243e+005,-2.94111656392274e+001,-2.00122825233384e+000

2.05348143610063e+005,-2.94112228784658e+001,-2.02915928927131e+000

2.08214696870707e+005,-2.94112817262289e+001,-2.05748001379867e+000

2.11121265723661e+005,-2.94113422276994e+001,-2.08619585662103e+000

2.14068408765776e+005,-2.94114044293277e+001,-2.11531232386558e+000

2.17056692391625e+005,-2.94114683788680e+001,-2.14483499811847e+000

2.20086690902357e+005,-2.94115341254143e+001,-2.17476953947541e+000

2.23158986616063e+005,-2.94116017194383e+001,-2.20512168660446e+000

2.26274169979693e+005,-2.94116712128279e+001,-2.23589725782628e+000

2.29432839682530e+005,-2.94117426589267e+001,-2.26710215220444e+000

2.32635602771247e+005,-2.94118161125750e+001,-2.29874235065410e+000

2.35883074766574e+005,-2.94118916301514e+001,-2.33082391706326e+000

2.39175879781588e+005,-2.94119692696163e+001,-2.36335299942776e+000

2.42514650641661e+005,-2.94120490905557e+001,-2.39633583100390e+000

2.45900029006080e+005,-2.94121311542268e+001,-2.42977873147469e+000

2.49332665491357e+005,-2.94122155236052e+001,-2.46368810813049e+000

2.52813219796278e+005,-2.94123022634324e+001,-2.49807045706737e+000

2.56342360828676e+005,-2.94123914402653e+001,-2.53293236439860e+000

2.59920766833993e+005,-2.94124831225275e+001,-2.56828050748341e+000

2.63549125525621e+005,-2.94125773805608e+001,-2.60412165617245e+000

2.67228134217075e+005,-2.94126742866792e+001,-2.64046267406690e+000

2.70958499956006e+005,-2.94127739152241e+001,-2.67731051979586e+000

2.74740939660078e+005,-2.94128763426208e+001,-2.71467224830982e+000

2.78576180254757e+005,-2.94129816474366e+001,-2.75255501219084e+000

2.82464958813007e+005,-2.94130899104413e+001,-2.79096606297845e+000

2.86408022696948e+005,-2.94132012146679e+001,-2.82991275251471e+000

2.90406129701488e+005,-2.94133156454764e+001,-2.86940253430397e+000

2.94460048199957e+005,-2.94134332906183e+001,-2.90944296489237e+000

2.98570557291775e+005,-2.94135542403042e+001,-2.95004170526215e+000

3.02738446952187e+005,-2.94136785872715e+001,-2.99120652224687e+000

3.06964518184081e+005,-2.94138064268556e+001,-3.03294528996151e+000

3.11249583171928e+005,-2.94139378570619e+001,-3.07526599125239e+000

3.15594465437872e+005,-2.94140729786409e+001,-3.11817671916477e+000

3.19999999999997e+005,-2.94142118951642e+001,-3.16168567842869e+000

3.24467033532806e+005,-2.94143547131035e+001,-3.20580118696376e+000

3.28996424529938e+005,-2.94145015419113e+001,-3.25053167740136e+000

3.33589043469155e+005,-2.94146524941042e+001,-3.29588569862854e+000

3.38245772979638e+005,-2.94148076853480e+001,-3.34187191734735e+000

3.42967508011610e+005,-2.94149672345458e+001,-3.38849911965591e+000

3.47755156008335e+005,-2.94151312639278e+001,-3.43577621264800e+000

3.52609637080511e+005,-2.94152998991443e+001,-3.48371222603234e+000

3.57531884183106e+005,-2.94154732693607e+001,-3.53231631377083e+000

3.62522843294651e+005,-2.94156515073553e+001,-3.58159775573778e+000

3.67583473599047e+005,-2.94158347496201e+001,-3.63156595939804e+000

3.72714747669902e+005,-2.94160231364638e+001,-3.68223046150589e+000

3.77917651657445e+005,-2.94162168121183e+001,-3.73360092982346e+000

3.83193185478053e+005,-2.94164159248470e+001,-3.78568716486116e+000

3.88542363006410e+005,-2.94166206270580e+001,-3.83849910163582e+000

3.93966212270369e+005,-2.94168310754184e+001,-3.89204681145253e+000

3.99465775648511e+005,-2.94170474309726e+001,-3.94634050370533e+000

4.05042110070485e+005,-2.94172698592644e+001,-4.00139052769882e+000

4.10696287220124e+005,-2.94174985304611e+001,-4.05720737449215e+000

4.16429393741414e+005,-2.94177336194828e+001,-4.11380167876223e+000

4.22242531447321e+005,-2.94179753061328e+001,-4.17118422069018e+000

4.28136817531551e+005,-2.94182237752345e+001,-4.22936592786711e+000

4.34113384783250e+005,-2.94184792167695e+001,-4.28835787722228e+000

4.40173381804713e+005,-2.94187418260206e+001,-4.34817129697376e+000

4.46317973232124e+005,-2.94190118037189e+001,-4.40881756859805e+000

4.52548339959385e+005,-2.94192893561947e+001,-4.47030822882345e+000

4.58865679365059e+005,-2.94195746955316e+001,-4.53265497164482e+000

4.65271205542494e+005,-2.94198680397265e+001,-4.59586965035934e+000

4.71766149533147e+005,-2.94201696128527e+001,-4.65996427962387e+000

4.78351759563174e+005,-2.94204796452274e+001,-4.72495103753575e+000

4.85029301283321e+005,-2.94207983735848e+001,-4.79084226773280e+000

4.91800058012158e+005,-2.94211260412524e+001,-4.85765048151793e+000

4.98665330982714e+005,-2.94214628983337e+001,-4.92538836000326e+000

5.05626439592555e+005,-2.94218092018941e+001,-4.99406875627727e+000

5.12684721657352e+005,-2.94221652161538e+001,-5.06370469759290e+000

5.19841533667984e+005,-2.94225312126835e+001,-5.13430938757843e+000

5.27098251051240e+005,-2.94229074706079e+001,-5.20589620846932e+000

5.34456268434150e+005,-2.94232942768127e+001,-5.27847872336080e+000

5.41916999912011e+005,-2.94236919261583e+001,-5.35207067848299e+000

