Freq.,VOut,OutRef

1.00000000000000e+004,-2.61571360745230e+001,-4.43743879317423e-001

1.01395947979003e+004,-2.61571387689594e+001,-4.49938260427206e-001

1.02811382665607e+004,-2.61571415391450e+001,-4.56219109641595e-001

1.04246576084112e+004,-2.61571443872095e+001,-4.62587633914690e-001

1.05701804056138e+004,-2.61571473153424e+001,-4.69045057045644e-001

1.07177346253629e+004,-2.61571503257944e+001,-4.75592619913893e-001

1.08673486252606e+004,-2.61571534208798e+001,-4.82231580715310e-001

1.10190511587661e+004,-2.61571566029778e+001,-4.88963215205520e-001

1.11728713807222e+004,-2.61571598745345e+001,-4.95788816945049e-001

1.13288388529580e+004,-2.61571632380649e+001,-5.02709697544659e-001

1.14869835499703e+004,-2.61571666961546e+001,-5.09727186921759e-001

1.16473358646846e+004,-2.61571702514619e+001,-5.16842633551974e-001

1.18099266142953e+004,-2.61571739067197e+001,-5.24057404729889e-001

1.19747870461893e+004,-2.61571776647379e+001,-5.31372886830330e-001

1.21419488439505e+004,-2.61571815284055e+001,-5.38790485575534e-001

1.23114441334492e+004,-2.61571855006921e+001,-5.46311626305272e-001

1.24833054890161e+004,-2.61571895846517e+001,-5.53937754247897e-001

1.26575659397028e+004,-2.61571937834233e+001,-5.61670334801162e-001

1.28342589756290e+004,-2.61571981002346e+001,-5.69510853811172e-001

1.30134185544193e+004,-2.61572025384041e+001,-5.77460817857278e-001

1.31950791077289e+004,-2.61572071013432e+001,-5.85521754543806e-001

1.33792755478611e+004,-2.61572117925595e+001,-5.93695212789970e-001

1.35660432744767e+004,-2.61572166156592e+001,-6.01982763129293e-001

1.37554181813974e+004,-2.61572215743495e+001,-6.10385998010746e-001

1.39474366635040e+004,-2.61572266724424e+001,-6.18906532101974e-001

1.41421356237309e+004,-2.61572319138565e+001,-6.27546002603361e-001

1.43395524801583e+004,-2.61572373026210e+001,-6.36306069557444e-001

1.45397251732031e+004,-2.61572428428780e+001,-6.45188416170936e-001

1.47426921729110e+004,-2.61572485388861e+001,-6.54194749136529e-001

1.49484924863494e+004,-2.61572543950239e+001,-6.63326798958514e-001

1.51571656651040e+004,-2.61572604157927e+001,-6.72586320288361e-001

1.53687518128801e+004,-2.61572666058205e+001,-6.81975092257240e-001

1.55832915932100e+004,-2.61572729698655e+001,-6.91494918820043e-001

1.58008262372675e+004,-2.61572795128195e+001,-7.01147629100887e-001

1.60213975517924e+004,-2.61572862397116e+001,-7.10935077742779e-001

1.62450479271247e+004,-2.61572931557126e+001,-7.20859145264422e-001

1.64718203453514e+004,-2.61573002661386e+001,-7.30921738419755e-001

1.67017583885674e+004,-2.61573075764550e+001,-7.41124790564572e-001

1.69349062472505e+004,-2.61573150922809e+001,-7.51470262026564e-001

1.71713087287550e+004,-2.61573228193932e+001,-7.61960140481983e-001

1.74110112659224e+004,-2.61573307637314e+001,-7.72596441334886e-001

1.76540599258131e+004,-2.61573389314016e+001,-7.83381208105570e-001

1.79005014185594e+004,-2.61573473286820e+001,-7.94316512820290e-001

1.81503831063432e+004,-2.61573559620268e+001,-8.05404456410364e-001

1.84037530124975e+004,-2.61573648380720e+001,-8.16647169112505e-001

1.86606598307361e+004,-2.61573739636397e+001,-8.28046810879561e-001

1.89211529345119e+004,-2.61573833457441e+001,-8.39605571792766e-001

1.91852823865052e+004,-2.61573929915965e+001,-8.51325672480498e-001

1.94530989482457e+004,-2.61574029086105e+001,-8.63209364546781e-001

1.97246540898671e+004,-2.61574131044087e+001,-8.75258930998734e-001

1.99999999999999e+004,-2.61574235868273e+001,-8.87476686687618e-001

2.02791895958005e+004,-2.61574343639231e+001,-8.99864978748809e-001

2.05622765331213e+004,-2.61574454439793e+001,-9.12426187054216e-001

2.08493152168224e+004,-2.61574568355118e+001,-9.25162724665634e-001

2.11403608112276e+004,-2.61574685472759e+001,-9.38077038297861e-001

2.14354692507258e+004,-2.61574805882729e+001,-9.51171608787321e-001

2.17346972505211e+004,-2.61574929677573e+001,-9.64448951565982e-001

2.20381023175322e+004,-2.61575056952432e+001,-9.77911617144784e-001

2.23457427614443e+004,-2.61575187805126e+001,-9.91562191598957e-001

2.26576777059159e+004,-2.61575322336220e+001,-1.00540329706477e+000

2.29739670999406e+004,-2.61575460649109e+001,-1.01943759224148e+000

2.32946717293690e+004,-2.61575602850089e+001,-1.03366777289873e+000

2.36198532285905e+004,-2.61575749048448e+001,-1.04809657239243e+000

2.39495740923785e+004,-2.61575899356541e+001,-1.06272676218875e+000

2.42838976879009e+004,-2.61576053889883e+001,-1.07756115239279e+000

2.46228882668982e+004,-2.61576212767234e+001,-1.09260259228606e+000

2.49666109780322e+004,-2.61576376110691e+001,-1.10785397087184e+000

2.53151318794055e+004,-2.61576544045783e+001,-1.12331821742768e+000

2.56685179512580e+004,-2.61576716701564e+001,-1.13899830206380e+000

2.60268371088386e+004,-2.61576894210719e+001,-1.15489723629144e+000

2.63901582154578e+004,-2.61577076709655e+001,-1.17101807359907e+000

2.67585510957221e+004,-2.61577264338618e+001,-1.18736391003434e+000

2.71320865489533e+004,-2.61577457241789e+001,-1.20393788479677e+000

2.75108363627948e+004,-2.61577655567405e+001,-1.22074318083575e+000

2.78948733270080e+004,-2.61577859467865e+001,-1.23778302545887e+000

2.82842712474618e+004,-2.61578069099851e+001,-1.25506069094872e+000

2.86791049603164e+004,-2.61578284624448e+001,-1.27257949518679e+000

2.90794503464061e+004,-2.61578506207264e+001,-1.29034280228699e+000

2.94853843458219e+004,-2.61578734018563e+001,-1.30835402323589e+000

2.98969849726987e+004,-2.61578968233390e+001,-1.32661661654591e+000

3.03143313302078e+004,-2.61579209031711e+001,-1.34513408891288e+000

3.07375036257601e+004,-2.61579456598544e+001,-1.36390999588543e+000

3.11665831864199e+004,-2.61579711124108e+001,-1.38294794254289e+000

3.16016524745350e+004,-2.61579972803962e+001,-1.40225158418194e+000

3.20427951035848e+004,-2.61580241839163e+001,-1.42182462701300e+000

3.24900958542493e+004,-2.61580518436412e+001,-1.44167082886669e+000

3.29436406907028e+004,-2.61580802808220e+001,-1.46179399990884e+000

3.34035167771346e+004,-2.61581095173065e+001,-1.48219800336669e+000

3.38698124945009e+004,-2.61581395755562e+001,-1.50288675626306e+000

3.43426174575100e+004,-2.61581704786636e+001,-1.52386423016347e+000

3.48220225318448e+004,-2.61582022503698e+001,-1.54513445192908e+000

3.53081198516260e+004,-2.61582349150826e+001,-1.56670150448553e+000

3.58010028371187e+004,-2.61582684978956e+001,-1.58856952759662e+000

3.63007662126863e+004,-2.61583030246068e+001,-1.61074271865286e+000

3.68075060249948e+004,-2.61583385217391e+001,-1.63322533346735e+000

3.73213196614721e+004,-2.61583750165601e+001,-1.65602168708584e+000

3.78423058690237e+004,-2.61584125371031e+001,-1.67913615460542e+000

3.83705647730104e+004,-2.61584511121887e+001,-1.70257317200402e+000

3.89061978964912e+004,-2.61584907714469e+001,-1.72633723698412e+000

3.94493081797342e+004,-2.61585315453396e+001,-1.75043290982323e+000

3.99999999999998e+004,-2.61585734651841e+001,-1.77486481424157e+000

4.05583791916010e+004,-2.61586165631772e+001,-1.79963763827582e+000

4.11245530662425e+004,-2.61586608724194e+001,-1.82475613516909e+000

4.16986304336447e+004,-2.61587064269408e+001,-1.85022512426977e+000

4.22807216224550e+004,-2.61587532617269e+001,-1.87604949194503e+000

4.28709385014515e+004,-2.61588014127452e+001,-1.90223419250467e+000

4.34693945010421e+004,-2.61588509169733e+001,-1.92878424913837e+000

4.40762046350642e+004,-2.61589018124265e+001,-1.95570475486598e+000

4.46914855228886e+004,-2.61589541381874e+001,-1.98300087349901e+000

4.53153554118317e+004,-2.61590079344355e+001,-2.01067784061609e+000

4.59479341998812e+004,-2.61590632424783e+001,-2.03874096455242e+000

4.65893434587380e+004,-2.61591201047825e+001,-2.06719562739989e+000

4.72397064571810e+004,-2.61591785650069e+001,-2.09604728602323e+000

4.78991481847569e+004,-2.61592386680353e+001,-2.12530147308806e+000

4.85677953758016e+004,-2.61593004600113e+001,-2.15496379810360e+000

4.92457765337964e+004,-2.61593639883733e+001,-2.18503994847870e+000

4.99332219560642e+004,-2.61594293018908e+001,-2.21553569059092e+000

5.06302637588109e+004,-2.61594964507019e+001,-2.24645687087308e+000

5.13370359025159e+004,-2.61595654863512e+001,-2.27780941691056e+000

5.20536742176771e+004,-2.61596364618296e+001,-2.30959933855496e+000

5.27803164309155e+004,-2.61597094316147e+001,-2.34183272905211e+000

5.35171021914442e+004,-2.61597844517121e+001,-2.37451576618575e+000

5.42641730979066e+004,-2.61598615796986e+001,-2.40765471343394e+000

5.50216727255895e+004,-2.61599408747658e+001,-2.44125592114404e+000

5.57897466540159e+004,-2.61600223977658e+001,-2.47532582772034e+000

5.65685424949235e+004,-2.61601062112569e+001,-2.50987096082886e+000

5.73582099206328e+004,-2.61601923795520e+001,-2.54489793861641e+000

5.81589006928121e+004,-2.61602809687674e+001,-2.58041347094788e+000

5.89707686916437e+004,-2.61603720468733e+001,-2.61642436065672e+000

5.97939699453972e+004,-2.61604656837456e+001,-2.65293750481442e+000

6.06286626604156e+004,-2.61605619512190e+001,-2.68995989601455e+000

6.14750072515201e+004,-2.61606609231423e+001,-2.72749862367442e+000

6.23331663728396e+004,-2.61607626754340e+001,-2.76556087535340e+000

6.32033049490698e+004,-2.61608672861407e+001,-2.80415393808785e+000

6.40855902071694e+004,-2.61609748354961e+001,-2.84328519974361e+000

6.49801917084985e+004,-2.61610854059829e+001,-2.88296215038504e+000

6.58872813814055e+004,-2.61611990823942e+001,-2.92319238366388e+000

6.68070335542691e+004,-2.61613159518996e+001,-2.96398359822194e+000

6.77396249890018e+004,-2.61614361041105e+001,-3.00534359911570e+000

6.86852349150199e+004,-2.61615596311486e+001,-3.04728029925621e+000

6.96440450636895e+004,-2.61616866277160e+001,-3.08980172086851e+000

7.06162397032520e+004,-2.61618171911672e+001,-3.13291599696898e+000

7.16020056742374e+004,-2.61619514215830e+001,-3.17663137286126e+000

7.26015324253724e+004,-2.61620894218464e+001,-3.22095620765150e+000

7.36150120499896e+004,-2.61622312977212e+001,-3.26589897578117e+000

7.46426393229441e+004,-2.61623771579320e+001,-3.31146826858114e+000

7.56846117380472e+004,-2.61625271142466e+001,-3.35767279584238e+000

7.67411295460207e+004,-2.61626812815610e+001,-3.40452138740872e+000

7.78123957929823e+004,-2.61628397779866e+001,-3.45202299478706e+000

7.88986163594682e+004,-2.61630027249397e+001,-3.50018669277872e+000

7.99999999999995e+004,-2.61631702472333e+001,-3.54902168112997e+000

8.11167583832018e+004,-2.61633424731719e+001,-3.59853728620292e+000

8.22491061324848e+004,-2.61635195346487e+001,-3.64874296266703e+000

8.33972608672892e+004,-2.61637015672451e+001,-3.69964829520991e+000

8.45614432449099e+004,-2.61638887103338e+001,-3.75126300026978e+000

8.57418770029029e+004,-2.61640811071836e+001,-3.80359692778804e+000

8.69387890020841e+004,-2.61642789050684e+001,-3.85666006298317e+000

8.81524092701283e+004,-2.61644822553777e+001,-3.91046252814465e+000

8.93829710457770e+004,-2.61646913137315e+001,-3.96501458444917e+000

9.06307108236633e+004,-2.61649062400976e+001,-4.02032663379703e+000

9.18958683997622e+004,-2.61651271989121e+001,-4.07640922067065e+000

9.31786869174758e+004,-2.61653543592037e+001,-4.13327303401387e+000

9.44794129143618e+004,-2.61655878947210e+001,-4.19092890913371e+000

9.57982963695136e+004,-2.61658279840630e+001,-4.24938782962274e+000

9.71355907516031e+004,-2.61660748108141e+001,-4.30866092930499e+000

9.84915530675926e+004,-2.61663285636818e+001,-4.36875949420089e+000

9.98664439121282e+004,-2.61665894366388e+001,-4.42969496451746e+000

1.01260527517622e+005,-2.61668576290685e+001,-4.49147893665786e+000

1.02674071805032e+005,-2.61671333459151e+001,-4.55412316525543e+000

1.04107348435354e+005,-2.61674167978368e+001,-4.61763956522717e+000

1.05560632861831e+005,-2.61677082013646e+001,-4.68204021385245e+000

1.07034204382888e+005,-2.61680077790635e+001,-4.74733735287181e+000

1.08528346195813e+005,-2.61683157597002e+001,-4.81354339060858e+000

1.10043345451179e+005,-2.61686323784134e+001,-4.88067090411380e+000

1.11579493308032e+005,-2.61689578768903e+001,-4.94873264133234e+000

1.13137084989847e+005,-2.61692925035466e+001,-5.01774152329161e+000

1.14716419841265e+005,-2.61696365137122e+001,-5.08771064631352e+000

1.16317801385624e+005,-2.61699901698217e+001,-5.15865328424714e+000

1.17941537383287e+005,-2.61703537416096e+001,-5.23058289072524e+000

1.19587939890794e+005,-2.61707275063118e+001,-5.30351310144178e+000

1.21257325320831e+005,-2.61711117488710e+001,-5.37745773645254e+000

1.22950014503040e+005,-2.61715067621490e+001,-5.45243080249674e+000

1.24666332745679e+005,-2.61719128471439e+001,-5.52844649534165e+000

1.26406609898139e+005,-2.61723303132136e+001,-5.60551920214860e+000

1.28171180414339e+005,-2.61727594783046e+001,-5.68366350386040e+000

1.29960383416997e+005,-2.61732006691877e+001,-5.76289417761012e+000

1.31774562762811e+005,-2.61736542216995e+001,-5.84322619915232e+000

1.33614067108538e+005,-2.61741204809903e+001,-5.92467474531412e+000

1.35479249978003e+005,-2.61745998017789e+001,-6.00725519646800e+000

1.37370469830040e+005,-2.61750925486138e+001,-6.09098313902433e+000

1.39288090127379e+005,-2.61755990961417e+001,-6.17587436794564e+000

1.41232479406504e+005,-2.61761198293827e+001,-6.26194488927934e+000

1.43204011348474e+005,-2.61766551440127e+001,-6.34921092271152e+000

1.45203064850745e+005,-2.61772054466543e+001,-6.43768890413947e+000

1.47230024099979e+005,-2.61777711551735e+001,-6.52739548826296e+000

1.49285278645888e+005,-2.61783526989859e+001,-6.61834755119436e+000

1.51369223476094e+005,-2.61789505193698e+001,-6.71056219308758e+000

1.53482259092041e+005,-2.61795650697882e+001,-6.80405674078275e+000

1.55624791585964e+005,-2.61801968162187e+001,-6.89884875046970e+000

1.57797232718936e+005,-2.61808462374919e+001,-6.99495601036752e+000

1.59999999999999e+005,-2.61815138256393e+001,-7.09239654341950e+000

1.62233516766403e+005,-2.61822000862495e+001,-7.19118861000360e+000

1.64498212264969e+005,-2.61829055388337e+001,-7.29135071065783e+000

1.66794521734578e+005,-2.61836307172007e+001,-7.39290158881956e+000

1.69122886489819e+005,-2.61843761698419e+001,-7.49586023357672e+000

1.71483754005805e+005,-2.61851424603252e+001,-7.60024588243303e+000

1.73877578004168e+005,-2.61859301677001e+001,-7.70607802408289e+000

1.76304818540256e+005,-2.61867398869123e+001,-7.81337640119820e+000

1.78765942091554e+005,-2.61875722292291e+001,-7.92216101322378e+000

1.81261421647326e+005,-2.61884278226754e+001,-8.03245211918144e+000

1.83791736799524e+005,-2.61893073124812e+001,-8.14427024048115e+000

1.86357373834951e+005,-2.61902113615394e+001,-8.25763616373920e+000

1.88958825828723e+005,-2.61911406508763e+001,-8.37257094360084e+000

1.91596592739027e+005,-2.61920958801326e+001,-8.48909590556561e+000

1.94271181503206e+005,-2.61930777680571e+001,-8.60723264881754e+000

1.96983106135185e+005,-2.61940870530127e+001,-8.72700304905353e+000

1.99732887824256e+005,-2.61951244934943e+001,-8.84842926131329e+000

2.02521055035243e+005,-2.61961908686596e+001,-8.97153372280558e+000

2.05348143610063e+005,-2.61972869788738e+001,-9.09633915573212e+000

2.08214696870707e+005,-2.61984136462657e+001,-9.22286857010453e+000

2.11121265723661e+005,-2.61995717152993e+001,-9.35114526655528e+000

2.14068408765776e+005,-2.62007620533577e+001,-9.48119283913869e+000

2.17056692391625e+005,-2.62019855513418e+001,-9.61303517812091e+000

2.20086690902357e+005,-2.62032431242830e+001,-9.74669647275643e+000

2.23158986616063e+005,-2.62045357119705e+001,-9.88220121404990e+000

2.26274169979693e+005,-2.62058642795936e+001,-1.00195741974990e+001

2.29432839682530e+005,-2.62072298183987e+001,-1.01588405258187e+001

2.32635602771247e+005,-2.62086333463620e+001,-1.03000256116408e+001

2.35883074766574e+005,-2.62100759088778e+001,-1.04431551801910e+001

2.39175879781588e+005,-2.62115585794625e+001,-1.05882552719361e+001

2.42514650641661e+005,-2.62130824604746e+001,-1.07353522452004e+001

2.45900029006080e+005,-2.62146486838518e+001,-1.08844727787502e+001

2.49332665491357e+005,-2.62162584118638e+001,-1.10356438743394e+001

2.52813219796278e+005,-2.62179128378827e+001,-1.11888928592169e+001

2.56342360828676e+005,-2.62196131871702e+001,-1.13442473885894e+001

2.59920766833993e+005,-2.62213607176824e+001,-1.15017354480388e+001

2.63549125525621e+005,-2.62231567208919e+001,-1.16613853558878e+001

2.67228134217075e+005,-2.62250025226284e+001,-1.18232257655128e+001

2.70958499956006e+005,-2.62268994839366e+001,-1.19872856675980e+001

2.74740939660078e+005,-2.62288490019528e+001,-1.21535943923273e+001

2.78576180254757e+005,-2.62308525108002e+001,-1.23221816115112e+001

2.82464958813007e+005,-2.62329114825024e+001,-1.24930773406417e+001

2.86408022696948e+005,-2.62350274279160e+001,-1.26663119408734e+001

2.90406129701488e+005,-2.62372018976830e+001,-1.28419161209238e+001

2.94460048199957e+005,-2.62394364832008e+001,-1.30199209388896e+001

2.98570557291775e+005,-2.62417328176133e+001,-1.32003578039737e+001

3.02738446952187e+005,-2.62440925768202e+001,-1.33832584781167e+001

3.06964518184081e+005,-2.62465174805070e+001,-1.35686550775289e+001

3.11249583171928e+005,-2.62490092931937e+001,-1.37565800741158e+001

3.15594465437872e+005,-2.62515698253044e+001,-1.39470662967934e+001

3.19999999999997e+005,-2.62542009342556e+001,-1.41401469326852e+001

3.24467033532806e+005,-2.62569045255656e+001,-1.43358555281960e+001

3.28996424529938e+005,-2.62596825539828e+001,-1.45342259899559e+001

3.33589043469155e+005,-2.62625370246346e+001,-1.47352925856285e+001

3.38245772979638e+005,-2.62654699941961e+001,-1.49390899445759e+001

3.42967508011610e+005,-2.62684835720780e+001,-1.51456530583738e+001

3.47755156008335e+005,-2.62715799216353e+001,-1.53550172811697e+001

3.52609637080511e+005,-2.62747612613946e+001,-1.55672183298770e+001

3.57531884183106e+005,-2.62780298663012e+001,-1.57822922841986e+001

3.62522843294651e+005,-2.62813880689859e+001,-1.60002755864688e+001

3.67583473599047e+005,-2.62848382610499e+001,-1.62212050413105e+001

3.72714747669902e+005,-2.62883828943689e+001,-1.64451178150957e+001

3.77917651657445e+005,-2.62920244824157e+001,-1.66720514352032e+001

3.83193185478053e+005,-2.62957656016006e+001,-1.69020437890642e+001

3.88542363006410e+005,-2.62996088926295e+001,-1.71351331229871e+001

3.93966212270369e+005,-2.63035570618788e+001,-1.73713580407531e+001

3.99465775648511e+005,-2.63076128827873e+001,-1.76107575019739e+001

4.05042110070485e+005,-2.63117791972641e+001,-1.78533708202012e+001

4.10696287220124e+005,-2.63160589171112e+001,-1.80992376607790e+001

4.16429393741414e+005,-2.63204550254619e+001,-1.83483980384310e+001

4.22242531447321e+005,-2.63249705782317e+001,-1.86008923145701e+001

4.28136817531551e+005,-2.63296087055835e+001,-1.88567611943237e+001

4.34113384783250e+005,-2.63343726134041e+001,-1.91160457232615e+001

4.40173381804713e+005,-2.63392655847921e+001,-1.93787872838197e+001

4.46317973232124e+005,-2.63442909815558e+001,-1.96450275914069e+001

4.52548339959385e+005,-2.63494522457199e+001,-1.99148086901859e+001

4.58865679365059e+005,-2.63547529010404e+001,-2.01881729485173e+001

4.65271205542494e+005,-2.63601965545246e+001,-2.04651630540574e+001

4.71766149533147e+005,-2.63657868979576e+001,-2.07458220084986e+001

4.78351759563174e+005,-2.63715277094307e+001,-2.10301931219416e+001

4.85029301283321e+005,-2.63774228548724e+001,-2.13183200068903e+001

4.91800058012158e+005,-2.63834762895796e+001,-2.16102465718577e+001

4.98665330982714e+005,-2.63896920597459e+001,-2.19060170145736e+001

5.05626439592555e+005,-2.63960743039876e+001,-2.22056758147824e+001

5.12684721657352e+005,-2.64026272548627e+001,-2.25092677266229e+001

5.19841533667984e+005,-2.64093552403827e+001,-2.28168377705787e+001

5.27098251051240e+005,-2.64162626855138e+001,-2.31284312249898e+001

5.34456268434150e+005,-2.64233541136654e+001,-2.34440936171157e+001

5.41916999912011e+005,-2.64306341481637e+001,-2.37638707137415e+001

