Freq.,VOut,OutRef

1.00000000000000e+004,-1.67033866800654e+001,-5.97547714487449e-002

1.01395947979003e+004,-1.67033867040128e+001,-6.05889169168196e-002

1.02811382665607e+004,-1.67033867286333e+001,-6.14347066209917e-002

1.04246576084112e+004,-1.67033867539460e+001,-6.22923031065450e-002

1.05701804056138e+004,-1.67033867799703e+001,-6.31618711907013e-002

1.07177346253629e+004,-1.67033868067263e+001,-6.40435779897494e-002

1.08673486252606e+004,-1.67033868342346e+001,-6.49375929534353e-002

1.10190511587661e+004,-1.67033868625161e+001,-6.58440878996776e-002

1.11728713807222e+004,-1.67033868915928e+001,-6.67632370399209e-002

1.13288388529580e+004,-1.67033869214869e+001,-6.76952170213620e-002

1.14869835499703e+004,-1.67033869522214e+001,-6.86402069554768e-002

1.16473358646846e+004,-1.67033869838200e+001,-6.95983884533995e-002

1.18099266142953e+004,-1.67033870163071e+001,-7.05699456625188e-002

1.19747870461893e+004,-1.67033870497074e+001,-7.15550653021054e-002

1.21419488439505e+004,-1.67033870840468e+001,-7.25539366945738e-002

1.23114441334492e+004,-1.67033871193514e+001,-7.35667518099585e-002

1.24833054890161e+004,-1.67033871556487e+001,-7.45937052919745e-002

1.26575659397028e+004,-1.67033871929665e+001,-7.56349945052809e-002

1.28342589756290e+004,-1.67033872313334e+001,-7.66908195711365e-002

1.30134185544193e+004,-1.67033872707788e+001,-7.77613834006167e-002

1.31950791077289e+004,-1.67033873113334e+001,-7.88468917383163e-002

1.33792755478611e+004,-1.67033873530280e+001,-7.99475532038172e-002

1.35660432744767e+004,-1.67033873958950e+001,-8.10635793237482e-002

1.37554181813974e+004,-1.67033874399669e+001,-8.21951845833081e-002

1.39474366635040e+004,-1.67033874852778e+001,-8.33425864585828e-002

1.41421356237309e+004,-1.67033875318627e+001,-8.45060054601838e-002

1.43395524801583e+004,-1.67033875797572e+001,-8.56856651791045e-002

1.45397251732031e+004,-1.67033876289983e+001,-8.68817923275628e-002

1.47426921729110e+004,-1.67033876796238e+001,-8.80946167816417e-002

1.49484924863494e+004,-1.67033877316725e+001,-8.93243716272298e-002

1.51571656651040e+004,-1.67033877851844e+001,-9.05712932037976e-002

1.53687518128801e+004,-1.67033878402008e+001,-9.18356211482170e-002

1.55832915932100e+004,-1.67033878967640e+001,-9.31175984448400e-002

1.58008262372675e+004,-1.67033879549173e+001,-9.44174714695252e-002

1.60213975517924e+004,-1.67033880147056e+001,-9.57354900364056e-002

1.62450479271247e+004,-1.67033880761745e+001,-9.70719074487173e-002

1.64718203453514e+004,-1.67033881393719e+001,-9.84269805413182e-002

1.67017583885674e+004,-1.67033882043457e+001,-9.98009697412486e-002

1.69349062472505e+004,-1.67033882711464e+001,-1.01194139103831e-001

1.71713087287550e+004,-1.67033883398250e+001,-1.02606756375262e-001

1.74110112659224e+004,-1.67033884104345e+001,-1.04039093037607e-001

1.76540599258131e+004,-1.67033884830289e+001,-1.05491424363541e-001

1.79005014185594e+004,-1.67033885576645e+001,-1.06964029465784e-001

1.81503831063432e+004,-1.67033886343981e+001,-1.08457191357152e-001

1.84037530124975e+004,-1.67033887132892e+001,-1.09971196997849e-001

1.86606598307361e+004,-1.67033887943981e+001,-1.11506337355615e-001

1.89211529345119e+004,-1.67033888777874e+001,-1.13062907459616e-001

1.91852823865052e+004,-1.67033889635210e+001,-1.14641206457392e-001

1.94530989482457e+004,-1.67033890516650e+001,-1.16241537671768e-001

1.97246540898671e+004,-1.67033891422870e+001,-1.17864208660726e-001

1.99999999999999e+004,-1.67033892354567e+001,-1.19509531276425e-001

2.02791895958005e+004,-1.67033893312457e+001,-1.21177821721527e-001

2.05622765331213e+004,-1.67033894297278e+001,-1.22869400614258e-001

2.08493152168224e+004,-1.67033895309785e+001,-1.24584593049291e-001

2.11403608112276e+004,-1.67033896350758e+001,-1.26323728657876e-001

2.14354692507258e+004,-1.67033897420998e+001,-1.28087141672525e-001

2.17346972505211e+004,-1.67033898521325e+001,-1.29875170994737e-001

2.20381023175322e+004,-1.67033899652586e+001,-1.31688160252603e-001

2.23457427614443e+004,-1.67033900815652e+001,-1.33526457873391e-001

2.26576777059159e+004,-1.67033902011415e+001,-1.35390417147894e-001

2.29739670999406e+004,-1.67033903240797e+001,-1.37280396297088e-001

2.32946717293690e+004,-1.67033904504741e+001,-1.39196758545682e-001

2.36198532285905e+004,-1.67033905804218e+001,-1.41139872185756e-001

2.39495740923785e+004,-1.67033907140231e+001,-1.43110110650688e-001

2.42838976879009e+004,-1.67033908513802e+001,-1.45107852590579e-001

2.46228882668982e+004,-1.67033909925991e+001,-1.47133481934944e-001

2.49666109780322e+004,-1.67033911377880e+001,-1.49187387978330e-001

2.53151318794055e+004,-1.67033912870588e+001,-1.51269965446736e-001

2.56685179512580e+004,-1.67033914405263e+001,-1.53381614576193e-001

2.60268371088386e+004,-1.67033915983082e+001,-1.55522741191639e-001

2.63901582154578e+004,-1.67033917605259e+001,-1.57693756781166e-001

2.67585510957221e+004,-1.67033919273042e+001,-1.59895078577446e-001

2.71320865489533e+004,-1.67033920987712e+001,-1.62127129637637e-001

2.75108363627948e+004,-1.67033922750590e+001,-1.64390338923941e-001

2.78948733270080e+004,-1.67033924563027e+001,-1.66685141388847e-001

2.82842712474618e+004,-1.67033926426419e+001,-1.69011978053345e-001

2.86791049603164e+004,-1.67033928342199e+001,-1.71371296096013e-001

2.90794503464061e+004,-1.67033930311838e+001,-1.73763548937865e-001

2.94853843458219e+004,-1.67033932336851e+001,-1.76189196330451e-001

2.98969849726987e+004,-1.67033934418795e+001,-1.78648704440468e-001

3.03143313302078e+004,-1.67033936559270e+001,-1.81142545943968e-001

3.07375036257601e+004,-1.67033938759922e+001,-1.83671200115543e-001

3.11665831864199e+004,-1.67033941022442e+001,-1.86235152918493e-001

3.16016524745350e+004,-1.67033943348571e+001,-1.88834897100391e-001

3.20427951035848e+004,-1.67033945740095e+001,-1.91470932287873e-001

3.24900958542493e+004,-1.67033948198856e+001,-1.94143765080643e-001

3.29436406907028e+004,-1.67033950726740e+001,-1.96853909152108e-001

3.34035167771346e+004,-1.67033953325692e+001,-1.99601885345164e-001

3.38698124945009e+004,-1.67033955997712e+001,-2.02388221771530e-001

3.43426174575100e+004,-1.67033958744851e+001,-2.05213453918114e-001

3.48220225318448e+004,-1.67033961569222e+001,-2.08078124745150e-001

3.53081198516260e+004,-1.67033964472998e+001,-2.10982784791232e-001

3.58010028371187e+004,-1.67033967458409e+001,-2.13927992281435e-001

3.63007662126863e+004,-1.67033970527752e+001,-2.16914313232563e-001

3.68075060249948e+004,-1.67033973683385e+001,-2.19942321563915e-001

3.73213196614721e+004,-1.67033976927735e+001,-2.23012599203473e-001

3.78423058690237e+004,-1.67033980263296e+001,-2.26125736205214e-001

3.83705647730104e+004,-1.67033983692631e+001,-2.29282330858355e-001

3.89061978964912e+004,-1.67033987218378e+001,-2.32482989803384e-001

3.94493081797342e+004,-1.67033990843246e+001,-2.35728328149772e-001

3.99999999999998e+004,-1.67033994570025e+001,-2.39018969592631e-001

4.05583791916010e+004,-1.67033998401575e+001,-2.42355546534986e-001

4.11245530662425e+004,-1.67034002340845e+001,-2.45738700205517e-001

4.16986304336447e+004,-1.67034006390863e+001,-2.49169080784792e-001

4.22807216224550e+004,-1.67034010554742e+001,-2.52647347529635e-001

4.28709385014515e+004,-1.67034014835682e+001,-2.56174168898901e-001

4.34693945010421e+004,-1.67034019236976e+001,-2.59750222682488e-001

4.40762046350642e+004,-1.67034023762005e+001,-2.63376196132117e-001

4.46914855228886e+004,-1.67034028414251e+001,-2.67052786091650e-001

4.53153554118317e+004,-1.67034033197288e+001,-2.70780699134424e-001

4.59479341998812e+004,-1.67034038114795e+001,-2.74560651694016e-001

4.65893434587380e+004,-1.67034043170550e+001,-2.78393370207263e-001

4.72397064571810e+004,-1.67034048368442e+001,-2.82279591248895e-001

4.78991481847569e+004,-1.67034053712464e+001,-2.86220061678334e-001

4.85677953758016e+004,-1.67034059206726e+001,-2.90215538778316e-001

4.92457765337964e+004,-1.67034064855454e+001,-2.94266790401389e-001

4.99332219560642e+004,-1.67034070662987e+001,-2.98374595121621e-001

5.06302637588109e+004,-1.67034076633791e+001,-3.02539742379083e-001

5.13370359025159e+004,-1.67034082772456e+001,-3.06763032633531e-001

5.20536742176771e+004,-1.67034089083702e+001,-3.11045277518172e-001

5.27803164309155e+004,-1.67034095572379e+001,-3.15387299997153e-001

5.35171021914442e+004,-1.67034102243476e+001,-3.19789934520517e-001

5.42641730979066e+004,-1.67034109102123e+001,-3.24254027186426e-001

5.50216727255895e+004,-1.67034116153590e+001,-3.28780435904732e-001

5.57897466540159e+004,-1.67034123403301e+001,-3.33370030558761e-001

5.65685424949235e+004,-1.67034130856827e+001,-3.38023693176312e-001

5.73582099206328e+004,-1.67034138519897e+001,-3.42742318096669e-001

5.81589006928121e+004,-1.67034146398404e+001,-3.47526812141740e-001

5.89707686916437e+004,-1.67034154498404e+001,-3.52378094792077e-001

5.97939699453972e+004,-1.67034162826125e+001,-3.57297098363301e-001

6.06286626604156e+004,-1.67034171387967e+001,-3.62284768184689e-001

6.14750072515201e+004,-1.67034180190514e+001,-3.67342062781000e-001

6.23331663728396e+004,-1.67034189240531e+001,-3.72469954056346e-001

6.32033049490698e+004,-1.67034198544977e+001,-3.77669427481914e-001

6.40855902071694e+004,-1.67034208111003e+001,-3.82941482283709e-001

6.49801917084985e+004,-1.67034217945965e+001,-3.88287131636063e-001

6.58872813814055e+004,-1.67034228057421e+001,-3.93707402855788e-001

6.68070335542691e+004,-1.67034238453146e+001,-3.99203337598730e-001

6.77396249890018e+004,-1.67034249141131e+001,-4.04775992061251e-001

6.86852349150199e+004,-1.67034260129594e+001,-4.10426437181563e-001

6.96440450636895e+004,-1.67034271426981e+001,-4.16155758847816e-001

7.06162397032520e+004,-1.67034283041975e+001,-4.21965058104769e-001

7.16020056742374e+004,-1.67034294983508e+001,-4.27855451365313e-001

7.26015324253724e+004,-1.67034307260759e+001,-4.33828070625605e-001

7.36150120499896e+004,-1.67034319883166e+001,-4.39884063683681e-001

7.46426393229441e+004,-1.67034332860432e+001,-4.46024594357019e-001

7.56846117380472e+004,-1.67034346202534e+001,-4.52250842708569e-001

7.67411295460207e+004,-1.67034359919728e+001,-4.58564005273605e-001

7.78123957929823e+004,-1.67034374022558e+001,-4.64965295287642e-001

7.88986163594682e+004,-1.67034388521867e+001,-4.71455942920584e-001

7.99999999999995e+004,-1.67034403428801e+001,-4.78037195513633e-001

8.11167583832018e+004,-1.67034418754819e+001,-4.84710317817470e-001

8.22491061324848e+004,-1.67034434511703e+001,-4.91476592237254e-001

8.33972608672892e+004,-1.67034450711566e+001,-4.98337319076728e-001

8.45614432449099e+004,-1.67034467366860e+001,-5.05293816789619e-001

8.57418770029029e+004,-1.67034484490390e+001,-5.12347422231742e-001

8.69387890020841e+004,-1.67034502095320e+001,-5.19499490918851e-001

8.81524092701283e+004,-1.67034520195182e+001,-5.26751397286837e-001

8.93829710457770e+004,-1.67034538803890e+001,-5.34104534954378e-001

9.06307108236633e+004,-1.67034557935750e+001,-5.41560316992671e-001

9.18958683997622e+004,-1.67034577605468e+001,-5.49120176195612e-001

9.31786869174758e+004,-1.67034597828166e+001,-5.56785565355022e-001

9.44794129143618e+004,-1.67034618619388e+001,-5.64557957540665e-001

9.57982963695136e+004,-1.67034639995119e+001,-5.72438846380844e-001

9.71355907516031e+004,-1.67034661971789e+001,-5.80429746352598e-001

9.84915530675926e+004,-1.67034684566292e+001,-5.88532193069917e-001

9.98664439121282e+004,-1.67034707795998e+001,-5.96747743579722e-001

1.01260527517622e+005,-1.67034731678763e+001,-6.05077976661311e-001

1.02674071805032e+005,-1.67034756232947e+001,-6.13524493128196e-001

1.04107348435354e+005,-1.67034781477425e+001,-6.22088916137011e-001

1.05560632861831e+005,-1.67034807431602e+001,-6.30772891498321e-001

1.07034204382888e+005,-1.67034834115429e+001,-6.39578087993033e-001

1.08528346195813e+005,-1.67034861549420e+001,-6.48506197692508e-001

1.10043345451179e+005,-1.67034889754662e+001,-6.57558936284438e-001

1.11579493308032e+005,-1.67034918752837e+001,-6.66738043400886e-001

1.13137084989847e+005,-1.67034948566237e+001,-6.76045282953696e-001

1.14716419841265e+005,-1.67034979217778e+001,-6.85482443472488e-001

1.16317801385624e+005,-1.67035010731021e+001,-6.95051338448263e-001

1.17941537383287e+005,-1.67035043130193e+001,-7.04753806680709e-001

1.19587939890794e+005,-1.67035076440198e+001,-7.14591712632921e-001

1.21257325320831e+005,-1.67035110686641e+001,-7.24566946788721e-001

1.22950014503040e+005,-1.67035145895846e+001,-7.34681426014956e-001

1.24666332745679e+005,-1.67035182094879e+001,-7.44937093929471e-001

1.26406609898139e+005,-1.67035219311566e+001,-7.55335921276218e-001

1.28171180414339e+005,-1.67035257574513e+001,-7.65879906301427e-001

1.29960383416997e+005,-1.67035296913134e+001,-7.76571075137448e-001

1.31774562762811e+005,-1.67035337357667e+001,-7.87411482192603e-001

1.33614067108538e+005,-1.67035378939201e+001,-7.98403210545451e-001

1.35479249978003e+005,-1.67035421689699e+001,-8.09548372343672e-001

1.37370469830040e+005,-1.67035465642020e+001,-8.20849109211424e-001

1.39288090127379e+005,-1.67035510829950e+001,-8.32307592657698e-001

1.41232479406504e+005,-1.67035557288224e+001,-8.43926024495608e-001

1.43204011348474e+005,-1.67035605052552e+001,-8.55706637262389e-001

1.45203064850745e+005,-1.67035654159649e+001,-8.67651694651527e-001

1.47230024099979e+005,-1.67035704647260e+001,-8.79763491943758e-001

1.49285278645888e+005,-1.67035756554194e+001,-8.92044356448739e-001

1.51369223476094e+005,-1.67035809920348e+001,-9.04496647952123e-001

1.53482259092041e+005,-1.67035864786742e+001,-9.17122759168145e-001

1.55624791585964e+005,-1.67035921195549e+001,-9.29925116198102e-001

1.57797232718936e+005,-1.67035979190126e+001,-9.42906178997177e-001

1.59999999999999e+005,-1.67036038815050e+001,-9.56068441844775e-001

1.62233516766403e+005,-1.67036100116152e+001,-9.69414433823624e-001

1.64498212264969e+005,-1.67036163140547e+001,-9.82946719306518e-001

1.66794521734578e+005,-1.67036227936677e+001,-9.96667898445902e-001

1.69122886489819e+005,-1.67036294554347e+001,-1.01058060767415e+000

1.71483754005805e+005,-1.67036363044759e+001,-1.02468752020803e+000

1.73877578004168e+005,-1.67036433460556e+001,-1.03899134656305e+000

1.76304818540256e+005,-1.67036505855859e+001,-1.05349483507231e+000

1.78765942091554e+005,-1.67036580286312e+001,-1.06820077241340e+000

1.81261421647326e+005,-1.67036656809121e+001,-1.08311198414396e+000

1.83791736799524e+005,-1.67036735483100e+001,-1.09823133524198e+000

1.86357373834951e+005,-1.67036816368717e+001,-1.11356173065616e+000

1.88958825828723e+005,-1.67036899528139e+001,-1.12910611586292e+000

1.91596592739027e+005,-1.67036985025280e+001,-1.14486747742972e+000

1.94271181503206e+005,-1.67037072925850e+001,-1.16084884359006e+000

1.96983106135185e+005,-1.67037163297405e+001,-1.17705328482216e+000

1.99732887824256e+005,-1.67037256209403e+001,-1.19348391443758e+000

2.02521055035243e+005,-1.67037351733249e+001,-1.21014388917900e+000

2.05348143610063e+005,-1.67037449942357e+001,-1.22703640982486e+000

2.08214696870707e+005,-1.67037550912206e+001,-1.24416472180092e+000

2.11121265723661e+005,-1.67037654720393e+001,-1.26153211580542e+000

2.14068408765776e+005,-1.67037761446697e+001,-1.27914192843737e+000

2.17056692391625e+005,-1.67037871173138e+001,-1.29699754283622e+000

2.20086690902357e+005,-1.67037983984043e+001,-1.31510238932991e+000

2.23158986616063e+005,-1.67038099966107e+001,-1.33345994609304e+000

2.26274169979693e+005,-1.67038219208460e+001,-1.35207373981174e+000

2.29432839682530e+005,-1.67038341802738e+001,-1.37094734635949e+000

2.32635602771247e+005,-1.67038467843153e+001,-1.39008439148218e+000

2.35883074766574e+005,-1.67038597426563e+001,-1.40948855149220e+000

2.39175879781588e+005,-1.67038730652546e+001,-1.42916355397317e+000

2.42514650641661e+005,-1.67038867623480e+001,-1.44911317849172e+000

2.45900029006080e+005,-1.67039008444619e+001,-1.46934125732287e+000

2.49332665491357e+005,-1.67039153224176e+001,-1.48985167618188e+000

2.52813219796278e+005,-1.67039302073401e+001,-1.51064837497003e+000

2.56342360828676e+005,-1.67039455106672e+001,-1.53173534852601e+000

2.59920766833993e+005,-1.67039612441581e+001,-1.55311664739225e+000

2.63549125525621e+005,-1.67039774199022e+001,-1.57479637858938e+000

2.67228134217075e+005,-1.67039940503285e+001,-1.59677870640114e+000

2.70958499956006e+005,-1.67040111482155e+001,-1.61906785317188e+000

2.74740939660078e+005,-1.67040287267006e+001,-1.64166810011262e+000

2.78576180254757e+005,-1.67040467992899e+001,-1.66458378812167e+000

2.82464958813007e+005,-1.67040653798693e+001,-1.68781931861255e+000

2.86408022696948e+005,-1.67040844827147e+001,-1.71137915435673e+000

2.90406129701488e+005,-1.67041041225030e+001,-1.73526782033541e+000

2.94460048199957e+005,-1.67041243143233e+001,-1.75948990460605e+000

2.98570557291775e+005,-1.67041450736887e+001,-1.78405005917648e+000

3.02738446952187e+005,-1.67041664165480e+001,-1.80895300089546e+000

3.06964518184081e+005,-1.67041883592980e+001,-1.83420351235358e+000

3.11249583171928e+005,-1.67042109187959e+001,-1.85980644279559e+000

3.15594465437872e+005,-1.67042341123725e+001,-1.88576670904622e+000

3.19999999999997e+005,-1.67042579578454e+001,-1.91208929645067e+000

3.24467033532806e+005,-1.67042824735325e+001,-1.93877925982387e+000

3.28996424529938e+005,-1.67043076782663e+001,-1.96584172441636e+000

3.33589043469155e+005,-1.67043335914079e+001,-1.99328188689177e+000

3.38245772979638e+005,-1.67043602328625e+001,-2.02110501631764e+000

3.42967508011610e+005,-1.67043876230941e+001,-2.04931645517158e+000

3.47755156008335e+005,-1.67044157831412e+001,-2.07792162035857e+000

3.52609637080511e+005,-1.67044447346334e+001,-2.10692600424415e+000

3.57531884183106e+005,-1.67044744998074e+001,-2.13633517570099e+000

3.62522843294651e+005,-1.67045051015243e+001,-2.16615478116999e+000

3.67583473599047e+005,-1.67045365632873e+001,-2.19639054573596e+000

3.72714747669902e+005,-1.67045689092591e+001,-2.22704827421830e+000

3.77917651657445e+005,-1.67046021642812e+001,-2.25813385227493e+000

3.83193185478053e+005,-1.67046363538922e+001,-2.28965324752430e+000

3.88542363006410e+005,-1.67046715043477e+001,-2.32161251067953e+000

3.93966212270369e+005,-1.67047076426406e+001,-2.35401777670008e+000

3.99465775648511e+005,-1.67047447965212e+001,-2.38687526595882e+000

4.05042110070485e+005,-1.67047829945188e+001,-2.42019128542413e+000

4.10696287220124e+005,-1.67048222659637e+001,-2.45397222985910e+000

4.16429393741414e+005,-1.67048626410092e+001,-2.48822458303583e+000

4.22242531447321e+005,-1.67049041506550e+001,-2.52295491896840e+000

4.28136817531551e+005,-1.67049468267706e+001,-2.55816990315986e+000

4.34113384783250e+005,-1.67049907021202e+001,-2.59387629386812e+000

4.40173381804713e+005,-1.67050358103870e+001,-2.63008094338849e+000

4.46317973232124e+005,-1.67050821861999e+001,-2.66679079935259e+000

4.52548339959385e+005,-1.67051298651588e+001,-2.70401290604710e+000

4.58865679365059e+005,-1.67051788838629e+001,-2.74175440574802e+000

4.65271205542494e+005,-1.67052292799382e+001,-2.78002254007392e+000

4.71766149533147e+005,-1.67052810920660e+001,-2.81882465135827e+000

4.78351759563174e+005,-1.67053343600128e+001,-2.85816818403815e+000

4.85029301283321e+005,-1.67053891246608e+001,-2.89806068606472e+000

4.91800058012158e+005,-1.67054454280385e+001,-2.93850981032915e+000

4.98665330982714e+005,-1.67055033133536e+001,-2.97952331611078e+000

5.05626439592555e+005,-1.67055628250253e+001,-3.02110907054338e+000

5.12684721657352e+005,-1.67056240087184e+001,-3.06327505010013e+000

5.19841533667984e+005,-1.67056869113785e+001,-3.10602934210136e+000

5.27098251051240e+005,-1.67057515812672e+001,-3.14938014623876e+000

5.34456268434150e+005,-1.67058180679994e+001,-3.19333577612344e+000

5.41916999912011e+005,-1.67058864225808e+001,-3.23790466085216e+000

