Freq.,VOut,OutRef

1.00000000000000e+004,-2.76157273185791e+001,-4.26380793131203e-001

1.01395947979003e+004,-2.76157298657939e+001,-4.32332799263307e-001

1.02811382665607e+004,-2.76157324846193e+001,-4.38367890269067e-001

1.04246576084112e+004,-2.76157351770685e+001,-4.44487225883919e-001

1.05701804056138e+004,-2.76157379452111e+001,-4.50691982028844e-001

1.07177346253629e+004,-2.76157407911753e+001,-4.56983351035223e-001

1.08673486252606e+004,-2.76157437171486e+001,-4.63362541876978e-001

1.10190511587661e+004,-2.76157467253803e+001,-4.69830780398348e-001

1.11728713807222e+004,-2.76157498181832e+001,-4.76389309551880e-001

1.13288388529580e+004,-2.76157529979345e+001,-4.83039389637340e-001

1.14869835499703e+004,-2.76157562670786e+001,-4.89782298542737e-001

1.16473358646846e+004,-2.76157596281285e+001,-4.96619331989625e-001

1.18099266142953e+004,-2.76157630836681e+001,-5.03551803780820e-001

1.19747870461893e+004,-2.76157666363535e+001,-5.10581046056125e-001

1.21419488439505e+004,-2.76157702889159e+001,-5.17708409544160e-001

1.23114441334492e+004,-2.76157740441629e+001,-5.24935263823741e-001

1.24833054890161e+004,-2.76157779049813e+001,-5.32262997586040e-001

1.26575659397028e+004,-2.76157818743389e+001,-5.39693018901135e-001

1.28342589756290e+004,-2.76157859552870e+001,-5.47226755489486e-001

1.30134185544193e+004,-2.76157901509626e+001,-5.54865654993768e-001

1.31950791077289e+004,-2.76157944645910e+001,-5.62611185257949e-001

1.33792755478611e+004,-2.76157988994879e+001,-5.70464834610488e-001

1.35660432744767e+004,-2.76158034590627e+001,-5.78428112145737e-001

1.37554181813974e+004,-2.76158081468201e+001,-5.86502548018129e-001

1.39474366635040e+004,-2.76158129663636e+001,-5.94689693733519e-001

1.41421356237309e+004,-2.76158179213980e+001,-6.02991122446460e-001

1.43395524801583e+004,-2.76158230157321e+001,-6.11408429263269e-001

1.45397251732031e+004,-2.76158282532820e+001,-6.19943231547854e-001

1.47426921729110e+004,-2.76158336380736e+001,-6.28597169230657e-001

1.49484924863494e+004,-2.76158391742461e+001,-6.37371905125590e-001

1.51571656651040e+004,-2.76158448660551e+001,-6.46269125247210e-001

1.53687518128801e+004,-2.76158507178757e+001,-6.55290539134232e-001

1.55832915932100e+004,-2.76158567342062e+001,-6.64437880178549e-001

1.58008262372675e+004,-2.76158629196709e+001,-6.73712905957204e-001

1.60213975517924e+004,-2.76158692790247e+001,-6.83117398568325e-001

1.62450479271247e+004,-2.76158758171556e+001,-6.92653164974495e-001

1.64718203453514e+004,-2.76158825390893e+001,-7.02322037348950e-001

1.67017583885674e+004,-2.76158894499926e+001,-7.12125873426833e-001

1.69349062472505e+004,-2.76158965551778e+001,-7.22066556859502e-001

1.71713087287550e+004,-2.76159038601061e+001,-7.32145997579643e-001

1.74110112659224e+004,-2.76159113703925e+001,-7.42366132163921e-001

1.76540599258131e+004,-2.76159190918099e+001,-7.52728924205147e-001

1.79005014185594e+004,-2.76159270302932e+001,-7.63236364690247e-001

1.81503831063432e+004,-2.76159351919442e+001,-7.73890472379974e-001

1.84037530124975e+004,-2.76159435830363e+001,-7.84693294196599e-001

1.86606598307361e+004,-2.76159522100191e+001,-7.95646905616228e-001

1.89211529345119e+004,-2.76159610795236e+001,-8.06753411067063e-001

1.91852823865052e+004,-2.76159701983670e+001,-8.18014944331174e-001

1.94530989482457e+004,-2.76159795735584e+001,-8.29433668953915e-001

1.97246540898671e+004,-2.76159892123035e+001,-8.41011778660719e-001

1.99999999999999e+004,-2.76159991220109e+001,-8.52751497773621e-001

2.02791895958005e+004,-2.76160093102972e+001,-8.64655081639548e-001

2.05622765331213e+004,-2.76160197849932e+001,-8.76724817061866e-001

2.08493152168224e+004,-2.76160305541496e+001,-8.88963022739078e-001

2.11403608112276e+004,-2.76160416260435e+001,-9.01372049707650e-001

2.14354692507258e+004,-2.76160530091846e+001,-9.13954281792016e-001

2.17346972505211e+004,-2.76160647123219e+001,-9.26712136062475e-001

2.20381023175322e+004,-2.76160767444500e+001,-9.39648063297215e-001

2.23457427614443e+004,-2.76160891148163e+001,-9.52764548451358e-001

2.26576777059159e+004,-2.76161018329286e+001,-9.66064111131478e-001

2.29739670999406e+004,-2.76161149085612e+001,-9.79549306080223e-001

2.32946717293690e+004,-2.76161283517635e+001,-9.93222723663083e-001

2.36198532285905e+004,-2.76161421728673e+001,-1.00708699036520e+000

2.39495740923785e+004,-2.76161563824945e+001,-1.02114476929324e+000

2.42838976879009e+004,-2.76161709915657e+001,-1.03539876068500e+000

2.46228882668982e+004,-2.76161860113084e+001,-1.04985170242550e+000

2.49666109780322e+004,-2.76162014532656e+001,-1.06450637057111e+000

2.53151318794055e+004,-2.76162173293046e+001,-1.07936557988034e+000

2.56685179512580e+004,-2.76162336516262e+001,-1.09443218435134e+000

2.60268371088386e+004,-2.76162504327740e+001,-1.10970907776804e+000

2.63901582154578e+004,-2.76162676856443e+001,-1.12519919425293e+000

2.67585510957221e+004,-2.76162854234953e+001,-1.14090550882831e+000

2.71320865489533e+004,-2.76163036599583e+001,-1.15683103798330e+000

2.75108363627948e+004,-2.76163224090474e+001,-1.17297884025163e+000

2.78948733270080e+004,-2.76163416851703e+001,-1.18935201679464e+000

2.82842712474618e+004,-2.76163615031397e+001,-1.20595371199473e+000

2.86791049603164e+004,-2.76163818781845e+001,-1.22278711405418e+000

2.90794503464061e+004,-2.76164028259615e+001,-1.23985545560537e+000

2.94853843458219e+004,-2.76164243625673e+001,-1.25716201432614e+000

2.98969849726987e+004,-2.76164465045510e+001,-1.27471011356634e+000

3.03143313302078e+004,-2.76164692689261e+001,-1.29250312298225e+000

3.07375036257601e+004,-2.76164926731847e+001,-1.31054445917722e+000

3.11665831864199e+004,-2.76165167353101e+001,-1.32883758635558e+000

3.16016524745350e+004,-2.76165414737907e+001,-1.34738601698198e+000

3.20427951035848e+004,-2.76165669076344e+001,-1.36619331245143e+000

3.24900958542493e+004,-2.76165930563833e+001,-1.38526308376652e+000

3.29436406907028e+004,-2.76166199401281e+001,-1.40459899222781e+000

3.34035167771346e+004,-2.76166475795241e+001,-1.42420475012936e+000

3.38698124945009e+004,-2.76166759958068e+001,-1.44408412146671e+000

3.43426174575100e+004,-2.76167052108082e+001,-1.46424092265238e+000

3.48220225318448e+004,-2.76167352469734e+001,-1.48467902324390e+000

3.53081198516260e+004,-2.76167661273783e+001,-1.50540234667796e+000

3.58010028371187e+004,-2.76167978757468e+001,-1.52641487101913e+000

3.63007662126863e+004,-2.76168305164688e+001,-1.54772062971482e+000

3.68075060249948e+004,-2.76168640746199e+001,-1.56932371236193e+000

3.73213196614721e+004,-2.76168985759795e+001,-1.59122826548533e+000

3.78423058690237e+004,-2.76169340470511e+001,-1.61343849332459e+000

3.83705647730104e+004,-2.76169705150826e+001,-1.63595865863352e+000

3.89061978964912e+004,-2.76170080080871e+001,-1.65879308348869e+000

3.94493081797342e+004,-2.76170465548644e+001,-1.68194615010953e+000

3.99999999999998e+004,-2.76170861850231e+001,-1.70542230169084e+000

4.05583791916010e+004,-2.76171269290031e+001,-1.72922604324565e+000

4.11245530662425e+004,-2.76171688180991e+001,-1.75336194245811e+000

4.16986304336447e+004,-2.76172118844846e+001,-1.77783463054994e+000

4.22807216224550e+004,-2.76172561612366e+001,-1.80264880315781e+000

4.28709385014515e+004,-2.76173016823604e+001,-1.82780922122299e+000

4.34693945010421e+004,-2.76173484828164e+001,-1.85332071189175e+000

4.40762046350642e+004,-2.76173965985464e+001,-1.87918816942959e+000

4.46914855228886e+004,-2.76174460665013e+001,-1.90541655614580e+000

4.53153554118317e+004,-2.76174969246691e+001,-1.93201090333328e+000

4.59479341998812e+004,-2.76175492121044e+001,-1.95897631221762e+000

4.65893434587380e+004,-2.76176029689580e+001,-1.98631795492122e+000

4.72397064571810e+004,-2.76176582365078e+001,-2.01404107544049e+000

4.78991481847569e+004,-2.76177150571902e+001,-2.04215099063318e+000

4.85677953758016e+004,-2.76177734746325e+001,-2.07065309122369e+000

4.92457765337964e+004,-2.76178335336869e+001,-2.09955284281712e+000

4.99332219560642e+004,-2.76178952804637e+001,-2.12885578692958e+000

5.06302637588109e+004,-2.76179587623678e+001,-2.15856754203177e+000

5.13370359025159e+004,-2.76180240281338e+001,-2.18869380460573e+000

5.20536742176771e+004,-2.76180911278642e+001,-2.21924035021657e+000

5.27803164309155e+004,-2.76181601130670e+001,-2.25021303459699e+000

5.35171021914442e+004,-2.76182310366956e+001,-2.28161779474807e+000

5.42641730979066e+004,-2.76183039531889e+001,-2.31346065005295e+000

5.50216727255895e+004,-2.76183789185128e+001,-2.34574770340625e+000

5.57897466540159e+004,-2.76184559902034e+001,-2.37848514235810e+000

5.65685424949235e+004,-2.76185352274106e+001,-2.41167924027183e+000

5.73582099206328e+004,-2.76186166909435e+001,-2.44533635750006e+000

5.81589006928121e+004,-2.76187004433163e+001,-2.47946294257291e+000

5.89707686916437e+004,-2.76187865487968e+001,-2.51406553340341e+000

5.97939699453972e+004,-2.76188750734547e+001,-2.54915075850838e+000

6.06286626604156e+004,-2.76189660852126e+001,-2.58472533824530e+000

6.14750072515201e+004,-2.76190596538974e+001,-2.62079608606485e+000

6.23331663728396e+004,-2.76191558512938e+001,-2.65736990978006e+000

6.32033049490698e+004,-2.76192547511986e+001,-2.69445381285250e+000

6.40855902071694e+004,-2.76193564294777e+001,-2.73205489569286e+000

6.49801917084985e+004,-2.76194609641232e+001,-2.77018035698115e+000

6.58872813814055e+004,-2.76195684353133e+001,-2.80883749500235e+000

6.68070335542691e+004,-2.76196789254730e+001,-2.84803370899871e+000

6.77396249890018e+004,-2.76197925193371e+001,-2.88777650054067e+000

6.86852349150199e+004,-2.76199093040149e+001,-2.92807347491392e+000

6.96440450636895e+004,-2.76200293690559e+001,-2.96893234252574e+000

7.06162397032520e+004,-2.76201528065183e+001,-3.01036092032767e+000

7.16020056742374e+004,-2.76202797110392e+001,-3.05236713325630e+000

7.26015324253724e+004,-2.76204101799064e+001,-3.09495901569341e+000

7.36150120499896e+004,-2.76205443131320e+001,-3.13814471294374e+000

7.46426393229441e+004,-2.76206822135291e+001,-3.18193248273033e+000

7.56846117380472e+004,-2.76208239867892e+001,-3.22633069671047e+000

7.67411295460207e+004,-2.76209697415631e+001,-3.27134784200887e+000

7.78123957929823e+004,-2.76211195895427e+001,-3.31699252277084e+000

7.88986163594682e+004,-2.76212736455465e+001,-3.36327346173421e+000

7.99999999999995e+004,-2.76214320276061e+001,-3.41019950182014e+000

8.11167583832018e+004,-2.76215948570561e+001,-3.45777960774499e+000

8.22491061324848e+004,-2.76217622586258e+001,-3.50602286765015e+000

8.33972608672892e+004,-2.76219343605338e+001,-3.55493849475258e+000

8.45614432449099e+004,-2.76221112945853e+001,-3.60453582901513e+000

8.57418770029029e+004,-2.76222931962717e+001,-3.65482433883695e+000

8.69387890020841e+004,-2.76224802048730e+001,-3.70581362276435e+000

8.81524092701283e+004,-2.76226724635636e+001,-3.75751341122200e+000

8.93829710457770e+004,-2.76228701195201e+001,-3.80993356826453e+000

9.06307108236633e+004,-2.76230733240327e+001,-3.86308409334919e+000

9.18958683997622e+004,-2.76232822326195e+001,-3.91697512312874e+000

9.31786869174758e+004,-2.76234970051441e+001,-3.97161693326606e+000

9.44794129143618e+004,-2.76237178059358e+001,-4.02701994026919e+000

9.57982963695136e+004,-2.76239448039138e+001,-4.08319470334824e+000

9.71355907516031e+004,-2.76241781727147e+001,-4.14015192629235e+000

9.84915530675926e+004,-2.76244180908230e+001,-4.19790245937011e+000

9.98664439121282e+004,-2.76246647417057e+001,-4.25645730124915e+000

1.01260527517622e+005,-2.76249183139501e+001,-4.31582760093967e+000

1.02674071805032e+005,-2.76251790014060e+001,-4.37602465975711e+000

1.04107348435354e+005,-2.76254470033312e+001,-4.43705993330902e+000

1.05560632861831e+005,-2.76257225245410e+001,-4.49894503350273e+000

1.07034204382888e+005,-2.76260057755623e+001,-4.56169173057407e+000

1.08528346195813e+005,-2.76262969727913e+001,-4.62531195513949e+000

1.10043345451179e+005,-2.76265963386556e+001,-4.68981780026976e+000

1.11579493308032e+005,-2.76269041017812e+001,-4.75522152358459e+000

1.13137084989847e+005,-2.76272204971632e+001,-4.82153554937104e+000

1.14716419841265e+005,-2.76275457663416e+001,-4.88877247072301e+000

1.16317801385624e+005,-2.76278801575823e+001,-4.95694505170222e+000

1.17941537383287e+005,-2.76282239260618e+001,-5.02606622952296e+000

1.19587939890794e+005,-2.76285773340583e+001,-5.09614911675676e+000

1.21257325320831e+005,-2.76289406511464e+001,-5.16720700356069e+000

1.22950014503040e+005,-2.76293141543988e+001,-5.23925335992675e+000

1.24666332745679e+005,-2.76296981285919e+001,-5.31230183795298e+000

1.26406609898139e+005,-2.76300928664176e+001,-5.38636627413718e+000

1.28171180414339e+005,-2.76304986687007e+001,-5.46146069169115e+000

1.29960383416997e+005,-2.76309158446227e+001,-5.53759930287689e+000

1.31774562762811e+005,-2.76313447119500e+001,-5.61479651136486e+000

1.33614067108538e+005,-2.76317855972700e+001,-5.69306691461221e+000

1.35479249978003e+005,-2.76322388362324e+001,-5.77242530626269e+000

1.37370469830040e+005,-2.76327047737973e+001,-5.85288667856774e+000

1.39288090127379e+005,-2.76331837644897e+001,-5.93446622482710e+000

1.41232479406504e+005,-2.76336761726613e+001,-6.01717934185106e+000

1.43204011348474e+005,-2.76341823727581e+001,-6.10104163244142e+000

1.45203064850745e+005,-2.76347027495965e+001,-6.18606890789332e+000

1.47230024099979e+005,-2.76352376986453e+001,-6.27227719051607e+000

1.49285278645888e+005,-2.76357876263166e+001,-6.35968271617224e+000

1.51369223476094e+005,-2.76363529502628e+001,-6.44830193683731e+000

1.53482259092041e+005,-2.76369340996828e+001,-6.53815152317545e+000

1.55624791585964e+005,-2.76375315156350e+001,-6.62924836713474e+000

1.57797232718936e+005,-2.76381456513594e+001,-6.72160958455841e+000

1.59999999999999e+005,-2.76387769726078e+001,-6.81525251781400e+000

1.62233516766403e+005,-2.76394259579822e+001,-6.91019473843802e+000

1.64498212264969e+005,-2.76400930992829e+001,-7.00645404979629e+000

1.66794521734578e+005,-2.76407789018644e+001,-7.10404848975971e+000

1.69122886489819e+005,-2.76414838850017e+001,-7.20299633339352e+000

1.71483754005805e+005,-2.76422085822650e+001,-7.30331609566150e+000

1.73877578004168e+005,-2.76429535419050e+001,-7.40502653414081e+000

1.76304818540256e+005,-2.76437193272473e+001,-7.50814665175184e+000

1.78765942091554e+005,-2.76445065170971e+001,-7.61269569949590e+000

1.81261421647326e+005,-2.76453157061547e+001,-7.71869317920530e+000

1.83791736799524e+005,-2.76461475054405e+001,-7.82615884630262e+000

1.86357373834951e+005,-2.76470025427320e+001,-7.93511271256659e+000

1.88958825828723e+005,-2.76478814630111e+001,-8.04557504890680e+000

1.91596592739027e+005,-2.76487849289227e+001,-8.15756638814347e+000

1.94271181503206e+005,-2.76497136212446e+001,-8.27110752779208e+000

1.96983106135185e+005,-2.76506682393703e+001,-8.38621953285214e+000

1.99732887824256e+005,-2.76516495018020e+001,-8.50292373859702e+000

2.02521055035243e+005,-2.76526581466576e+001,-8.62124175336530e+000

2.05348143610063e+005,-2.76536949321891e+001,-8.74119546135109e+000

2.08214696870707e+005,-2.76547606373138e+001,-8.86280702539251e+000

2.11121265723661e+005,-2.76558560621595e+001,-8.98609888975527e+000

2.14068408765776e+005,-2.76569820286216e+001,-9.11109378291177e+000

2.17056692391625e+005,-2.76581393809349e+001,-9.23781472031162e+000

2.20086690902357e+005,-2.76593289862588e+001,-9.36628500714413e+000

2.23158986616063e+005,-2.76605517352762e+001,-9.49652824108767e+000

2.26274169979693e+005,-2.76618085428074e+001,-9.62856831504786e+000

2.29432839682530e+005,-2.76631003484385e+001,-9.76242941987809e+000

2.32635602771247e+005,-2.76644281171640e+001,-9.89813604708383e+000

2.35883074766574e+005,-2.76657928400454e+001,-1.00357129915061e+001

2.39175879781588e+005,-2.76671955348850e+001,-1.01751853539821e+001

2.42514650641661e+005,-2.76686372469150e+001,-1.03165785439807e+001

2.45900029006080e+005,-2.76701190495031e+001,-1.04599182822109e+001

2.49332665491357e+005,-2.76716420448738e+001,-1.06052306031982e+001

2.52813219796278e+005,-2.76732073648467e+001,-1.07525418578281e+001

2.56342360828676e+005,-2.76748161715913e+001,-1.09018787158528e+001

2.59920766833993e+005,-2.76764696583985e+001,-1.10532681683581e+001

2.63549125525621e+005,-2.76781690504701e+001,-1.12067375301865e+001

2.67228134217075e+005,-2.76799156057247e+001,-1.13623144423150e+001

2.70958499956006e+005,-2.76817106156229e+001,-1.15200268741808e+001

2.74740939660078e+005,-2.76835554060087e+001,-1.16799031259548e+001

2.78576180254757e+005,-2.76854513379706e+001,-1.18419718307562e+001

2.82464958813007e+005,-2.76873998087203e+001,-1.20062619568059e+001

2.86408022696948e+005,-2.76894022524903e+001,-1.21728028095135e+001

2.90406129701488e+005,-2.76914601414503e+001,-1.23416240334941e+001

2.94460048199957e+005,-2.76935749866428e+001,-1.25127556145102e+001

2.98570557291775e+005,-2.76957483389380e+001,-1.26862278813349e+001

3.02738446952187e+005,-2.76979817900077e+001,-1.28620715075290e+001

3.06964518184081e+005,-2.77002769733189e+001,-1.30403175131311e+001

3.11249583171928e+005,-2.77026355651480e+001,-1.32209972662516e+001

3.15594465437872e+005,-2.77050592856130e+001,-1.34041424845675e+001

3.19999999999997e+005,-2.77075498997280e+001,-1.35897852367122e+001

3.24467033532806e+005,-2.77101092184752e+001,-1.37779579435536e+001

3.28996424529938e+005,-2.77127390998995e+001,-1.39686933793561e+001

3.33589043469155e+005,-2.77154414502216e+001,-1.41620246728187e+001

3.38245772979638e+005,-2.77182182249717e+001,-1.43579853079851e+001

3.42967508011610e+005,-2.77210714301439e+001,-1.45566091250166e+001

3.47755156008335e+005,-2.77240031233702e+001,-1.47579303208238e+001

3.52609637080511e+005,-2.77270154151151e+001,-1.49619834495491e+001

3.57531884183106e+005,-2.77301104698898e+001,-1.51688034228911e+001

3.62522843294651e+005,-2.77332905074869e+001,-1.53784255102688e+001

3.67583473599047e+005,-2.77365578042343e+001,-1.55908853388111e+001

3.72714747669902e+005,-2.77399146942693e+001,-1.58062188931707e+001

3.77917651657445e+005,-2.77433635708318e+001,-1.60244625151493e+001

3.83193185478053e+005,-2.77469068875766e+001,-1.62456529031298e+001

3.88542363006410e+005,-2.77505471599047e+001,-1.64698271113052e+001

3.93966212270369e+005,-2.77542869663129e+001,-1.66970225486958e+001

3.99465775648511e+005,-2.77581289497618e+001,-1.69272769779470e+001

4.05042110070485e+005,-2.77620758190613e+001,-1.71606285138986e+001

4.10696287220124e+005,-2.77661303502729e+001,-1.73971156219168e+001

4.16429393741414e+005,-2.77702953881291e+001,-1.76367771159779e+001

4.22242531447321e+005,-2.77745738474687e+001,-1.78796521564971e+001

4.28136817531551e+005,-2.77789687146868e+001,-1.81257802478919e+001

4.34113384783250e+005,-2.77834830492002e+001,-1.83752012358692e+001

4.40173381804713e+005,-2.77881199849258e+001,-1.86279553044271e+001

4.46317973232124e+005,-2.77928827317725e+001,-1.88840829725638e+001

4.52548339959385e+005,-2.77977745771443e+001,-1.91436250906780e+001

4.58865679365059e+005,-2.78027988874546e+001,-1.94066228366572e+001

4.65271205542494e+005,-2.78079591096505e+001,-1.96731177116381e+001

4.71766149533147e+005,-2.78132587727449e+001,-1.99431515354327e+001

4.78351759563174e+005,-2.78187014893568e+001,-2.02167664416070e+001

4.85029301283321e+005,-2.78242909572562e+001,-2.04940048722032e+001

4.91800058012158e+005,-2.78300309609147e+001,-2.07749095720955e+001

4.98665330982714e+005,-2.78359253730579e+001,-2.10595235829665e+001

5.05626439592555e+005,-2.78419781562196e+001,-2.13478902368969e+001

5.12684721657352e+005,-2.78481933642943e+001,-2.16400531495561e+001

5.19841533667984e+005,-2.78545751440888e+001,-2.19360562129838e+001

5.27098251051240e+005,-2.78611277368674e+001,-2.22359435879528e+001

5.34456268434150e+005,-2.78678554798915e+001,-2.25397596959022e+001

5.41916999912011e+005,-2.78747628079504e+001,-2.28475492104320e+001

