Freq.,VOut,OutRef

1.00000000000000e+004,-1.53839511731824e+001,-1.55896418094599e-001

1.01395947979003e+004,-1.53839512854443e+001,-1.58072650396543e-001

1.02811382665607e+004,-1.53839514008625e+001,-1.60279261743241e-001

1.04246576084112e+004,-1.53839515195254e+001,-1.62516676211192e-001

1.05701804056138e+004,-1.53839516415245e+001,-1.64785323792733e-001

1.07177346253629e+004,-1.53839517669533e+001,-1.67085640485999e-001

1.08673486252606e+004,-1.53839518959084e+001,-1.69418068374086e-001

1.10190511587661e+004,-1.53839520284889e+001,-1.71783055711098e-001

1.11728713807222e+004,-1.53839521647969e+001,-1.74181057008079e-001

1.13288388529580e+004,-1.53839523049369e+001,-1.76612533121922e-001

1.14869835499703e+004,-1.53839524490168e+001,-1.79077951341827e-001

1.16473358646846e+004,-1.53839525971474e+001,-1.81577785480819e-001

1.18099266142953e+004,-1.53839527494424e+001,-1.84112515965897e-001

1.19747870461893e+004,-1.53839529060190e+001,-1.86682629929955e-001

1.21419488439505e+004,-1.53839530669976e+001,-1.89288621306242e-001

1.23114441334492e+004,-1.53839532325018e+001,-1.91930990923509e-001

1.24833054890161e+004,-1.53839534026591e+001,-1.94610246599915e-001

1.26575659397028e+004,-1.53839535776002e+001,-1.97326903244844e-001

1.28342589756290e+004,-1.53839537574594e+001,-2.00081482954032e-001

1.30134185544193e+004,-1.53839539423751e+001,-2.02874515112203e-001

1.31950791077289e+004,-1.53839541324896e+001,-2.05706536492190e-001

1.33792755478611e+004,-1.53839543279490e+001,-2.08578091361734e-001

1.35660432744767e+004,-1.53839545289034e+001,-2.11489731585008e-001

1.37554181813974e+004,-1.53839547355073e+001,-2.14442016731580e-001

1.39474366635040e+004,-1.53839549479197e+001,-2.17435514178756e-001

1.41421356237309e+004,-1.53839551663039e+001,-2.20470799227384e-001

1.43395524801583e+004,-1.53839553908276e+001,-2.23548455207406e-001

1.45397251732031e+004,-1.53839556216635e+001,-2.26669073592719e-001

1.47426921729110e+004,-1.53839558589890e+001,-2.29833254113090e-001

1.49484924863494e+004,-1.53839561029867e+001,-2.33041604869289e-001

1.51571656651040e+004,-1.53839563538441e+001,-2.36294742451820e-001

1.53687518128801e+004,-1.53839566117540e+001,-2.39593292058376e-001

1.55832915932100e+004,-1.53839568769146e+001,-2.42937887613368e-001

1.58008262372675e+004,-1.53839571495301e+001,-2.46329171890004e-001

1.60213975517924e+004,-1.53839574298096e+001,-2.49767796636059e-001

1.62450479271247e+004,-1.53839577179690e+001,-2.53254422694163e-001

1.64718203453514e+004,-1.53839580142295e+001,-2.56789720134491e-001

1.67017583885674e+004,-1.53839583188191e+001,-2.60374368379490e-001

1.69349062472505e+004,-1.53839586319719e+001,-2.64009056335524e-001

1.71713087287550e+004,-1.53839589539284e+001,-2.67694482527307e-001

1.74110112659224e+004,-1.53839592849364e+001,-2.71431355228421e-001

1.76540599258131e+004,-1.53839596252502e+001,-2.75220392600965e-001

1.79005014185594e+004,-1.53839599751316e+001,-2.79062322829690e-001

1.81503831063432e+004,-1.53839603348493e+001,-2.82957884267374e-001

1.84037530124975e+004,-1.53839607046802e+001,-2.86907825570208e-001

1.86606598307361e+004,-1.53839610849082e+001,-2.90912905848405e-001

1.89211529345119e+004,-1.53839614758259e+001,-2.94973894805600e-001

1.91852823865052e+004,-1.53839618777339e+001,-2.99091572890997e-001

1.94530989482457e+004,-1.53839622909409e+001,-3.03266731449464e-001

1.97246540898671e+004,-1.53839627157647e+001,-3.07500172870724e-001

1.99999999999999e+004,-1.53839631525319e+001,-3.11792710745585e-001

2.02791895958005e+004,-1.53839636015780e+001,-3.16145170022584e-001

2.05622765331213e+004,-1.53839640632487e+001,-3.20558387163361e-001

2.08493152168224e+004,-1.53839645378985e+001,-3.25033210309744e-001

2.11403608112276e+004,-1.53839650258926e+001,-3.29570499438158e-001

2.14354692507258e+004,-1.53839655276059e+001,-3.34171126533650e-001

2.17346972505211e+004,-1.53839660434242e+001,-3.38835975751111e-001

2.20381023175322e+004,-1.53839665737440e+001,-3.43565943587632e-001

2.23457427614443e+004,-1.53839671189732e+001,-3.48361939054293e-001

2.26576777059159e+004,-1.53839676795306e+001,-3.53224883852696e-001

2.29739670999406e+004,-1.53839682558474e+001,-3.58155712547728e-001

2.32946717293690e+004,-1.53839688483666e+001,-3.63155372751770e-001

2.36198532285905e+004,-1.53839694575435e+001,-3.68224825305085e-001

2.39495740923785e+004,-1.53839700838468e+001,-3.73365044458126e-001

2.42838976879009e+004,-1.53839707277575e+001,-3.78577018063741e-001

2.46228882668982e+004,-1.53839713897710e+001,-3.83861747761688e-001

2.49666109780322e+004,-1.53839720703961e+001,-3.89220249174530e-001

2.53151318794055e+004,-1.53839727701561e+001,-3.94653552101704e-001

2.56685179512580e+004,-1.53839734895888e+001,-4.00162700717381e-001

2.60268371088386e+004,-1.53839742292473e+001,-4.05748753771531e-001

2.63901582154578e+004,-1.53839749897002e+001,-4.11412784792246e-001

2.67585510957221e+004,-1.53839757715323e+001,-4.17155882292913e-001

2.71320865489533e+004,-1.53839765753444e+001,-4.22979149982302e-001

2.75108363627948e+004,-1.53839774017546e+001,-4.28883706974283e-001

2.78948733270080e+004,-1.53839782513981e+001,-4.34870688004841e-001

2.82842712474618e+004,-1.53839791249280e+001,-4.40941243649380e-001

2.86791049603164e+004,-1.53839800230160e+001,-4.47096540542937e-001

2.90794503464061e+004,-1.53839809463524e+001,-4.53337761606731e-001

2.94853843458219e+004,-1.53839818956471e+001,-4.59666106272840e-001

2.98969849726987e+004,-1.53839828716297e+001,-4.66082790716090e-001

3.03143313302078e+004,-1.53839838750508e+001,-4.72589048087016e-001

3.07375036257601e+004,-1.53839849066814e+001,-4.79186128750094e-001

3.11665831864199e+004,-1.53839859673148e+001,-4.85875300522646e-001

3.16016524745350e+004,-1.53839870577663e+001,-4.92657848918158e-001

3.20427951035848e+004,-1.53839881788742e+001,-4.99535077394615e-001

3.24900958542493e+004,-1.53839893315002e+001,-5.06508307604544e-001

3.29436406907028e+004,-1.53839905165307e+001,-5.13578879647562e-001

3.34035167771346e+004,-1.53839917348763e+001,-5.20748152330691e-001

3.38698124945009e+004,-1.53839929874739e+001,-5.28017503425421e-001

3.43426174575100e+004,-1.53839942752862e+001,-5.35388329937046e-001

3.48220225318448e+004,-1.53839955993033e+001,-5.42862048369167e-001

3.53081198516260e+004,-1.53839969605431e+001,-5.50440094997453e-001

3.58010028371187e+004,-1.53839983600519e+001,-5.58123926145706e-001

3.63007662126863e+004,-1.53839997989056e+001,-5.65915018465802e-001

3.68075060249948e+004,-1.53840012782104e+001,-5.73814869220045e-001

3.73213196614721e+004,-1.53840027991034e+001,-5.81824996570558e-001

3.78423058690237e+004,-1.53840043627537e+001,-5.89946939870221e-001

3.83705647730104e+004,-1.53840059703634e+001,-5.98182259957699e-001

3.89061978964912e+004,-1.53840076231683e+001,-6.06532539457844e-001

3.94493081797342e+004,-1.53840093224390e+001,-6.14999383085911e-001

3.99999999999998e+004,-1.53840110694818e+001,-6.23584417956664e-001

4.05583791916010e+004,-1.53840128656396e+001,-6.32289293894036e-001

4.11245530662425e+004,-1.53840147122933e+001,-6.41115683751374e-001

4.16986304336447e+004,-1.53840166108624e+001,-6.50065283730932e-001

4.22807216224550e+004,-1.53840185628063e+001,-6.59139813710665e-001

4.28709385014515e+004,-1.53840205696256e+001,-6.68341017572630e-001

4.34693945010421e+004,-1.53840226328630e+001,-6.77670663541883e-001

4.40762046350642e+004,-1.53840247541044e+001,-6.87130544521270e-001

4.46914855228886e+004,-1.53840269349807e+001,-6.96722478438641e-001

4.53153554118317e+004,-1.53840291771681e+001,-7.06448308597100e-001

4.59479341998812e+004,-1.53840314823904e+001,-7.16309904025911e-001

4.65893434587380e+004,-1.53840338524196e+001,-7.26309159841834e-001

4.72397064571810e+004,-1.53840362890775e+001,-7.36447997612114e-001

4.78991481847569e+004,-1.53840387942373e+001,-7.46728365724418e-001

4.85677953758016e+004,-1.53840413698247e+001,-7.57152239759001e-001

4.92457765337964e+004,-1.53840440178196e+001,-7.67721622871589e-001

4.99332219560642e+004,-1.53840467402574e+001,-7.78438546175138e-001

5.06302637588109e+004,-1.53840495392310e+001,-7.89305069130009e-001

5.13370359025159e+004,-1.53840524168918e+001,-8.00323279941960e-001

5.20536742176771e+004,-1.53840553754521e+001,-8.11495295960124e-001

5.27803164309155e+004,-1.53840584171860e+001,-8.22823264086304e-001

5.35171021914442e+004,-1.53840615444315e+001,-8.34309361185285e-001

5.42641730979066e+004,-1.53840647595928e+001,-8.45955794503226e-001

5.50216727255895e+004,-1.53840680651413e+001,-8.57764802092455e-001

5.57897466540159e+004,-1.53840714636177e+001,-8.69738653241044e-001

5.65685424949235e+004,-1.53840749576346e+001,-8.81879648907145e-001

5.73582099206328e+004,-1.53840785498777e+001,-8.94190122162500e-001

5.81589006928121e+004,-1.53840822431083e+001,-9.06672438639177e-001

5.89707686916437e+004,-1.53840860401654e+001,-9.19328996984609e-001

5.97939699453972e+004,-1.53840899439675e+001,-9.32162229322218e-001

6.06286626604156e+004,-1.53840939575155e+001,-9.45174601717683e-001

6.14750072515201e+004,-1.53840980838944e+001,-9.58368614652131e-001

6.23331663728396e+004,-1.53841023262762e+001,-9.71746803503415e-001

6.32033049490698e+004,-1.53841066879217e+001,-9.85311739032213e-001

6.40855902071694e+004,-1.53841111721835e+001,-9.99066027875327e-001

6.49801917084985e+004,-1.53841157825085e+001,-1.01301231304619e+000

6.58872813814055e+004,-1.53841205224405e+001,-1.02715327444238e+000

6.68070335542691e+004,-1.53841253956228e+001,-1.04149162935999e+000

6.77396249890018e+004,-1.53841304058012e+001,-1.05603013301468e+000

6.86852349150199e+004,-1.53841355568268e+001,-1.07077157907167e+000

6.96440450636895e+004,-1.53841408526587e+001,-1.08571880018106e+000

7.06162397032520e+004,-1.53841462973676e+001,-1.10087466852087e+000

7.16020056742374e+004,-1.53841518951385e+001,-1.11624209635040e+000

7.26015324253724e+004,-1.53841576502740e+001,-1.13182403656684e+000

7.36150120499896e+004,-1.53841635671976e+001,-1.14762348327270e+000

7.46426393229441e+004,-1.53841696504571e+001,-1.16364347235155e+000

7.56846117380472e+004,-1.53841759047283e+001,-1.17988708204892e+000

7.67411295460207e+004,-1.53841823348183e+001,-1.19635743356306e+000

7.78123957929823e+004,-1.53841889456693e+001,-1.21305769164540e+000

7.88986163594682e+004,-1.53841957423625e+001,-1.22999106520622e+000

7.99999999999995e+004,-1.53842027301216e+001,-1.24716080793070e+000

8.11167583832018e+004,-1.53842099143175e+001,-1.26457021890298e+000

8.22491061324848e+004,-1.53842173004719e+001,-1.28222264323922e+000

8.33972608672892e+004,-1.53842248942615e+001,-1.30012147272973e+000

8.45614432449099e+004,-1.53842327015230e+001,-1.31827014648833e+000

8.57418770029029e+004,-1.53842407282566e+001,-1.33667215161400e+000

8.69387890020841e+004,-1.53842489806314e+001,-1.35533102385669e+000

8.81524092701283e+004,-1.53842574649900e+001,-1.37425034829838e+000

8.93829710457770e+004,-1.53842661878529e+001,-1.39343376003924e+000

9.06307108236633e+004,-1.53842751559242e+001,-1.41288494489399e+000

9.18958683997622e+004,-1.53842843760961e+001,-1.43260764010042e+000

9.31786869174758e+004,-1.53842938554546e+001,-1.45260563503448e+000

9.44794129143618e+004,-1.53843036012851e+001,-1.47288277193692e+000

9.57982963695136e+004,-1.53843136210772e+001,-1.49344294665100e+000

9.71355907516031e+004,-1.53843239225313e+001,-1.51429010936813e+000

9.84915530675926e+004,-1.53843345135642e+001,-1.53542826538517e+000

9.98664439121282e+004,-1.53843454023152e+001,-1.55686147587261e+000

1.01260527517622e+005,-1.53843565971520e+001,-1.57859385865287e+000

1.02674071805032e+005,-1.53843681066778e+001,-1.60062958898867e+000

1.04107348435354e+005,-1.53843799397373e+001,-1.62297290038437e+000

1.05560632861831e+005,-1.53843921054239e+001,-1.64562808539611e+000

1.07034204382888e+005,-1.53844046130864e+001,-1.66859949645412e+000

1.08528346195813e+005,-1.53844174723363e+001,-1.69189154669721e+000

1.10043345451179e+005,-1.53844306930551e+001,-1.71550871081838e+000

1.11579493308032e+005,-1.53844442854021e+001,-1.73945552592050e+000

1.13137084989847e+005,-1.53844582598218e+001,-1.76373659238671e+000

1.14716419841265e+005,-1.53844726270526e+001,-1.78835657476016e+000

1.16317801385624e+005,-1.53844873981340e+001,-1.81332020263890e+000

1.17941537383287e+005,-1.53845025844161e+001,-1.83863227157921e+000

1.19587939890794e+005,-1.53845181975677e+001,-1.86429764401562e+000

1.21257325320831e+005,-1.53845342495855e+001,-1.89032125019019e+000

1.22950014503040e+005,-1.53845507528031e+001,-1.91670808909739e+000

1.24666332745679e+005,-1.53845677199008e+001,-1.94346322944021e+000

1.26406609898139e+005,-1.53845851639150e+001,-1.97059181059945e+000

1.28171180414339e+005,-1.53846030982482e+001,-1.99809904361851e+000

1.29960383416997e+005,-1.53846215366795e+001,-2.02599021219903e+000

1.31774562762811e+005,-1.53846404933751e+001,-2.05427067371240e+000

1.33614067108538e+005,-1.53846599828992e+001,-2.08294586022351e+000

1.35479249978003e+005,-1.53846800202248e+001,-2.11202127953026e+000

1.37370469830040e+005,-1.53847006207458e+001,-2.14150251621677e+000

1.39288090127379e+005,-1.53847218002883e+001,-2.17139523272045e+000

1.41232479406504e+005,-1.53847435751229e+001,-2.20170517041451e+000

1.43204011348474e+005,-1.53847659619772e+001,-2.23243815070542e+000

1.45203064850745e+005,-1.53847889780488e+001,-2.26360007614582e+000

1.47230024099979e+005,-1.53848126410179e+001,-2.29519693156100e+000

1.49285278645888e+005,-1.53848369690615e+001,-2.32723478519333e+000

1.51369223476094e+005,-1.53848619808671e+001,-2.35971978986040e+000

1.53482259092041e+005,-1.53848876956469e+001,-2.39265818413118e+000

1.55624791585964e+005,-1.53849141331524e+001,-2.42605629351540e+000

1.57797232718936e+005,-1.53849413136902e+001,-2.45992053167219e+000

1.59999999999999e+005,-1.53849692581367e+001,-2.49425740163452e+000

1.62233516766403e+005,-1.53849979879545e+001,-2.52907349704923e+000

1.64498212264969e+005,-1.53850275252091e+001,-2.56437550343503e+000

1.66794521734578e+005,-1.53850578925852e+001,-2.60017019945804e+000

1.69122886489819e+005,-1.53850891134046e+001,-2.63646445822501e+000

1.71483754005805e+005,-1.53851212116438e+001,-2.67326524859187e+000

1.73877578004168e+005,-1.53851542119522e+001,-2.71057963649439e+000

1.76304818540256e+005,-1.53851881396715e+001,-2.74841478629316e+000

1.78765942091554e+005,-1.53852230208544e+001,-2.78677796213963e+000

1.81261421647326e+005,-1.53852588822852e+001,-2.82567652935868e+000

1.83791736799524e+005,-1.53852957514999e+001,-2.86511795585194e+000

1.86357373834951e+005,-1.53853336568073e+001,-2.90510981351987e+000

1.88958825828723e+005,-1.53853726273107e+001,-2.94565977970219e+000

1.91596592739027e+005,-1.53854126929301e+001,-2.98677563863875e+000

1.94271181503206e+005,-1.53854538844255e+001,-3.02846528295116e+000

1.96983106135185e+005,-1.53854962334196e+001,-3.07073671514254e+000

1.99732887824256e+005,-1.53855397724228e+001,-3.11359804911976e+000

2.02521055035243e+005,-1.53855845348575e+001,-3.15705751173577e+000

2.05348143610063e+005,-1.53856305550839e+001,-3.20112344435166e+000

2.08214696870707e+005,-1.53856778684264e+001,-3.24580430442137e+000

2.11121265723661e+005,-1.53857265111998e+001,-3.29110866709886e+000

2.14068408765776e+005,-1.53857765207384e+001,-3.33704522686318e+000

2.17056692391625e+005,-1.53858279354231e+001,-3.38362279917051e+000

2.20086690902357e+005,-1.53858807947117e+001,-3.43085032212513e+000

2.23158986616063e+005,-1.53859351391684e+001,-3.47873685817414e+000

2.26274169979693e+005,-1.53859910104954e+001,-3.52729159582544e+000

2.29432839682530e+005,-1.53860484515639e+001,-3.57652385138802e+000

2.32635602771247e+005,-1.53861075064477e+001,-3.62644307073678e+000

2.35883074766574e+005,-1.53861682204560e+001,-3.67705883110045e+000

2.39175879781588e+005,-1.53862306401686e+001,-3.72838084287374e+000

2.42514650641661e+005,-1.53862948134710e+001,-3.78041895145407e+000

2.45900029006080e+005,-1.53863607895912e+001,-3.83318313910241e+000

2.49332665491357e+005,-1.53864286191368e+001,-3.88668352683066e+000

2.52813219796278e+005,-1.53864983541343e+001,-3.94093037631143e+000

2.56342360828676e+005,-1.53865700480677e+001,-3.99593409181725e+000

2.59920766833993e+005,-1.53866437559203e+001,-4.05170522218242e+000

2.63549125525621e+005,-1.53867195342156e+001,-4.10825446279258e+000

2.67228134217075e+005,-1.53867974410611e+001,-4.16559265760096e+000

2.70958499956006e+005,-1.53868775361921e+001,-4.22373080117079e+000

2.74740939660078e+005,-1.53869598810172e+001,-4.28268004074598e+000

2.78576180254757e+005,-1.53870445386650e+001,-4.34245167834789e+000

2.82464958813007e+005,-1.53871315740321e+001,-4.40305717290104e+000

2.86408022696948e+005,-1.53872210538325e+001,-4.46450814238682e+000

2.90406129701488e+005,-1.53873130466483e+001,-4.52681636602535e+000

2.94460048199957e+005,-1.53874076229815e+001,-4.58999378648667e+000

2.98570557291775e+005,-1.53875048553078e+001,-4.65405251213057e+000

3.02738446952187e+005,-1.53876048181318e+001,-4.71900481927624e+000

3.06964518184081e+005,-1.53877075880429e+001,-4.78486315450206e+000

3.11249583171928e+005,-1.53878132437738e+001,-4.85164013697493e+000

3.15594465437872e+005,-1.53879218662605e+001,-4.91934856081034e+000

3.19999999999997e+005,-1.53880335387029e+001,-4.98800139746423e+000

3.24467033532806e+005,-1.53881483466283e+001,-5.05761179815443e+000

3.28996424529938e+005,-1.53882663779560e+001,-5.12819309631494e+000

3.33589043469155e+005,-1.53883877230640e+001,-5.19975881008140e+000

3.38245772979638e+005,-1.53885124748573e+001,-5.27232264480994e+000

3.42967508011610e+005,-1.53886407288380e+001,-5.34589849562690e+000

3.47755156008335e+005,-1.53887725831777e+001,-5.42050045001256e+000

3.52609637080511e+005,-1.53889081387914e+001,-5.49614279041882e+000

3.57531884183106e+005,-1.53890474994140e+001,-5.57283999691905e+000

3.62522843294651e+005,-1.53891907716786e+001,-5.65060674989266e+000

3.67583473599047e+005,-1.53893380651965e+001,-5.72945793274444e+000

3.72714747669902e+005,-1.53894894926402e+001,-5.80940863465829e+000

3.77917651657445e+005,-1.53896451698284e+001,-5.89047415338480e+000

3.83193185478053e+005,-1.53898052158128e+001,-5.97266999806693e+000

3.88542363006410e+005,-1.53899697529680e+001,-6.05601189209848e+000

3.93966212270369e+005,-1.53901389070837e+001,-6.14051577602083e+000

3.99465775648511e+005,-1.53903128074587e+001,-6.22619781045488e+000

4.05042110070485e+005,-1.53904915869985e+001,-6.31307437907035e+000

4.10696287220124e+005,-1.53906753823151e+001,-6.40116209159190e+000

4.16429393741414e+005,-1.53908643338290e+001,-6.49047778684290e+000

4.22242531447321e+005,-1.53910585858750e+001,-6.58103853582705e+000

4.28136817531551e+005,-1.53912582868101e+001,-6.67286164484753e+000

4.34113384783250e+005,-1.53914635891246e+001,-6.76596465866535e+000

4.40173381804713e+005,-1.53916746495560e+001,-6.86036536369637e+000

4.46317973232124e+005,-1.53918916292065e+001,-6.95608179124662e+000

4.52548339959385e+005,-1.53921146936630e+001,-7.05313222078827e+000

4.58865679365059e+005,-1.53923440131209e+001,-7.15153518327388e+000

4.65271205542494e+005,-1.53925797625108e+001,-7.25130946449242e+000

4.71766149533147e+005,-1.53928221216288e+001,-7.35247410846362e+000

4.78351759563174e+005,-1.53930712752704e+001,-7.45504842087487e+000

4.85029301283321e+005,-1.53933274133684e+001,-7.55905197255710e+000

4.91800058012158e+005,-1.53935907311329e+001,-7.66450460300401e+000

4.98665330982714e+005,-1.53938614291972e+001,-7.77142642393046e+000

5.05626439592555e+005,-1.53941397137660e+001,-7.87983782287432e+000

5.12684721657352e+005,-1.53944257967683e+001,-7.98975946683951e+000

5.19841533667984e+005,-1.53947198960143e+001,-8.10121230598146e+000

5.27098251051240e+005,-1.53950222353562e+001,-8.21421757733456e+000

5.34456268434150e+005,-1.53953330448533e+001,-8.32879680858298e+000

5.41916999912011e+005,-1.53956525609421e+001,-8.44497182187388e+000

