Freq.,VOut,OutRef

1.00000000000000e+004,-2.03816182497091e+001,-2.97680205114074e-001

1.01395947979003e+004,-2.03816192094499e+001,-3.01835653766796e-001

1.02811382665607e+004,-2.03816201961725e+001,-3.06049109805046e-001

1.04246576084112e+004,-2.03816212106353e+001,-3.10321382959915e-001

1.05701804056138e+004,-2.03816222536183e+001,-3.14653294264336e-001

1.07177346253629e+004,-2.03816233259233e+001,-3.19045676212562e-001

1.08673486252606e+004,-2.03816244283747e+001,-3.23499372917865e-001

1.10190511587661e+004,-2.03816255618198e+001,-3.28015240277399e-001

1.11728713807222e+004,-2.03816267271301e+001,-3.32594146133436e-001

1.13288388529580e+004,-2.03816279252015e+001,-3.37236970442344e-001

1.14869835499703e+004,-2.03816291569548e+001,-3.41944605444039e-001

1.16473358646846e+004,-2.03816304233372e+001,-3.46717955830206e-001

1.18099266142953e+004,-2.03816317253218e+001,-3.51557938923110e-001

1.19747870461893e+004,-2.03816330639099e+001,-3.56465484846298e-001

1.21419488439505e+004,-2.03816344401304e+001,-3.61441536707766e-001

1.23114441334492e+004,-2.03816358550412e+001,-3.66487050778268e-001

1.24833054890161e+004,-2.03816373097302e+001,-3.71602996675832e-001

1.26575659397028e+004,-2.03816388053154e+001,-3.76790357554649e-001

1.28342589756290e+004,-2.03816403429468e+001,-3.82050130287908e-001

1.30134185544193e+004,-2.03816419238063e+001,-3.87383325666025e-001

1.31950791077289e+004,-2.03816435491091e+001,-3.92790968586383e-001

1.33792755478611e+004,-2.03816452201048e+001,-3.98274098250855e-001

1.35660432744767e+004,-2.03816469380779e+001,-4.03833768368038e-001

1.37554181813974e+004,-2.03816487043491e+001,-4.09471047351216e-001

1.39474366635040e+004,-2.03816505202762e+001,-4.15187018527616e-001

1.41421356237309e+004,-2.03816523872551e+001,-4.20982780344974e-001

1.43395524801583e+004,-2.03816543067211e+001,-4.26859446582096e-001

1.45397251732031e+004,-2.03816562801496e+001,-4.32818146563054e-001

1.47426921729110e+004,-2.03816583090580e+001,-4.38860025373877e-001

1.49484924863494e+004,-2.03816603950055e+001,-4.44986244083959e-001

1.51571656651040e+004,-2.03816625395961e+001,-4.51197979965778e-001

1.53687518128801e+004,-2.03816647444783e+001,-4.57496426725257e-001

1.55832915932100e+004,-2.03816670113468e+001,-4.63882794727751e-001

1.58008262372675e+004,-2.03816693419445e+001,-4.70358311231864e-001

1.60213975517924e+004,-2.03816717380628e+001,-4.76924220624688e-001

1.62450479271247e+004,-2.03816742015437e+001,-4.83581784661080e-001

1.64718203453514e+004,-2.03816767342812e+001,-4.90332282705101e-001

1.67017583885674e+004,-2.03816793382219e+001,-4.97177011977880e-001

1.69349062472505e+004,-2.03816820153678e+001,-5.04117287803662e-001

1.71713087287550e+004,-2.03816847677766e+001,-5.11154443865231e-001

1.74110112659224e+004,-2.03816875975645e+001,-5.18289832457235e-001

1.76540599258131e+004,-2.03816905069065e+001,-5.25524824749598e-001

1.79005014185594e+004,-2.03816934980391e+001,-5.32860811046477e-001

1.81503831063432e+004,-2.03816965732618e+001,-5.40299201056360e-001

1.84037530124975e+004,-2.03816997349384e+001,-5.47841424160418e-001

1.86606598307361e+004,-2.03817029854994e+001,-5.55488929689564e-001

1.89211529345119e+004,-2.03817063274435e+001,-5.63243187200571e-001

1.91852823865052e+004,-2.03817097633398e+001,-5.71105686758271e-001

1.94530989482457e+004,-2.03817132958293e+001,-5.79077939224212e-001

1.97246540898671e+004,-2.03817169276275e+001,-5.87161476542824e-001

1.99999999999999e+004,-2.03817206615263e+001,-5.95357852037414e-001

2.02791895958005e+004,-2.03817245003958e+001,-6.03668640709760e-001

2.05622765331213e+004,-2.03817284471871e+001,-6.12095439539457e-001

2.08493152168224e+004,-2.03817325049340e+001,-6.20639867793087e-001

2.11403608112276e+004,-2.03817366767556e+001,-6.29303567332941e-001

2.14354692507258e+004,-2.03817409658589e+001,-6.38088202933717e-001

2.17346972505211e+004,-2.03817453755407e+001,-6.46995462602119e-001

2.20381023175322e+004,-2.03817499091908e+001,-6.56027057898288e-001

2.23457427614443e+004,-2.03817545702941e+001,-6.65184724267580e-001

2.26576777059159e+004,-2.03817593624337e+001,-6.74470221370972e-001

2.29739670999406e+004,-2.03817642892929e+001,-6.83885333425401e-001

2.32946717293690e+004,-2.03817693546590e+001,-6.93431869542730e-001

2.36198532285905e+004,-2.03817745624257e+001,-7.03111664080490e-001

2.39495740923785e+004,-2.03817799165961e+001,-7.12926576989875e-001

2.42838976879009e+004,-2.03817854212855e+001,-7.22878494177567e-001

2.46228882668982e+004,-2.03817910807255e+001,-7.32969327861870e-001

2.49666109780322e+004,-2.03817968992661e+001,-7.43201016944841e-001

2.53151318794055e+004,-2.03818028813800e+001,-7.53575527379877e-001

2.56685179512580e+004,-2.03818090316652e+001,-7.64094852552062e-001

2.60268371088386e+004,-2.03818153548491e+001,-7.74761013658870e-001

2.63901582154578e+004,-2.03818218557922e+001,-7.85576060097810e-001

2.67585510957221e+004,-2.03818285394913e+001,-7.96542069859774e-001

2.71320865489533e+004,-2.03818354110839e+001,-8.07661149928394e-001

2.75108363627948e+004,-2.03818424758516e+001,-8.18935436682432e-001

2.78948733270080e+004,-2.03818497392248e+001,-8.30367096306966e-001

2.82842712474618e+004,-2.03818572067863e+001,-8.41958325207270e-001

2.86791049603164e+004,-2.03818648842759e+001,-8.53711350431241e-001

2.90794503464061e+004,-2.03818727775946e+001,-8.65628430095866e-001

2.94853843458219e+004,-2.03818808928095e+001,-8.77711853819771e-001

2.98969849726987e+004,-2.03818892361581e+001,-8.89963943162921e-001

3.03143313302078e+004,-2.03818978140531e+001,-9.02387052070162e-001

3.07375036257601e+004,-2.03819066330875e+001,-9.14983567324313e-001

3.11665831864199e+004,-2.03819157000396e+001,-9.27755909002766e-001

3.16016524745350e+004,-2.03819250218784e+001,-9.40706530939505e-001

3.20427951035848e+004,-2.03819346057685e+001,-9.53837921198070e-001

3.24900958542493e+004,-2.03819444590760e+001,-9.67152602547006e-001

3.29436406907028e+004,-2.03819545893737e+001,-9.80653132943508e-001

3.34035167771346e+004,-2.03819650044479e+001,-9.94342106021933e-001

3.38698124945009e+004,-2.03819757123031e+001,-1.00822215159250e+000

3.43426174575100e+004,-2.03819867211690e+001,-1.02229593614512e+000

3.48220225318448e+004,-2.03819980395066e+001,-1.03656616335824e+000

3.53081198516260e+004,-2.03820096760147e+001,-1.05103557461732e+000

3.58010028371187e+004,-2.03820216396364e+001,-1.06570694954123e+000

3.63007662126863e+004,-2.03820339395662e+001,-1.08058310651191e+000

3.68075060249948e+004,-2.03820465852571e+001,-1.09566690321629e+000

3.73213196614721e+004,-2.03820595864276e+001,-1.11096123719160e+000

3.78423058690237e+004,-2.03820729530695e+001,-1.12646904637983e+000

3.83705647730104e+004,-2.03820866954550e+001,-1.14219330969215e+000

3.89061978964912e+004,-2.03821008241454e+001,-1.15813704757569e+000

3.94493081797342e+004,-2.03821153499984e+001,-1.17430332259496e+000

3.99999999999998e+004,-2.03821302841772e+001,-1.19069524001426e+000

4.05583791916010e+004,-2.03821456381582e+001,-1.20731594839369e+000

4.11245530662425e+004,-2.03821614237408e+001,-1.22416864019150e+000

4.16986304336447e+004,-2.03821776530555e+001,-1.24125655237299e+000

4.22807216224550e+004,-2.03821943385738e+001,-1.25858296703072e+000

4.28709385014515e+004,-2.03822114931179e+001,-1.27615121201140e+000

4.34693945010421e+004,-2.03822291298697e+001,-1.29396466155220e+000

4.40762046350642e+004,-2.03822472623821e+001,-1.31202673692540e+000

4.46914855228886e+004,-2.03822659045882e+001,-1.33034090709228e+000

4.53153554118317e+004,-2.03822850708131e+001,-1.34891068936525e+000

4.59479341998812e+004,-2.03823047757840e+001,-1.36773965008070e+000

4.65893434587380e+004,-2.03823250346420e+001,-1.38683140527943e+000

4.72397064571810e+004,-2.03823458629536e+001,-1.40618962139712e+000

4.78991481847569e+004,-2.03823672767226e+001,-1.42581801596485e+000

4.85677953758016e+004,-2.03823892924023e+001,-1.44572035831786e+000

4.92457765337964e+004,-2.03824119269084e+001,-1.46590047031545e+000

4.99332219560642e+004,-2.03824351976317e+001,-1.48636222707051e+000

5.06302637588109e+004,-2.03824591224516e+001,-1.50710955768750e+000

5.13370359025159e+004,-2.03824837197496e+001,-1.52814644601329e+000

5.20536742176771e+004,-2.03825090084238e+001,-1.54947693139578e+000

5.27803164309155e+004,-2.03825350079028e+001,-1.57110510945432e+000

5.35171021914442e+004,-2.03825617381612e+001,-1.59303513286078e+000

5.42641730979066e+004,-2.03825892197347e+001,-1.61527121212960e+000

5.50216727255895e+004,-2.03826174737355e+001,-1.63781761642159e+000

5.57897466540159e+004,-2.03826465218690e+001,-1.66067867435526e+000

5.65685424949235e+004,-2.03826763864502e+001,-1.68385877483267e+000

5.73582099206328e+004,-2.03827070904208e+001,-1.70736236787369e+000

5.81589006928121e+004,-2.03827386573668e+001,-1.73119396546355e+000

5.89707686916437e+004,-2.03827711115365e+001,-1.75535814241084e+000

5.97939699453972e+004,-2.03828044778594e+001,-1.77985953721813e+000

6.06286626604156e+004,-2.03828387819649e+001,-1.80470285296318e+000

6.14750072515201e+004,-2.03828740502020e+001,-1.82989285819428e+000

6.23331663728396e+004,-2.03829103096599e+001,-1.85543438783485e+000

6.32033049490698e+004,-2.03829475881880e+001,-1.88133234410314e+000

6.40855902071694e+004,-2.03829859144182e+001,-1.90759169744229e+000

6.49801917084985e+004,-2.03830253177859e+001,-1.93421748746527e+000

6.58872813814055e+004,-2.03830658285531e+001,-1.96121482390887e+000

6.68070335542691e+004,-2.03831074778313e+001,-1.98858888760615e+000

6.77396249890018e+004,-2.03831502976056e+001,-2.01634493146674e+000

6.86852349150199e+004,-2.03831943207588e+001,-2.04448828147310e+000

6.96440450636895e+004,-2.03832395810971e+001,-2.07302433769011e+000

7.06162397032520e+004,-2.03832861133754e+001,-2.10195857528798e+000

7.16020056742374e+004,-2.03833339533242e+001,-2.13129654557823e+000

7.26015324253724e+004,-2.03833831376768e+001,-2.16104387706567e+000

7.36150120499896e+004,-2.03834337041979e+001,-2.19120627651150e+000

7.46426393229441e+004,-2.03834856917115e+001,-2.22178953001435e+000

7.56846117380472e+004,-2.03835391401317e+001,-2.25279950410167e+000

7.67411295460207e+004,-2.03835940904924e+001,-2.28424214684049e+000

7.78123957929823e+004,-2.03836505849790e+001,-2.31612348895837e+000

7.88986163594682e+004,-2.03837086669607e+001,-2.34844964498363e+000

7.99999999999995e+004,-2.03837683810237e+001,-2.38122681439644e+000

8.11167583832018e+004,-2.03838297730048e+001,-2.41446128280042e+000

8.22491061324848e+004,-2.03838928900270e+001,-2.44815942310471e+000

8.33972608672892e+004,-2.03839577805353e+001,-2.48232769672552e+000

8.45614432449099e+004,-2.03840244943336e+001,-2.51697265480166e+000

8.57418770029029e+004,-2.03840930826229e+001,-2.55210093942724e+000

8.69387890020841e+004,-2.03841635980401e+001,-2.58771928490060e+000

8.81524092701283e+004,-2.03842360946987e+001,-2.62383451898894e+000

8.93829710457770e+004,-2.03843106282295e+001,-2.66045356421052e+000

9.06307108236633e+004,-2.03843872558235e+001,-2.69758343913391e+000

9.18958683997622e+004,-2.03844660362755e+001,-2.73523125969375e+000

9.31786869174758e+004,-2.03845470300285e+001,-2.77340424052376e+000

9.44794129143618e+004,-2.03846302992205e+001,-2.81210969630850e+000

9.57982963695136e+004,-2.03847159077312e+001,-2.85135504315100e+000

9.71355907516031e+004,-2.03848039212312e+001,-2.89114779996024e+000

9.84915530675926e+004,-2.03848944072317e+001,-2.93149558985474e+000

9.98664439121282e+004,-2.03849874351362e+001,-2.97240614158641e+000

1.01260527517622e+005,-2.03850830762931e+001,-3.01388729098194e+000

1.02674071805032e+005,-2.03851814040503e+001,-3.05594698240224e+000

1.04107348435354e+005,-2.03852824938110e+001,-3.09859327022217e+000

1.05560632861831e+005,-2.03853864230907e+001,-3.14183432032915e+000

1.07034204382888e+005,-2.03854932715769e+001,-3.18567841163998e+000

1.08528346195813e+005,-2.03856031211889e+001,-3.23013393763822e+000

1.10043345451179e+005,-2.03857160561407e+001,-3.27520940793154e+000

1.11579493308032e+005,-2.03858321630049e+001,-3.32091344982788e+000

1.13137084989847e+005,-2.03859515307782e+001,-3.36725480993267e+000

1.14716419841265e+005,-2.03860742509493e+001,-3.41424235576612e+000

1.16317801385624e+005,-2.03862004175684e+001,-3.46188507740102e+000

1.17941537383287e+005,-2.03863301273184e+001,-3.51019208912152e+000

1.19587939890794e+005,-2.03864634795883e+001,-3.55917263110249e+000

1.21257325320831e+005,-2.03866005765490e+001,-3.60883607111013e+000

1.22950014503040e+005,-2.03867415232300e+001,-3.65919190622457e+000

1.24666332745679e+005,-2.03868864275998e+001,-3.71024976458270e+000

1.26406609898139e+005,-2.03870354006474e+001,-3.76201940714425e+000

1.28171180414339e+005,-2.03871885564662e+001,-3.81451072947828e+000

1.29960383416997e+005,-2.03873460123407e+001,-3.86773376357338e+000

1.31774562762811e+005,-2.03875078888349e+001,-3.92169867966922e+000

1.33614067108538e+005,-2.03876743098841e+001,-3.97641578811041e+000

1.35479249978003e+005,-2.03878454028878e+001,-4.03189554122395e+000

1.37370469830040e+005,-2.03880212988068e+001,-4.08814853521896e+000

1.39288090127379e+005,-2.03882021322614e+001,-4.14518551210919e+000

1.41232479406504e+005,-2.03883880416337e+001,-4.20301736165967e+000

1.43204011348474e+005,-2.03885791691716e+001,-4.26165512335598e+000

1.45203064850745e+005,-2.03887756610962e+001,-4.32110998839770e+000

1.47230024099979e+005,-2.03889776677121e+001,-4.38139330171511e+000

1.49285278645888e+005,-2.03891853435205e+001,-4.44251656400993e+000

1.51369223476094e+005,-2.03893988473357e+001,-4.50449143382010e+000

1.53482259092041e+005,-2.03896183424047e+001,-4.56732972960932e+000

1.55624791585964e+005,-2.03898439965295e+001,-4.63104343188018e+000

1.57797232718936e+005,-2.03900759821940e+001,-4.69564468531203e+000

1.59999999999999e+005,-2.03903144766928e+001,-4.76114580092438e+000

1.62233516766403e+005,-2.03905596622647e+001,-4.82755925826286e+000

1.64498212264969e+005,-2.03908117262294e+001,-4.89489770761286e+000

1.66794521734578e+005,-2.03910708611278e+001,-4.96317397223629e+000

1.69122886489819e+005,-2.03913372648664e+001,-5.03240105063349e+000

1.71483754005805e+005,-2.03916111408651e+001,-5.10259211883179e+000

1.73877578004168e+005,-2.03918926982100e+001,-5.17376053269765e+000

1.76304818540256e+005,-2.03921821518087e+001,-5.24591983027521e+000

1.78765942091554e+005,-2.03924797225521e+001,-5.31908373414948e+000

1.81261421647326e+005,-2.03927856374778e+001,-5.39326615383656e+000

1.83791736799524e+005,-2.03931001299406e+001,-5.46848118819723e+000

1.86357373834951e+005,-2.03934234397854e+001,-5.54474312787789e+000

1.88958825828723e+005,-2.03937558135265e+001,-5.62206645777635e+000

1.91596592739027e+005,-2.03940975045301e+001,-5.70046585953300e+000

1.94271181503206e+005,-2.03944487732034e+001,-5.77995621404816e+000

1.96983106135185e+005,-2.03948098871870e+001,-5.86055260402460e+000

1.99732887824256e+005,-2.03951811215539e+001,-5.94227031653597e+000

2.02521055035243e+005,-2.03955627590131e+001,-6.02512484561993e+000

2.05348143610063e+005,-2.03959550901186e+001,-6.10913189489767e+000

2.08214696870707e+005,-2.03963584134844e+001,-6.19430738021833e+000

2.11121265723661e+005,-2.03967730360046e+001,-6.28066743232790e+000

2.14068408765776e+005,-2.03971992730798e+001,-6.36822839956518e+000

2.17056692391625e+005,-2.03976374488500e+001,-6.45700685058011e+000

2.20086690902357e+005,-2.03980878964319e+001,-6.54701957707882e+000

2.23158986616063e+005,-2.03985509581645e+001,-6.63828359659289e+000

2.26274169979693e+005,-2.03990269858599e+001,-6.73081615527178e+000

2.29432839682530e+005,-2.03995163410614e+001,-6.82463473070143e+000

2.32635602771247e+005,-2.04000193953075e+001,-6.91975703474446e+000

2.35883074766574e+005,-2.04005365304038e+001,-7.01620101640595e+000

2.39175879781588e+005,-2.04010681387018e+001,-7.11398486472074e+000

2.42514650641661e+005,-2.04016146233839e+001,-7.21312701166522e+000

2.45900029006080e+005,-2.04021763987576e+001,-7.31364613508993e+000

2.49332665491357e+005,-2.04027538905558e+001,-7.41556116167570e+000

2.52813219796278e+005,-2.04033475362457e+001,-7.51889126991052e+000

2.56342360828676e+005,-2.04039577853454e+001,-7.62365589308774e+000

2.59920766833993e+005,-2.04045850997489e+001,-7.72987472232496e+000

2.63549125525621e+005,-2.04052299540590e+001,-7.83756770960292e+000

2.67228134217075e+005,-2.04058928359293e+001,-7.94675507082379e+000

2.70958499956006e+005,-2.04065742464143e+001,-8.05745728888811e+000

2.74740939660078e+005,-2.04072747003291e+001,-8.16969511678998e+000

2.78576180254757e+005,-2.04079947266178e+001,-8.28348958072967e+000

2.82464958813007e+005,-2.04087348687314e+001,-8.39886198324198e+000

2.86408022696948e+005,-2.04094956850150e+001,-8.51583390634208e+000

2.90406129701488e+005,-2.04102777491050e+001,-8.63442721468385e+000

2.94460048199957e+005,-2.04110816503366e+001,-8.75466405873378e+000

2.98570557291775e+005,-2.04119079941605e+001,-8.87656687795755e+000

3.02738446952187e+005,-2.04127574025708e+001,-9.00015840401757e+000

3.06964518184081e+005,-2.04136305145434e+001,-9.12546166398160e+000

3.11249583171928e+005,-2.04145279864850e+001,-9.25249998354179e+000

3.15594465437872e+005,-2.04154504926932e+001,-9.38129699024040e+000

3.19999999999997e+005,-2.04163987258278e+001,-9.51187661670357e+000

3.24467033532806e+005,-2.04173733973944e+001,-9.64426310388022e+000

3.28996424529938e+005,-2.04183752382381e+001,-9.77848100428522e+000

3.33589043469155e+005,-2.04194049990509e+001,-9.91455518524515e+000

3.38245772979638e+005,-2.04204634508901e+001,-1.00525108321442e+001

3.42967508011610e+005,-2.04215513857097e+001,-1.01923734516708e+001

3.47755156008335e+005,-2.04226696169043e+001,-1.03341688750604e+001

3.52609637080511e+005,-2.04238189798657e+001,-1.04779232613343e+001

3.57531884183106e+005,-2.04250003325531e+001,-1.06236631005324e+001

3.62522843294651e+005,-2.04262145560758e+001,-1.07714152169368e+001

3.67583473599047e+005,-2.04274625552908e+001,-1.09212067722855e+001

3.72714747669902e+005,-2.04287452594125e+001,-1.10730652689733e+001

3.77917651657445e+005,-2.04300636226381e+001,-1.12270185532364e+001

3.83193185478053e+005,-2.04314186247861e+001,-1.13830948183213e+001

3.88542363006410e+005,-2.04328112719498e+001,-1.15413226076314e+001

3.93966212270369e+005,-2.04342425971654e+001,-1.17017308178527e+001

3.99465775648511e+005,-2.04357136610947e+001,-1.18643487020520e+001

4.05042110070485e+005,-2.04372255527239e+001,-1.20292058727478e+001

4.10696287220124e+005,-2.04387793900766e+001,-1.21963323049488e+001

4.16429393741414e+005,-2.04403763209427e+001,-1.23657583391583e+001

4.22242531447321e+005,-2.04420175236237e+001,-1.25375146843397e+001

4.28136817531551e+005,-2.04437042076927e+001,-1.27116324208411e+001

4.34113384783250e+005,-2.04454376147720e+001,-1.28881430032745e+001

4.40173381804713e+005,-2.04472190193255e+001,-1.30670782633459e+001

4.46317973232124e+005,-2.04490497294685e+001,-1.32484704126338e+001

4.52548339959385e+005,-2.04509310877940e+001,-1.34323520453093e+001

4.58865679365059e+005,-2.04528644722155e+001,-1.36187561407973e+001

4.65271205542494e+005,-2.04548512968265e+001,-1.38077160663710e+001

4.71766149533147e+005,-2.04568930127780e+001,-1.39992655796774e+001

4.78351759563174e+005,-2.04589911091715e+001,-1.41934388311889e+001

4.85029301283321e+005,-2.04611471139708e+001,-1.43902703665753e+001

4.91800058012158e+005,-2.04633625949301e+001,-1.45897951289921e+001

4.98665330982714e+005,-2.04656391605397e+001,-1.47920484612794e+001

5.05626439592555e+005,-2.04679784609890e+001,-1.49970661080668e+001

5.12684721657352e+005,-2.04703821891470e+001,-1.52048842177782e+001

5.19841533667984e+005,-2.04728520815602e+001,-1.54155393445304e+001

5.27098251051240e+005,-2.04753899194674e+001,-1.56290684499217e+001

5.34456268434150e+005,-2.04779975298324e+001,-1.58455089047013e+001

5.41916999912011e+005,-2.04806767863933e+001,-1.60648984903167e+001

