Freq.,VOut,OutRef

1.00000000000000e+004,-2.19053949543962e+001,-3.73868577278329e-001

1.01395947979003e+004,-2.19053966198614e+001,-3.79087561250553e-001

1.02811382665607e+004,-2.19053983321485e+001,-3.84379398382522e-001

1.04246576084112e+004,-2.19054000925740e+001,-3.89745105617957e-001

1.05701804056138e+004,-2.19054019024910e+001,-3.95185714094783e-001

1.07177346253629e+004,-2.19054037632909e+001,-4.00702269343088e-001

1.08673486252606e+004,-2.19054056764043e+001,-4.06295831484613e-001

1.10190511587661e+004,-2.19054076433017e+001,-4.11967475438888e-001

1.11728713807222e+004,-2.19054096654952e+001,-4.17718291127605e-001

1.13288388529580e+004,-2.19054117445394e+001,-4.23549383684667e-001

1.14869835499703e+004,-2.19054138820324e+001,-4.29461873668472e-001

1.16473358646846e+004,-2.19054160796175e+001,-4.35456897277460e-001

1.18099266142953e+004,-2.19054183389841e+001,-4.41535606567111e-001

1.19747870461893e+004,-2.19054206618688e+001,-4.47699169673067e-001

1.21419488439505e+004,-2.19054230500575e+001,-4.53948771033811e-001

1.23114441334492e+004,-2.19054255053860e+001,-4.60285611618376e-001

1.24833054890161e+004,-2.19054280297418e+001,-4.66710909158181e-001

1.26575659397028e+004,-2.19054306250654e+001,-4.73225898378993e-001

1.28342589756290e+004,-2.19054332933519e+001,-4.79831831240540e-001

1.30134185544193e+004,-2.19054360366525e+001,-4.86529977173529e-001

1.31950791077289e+004,-2.19054388570760e+001,-4.93321623326871e-001

1.33792755478611e+004,-2.19054417567905e+001,-5.00208074811856e-001

1.35660432744767e+004,-2.19054447380252e+001,-5.07190654955230e-001

1.37554181813974e+004,-2.19054478030718e+001,-5.14270705551492e-001

1.39474366635040e+004,-2.19054509542863e+001,-5.21449587121758e-001

1.41421356237309e+004,-2.19054541940912e+001,-5.28728679173678e-001

1.43395524801583e+004,-2.19054575249770e+001,-5.36109380467336e-001

1.45397251732031e+004,-2.19054609495041e+001,-5.43593109284004e-001

1.47426921729110e+004,-2.19054644703051e+001,-5.51181303696079e-001

1.49484924863494e+004,-2.19054680900864e+001,-5.58875421846962e-001

1.51571656651040e+004,-2.19054718116306e+001,-5.66676942227402e-001

1.53687518128801e+004,-2.19054756377983e+001,-5.74587363962046e-001

1.55832915932100e+004,-2.19054795715310e+001,-5.82608207094476e-001

1.58008262372675e+004,-2.19054836158523e+001,-5.90741012881457e-001

1.60213975517924e+004,-2.19054877738711e+001,-5.98987344087552e-001

1.62450479271247e+004,-2.19054920487837e+001,-6.07348785285616e-001

1.64718203453514e+004,-2.19054964438763e+001,-6.15826943159236e-001

1.67017583885674e+004,-2.19055009625271e+001,-6.24423446814023e-001

1.69349062472505e+004,-2.19055056082098e+001,-6.33139948087105e-001

1.71713087287550e+004,-2.19055103844955e+001,-6.41978121866512e-001

1.74110112659224e+004,-2.19055152950554e+001,-6.50939666411317e-001

1.76540599258131e+004,-2.19055203436644e+001,-6.60026303677755e-001

1.79005014185594e+004,-2.19055255342033e+001,-6.69239779649445e-001

1.81503831063432e+004,-2.19055308706617e+001,-6.78581864673773e-001

1.84037530124975e+004,-2.19055363571418e+001,-6.88054353799065e-001

1.86606598307361e+004,-2.19055419978609e+001,-6.97659067120719e-001

1.89211529345119e+004,-2.19055477971547e+001,-7.07397850130579e-001

1.91852823865052e+004,-2.19055537594810e+001,-7.17272574068773e-001

1.94530989482457e+004,-2.19055598894229e+001,-7.27285136285527e-001

1.97246540898671e+004,-2.19055661916922e+001,-7.37437460603076e-001

1.99999999999999e+004,-2.19055726711332e+001,-7.47731497685579e-001

2.02791895958005e+004,-2.19055793327263e+001,-7.58169225412698e-001

2.05622765331213e+004,-2.19055861815919e+001,-7.68752649259390e-001

2.08493152168224e+004,-2.19055932229944e+001,-7.79483802679752e-001

2.11403608112276e+004,-2.19056004623462e+001,-7.90364747497814e-001

2.14354692507258e+004,-2.19056079052117e+001,-8.01397574302288e-001

2.17346972505211e+004,-2.19056155573117e+001,-8.12584402847113e-001

2.20381023175322e+004,-2.19056234245279e+001,-8.23927382458806e-001

2.23457427614443e+004,-2.19056315129073e+001,-8.35428692448096e-001

2.26576777059159e+004,-2.19056398286668e+001,-8.47090542526996e-001

2.29739670999406e+004,-2.19056483781980e+001,-8.58915173232760e-001

2.32946717293690e+004,-2.19056571680722e+001,-8.70904856358106e-001

2.36198532285905e+004,-2.19056662050455e+001,-8.83061895384536e-001

2.39495740923785e+004,-2.19056754960638e+001,-8.95388625926044e-001

2.42838976879009e+004,-2.19056850482679e+001,-9.07887416176096e-001

2.46228882668982e+004,-2.19056948689999e+001,-9.20560667359243e-001

2.49666109780322e+004,-2.19057049658078e+001,-9.33410814194368e-001

2.53151318794055e+004,-2.19057153464520e+001,-9.46440325358339e-001

2.56685179512580e+004,-2.19057260189107e+001,-9.59651703960709e-001

2.60268371088386e+004,-2.19057369913866e+001,-9.73047488022331e-001

2.63901582154578e+004,-2.19057482723127e+001,-9.86630250961315e-001

2.67585510957221e+004,-2.19057598703593e+001,-1.00040260208644e+000

2.71320865489533e+004,-2.19057717944400e+001,-1.01436718709521e+000

2.75108363627948e+004,-2.19057840537193e+001,-1.02852668858243e+000

2.78948733270080e+004,-2.19057966576188e+001,-1.04288382655235e+000

2.82842712474618e+004,-2.19058096158253e+001,-1.05744135894018e+000

2.86791049603164e+004,-2.19058229382974e+001,-1.07220208213821e+000

2.90794503464061e+004,-2.19058366352740e+001,-1.08716883153336e+000

2.94853843458219e+004,-2.19058507172814e+001,-1.10234448204745e+000

2.98969849726987e+004,-2.19058651951418e+001,-1.11773194868874e+000

3.03143313302078e+004,-2.19058800799815e+001,-1.13333418710858e+000

3.07375036257601e+004,-2.19058953832394e+001,-1.14915419416788e+000

3.11665831864199e+004,-2.19059111166761e+001,-1.16519500850803e+000

3.16016524745350e+004,-2.19059272923823e+001,-1.18145971113518e+000

3.20427951035848e+004,-2.19059439227887e+001,-1.19795142600555e+000

3.24900958542493e+004,-2.19059610206751e+001,-1.21467332062551e+000

3.29436406907028e+004,-2.19059785991806e+001,-1.23162860665602e+000

3.34035167771346e+004,-2.19059966718132e+001,-1.24882054052574e+000

3.38698124945009e+004,-2.19060152524608e+001,-1.26625242405372e+000

3.43426174575100e+004,-2.19060343554012e+001,-1.28392760508049e+000

3.48220225318448e+004,-2.19060539953135e+001,-1.30184947810685e+000

3.53081198516260e+004,-2.19060741872891e+001,-1.32002148494283e+000

3.58010028371187e+004,-2.19060949468437e+001,-1.33844711536395e+000

3.63007662126863e+004,-2.19061162899287e+001,-1.35712990777812e+000

3.68075060249948e+004,-2.19061382329434e+001,-1.37607344990116e+000

3.73213196614721e+004,-2.19061607927483e+001,-1.39528137944018e+000

3.78423058690237e+004,-2.19061839866773e+001,-1.41475738478884e+000

3.83705647730104e+004,-2.19062078325514e+001,-1.43450520573092e+000

3.89061978964912e+004,-2.19062323486919e+001,-1.45452863415254e+000

3.94493081797342e+004,-2.19062575539352e+001,-1.47483151476596e+000

3.99999999999998e+004,-2.19062834676467e+001,-1.49541774584197e+000

4.05583791916010e+004,-2.19063101097356e+001,-1.51629127995319e+000

4.11245530662425e+004,-2.19063375006705e+001,-1.53745612472714e+000

4.16986304336447e+004,-2.19063656614949e+001,-1.55891634360986e+000

4.22807216224550e+004,-2.19063946138435e+001,-1.58067605663824e+000

4.28709385014515e+004,-2.19064243799584e+001,-1.60273944122692e+000

4.34693945010421e+004,-2.19064549827068e+001,-1.62511073296116e+000

4.40762046350642e+004,-2.19064864455977e+001,-1.64779422640471e+000

4.46914855228886e+004,-2.19065187928007e+001,-1.67079427591451e+000

4.53153554118317e+004,-2.19065520491641e+001,-1.69411529647143e+000

4.59479341998812e+004,-2.19065862402339e+001,-1.71776176451768e+000

4.65893434587380e+004,-2.19066213922737e+001,-1.74173821880869e+000

4.72397064571810e+004,-2.19066575322845e+001,-1.76604926127437e+000

4.78991481847569e+004,-2.19066946880256e+001,-1.79069955789468e+000

4.85677953758016e+004,-2.19067328880358e+001,-1.81569383958475e+000

4.92457765337964e+004,-2.19067721616551e+001,-1.84103690309284e+000

4.99332219560642e+004,-2.19068125390475e+001,-1.86673361191065e+000

5.06302637588109e+004,-2.19068540512238e+001,-1.89278889719670e+000

5.13370359025159e+004,-2.19068967300655e+001,-1.91920775870935e+000

5.20536742176771e+004,-2.19069406083492e+001,-1.94599526575657e+000

5.27803164309155e+004,-2.19069857197717e+001,-1.97315655815489e+000

5.35171021914442e+004,-2.19070320989756e+001,-2.00069684720388e+000

5.42641730979066e+004,-2.19070797815764e+001,-2.02862141667186e+000

5.50216727255895e+004,-2.19071288041888e+001,-2.05693562379616e+000

5.57897466540159e+004,-2.19071792044556e+001,-2.08564490029708e+000

5.65685424949235e+004,-2.19072310210761e+001,-2.11475475340298e+000

5.73582099206328e+004,-2.19072842938358e+001,-2.14427076689294e+000

5.81589006928121e+004,-2.19073390636367e+001,-2.17419860215040e+000

5.89707686916437e+004,-2.19073953725287e+001,-2.20454399923244e+000

5.97939699453972e+004,-2.19074532637420e+001,-2.23531277795196e+000

6.06286626604156e+004,-2.19075127817195e+001,-2.26651083897721e+000

6.14750072515201e+004,-2.19075739721513e+001,-2.29814416494231e+000

6.23331663728396e+004,-2.19076368820098e+001,-2.33021882157431e+000

6.32033049490698e+004,-2.19077015595848e+001,-2.36274095883665e+000

6.40855902071694e+004,-2.19077680545212e+001,-2.39571681208547e+000

6.49801917084985e+004,-2.19078364178566e+001,-2.42915270324247e+000

6.58872813814055e+004,-2.19079067020603e+001,-2.46305504198273e+000

6.68070335542691e+004,-2.19079789610733e+001,-2.49743032693994e+000

6.77396249890018e+004,-2.19080532503495e+001,-2.53228514692421e+000

6.86852349150199e+004,-2.19081296268982e+001,-2.56762618215987e+000

6.96440450636895e+004,-2.19082081493276e+001,-2.60346020553713e+000

7.06162397032520e+004,-2.19082888778893e+001,-2.63979408387993e+000

7.16020056742374e+004,-2.19083718745244e+001,-2.67663477923285e+000

7.26015324253724e+004,-2.19084572029107e+001,-2.71398935016203e+000

7.36150120499896e+004,-2.19085449285115e+001,-2.75186495307478e+000

7.46426393229441e+004,-2.19086351186253e+001,-2.79026884355648e+000

7.56846117380472e+004,-2.19087278424368e+001,-2.82920837772405e+000

7.67411295460207e+004,-2.19088231710703e+001,-2.86869101359791e+000

7.78123957929823e+004,-2.19089211776434e+001,-2.90872431249025e+000

7.88986163594682e+004,-2.19090219373229e+001,-2.94931594041347e+000

7.99999999999995e+004,-2.19091255273819e+001,-2.99047366950514e+000

8.11167583832018e+004,-2.19092320272586e+001,-3.03220537947190e+000

8.22491061324848e+004,-2.19093415186172e+001,-3.07451905905197e+000

8.33972608672892e+004,-2.19094540854092e+001,-3.11742280749578e+000

8.45614432449099e+004,-2.19095698139381e+001,-3.16092483606728e+000

8.57418770029029e+004,-2.19096887929248e+001,-3.20503346956161e+000

8.69387890020841e+004,-2.19098111135744e+001,-3.24975714784536e+000

8.81524092701283e+004,-2.19099368696465e+001,-3.29510442741352e+000

8.93829710457770e+004,-2.19100661575259e+001,-3.34108398296737e+000

9.06307108236633e+004,-2.19101990762956e+001,-3.38770460901337e+000

9.18958683997622e+004,-2.19103357278126e+001,-3.43497522147954e+000

9.31786869174758e+004,-2.19104762167847e+001,-3.48290485935445e+000

9.44794129143618e+004,-2.19106206508501e+001,-3.53150268634562e+000

9.57982963695136e+004,-2.19107691406592e+001,-3.58077799255865e+000

9.71355907516031e+004,-2.19109217999582e+001,-3.63074019619803e+000

9.84915530675926e+004,-2.19110787456756e+001,-3.68139884528676e+000

9.98664439121282e+004,-2.19112400980103e+001,-3.73276361941016e+000

1.01260527517622e+005,-2.19114059805231e+001,-3.78484433147866e+000

1.02674071805032e+005,-2.19115765202300e+001,-3.83765092951353e+000

1.04107348435354e+005,-2.19117518476982e+001,-3.89119349845361e+000

1.05560632861831e+005,-2.19119320971450e+001,-3.94548226198412e+000

1.07034204382888e+005,-2.19121174065393e+001,-4.00052758438766e+000

1.08528346195813e+005,-2.19123079177052e+001,-4.05633997241742e+000

1.10043345451179e+005,-2.19125037764302e+001,-4.11293007719264e+000

1.11579493308032e+005,-2.19127051325741e+001,-4.17030869611658e+000

1.13137084989847e+005,-2.19129121401827e+001,-4.22848677481755e+000

1.14716419841265e+005,-2.19131249576037e+001,-4.28747540911201e+000

1.16317801385624e+005,-2.19133437476061e+001,-4.34728584699174e+000

1.17941537383287e+005,-2.19135686775027e+001,-4.40792949063284e+000

1.19587939890794e+005,-2.19137999192760e+001,-4.46941789842916e+000

1.21257325320831e+005,-2.19140376497076e+001,-4.53176278704859e+000

1.22950014503040e+005,-2.19142820505109e+001,-4.59497603351225e+000

1.24666332745679e+005,-2.19145333084680e+001,-4.65906967729862e+000

1.26406609898139e+005,-2.19147916155696e+001,-4.72405592246945e+000

1.28171180414339e+005,-2.19150571691589e+001,-4.78994713982244e+000

1.29960383416997e+005,-2.19153301720798e+001,-4.85675586906352e+000

1.31774562762811e+005,-2.19156108328289e+001,-4.92449482100797e+000

1.33614067108538e+005,-2.19158993657113e+001,-4.99317687980141e+000

1.35479249978003e+005,-2.19161959910010e+001,-5.06281510516718e+000

1.37370469830040e+005,-2.19165009351058e+001,-5.13342273467701e+000

1.39288090127379e+005,-2.19168144307358e+001,-5.20501318604682e+000

1.41232479406504e+005,-2.19171367170777e+001,-5.27760005945505e+000

1.43204011348474e+005,-2.19174680399727e+001,-5.35119713988673e+000

1.45203064850745e+005,-2.19178086520998e+001,-5.42581839950079e+000

1.47230024099979e+005,-2.19181588131637e+001,-5.50147800002221e+000

1.49285278645888e+005,-2.19185187900882e+001,-5.57819029515818e+000

1.51369223476094e+005,-2.19188888572142e+001,-5.65596983303813e+000

1.53482259092041e+005,-2.19192692965033e+001,-5.73483135867746e+000

1.55624791585964e+005,-2.19196603977472e+001,-5.81478981646702e+000

1.57797232718936e+005,-2.19200624587818e+001,-5.89586035268399e+000

1.59999999999999e+005,-2.19204757857079e+001,-5.97805831802854e+000

1.62233516766403e+005,-2.19209006931175e+001,-6.06139927018289e+000

1.64498212264969e+005,-2.19213375043257e+001,-6.14589897639528e+000

1.66794521734578e+005,-2.19217865516092e+001,-6.23157341608523e+000

1.69122886489819e+005,-2.19222481764512e+001,-6.31843878347415e+000

1.71483754005805e+005,-2.19227227297924e+001,-6.40651149023704e+000

1.73877578004168e+005,-2.19232105722889e+001,-6.49580816817811e+000

1.76304818540256e+005,-2.19237120745768e+001,-6.58634567192825e+000

1.78765942091554e+005,-2.19242276175435e+001,-6.67814108166464e+000

1.81261421647326e+005,-2.19247575926071e+001,-6.77121170585240e+000

1.83791736799524e+005,-2.19253024020014e+001,-6.86557508400724e+000

1.86357373834951e+005,-2.19258624590703e+001,-6.96124898947962e+000

1.88958825828723e+005,-2.19264381885683e+001,-7.05825143225948e+000

1.91596592739027e+005,-2.19270300269699e+001,-7.15660066180069e+000

1.94271181503206e+005,-2.19276384227862e+001,-7.25631516986583e+000

1.96983106135185e+005,-2.19282638368904e+001,-7.35741369339006e+000

1.99732887824256e+005,-2.19289067428512e+001,-7.45991521736279e+000

2.02521055035243e+005,-2.19295676272752e+001,-7.56383897772889e+000

2.05348143610063e+005,-2.19302469901576e+001,-7.66920446430580e+000

2.08214696870707e+005,-2.19309453452424e+001,-7.77603142371841e+000

2.11121265723661e+005,-2.19316632203916e+001,-7.88433986234909e+000

2.14068408765776e+005,-2.19324011579639e+001,-7.99415004930391e+000

2.17056692391625e+005,-2.19331597152025e+001,-8.10548251939197e+000

2.20086690902357e+005,-2.19339394646336e+001,-8.21835807611971e+000

2.23158986616063e+005,-2.19347409944744e+001,-8.33279779469620e+000

2.26274169979693e+005,-2.19355649090512e+001,-8.44882302505163e+000

2.29432839682530e+005,-2.19364118292288e+001,-8.56645539486526e+000

2.32635602771247e+005,-2.19372823928497e+001,-8.68571681260299e+000

2.35883074766574e+005,-2.19381772551847e+001,-8.80662947056397e+000

2.39175879781588e+005,-2.19390970893947e+001,-8.92921584793291e+000

2.42514650641661e+005,-2.19400425870039e+001,-9.05349871383992e+000

2.45900029006080e+005,-2.19410144583844e+001,-9.17950113042312e+000

2.49332665491357e+005,-2.19420134332529e+001,-9.30724645589562e+000

2.52813219796278e+005,-2.19430402611798e+001,-9.43675834761278e+000

2.56342360828676e+005,-2.19440957121098e+001,-9.56806076514039e+000

2.59920766833993e+005,-2.19451805768959e+001,-9.70117797332077e+000

2.63549125525621e+005,-2.19462956678462e+001,-9.83613454533462e+000

2.67228134217075e+005,-2.19474418192832e+001,-9.97295536575907e+000

2.70958499956006e+005,-2.19486198881170e+001,-1.01116656336173e+001

2.74740939660078e+005,-2.19498307544319e+001,-1.02522908654192e+001

2.78576180254757e+005,-2.19510753220868e+001,-1.03948568981904e+001

2.82464958813007e+005,-2.19523545193295e+001,-1.05393898924891e+001

2.86408022696948e+005,-2.19536692994257e+001,-1.06859163354049e+001

2.90406129701488e+005,-2.19550206413020e+001,-1.08344630435414e+001

2.94460048199957e+005,-2.19564095502046e+001,-1.09850571659761e+001

2.98570557291775e+005,-2.19578370583717e+001,-1.11377261871991e+001

3.02738446952187e+005,-2.19593042257225e+001,-1.12924979300236e+001

3.06964518184081e+005,-2.19608121405607e+001,-1.14494005584685e+001

3.11249583171928e+005,-2.19623619202945e+001,-1.16084625806089e+001

3.15594465437872e+005,-2.19639547121718e+001,-1.17697128513912e+001

3.19999999999997e+005,-2.19655916940324e+001,-1.19331805754104e+001

3.24467033532806e+005,-2.19672740750756e+001,-1.20988953096448e+001

3.28996424529938e+005,-2.19690030966455e+001,-1.22668869661467e+001

3.33589043469155e+005,-2.19707800330322e+001,-1.24371858146834e+001

3.38245772979638e+005,-2.19726061922903e+001,-1.26098224853257e+001

3.42967508011610e+005,-2.19744829170748e+001,-1.27848279709804e+001

3.47755156008335e+005,-2.19764115854942e+001,-1.29622336298616e+001

3.52609637080511e+005,-2.19783936119809e+001,-1.31420711878971e+001

3.57531884183106e+005,-2.19804304481794e+001,-1.33243727410662e+001

3.62522843294651e+005,-2.19825235838529e+001,-1.35091707576630e+001

3.67583473599047e+005,-2.19846745478066e+001,-1.36964980804815e+001

3.72714747669902e+005,-2.19868849088302e+001,-1.38863879289173e+001

3.77917651657445e+005,-2.19891562766583e+001,-1.40788739009809e+001

3.83193185478053e+005,-2.19914903029481e+001,-1.42739899752169e+001

3.88542363006410e+005,-2.19938886822774e+001,-1.44717705125245e+001

3.93966212270369e+005,-2.19963531531583e+001,-1.46722502578737e+001

3.99465775648511e+005,-2.19988854990719e+001,-1.48754643419098e+001

4.05042110070485e+005,-2.20014875495193e+001,-1.50814482824428e+001

4.10696287220124e+005,-2.20041611810920e+001,-1.52902379858137e+001

4.16429393741414e+005,-2.20069083185603e+001,-1.55018697481317e+001

4.22242531447321e+005,-2.20097309359802e+001,-1.57163802563768e+001

4.28136817531551e+005,-2.20126310578175e+001,-1.59338065893595e+001

4.34113384783250e+005,-2.20156107600908e+001,-1.61541862185316e+001

4.40173381804713e+005,-2.20186721715318e+001,-1.63775570086420e+001

4.46317973232124e+005,-2.20218174747630e+001,-1.66039572182277e+001

4.52548339959385e+005,-2.20250489074933e+001,-1.68334254999349e+001

4.58865679365059e+005,-2.20283687637296e+001,-1.70660009006611e+001

4.65271205542494e+005,-2.20317793950060e+001,-1.73017228615117e+001

4.71766149533147e+005,-2.20352832116291e+001,-1.75406312175607e+001

4.78351759563174e+005,-2.20388826839380e+001,-1.77827661974111e+001

4.85029301283321e+005,-2.20425803435817e+001,-1.80281684225418e+001

4.91800058012158e+005,-2.20463787848094e+001,-1.82768789064368e+001

4.98665330982714e+005,-2.20502806657762e+001,-1.85289390534848e+001

5.05626439592555e+005,-2.20542887098618e+001,-1.87843906576431e+001

5.12684721657352e+005,-2.20584057070024e+001,-1.90432759008531e+001

5.19841533667984e+005,-2.20626345150343e+001,-1.93056373512025e+001

5.27098251051240e+005,-2.20669780610495e+001,-1.95715179608207e+001

5.34456268434150e+005,-2.20714393427606e+001,-1.98409610635011e+001

5.41916999912011e+005,-2.20760214298756e+001,-2.01140103720390e+001

