Freq.,VOut,OutRef

1.00000000000000e+004,-2.13426535461340e+001,-1.12130378312121e-001

1.01395947979003e+004,-2.13426536913532e+001,-1.13695659361930e-001

1.02811382665607e+004,-2.13426538406551e+001,-1.15282790891394e-001

1.04246576084112e+004,-2.13426539941543e+001,-1.16892077921292e-001

1.05701804056138e+004,-2.13426541519691e+001,-1.18523829727050e-001

1.07177346253629e+004,-2.13426543142206e+001,-1.20178359906780e-001

1.08673486252606e+004,-2.13426544810335e+001,-1.21855986432323e-001

1.10190511587661e+004,-2.13426546525362e+001,-1.23557031714301e-001

1.11728713807222e+004,-2.13426548288606e+001,-1.25281822665101e-001

1.13288388529580e+004,-2.13426550101421e+001,-1.27030690760310e-001

1.14869835499703e+004,-2.13426551965199e+001,-1.28803972104524e-001

1.16473358646846e+004,-2.13426553881378e+001,-1.30602007488750e-001

1.18099266142953e+004,-2.13426555851427e+001,-1.32425142466981e-001

1.19747870461893e+004,-2.13426557876861e+001,-1.34273727414737e-001

1.21419488439505e+004,-2.13426559959238e+001,-1.36148117597524e-001

1.23114441334492e+004,-2.13426562100158e+001,-1.38048673241340e-001

1.24833054890161e+004,-2.13426564301266e+001,-1.39975759600495e-001

1.26575659397028e+004,-2.13426566564259e+001,-1.41929747026017e-001

1.28342589756290e+004,-2.13426568890870e+001,-1.43911011043306e-001

1.30134185544193e+004,-2.13426571282893e+001,-1.45919932413627e-001

1.31950791077289e+004,-2.13426573742163e+001,-1.47956897219608e-001

1.33792755478611e+004,-2.13426576270573e+001,-1.50022296929139e-001

1.35660432744767e+004,-2.13426578870067e+001,-1.52116528475408e-001

1.37554181813974e+004,-2.13426581542641e+001,-1.54239994333841e-001

1.39474366635040e+004,-2.13426584290352e+001,-1.56393102596661e-001

1.41421356237309e+004,-2.13426587115313e+001,-1.58576267052522e-001

1.43395524801583e+004,-2.13426590019692e+001,-1.60789907269541e-001

1.45397251732031e+004,-2.13426593005726e+001,-1.63034448666775e-001

1.47426921729110e+004,-2.13426596075707e+001,-1.65310322608011e-001

1.49484924863494e+004,-2.13426599231996e+001,-1.67617966474139e-001

1.51571656651040e+004,-2.13426602477021e+001,-1.69957823752579e-001

1.53687518128801e+004,-2.13426605813277e+001,-1.72330344121664e-001

1.55832915932100e+004,-2.13426609243327e+001,-1.74735983538095e-001

1.58008262372675e+004,-2.13426612769808e+001,-1.77175204321365e-001

1.60213975517924e+004,-2.13426616395432e+001,-1.79648475245047e-001

1.62450479271247e+004,-2.13426620122987e+001,-1.82156271627128e-001

1.64718203453514e+004,-2.13426623955335e+001,-1.84699075420497e-001

1.67017583885674e+004,-2.13426627895426e+001,-1.87277375304231e-001

1.69349062472505e+004,-2.13426631946288e+001,-1.89891666780150e-001

1.71713087287550e+004,-2.13426636111034e+001,-1.92542452267331e-001

1.74110112659224e+004,-2.13426640392867e+001,-1.95230241195824e-001

1.76540599258131e+004,-2.13426644795077e+001,-1.97955550110177e-001

1.79005014185594e+004,-2.13426649321052e+001,-2.00718902761217e-001

1.81503831063432e+004,-2.13426653974267e+001,-2.03520830215291e-001

1.84037530124975e+004,-2.13426658758303e+001,-2.06361870947628e-001

1.86606598307361e+004,-2.13426663676834e+001,-2.09242570953579e-001

1.89211529345119e+004,-2.13426668733644e+001,-2.12163483848314e-001

1.91852823865052e+004,-2.13426673932620e+001,-2.15125170973439e-001

1.94530989482457e+004,-2.13426679277758e+001,-2.18128201509865e-001

1.97246540898671e+004,-2.13426684773167e+001,-2.21173152580211e-001

1.99999999999999e+004,-2.13426690423074e+001,-2.24260609364417e-001

2.02791895958005e+004,-2.13426696231819e+001,-2.27391165211695e-001

2.05622765331213e+004,-2.13426702203870e+001,-2.30565421752269e-001

2.08493152168224e+004,-2.13426708343818e+001,-2.33783989015007e-001

2.11403608112276e+004,-2.13426714656382e+001,-2.37047485543621e-001

2.14354692507258e+004,-2.13426721146415e+001,-2.40356538517750e-001

2.17346972505211e+004,-2.13426727818908e+001,-2.43711783868109e-001

2.20381023175322e+004,-2.13426734678987e+001,-2.47113866406900e-001

2.23457427614443e+004,-2.13426741731929e+001,-2.50563439942483e-001

2.26576777059159e+004,-2.13426748983156e+001,-2.54061167411563e-001

2.29739670999406e+004,-2.13426756438241e+001,-2.57607721005782e-001

2.32946717293690e+004,-2.13426764102916e+001,-2.61203782296989e-001

2.36198532285905e+004,-2.13426771983071e+001,-2.64850042373989e-001

2.39495740923785e+004,-2.13426780084768e+001,-2.68547201968237e-001

2.42838976879009e+004,-2.13426788414232e+001,-2.72295971596145e-001

2.46228882668982e+004,-2.13426796977868e+001,-2.76097071689247e-001

2.49666109780322e+004,-2.13426805782259e+001,-2.79951232737044e-001

2.53151318794055e+004,-2.13426814834173e+001,-2.83859195424583e-001

2.56685179512580e+004,-2.13426824140569e+001,-2.87821710776238e-001

2.60268371088386e+004,-2.13426833708601e+001,-2.91839540298450e-001

2.63901582154578e+004,-2.13426843545625e+001,-2.95913456128254e-001

2.67585510957221e+004,-2.13426853659203e+001,-3.00044241180253e-001

2.71320865489533e+004,-2.13426864057110e+001,-3.04232689296644e-001

2.75108363627948e+004,-2.13426874747340e+001,-3.08479605400303e-001

2.78948733270080e+004,-2.13426885738110e+001,-3.12785805650630e-001

2.82842712474618e+004,-2.13426897037870e+001,-3.17152117597258e-001

2.86791049603164e+004,-2.13426908655306e+001,-3.21579380342526e-001

2.90794503464061e+004,-2.13426920599351e+001,-3.26068444699895e-001

2.94853843458219e+004,-2.13426932879184e+001,-3.30620173360122e-001

2.98969849726987e+004,-2.13426945504246e+001,-3.35235441053936e-001

3.03143313302078e+004,-2.13426958484243e+001,-3.39915134722780e-001

3.07375036257601e+004,-2.13426971829155e+001,-3.44660153685871e-001

3.11665831864199e+004,-2.13426985549238e+001,-3.49471409818285e-001

3.16016524745350e+004,-2.13426999655042e+001,-3.54349827720298e-001

3.20427951035848e+004,-2.13427014157408e+001,-3.59296344899337e-001

3.24900958542493e+004,-2.13427029067487e+001,-3.64311911946972e-001

3.29436406907028e+004,-2.13427044396740e+001,-3.69397492724173e-001

3.34035167771346e+004,-2.13427060156950e+001,-3.74554064544852e-001

3.38698124945009e+004,-2.13427076360235e+001,-3.79782618363384e-001

3.43426174575100e+004,-2.13427093019050e+001,-3.85084158965478e-001

3.48220225318448e+004,-2.13427110146202e+001,-3.90459705162617e-001

3.53081198516260e+004,-2.13427127754856e+001,-3.95910289984516e-001

3.58010028371187e+004,-2.13427145858550e+001,-4.01436960880854e-001

3.63007662126863e+004,-2.13427164471201e+001,-4.07040779919360e-001

3.68075060249948e+004,-2.13427183607115e+001,-4.12722823993988e-001

3.73213196614721e+004,-2.13427203281005e+001,-4.18484185026900e-001

3.78423058690237e+004,-2.13427223507995e+001,-4.24325970180783e-001

3.83705647730104e+004,-2.13427244303632e+001,-4.30249302072485e-001

3.89061978964912e+004,-2.13427265683904e+001,-4.36255318985727e-001

3.94493081797342e+004,-2.13427287665246e+001,-4.42345175092530e-001

3.99999999999998e+004,-2.13427310264558e+001,-4.48520040672578e-001

4.05583791916010e+004,-2.13427333499209e+001,-4.54781102340360e-001

4.11245530662425e+004,-2.13427357387064e+001,-4.61129563270017e-001

4.16986304336447e+004,-2.13427381946483e+001,-4.67566643430295e-001

4.22807216224550e+004,-2.13427407196347e+001,-4.74093579814440e-001

4.28709385014515e+004,-2.13427433156067e+001,-4.80711626680937e-001

4.34693945010421e+004,-2.13427459845599e+001,-4.87422055793056e-001

4.40762046350642e+004,-2.13427487285458e+001,-4.94226156664310e-001

4.46914855228886e+004,-2.13427515496738e+001,-5.01125236803770e-001

4.53153554118317e+004,-2.13427544501128e+001,-5.08120621968600e-001

4.59479341998812e+004,-2.13427574320921e+001,-5.15213656419991e-001

4.65893434587380e+004,-2.13427604979042e+001,-5.22405703177528e-001

4.72397064571810e+004,-2.13427636499057e+001,-5.29698144285129e-001

4.78991481847569e+004,-2.13427668905197e+001,-5.37092381071962e-001

4.85677953758016e+004,-2.13427702222373e+001,-5.44589834426261e-001

4.92457765337964e+004,-2.13427736476197e+001,-5.52191945063734e-001

4.99332219560642e+004,-2.13427771692999e+001,-5.59900173807895e-001

5.06302637588109e+004,-2.13427807899850e+001,-5.67716001867317e-001

5.13370359025159e+004,-2.13427845124584e+001,-5.75640931121653e-001

5.20536742176771e+004,-2.13427883395813e+001,-5.83676484410567e-001

5.27803164309155e+004,-2.13427922742960e+001,-5.91824205822870e-001

5.35171021914442e+004,-2.13427963196269e+001,-6.00085660997757e-001

5.42641730979066e+004,-2.13428004786836e+001,-6.08462437420936e-001

5.50216727255895e+004,-2.13428047546632e+001,-6.16956144732198e-001

5.57897466540159e+004,-2.13428091508527e+001,-6.25568415031317e-001

5.65685424949235e+004,-2.13428136706313e+001,-6.34300903195346e-001

5.73582099206328e+004,-2.13428183174734e+001,-6.43155287192687e-001

5.81589006928121e+004,-2.13428230949508e+001,-6.52133268406550e-001

5.89707686916437e+004,-2.13428280067361e+001,-6.61236571961697e-001

5.97939699453972e+004,-2.13428330566047e+001,-6.70466947054570e-001

6.06286626604156e+004,-2.13428382484384e+001,-6.79826167289852e-001

6.14750072515201e+004,-2.13428435862280e+001,-6.89316031020033e-001

6.23331663728396e+004,-2.13428490740766e+001,-6.98938361690189e-001

6.32033049490698e+004,-2.13428547162026e+001,-7.08695008188719e-001

6.40855902071694e+004,-2.13428605169427e+001,-7.18587845202289e-001

6.49801917084985e+004,-2.13428664807558e+001,-7.28618773573768e-001

6.58872813814055e+004,-2.13428726122262e+001,-7.38789720668326e-001

6.68070335542691e+004,-2.13428789160668e+001,-7.49102640741704e-001

6.77396249890018e+004,-2.13428853971230e+001,-7.59559515317681e-001

6.86852349150199e+004,-2.13428920603766e+001,-7.70162353565456e-001

6.96440450636895e+004,-2.13428989109493e+001,-7.80913192684915e-001

7.06162397032520e+004,-2.13429059541067e+001,-7.91814098299773e-001

7.16020056742374e+004,-2.13429131952625e+001,-8.02867164851511e-001

7.26015324253724e+004,-2.13429206399825e+001,-8.14074516001439e-001

7.36150120499896e+004,-2.13429282939888e+001,-8.25438305038140e-001

7.46426393229441e+004,-2.13429361631648e+001,-8.36960715290116e-001

7.56846117380472e+004,-2.13429442535588e+001,-8.48643960544135e-001

7.67411295460207e+004,-2.13429525713892e+001,-8.60490285469961e-001

7.78123957929823e+004,-2.13429611230494e+001,-8.72501966050129e-001

7.88986163594682e+004,-2.13429699151120e+001,-8.84681310017509e-001

7.99999999999995e+004,-2.13429789543350e+001,-8.97030657294956e-001

8.11167583832018e+004,-2.13429882476658e+001,-9.09552380446061e-001

8.22491061324848e+004,-2.13429978022472e+001,-9.22248885129509e-001

8.33972608672892e+004,-2.13430076254230e+001,-9.35122610558000e-001

8.45614432449099e+004,-2.13430177247429e+001,-9.48176029967614e-001

8.57418770029029e+004,-2.13430281079693e+001,-9.61411651091556e-001

8.69387890020841e+004,-2.13430387830824e+001,-9.74832016639383e-001

8.81524092701283e+004,-2.13430497582868e+001,-9.88439704784214e-001

8.93829710457770e+004,-2.13430610420178e+001,-1.00223732965703e+000

9.06307108236633e+004,-2.13430726429474e+001,-1.01622754184714e+000

9.18958683997622e+004,-2.13430845699919e+001,-1.03041302890865e+000

9.31786869174758e+004,-2.13430968323174e+001,-1.04479651587745e+000

9.44794129143618e+004,-2.13431094393484e+001,-1.05938076578962e+000

9.57982963695136e+004,-2.13431224007737e+001,-1.07416858021273e+000

9.71355907516031e+004,-2.13431357265544e+001,-1.08916279978176e+000

9.84915530675926e+004,-2.13431494269319e+001,-1.10436630474049e+000

9.98664439121282e+004,-2.13431635124350e+001,-1.11978201549580e+000

1.01260527517622e+005,-2.13431779938886e+001,-1.13541289317459e+000

1.02674071805032e+005,-2.13431928824217e+001,-1.15126194018974e+000

1.04107348435354e+005,-2.13432081894760e+001,-1.16733220081595e+000

1.05560632861831e+005,-2.13432239268147e+001,-1.18362676177040e+000

1.07034204382888e+005,-2.13432401065317e+001,-1.20014875280411e+000

1.08528346195813e+005,-2.13432567410606e+001,-1.21690134729954e+000

1.10043345451179e+005,-2.13432738431843e+001,-1.23388776287805e+000

1.11579493308032e+005,-2.13432914260450e+001,-1.25111126201353e+000

1.13137084989847e+005,-2.13433095031540e+001,-1.26857515265719e+000

1.14716419841265e+005,-2.13433280884025e+001,-1.28628278886912e+000

1.16317801385624e+005,-2.13433471960718e+001,-1.30423757145845e+000

1.17941537383287e+005,-2.13433668408444e+001,-1.32244294863476e+000

1.19587939890794e+005,-2.13433870378155e+001,-1.34090241666351e+000

1.21257325320831e+005,-2.13434078025043e+001,-1.35961952053666e+000

1.22950014503040e+005,-2.13434291508660e+001,-1.37859785464794e+000

1.24666332745679e+005,-2.13434510993040e+001,-1.39784106347932e+000

1.26406609898139e+005,-2.13434736646827e+001,-1.41735284229566e+000

1.28171180414339e+005,-2.13434968643401e+001,-1.43713693785057e+000

1.29960383416997e+005,-2.13435207161014e+001,-1.45719714910150e+000

1.31774562762811e+005,-2.13435452382925e+001,-1.47753732793283e+000

1.33614067108538e+005,-2.13435704497540e+001,-1.49816137989196e+000

1.35479249978003e+005,-2.13435963698558e+001,-1.51907326493241e+000

1.37370469830040e+005,-2.13436230185120e+001,-1.54027699816922e+000

1.39288090127379e+005,-2.13436504161960e+001,-1.56177665064428e+000

1.41232479406504e+005,-2.13436785839562e+001,-1.58357635010104e+000

1.43204011348474e+005,-2.13437075434323e+001,-1.60568028177105e+000

1.45203064850745e+005,-2.13437373168718e+001,-1.62809268917148e+000

1.47230024099979e+005,-2.13437679271470e+001,-1.65081787491071e+000

1.49285278645888e+005,-2.13437993977725e+001,-1.67386020151050e+000

1.51369223476094e+005,-2.13438317529236e+001,-1.69722409223240e+000

1.53482259092041e+005,-2.13438650174542e+001,-1.72091403192170e+000

1.55624791585964e+005,-2.13438992169164e+001,-1.74493456785824e+000

1.57797232718936e+005,-2.13439343775798e+001,-1.76929031062194e+000

1.59999999999999e+005,-2.13439705264516e+001,-1.79398593496869e+000

1.62233516766403e+005,-2.13440076912976e+001,-1.81902618071778e+000

1.64498212264969e+005,-2.13440459006629e+001,-1.84441585365240e+000

1.66794521734578e+005,-2.13440851838945e+001,-1.87015982643178e+000

1.69122886489819e+005,-2.13441255711631e+001,-1.89626303951632e+000

1.71483754005805e+005,-2.13441670934867e+001,-1.92273050210344e+000

1.73877578004168e+005,-2.13442097827539e+001,-1.94956729307917e+000

1.76304818540256e+005,-2.13442536717489e+001,-1.97677856197937e+000

1.78765942091554e+005,-2.13442987941760e+001,-2.00436952996657e+000

1.81261421647326e+005,-2.13443451846856e+001,-2.03234549081826e+000

1.83791736799524e+005,-2.13443928789011e+001,-2.06071181192876e+000

1.86357373834951e+005,-2.13444419134457e+001,-2.08947393532599e+000

1.88958825828723e+005,-2.13444923259703e+001,-2.11863737870031e+000

1.91596592739027e+005,-2.13445441551829e+001,-2.14820773644750e+000

1.94271181503206e+005,-2.13445974408778e+001,-2.17819068072651e+000

1.96983106135185e+005,-2.13446522239660e+001,-2.20859196253107e+000

1.99732887824256e+005,-2.13447085465068e+001,-2.23941741277463e+000

2.02521055035243e+005,-2.13447664517396e+001,-2.27067294339125e+000

2.05348143610063e+005,-2.13448259841172e+001,-2.30236454845122e+000

2.08214696870707e+005,-2.13448871893396e+001,-2.33449830529043e+000

2.11121265723661e+005,-2.13449501143892e+001,-2.36708037565525e+000

2.14068408765776e+005,-2.13450148075664e+001,-2.40011700686286e+000

2.17056692391625e+005,-2.13450813185266e+001,-2.43361453297765e+000

2.20086690902357e+005,-2.13451496983185e+001,-2.46757937600163e+000

2.23158986616063e+005,-2.13452199994222e+001,-2.50201804708233e+000

2.26274169979693e+005,-2.13452922757903e+001,-2.53693714773533e+000

2.29432839682530e+005,-2.13453665828882e+001,-2.57234337108418e+000

2.32635602771247e+005,-2.13454429777375e+001,-2.60824350311503e+000

2.35883074766574e+005,-2.13455215189582e+001,-2.64464442394997e+000

2.39175879781588e+005,-2.13456022668144e+001,-2.68155310913564e+000

2.42514650641661e+005,-2.13456852832600e+001,-2.71897663094859e+000

2.45900029006080e+005,-2.13457706319858e+001,-2.75692215971870e+000

2.49332665491357e+005,-2.13458583784684e+001,-2.79539696516962e+000

2.52813219796278e+005,-2.13459485900197e+001,-2.83440841777616e+000

2.56342360828676e+005,-2.13460413358385e+001,-2.87396399013996e+000

2.59920766833993e+005,-2.13461366870631e+001,-2.91407125838358e+000

2.63549125525621e+005,-2.13462347168255e+001,-2.95473790356067e+000

2.67228134217075e+005,-2.13463355003073e+001,-2.99597171308689e+000

2.70958499956006e+005,-2.13464391147965e+001,-3.03778058218763e+000

2.74740939660078e+005,-2.13465456397467e+001,-3.08017251536516e+000

2.78576180254757e+005,-2.13466551568376e+001,-3.12315562788413e+000

2.82464958813007e+005,-2.13467677500367e+001,-3.16673814727703e+000

2.86408022696948e+005,-2.13468835056639e+001,-3.21092841486741e+000

2.90406129701488e+005,-2.13470025124561e+001,-3.25573488731490e+000

2.94460048199957e+005,-2.13471248616356e+001,-3.30116613817684e+000

2.98570557291775e+005,-2.13472506469789e+001,-3.34723085949239e+000

3.02738446952187e+005,-2.13473799648883e+001,-3.39393786338528e+000

3.06964518184081e+005,-2.13475129144644e+001,-3.44129608368783e+000

3.11249583171928e+005,-2.13476495975822e+001,-3.48931457758343e+000

3.15594465437872e+005,-2.13477901189677e+001,-3.53800252727253e+000

3.19999999999997e+005,-2.13479345862777e+001,-3.58736924165682e+000

3.24467033532806e+005,-2.13480831101814e+001,-3.63742415804542e+000

3.28996424529938e+005,-2.13482358044442e+001,-3.68817684388349e+000

3.33589043469155e+005,-2.13483927860136e+001,-3.73963699849905e+000

3.38245772979638e+005,-2.13485541751084e+001,-3.79181445487567e+000

3.42967508011610e+005,-2.13487200953092e+001,-3.84471918144240e+000

3.47755156008335e+005,-2.13488906736520e+001,-3.89836128388891e+000

3.52609637080511e+005,-2.13490660407243e+001,-3.95275100700179e+000

3.57531884183106e+005,-2.13492463307640e+001,-4.00789873652152e+000

3.62522843294651e+005,-2.13494316817605e+001,-4.06381500102515e+000

3.67583473599047e+005,-2.13496222355591e+001,-4.12051047382843e+000

3.72714747669902e+005,-2.13498181379680e+001,-4.17799597491172e+000

3.77917651657445e+005,-2.13500195388685e+001,-4.23628247287002e+000

3.83193185478053e+005,-2.13502265923275e+001,-4.29538108688456e+000

3.88542363006410e+005,-2.13504394567142e+001,-4.35530308871841e+000

3.93966212270369e+005,-2.13506582948190e+001,-4.41605990473468e+000

3.99465775648511e+005,-2.13508832739763e+001,-4.47766311793937e+000

4.05042110070485e+005,-2.13511145661900e+001,-4.54012447004698e+000

4.10696287220124e+005,-2.13513523482633e+001,-4.60345586357001e+000

4.16429393741414e+005,-2.13515968019311e+001,-4.66766936393279e+000

4.22242531447321e+005,-2.13518481139969e+001,-4.73277720160887e+000

4.28136817531551e+005,-2.13521064764723e+001,-4.79879177428300e+000

4.34113384783250e+005,-2.13523720867218e+001,-4.86572564903592e+000

4.40173381804713e+005,-2.13526451476101e+001,-4.93359156455621e+000

4.46317973232124e+005,-2.13529258676543e+001,-5.00240243337333e+000

4.52548339959385e+005,-2.13532144611795e+001,-5.07217134411727e+000

4.58865679365059e+005,-2.13535111484797e+001,-5.14291156380227e+000

4.65271205542494e+005,-2.13538161559817e+001,-5.21463654013431e+000

4.71766149533147e+005,-2.13541297164147e+001,-5.28735990384421e+000

4.78351759563174e+005,-2.13544520689832e+001,-5.36109547104482e+000

4.85029301283321e+005,-2.13547834595461e+001,-5.43585724561267e+000

4.91800058012158e+005,-2.13551241407988e+001,-5.51165942159548e+000

4.98665330982714e+005,-2.13554743724618e+001,-5.58851638564238e+000

5.05626439592555e+005,-2.13558344214738e+001,-5.66644271946004e+000

5.12684721657352e+005,-2.13562045621892e+001,-5.74545320229384e+000

5.19841533667984e+005,-2.13565850765821e+001,-5.82556281343198e+000

5.27098251051240e+005,-2.13569762544553e+001,-5.90678673473517e+000

5.34456268434150e+005,-2.13573783936544e+001,-5.98914035319065e+000

5.41916999912011e+005,-2.13577918002883e+001,-6.07263926348984e+000

