Freq.,VOut,OutRef

1.00000000000000e+004,-5.56543539318500e-001,-4.65327284546356e-002

1.01395947979003e+004,-5.56543535940930e-001,-4.71823011460716e-002

1.02811382665607e+004,-5.56543532468338e-001,-4.78409415349513e-002

1.04246576084112e+004,-5.56543528898146e-001,-4.85087762015783e-002

1.05701804056138e+004,-5.56543525227611e-001,-4.91859334926896e-002

1.07177346253629e+004,-5.56543521453908e-001,-4.98725435477554e-002

1.08673486252606e+004,-5.56543517573961e-001,-5.05687383233235e-002

1.10190511587661e+004,-5.56543513585178e-001,-5.12746516147274e-002

1.11728713807222e+004,-5.56543509484094e-001,-5.19904190898879e-002

1.13288388529580e+004,-5.56543505267714e-001,-5.27161783073493e-002

1.14869835499703e+004,-5.56543500932808e-001,-5.34520687463239e-002

1.16473358646846e+004,-5.56543496476051e-001,-5.41982318332904e-002

1.18099266142953e+004,-5.56543491893982e-001,-5.49548109698728e-002

1.19747870461893e+004,-5.56543487183157e-001,-5.57219515574837e-002

1.21419488439505e+004,-5.56543482339822e-001,-5.64998010298142e-002

1.23114441334492e+004,-5.56543477360262e-001,-5.72885088770281e-002

1.24833054890161e+004,-5.56543472240869e-001,-5.80882266754503e-002

1.26575659397028e+004,-5.56543466977361e-001,-5.88991081201285e-002

1.28342589756290e+004,-5.56543461565971e-001,-5.97213090480361e-002

1.30134185544193e+004,-5.56543456002585e-001,-6.05549874730288e-002

1.31950791077289e+004,-5.56543450282640e-001,-6.14003036170484e-002

1.33792755478611e+004,-5.56543444401835e-001,-6.22574199358200e-002

1.35660432744767e+004,-5.56543438355749e-001,-6.31265011530467e-002

1.37554181813974e+004,-5.56543432139746e-001,-6.40077142925786e-002

1.39474366635040e+004,-5.56543425748887e-001,-6.49012287106838e-002

1.41421356237309e+004,-5.56543419178484e-001,-6.58072161253565e-002

1.43395524801583e+004,-5.56543412423267e-001,-6.67258506548926e-002

1.45397251732031e+004,-5.56543405478149e-001,-6.76573088453204e-002

1.47426921729110e+004,-5.56543398337841e-001,-6.86017697084143e-002

1.49484924863494e+004,-5.56543390996666e-001,-6.95594147558072e-002

1.51571656651040e+004,-5.56543383449261e-001,-7.05304280301283e-002

1.53687518128801e+004,-5.56543375689540e-001,-7.15149961466980e-002

1.55832915932100e+004,-5.56543367711755e-001,-7.25133083227545e-002

1.58008262372675e+004,-5.56543359509524e-001,-7.35255564199872e-002

1.60213975517924e+004,-5.56543351076787e-001,-7.45519349747709e-002

1.62450479271247e+004,-5.56543342407035e-001,-7.55926412414429e-002

1.64718203453514e+004,-5.56543333493574e-001,-7.66478752278118e-002

1.67017583885674e+004,-5.56543324329434e-001,-7.77178397336271e-002

1.69349062472505e+004,-5.56543314907706e-001,-7.88027403889545e-002

1.71713087287550e+004,-5.56543305221064e-001,-7.99027856949427e-002

1.74110112659224e+004,-5.56543295262003e-001,-8.10181870636589e-002

1.76540599258131e+004,-5.56543285023116e-001,-8.21491588560773e-002

1.79005014185594e+004,-5.56543274496304e-001,-8.32959184289804e-002

1.81503831063432e+004,-5.56543263673520e-001,-8.44586861711011e-002

1.84037530124975e+004,-5.56543252546540e-001,-8.56376855479024e-002

1.86606598307361e+004,-5.56543241106632e-001,-8.68331431455968e-002

1.89211529345119e+004,-5.56543229345198e-001,-8.80452887112128e-002

1.91852823865052e+004,-5.56543217253046e-001,-8.92743552012848e-002

1.94530989482457e+004,-5.56543204821058e-001,-9.05205788220859e-002

1.97246540898671e+004,-5.56543192039378e-001,-9.17841990800909e-002

1.99999999999999e+004,-5.56543178898500e-001,-9.30654588215869e-002

2.02791895958005e+004,-5.56543165388071e-001,-9.43646042861396e-002

2.05622765331213e+004,-5.56543151497824e-001,-9.56818851486079e-002

2.08493152168224e+004,-5.56543137217134e-001,-9.70175545695554e-002

2.11403608112276e+004,-5.56543122534910e-001,-9.83718692443957e-002

2.14354692507258e+004,-5.56543107439978e-001,-9.97450894506766e-002

2.17346972505211e+004,-5.56543091920658e-001,-1.01137479100295e-001

2.20381023175322e+004,-5.56543075965070e-001,-1.02549305788787e-001

2.23457427614443e+004,-5.56543059560782e-001,-1.03980840847955e-001

2.26576777059159e+004,-5.56543042695393e-001,-1.05432359395633e-001

2.29739670999406e+004,-5.56543025355763e-001,-1.06904140391992e-001

2.32946717293690e+004,-5.56543007528777e-001,-1.08396466689045e-001

2.36198532285905e+004,-5.56542989200539e-001,-1.09909625089959e-001

2.39495740923785e+004,-5.56542970357003e-001,-1.11443906400206e-001

2.42838976879009e+004,-5.56542950983737e-001,-1.12999605484094e-001

2.46228882668982e+004,-5.56542931065794e-001,-1.14577021323367e-001

2.49666109780322e+004,-5.56542910587915e-001,-1.16176457072571e-001

2.53151318794055e+004,-5.56542889534297e-001,-1.17798220118588e-001

2.56685179512580e+004,-5.56542867888849e-001,-1.19442622138786e-001

2.60268371088386e+004,-5.56542845634859e-001,-1.21109979161892e-001

2.63901582154578e+004,-5.56542822755064e-001,-1.22800611629234e-001

2.67585510957221e+004,-5.56542799232252e-001,-1.24514844452031e-001

2.71320865489533e+004,-5.56542775048023e-001,-1.26253007080843e-001

2.75108363627948e+004,-5.56542750183769e-001,-1.28015433563698e-001

2.78948733270080e+004,-5.56542724620638e-001,-1.29802462610292e-001

2.82842712474618e+004,-5.56542698338795e-001,-1.31614437661091e-001

2.86791049603164e+004,-5.56542671318058e-001,-1.33451706949407e-001

2.90794503464061e+004,-5.56542643537668e-001,-1.35314623569766e-001

2.94853843458219e+004,-5.56542614976315e-001,-1.37203545546198e-001

2.98969849726987e+004,-5.56542585611965e-001,-1.39118835900246e-001

3.03143313302078e+004,-5.56542555422009e-001,-1.41060862721454e-001

3.07375036257601e+004,-5.56542524383406e-001,-1.43029999236671e-001

3.11665831864199e+004,-5.56542492472139e-001,-1.45026623884258e-001

3.16016524745350e+004,-5.56542459663691e-001,-1.47051120384756e-001

3.20427951035848e+004,-5.56542425932897e-001,-1.49103877814724e-001

3.24900958542493e+004,-5.56542391253845e-001,-1.51185290682444e-001

3.29436406907028e+004,-5.56542355599782e-001,-1.53295759004105e-001

3.34035167771346e+004,-5.56542318943446e-001,-1.55435688378356e-001

3.38698124945009e+004,-5.56542281256424e-001,-1.57605490067954e-001

3.43426174575100e+004,-5.56542242509940e-001,-1.59805581074555e-001

3.48220225318448e+004,-5.56542202674131e-001,-1.62036384221940e-001

3.53081198516260e+004,-5.56542161718443e-001,-1.64298328236195e-001

3.58010028371187e+004,-5.56542119611329e-001,-1.66591847828604e-001

3.63007662126863e+004,-5.56542076320360e-001,-1.68917383778831e-001

3.68075060249948e+004,-5.56542031812365e-001,-1.71275383018482e-001

3.73213196614721e+004,-5.56541986053107e-001,-1.73666298719334e-001

3.78423058690237e+004,-5.56541939007319e-001,-1.76090590379217e-001

3.83705647730104e+004,-5.56541890638988e-001,-1.78548723908985e-001

3.89061978964912e+004,-5.56541840910774e-001,-1.81041171725462e-001

3.94493081797342e+004,-5.56541789784517e-001,-1.83568412838521e-001

3.99999999999998e+004,-5.56541737220952e-001,-1.86130932945477e-001

4.05583791916010e+004,-5.56541683179617e-001,-1.88729224523703e-001

4.11245530662425e+004,-5.56541627618999e-001,-1.91363786925511e-001

4.16986304336447e+004,-5.56541570496338e-001,-1.94035126473509e-001

4.22807216224550e+004,-5.56541511767718e-001,-1.96743756559201e-001

4.28709385014515e+004,-5.56541451388083e-001,-1.99490197739328e-001

4.34693945010421e+004,-5.56541389310879e-001,-2.02274977839192e-001

4.40762046350642e+004,-5.56541325488545e-001,-2.05098632050479e-001

4.46914855228886e+004,-5.56541259871869e-001,-2.07961703037719e-001

4.53153554118317e+004,-5.56541192410444e-001,-2.10864741039895e-001

4.59479341998812e+004,-5.56541123052472e-001,-2.13808303976342e-001

4.65893434587380e+004,-5.56541051744612e-001,-2.16792957556078e-001

4.72397064571810e+004,-5.56540978431984e-001,-2.19819275384648e-001

4.78991481847569e+004,-5.56540903058225e-001,-2.22887839075198e-001

4.85677953758016e+004,-5.56540825565585e-001,-2.25999238358380e-001

4.92457765337964e+004,-5.56540745894180e-001,-2.29154071200164e-001

4.99332219560642e+004,-5.56540663983012e-001,-2.32352943911112e-001

5.06302637588109e+004,-5.56540579769047e-001,-2.35596471266923e-001

5.13370359025159e+004,-5.56540493187427e-001,-2.38885276625973e-001

5.20536742176771e+004,-5.56540404171748e-001,-2.42219992046477e-001

5.27803164309155e+004,-5.56540312653499e-001,-2.45601258411813e-001

5.35171021914442e+004,-5.56540218562329e-001,-2.49029725551368e-001

5.42641730979066e+004,-5.56540121825913e-001,-2.52506052365184e-001

5.50216727255895e+004,-5.56540022369894e-001,-2.56030906952031e-001

5.57897466540159e+004,-5.56539920117842e-001,-2.59604966736862e-001

5.65685424949235e+004,-5.56539814991063e-001,-2.63228918601603e-001

5.73582099206328e+004,-5.56539706908851e-001,-2.66903459015658e-001

5.81589006928121e+004,-5.56539595788019e-001,-2.70629294172582e-001

5.89707686916437e+004,-5.56539481543169e-001,-2.74407140122925e-001

5.97939699453972e+004,-5.56539364086486e-001,-2.78237722913374e-001

6.06286626604156e+004,-5.56539243327702e-001,-2.82121778725971e-001

6.14750072515201e+004,-5.56539119173976e-001,-2.86060054019505e-001

6.23331663728396e+004,-5.56538991529837e-001,-2.90053305673375e-001

6.32033049490698e+004,-5.56538860297128e-001,-2.94102301132900e-001

6.40855902071694e+004,-5.56538725375087e-001,-2.98207818555914e-001

6.49801917084985e+004,-5.56538586659858e-001,-3.02370646963990e-001

6.58872813814055e+004,-5.56538444044825e-001,-3.06591586392812e-001

6.68070335542691e+004,-5.56538297420373e-001,-3.10871448046242e-001

6.77396249890018e+004,-5.56538146673849e-001,-3.15211054451997e-001

6.86852349150199e+004,-5.56537991689309e-001,-3.19611239620760e-001

6.96440450636895e+004,-5.56537832347610e-001,-3.24072849205443e-001

7.06162397032520e+004,-5.56537668526213e-001,-3.28596740664229e-001

7.16020056742374e+004,-5.56537500099273e-001,-3.33183783424540e-001

7.26015324253724e+004,-5.56537326937265e-001,-3.37834859051438e-001

7.36150120499896e+004,-5.56537148907074e-001,-3.42550861416225e-001

7.46426393229441e+004,-5.56536965871821e-001,-3.47332696868508e-001

7.56846117380472e+004,-5.56536777690903e-001,-3.52181284409714e-001

7.67411295460207e+004,-5.56536584219485e-001,-3.57097555871557e-001

7.78123957929823e+004,-5.56536385308935e-001,-3.62082456092986e-001

7.88986163594682e+004,-5.56536180806344e-001,-3.67136943102475e-001

7.99999999999995e+004,-5.56535970554534e-001,-3.72261988302932e-001

8.11167583832018e+004,-5.56535754391811e-001,-3.77458576657906e-001

8.22491061324848e+004,-5.56535532151975e-001,-3.82727706880771e-001

8.33972608672892e+004,-5.56535303664359e-001,-3.88070391625933e-001

8.45614432449099e+004,-5.56535068753058e-001,-3.93487657686143e-001

8.57418770029029e+004,-5.56534827237721e-001,-3.98980546185794e-001

8.69387890020841e+004,-5.56534578932554e-001,-4.04550112784979e-001

8.81524092701283e+004,-5.56534323646677e-001,-4.10197427880058e-001

8.93829710457770e+004,-5.56534061183964e-001,-4.15923576809105e-001

9.06307108236633e+004,-5.56533791342488e-001,-4.21729660063245e-001

9.18958683997622e+004,-5.56533513914942e-001,-4.27616793494419e-001

9.31786869174758e+004,-5.56533228687973e-001,-4.33586108533416e-001

9.44794129143618e+004,-5.56532935442419e-001,-4.39638752404112e-001

9.57982963695136e+004,-5.56532633952742e-001,-4.45775888347108e-001

9.71355907516031e+004,-5.56532323987298e-001,-4.51998695840371e-001

9.84915530675926e+004,-5.56532005307651e-001,-4.58308370828822e-001

9.98664439121282e+004,-5.56531677669004e-001,-4.64706125951062e-001

1.01260527517622e+005,-5.56531340819389e-001,-4.71193190775438e-001

1.02674071805032e+005,-5.56530994499921e-001,-4.77770812034313e-001

1.04107348435354e+005,-5.56530638444292e-001,-4.84440253865130e-001

1.05560632861831e+005,-5.56530272378863e-001,-4.91202798052125e-001

1.07034204382888e+005,-5.56529896022247e-001,-4.98059744273230e-001

1.08528346195813e+005,-5.56529509085126e-001,-5.05012410350563e-001

1.10043345451179e+005,-5.56529111270053e-001,-5.12062132502372e-001

1.11579493308032e+005,-5.56528702271218e-001,-5.19210265601617e-001

1.13137084989847e+005,-5.56528281774208e-001,-5.26458183434589e-001

1.14716419841265e+005,-5.56527849455772e-001,-5.33807278966343e-001

1.16317801385624e+005,-5.56527404983659e-001,-5.41258964607295e-001

1.17941537383287e+005,-5.56526948016168e-001,-5.48814672485845e-001

1.19587939890794e+005,-5.56526478202027e-001,-5.56475854723179e-001

1.21257325320831e+005,-5.56525995180084e-001,-5.64243983712166e-001

1.22950014503040e+005,-5.56525498579069e-001,-5.72120552400812e-001

1.24666332745679e+005,-5.56524988017233e-001,-5.80107074578640e-001

1.26406609898139e+005,-5.56524463102087e-001,-5.88205085169021e-001

1.28171180414339e+005,-5.56523923430188e-001,-5.96416140521835e-001

1.29960383416997e+005,-5.56523368586711e-001,-6.04741818715623e-001

1.31774562762811e+005,-5.56522798145084e-001,-6.13183719858267e-001

1.33614067108538e+005,-5.56522211666929e-001,-6.21743466396316e-001

1.35479249978003e+005,-5.56521608701328e-001,-6.30422703426225e-001

1.37370469830040e+005,-5.56520988784905e-001,-6.39223099010242e-001

1.39288090127379e+005,-5.56520351441017e-001,-6.48146344498610e-001

1.41232479406504e+005,-5.56519696179889e-001,-6.57194154851960e-001

1.43204011348474e+005,-5.56519022497805e-001,-6.66368268974003e-001

1.45203064850745e+005,-5.56518329876932e-001,-6.75670450043775e-001

1.47230024099979e+005,-5.56517617784853e-001,-6.85102485855406e-001

1.49285278645888e+005,-5.56516885674267e-001,-6.94666189161695e-001

1.51369223476094e+005,-5.56516132982465e-001,-7.04363398022361e-001

1.53482259092041e+005,-5.56515359130784e-001,-7.14195976158306e-001

1.55624791585964e+005,-5.56514563524512e-001,-7.24165813308042e-001

1.57797232718936e+005,-5.56513745552041e-001,-7.34274825593232e-001

1.59999999999999e+005,-5.56512904584748e-001,-7.44524955885478e-001

1.62233516766403e+005,-5.56512039976151e-001,-7.54918174180674e-001

1.64498212264969e+005,-5.56511151061739e-001,-7.65456477977158e-001

1.66794521734578e+005,-5.56510237158305e-001,-7.76141892660026e-001

1.69122886489819e+005,-5.56509297563308e-001,-7.86976471890975e-001

1.71483754005805e+005,-5.56508331554697e-001,-7.97962298001972e-001

1.73877578004168e+005,-5.56507338389884e-001,-8.09101482397389e-001

1.76304818540256e+005,-5.56506317305560e-001,-8.20396165958129e-001

1.78765942091554e+005,-5.56505267516888e-001,-8.31848519454389e-001

1.81261421647326e+005,-5.56504188217111e-001,-8.43460743962045e-001

1.83791736799524e+005,-5.56503078576560e-001,-8.55235071287904e-001

1.86357373834951e+005,-5.56501937742546e-001,-8.67173764395773e-001

1.88958825828723e+005,-5.56500764838074e-001,-8.79279117844685e-001

1.91596592739027e+005,-5.56499558961816e-001,-8.91553458227649e-001

1.94271181503206e+005,-5.56498319186915e-001,-9.03999144620408e-001

1.96983106135185e+005,-5.56497044560593e-001,-9.16618569034652e-001

1.99732887824256e+005,-5.56495734103151e-001,-9.29414156878403e-001

2.02521055035243e+005,-5.56494386807498e-001,-9.42388367421229e-001

2.05348143610063e+005,-5.56493001638176e-001,-9.55543694268427e-001

2.08214696870707e+005,-5.56491577530600e-001,-9.68882665840091e-001

2.11121265723661e+005,-5.56490113390395e-001,-9.82407845856706e-001

2.14068408765776e+005,-5.56488608092235e-001,-9.96121833833889e-001

2.17056692391625e+005,-5.56487060479331e-001,-1.01002726557976e+000

2.20086690902357e+005,-5.56485469362340e-001,-1.02412681370434e+000

2.23158986616063e+005,-5.56483833518512e-001,-1.03842318813165e+000

2.26274169979693e+005,-5.56482151690672e-001,-1.05291913662253e+000

2.29432839682530e+005,-5.56480422586402e-001,-1.06761744530129e+000

2.32635602771247e+005,-5.56478644876899e-001,-1.08252093919325e+000

2.35883074766574e+005,-5.56476817196109e-001,-1.09763248276681e+000

2.39175879781588e+005,-5.56474938139475e-001,-1.11295498048541e+000

2.42514650641661e+005,-5.56473006263085e-001,-1.12849137736539e+000

2.45900029006080e+005,-5.56471020082391e-001,-1.14424465954275e+000

2.49332665491357e+005,-5.56468978071210e-001,-1.16021785484744e+000

2.52813219796278e+005,-5.56466878660322e-001,-1.17641403338629e+000

2.56342360828676e+005,-5.56464720236637e-001,-1.19283630813260e+000

2.59920766833993e+005,-5.56462501141546e-001,-1.20948783552594e+000

2.63549125525621e+005,-5.56460219669963e-001,-1.22637181607855e+000

2.67228134217075e+005,-5.56457874068819e-001,-1.24349149499160e+000

2.70958499956006e+005,-5.56455462535869e-001,-1.26085016277932e+000

2.74740939660078e+005,-5.56452983218179e-001,-1.27845115590214e+000

2.78576180254757e+005,-5.56450434210841e-001,-1.29629785740787e+000

2.82464958813007e+005,-5.56447813555306e-001,-1.31439369758414e+000

2.86408022696948e+005,-5.56445119238107e-001,-1.33274215461648e+000

2.90406129701488e+005,-5.56442349189169e-001,-1.35134675525916e+000

2.94460048199957e+005,-5.56439501280326e-001,-1.37021107551290e+000

2.98570557291775e+005,-5.56436573323570e-001,-1.38933874131316e+000

3.02738446952187e+005,-5.56433563069471e-001,-1.40873342922798e+000

3.06964518184081e+005,-5.56430468205351e-001,-1.42839886716569e+000

3.11249583171928e+005,-5.56427286353683e-001,-1.44833883509130e+000

3.15594465437872e+005,-5.56424015070138e-001,-1.46855716575538e+000

3.19999999999997e+005,-5.56420651841600e-001,-1.48905774543080e+000

3.24467033532806e+005,-5.56417194084563e-001,-1.50984451466079e+000

3.28996424529938e+005,-5.56413639142818e-001,-1.53092146901755e+000

3.33589043469155e+005,-5.56409984285656e-001,-1.55229265987116e+000

3.38245772979638e+005,-5.56406226705608e-001,-1.57396219516974e+000

3.42967508011610e+005,-5.56402363516453e-001,-1.59593424022969e+000

3.47755156008335e+005,-5.56398391750826e-001,-1.61821301853799e+000

3.52609637080511e+005,-5.56394308358137e-001,-1.64080281256502e+000

3.57531884183106e+005,-5.56390110202036e-001,-1.66370796458927e+000

3.62522843294651e+005,-5.56385794058208e-001,-1.68693287753307e+000

3.67583473599047e+005,-5.56381356611694e-001,-1.71048201581071e+000

3.72714747669902e+005,-5.56376794454583e-001,-1.73435990618757e+000

3.77917651657445e+005,-5.56372104083223e-001,-1.75857113865220e+000

3.83193185478053e+005,-5.56367281895585e-001,-1.78312036730048e+000

3.88542363006410e+005,-5.56362324188561e-001,-1.80801231123100e+000

3.93966212270369e+005,-5.56357227155137e-001,-1.83325175545462e+000

3.99465775648511e+005,-5.56351986881271e-001,-1.85884355181652e+000

4.05042110070485e+005,-5.56346599343258e-001,-1.88479261992958e+000

4.10696287220124e+005,-5.56341060404263e-001,-1.91110394812305e+000

4.16429393741414e+005,-5.56335365811512e-001,-1.93778259440307e+000

4.22242531447321e+005,-5.56329511192756e-001,-1.96483368742719e+000

4.28136817531551e+005,-5.56323492053102e-001,-1.99226242749257e+000

4.34113384783250e+005,-5.56317303771551e-001,-2.02007408753793e+000

4.40173381804713e+005,-5.56310941597302e-001,-2.04827401415975e+000

4.46317973232124e+005,-5.56304400646399e-001,-2.07686762864243e+000

4.52548339959385e+005,-5.56297675897778e-001,-2.10586042800331e+000

4.58865679365059e+005,-5.56290762189456e-001,-2.13525798605199e+000

4.65271205542494e+005,-5.56283654214738e-001,-2.16506595446487e+000

4.71766149533147e+005,-5.56276346517983e-001,-2.19529006387457e+000

4.78351759563174e+005,-5.56268833490549e-001,-2.22593612497480e+000

4.85029301283321e+005,-5.56261109366441e-001,-2.25701002964056e+000

4.91800058012158e+005,-5.56253168217907e-001,-2.28851775206458e+000

4.98665330982714e+005,-5.56245003951035e-001,-2.32046534990880e+000

5.05626439592555e+005,-5.56236610300956e-001,-2.35285896547339e+000

5.12684721657352e+005,-5.56227980827179e-001,-2.38570482688064e+000

5.19841533667984e+005,-5.56219108908471e-001,-2.41900924927746e+000

5.27098251051240e+005,-5.56209987738156e-001,-2.45277863605228e+000

5.34456268434150e+005,-5.56200610318527e-001,-2.48701948007208e+000

5.41916999912011e+005,-5.56190969455850e-001,-2.52173836493386e+000

