Freq.,VOut,OutRef

1.00000000000000e+004,-4.09139527295149e+001,-3.61205778861787e-001

1.01395947979003e+004,-4.09139546649221e+001,-3.66247992553967e-001

1.02811382665607e+004,-4.09139566547401e+001,-3.71360591607026e-001

1.04246576084112e+004,-4.09139587004987e+001,-3.76544558507612e-001

1.05701804056138e+004,-4.09139608037706e+001,-3.81800889455082e-001

1.07177346253629e+004,-4.09139629661726e+001,-3.87130594552774e-001

1.08673486252606e+004,-4.09139651893670e+001,-3.92534698002775e-001

1.10190511587661e+004,-4.09139674750629e+001,-3.98014238301003e-001

1.11728713807222e+004,-4.09139698250175e+001,-4.03570268436916e-001

1.13288388529580e+004,-4.09139722410370e+001,-4.09203856097839e-001

1.14869835499703e+004,-4.09139747249789e+001,-4.14916083871432e-001

1.16473358646846e+004,-4.09139772787527e+001,-4.20708049454459e-001

1.18099266142953e+004,-4.09139799043215e+001,-4.26580865863390e-001

1.19747870461893e+004,-4.09139826037036e+001,-4.32535661649205e-001

1.21419488439505e+004,-4.09139853789741e+001,-4.38573581112916e-001

1.23114441334492e+004,-4.09139882322667e+001,-4.44695784524789e-001

1.24833054890161e+004,-4.09139911657745e+001,-4.50903448349106e-001

1.26575659397028e+004,-4.09139941817525e+001,-4.57197765468989e-001

1.28342589756290e+004,-4.09139972825195e+001,-4.63579945413954e-001

1.30134185544193e+004,-4.09140004704589e+001,-4.70051214594403e-001

1.31950791077289e+004,-4.09140037480213e+001,-4.76612816536862e-001

1.33792755478611e+004,-4.09140071177265e+001,-4.83266012120261e-001

1.35660432744767e+004,-4.09140105821645e+001,-4.90012079820893e-001

1.37554181813974e+004,-4.09140141439987e+001,-4.96852315957338e-001

1.39474366635040e+004,-4.09140178059670e+001,-5.03788034936627e-001

1.41421356237309e+004,-4.09140215708845e+001,-5.10820569510468e-001

1.43395524801583e+004,-4.09140254416454e+001,-5.17951271027668e-001

1.45397251732031e+004,-4.09140294212251e+001,-5.25181509695919e-001

1.47426921729110e+004,-4.09140335126826e+001,-5.32512674844196e-001

1.49484924863494e+004,-4.09140377191634e+001,-5.39946175187179e-001

1.51571656651040e+004,-4.09140420439006e+001,-5.47483439099968e-001

1.53687518128801e+004,-4.09140464902190e+001,-5.55125914887542e-001

1.55832915932100e+004,-4.09140510615363e+001,-5.62875071065944e-001

1.58008262372675e+004,-4.09140557613666e+001,-5.70732396643081e-001

1.60213975517924e+004,-4.09140605933225e+001,-5.78699401403721e-001

1.62450479271247e+004,-4.09140655611183e+001,-5.86777616200691e-001

1.64718203453514e+004,-4.09140706685729e+001,-5.94968593246517e-001

1.67017583885674e+004,-4.09140759196121e+001,-6.03273906413782e-001

1.69349062472505e+004,-4.09140813182724e+001,-6.11695151534406e-001

1.71713087287550e+004,-4.09140868687038e+001,-6.20233946707721e-001

1.74110112659224e+004,-4.09140925751726e+001,-6.28891932611166e-001

1.76540599258131e+004,-4.09140984420655e+001,-6.37670772811531e-001

1.79005014185594e+004,-4.09141044738920e+001,-6.46572154090047e-001

1.81503831063432e+004,-4.09141106752888e+001,-6.55597786759389e-001

1.84037530124975e+004,-4.09141170510227e+001,-6.64749404996209e-001

1.86606598307361e+004,-4.09141236059944e+001,-6.74028767172723e-001

1.89211529345119e+004,-4.09141303452426e+001,-6.83437656192157e-001

1.91852823865052e+004,-4.09141372739476e+001,-6.92977879832670e-001

1.94530989482457e+004,-4.09141443974350e+001,-7.02651271093249e-001

1.97246540898671e+004,-4.09141517211804e+001,-7.12459688545275e-001

1.99999999999999e+004,-4.09141592508134e+001,-7.22405016688214e-001

2.02791895958005e+004,-4.09141669921214e+001,-7.32489166311172e-001

2.05622765331213e+004,-4.09141749510549e+001,-7.42714074860715e-001

2.08493152168224e+004,-4.09141831337314e+001,-7.53081706808952e-001

2.11403608112276e+004,-4.09141915464405e+001,-7.63594054033737e-001

2.14354692507258e+004,-4.09142001956484e+001,-7.74253136197581e-001

2.17346972505211e+004,-4.09142090880032e+001,-7.85061001136278e-001

2.20381023175322e+004,-4.09142182303398e+001,-7.96019725250659e-001

2.23457427614443e+004,-4.09142276296853e+001,-8.07131413903850e-001

2.26576777059159e+004,-4.09142372932642e+001,-8.18398201826641e-001

2.29739670999406e+004,-4.09142472285039e+001,-8.29822253524124e-001

2.32946717293690e+004,-4.09142574430410e+001,-8.41405763691381e-001

2.36198532285905e+004,-4.09142679447263e+001,-8.53150957634508e-001

2.39495740923785e+004,-4.09142787416314e+001,-8.65060091694893e-001

2.42838976879009e+004,-4.09142898420548e+001,-8.77135453683718e-001

2.46228882668982e+004,-4.09143012545281e+001,-8.89379363317625e-001

2.49666109780322e+004,-4.09143129878230e+001,-9.01794172664264e-001

2.53151318794055e+004,-4.09143250509573e+001,-9.14382266592977e-001

2.56685179512580e+004,-4.09143374532025e+001,-9.27146063229114e-001

2.60268371088386e+004,-4.09143502040905e+001,-9.40088014420050e-001

2.63901582154578e+004,-4.09143633134212e+001,-9.53210606201264e-001

2.67585510957221e+004,-4.09143767912701e+001,-9.66516359274146e-001

2.71320865489533e+004,-4.09143906479953e+001,-9.80007829487008e-001

2.75108363627948e+004,-4.09144048942466e+001,-9.93687608324756e-001

2.78948733270080e+004,-4.09144195409727e+001,-1.00755832340472e+000

2.82842712474618e+004,-4.09144345994301e+001,-1.02162263897862e+000

2.86791049603164e+004,-4.09144500811917e+001,-1.03588325644172e+000

2.90794503464061e+004,-4.09144659981554e+001,-1.05034291485063e+000

2.94853843458219e+004,-4.09144823625536e+001,-1.06500439144567e+000

2.98969849726987e+004,-4.09144991869625e+001,-1.07987050218212e+000

3.03143313302078e+004,-4.09145164843115e+001,-1.09494410226898e+000

3.07375036257601e+004,-4.09145342678936e+001,-1.11022808671340e+000

3.11665831864199e+004,-4.09145525513751e+001,-1.12572539087440e+000

3.16016524745350e+004,-4.09145713488063e+001,-1.14143899102381e+000

3.20427951035848e+004,-4.09145906746324e+001,-1.15737190491449e+000

3.24900958542493e+004,-4.09146105437044e+001,-1.17352719235608e+000

3.29436406907028e+004,-4.09146309712908e+001,-1.18990795579989e+000

3.34035167771346e+004,-4.09146519730888e+001,-1.20651734093088e+000

3.38698124945009e+004,-4.09146735652367e+001,-1.22335853726775e+000

3.43426174575100e+004,-4.09146957643265e+001,-1.24043477877161e+000

3.48220225318448e+004,-4.09147185874161e+001,-1.25774934446292e+000

3.53081198516260e+004,-4.09147420520427e+001,-1.27530555904704e+000

3.58010028371187e+004,-4.09147661762363e+001,-1.29310679354819e+000

3.63007662126863e+004,-4.09147909785333e+001,-1.31115646595185e+000

3.68075060249948e+004,-4.09148164779911e+001,-1.32945804185687e+000

3.73213196614721e+004,-4.09148426942022e+001,-1.34801503513464e+000

3.78423058690237e+004,-4.09148696473096e+001,-1.36683100859979e+000

3.83705647730104e+004,-4.09148973580224e+001,-1.38590957468819e+000

3.89061978964912e+004,-4.09149258476310e+001,-1.40525439614505e+000

3.94493081797342e+004,-4.09149551380243e+001,-1.42486918672151e+000

3.99999999999998e+004,-4.09149852517059e+001,-1.44475771188246e+000

4.05583791916010e+004,-4.09150162118113e+001,-1.46492378952237e+000

4.11245530662425e+004,-4.09150480421263e+001,-1.48537129069123e+000

4.16986304336447e+004,-4.09150807671044e+001,-1.50610414033110e+000

4.22807216224550e+004,-4.09151144118862e+001,-1.52712631802203e+000

4.28709385014515e+004,-4.09151490023182e+001,-1.54844185873871e+000

4.34693945010421e+004,-4.09151845649732e+001,-1.57005485361627e+000

4.40762046350642e+004,-4.09152211271697e+001,-1.59196945072819e+000

4.46914855228886e+004,-4.09152587169940e+001,-1.61418985587234e+000

4.53153554118317e+004,-4.09152973633210e+001,-1.63672033337086e+000

4.59479341998812e+004,-4.09153370958362e+001,-1.65956520687830e+000

4.65893434587380e+004,-4.09153779450592e+001,-1.68272886020190e+000

4.72397064571810e+004,-4.09154199423663e+001,-1.70621573813198e+000

4.78991481847569e+004,-4.09154631200149e+001,-1.73003034728503e+000

4.85677953758016e+004,-4.09155075111682e+001,-1.75417725695724e+000

4.92457765337964e+004,-4.09155531499206e+001,-1.77866109998911e+000

4.99332219560642e+004,-4.09156000713237e+001,-1.80348657364349e+000

5.06302637588109e+004,-4.09156483114133e+001,-1.82865844049255e+000

5.13370359025159e+004,-4.09156979072369e+001,-1.85418152932062e+000

5.20536742176771e+004,-4.09157488968819e+001,-1.88006073603445e+000

5.27803164309155e+004,-4.09158013195051e+001,-1.90630102459054e+000

5.35171021914442e+004,-4.09158552153626e+001,-1.93290742793022e+000

5.42641730979066e+004,-4.09159106258403e+001,-1.95988504893172e+000

5.50216727255895e+004,-4.09159675934857e+001,-1.98723906137173e+000

5.57897466540159e+004,-4.09160261620409e+001,-2.01497471090058e+000

5.65685424949235e+004,-4.09160863764754e+001,-2.04309731603203e+000

5.73582099206328e+004,-4.09161482830208e+001,-2.07161226914341e+000

5.81589006928121e+004,-4.09162119292064e+001,-2.10052503749176e+000

5.89707686916437e+004,-4.09162773638949e+001,-2.12984116424213e+000

5.97939699453972e+004,-4.09163446373207e+001,-2.15956626950905e+000

6.06286626604156e+004,-4.09164138011272e+001,-2.18970605141409e+000

6.14750072515201e+004,-4.09164849084071e+001,-2.22026628715371e+000

6.23331663728396e+004,-4.09165580137429e+001,-2.25125283408488e+000

6.32033049490698e+004,-4.09166331732480e+001,-2.28267163082325e+000

6.40855902071694e+004,-4.09167104446103e+001,-2.31452869835495e+000

6.49801917084985e+004,-4.09167898871358e+001,-2.34683014116581e+000

6.58872813814055e+004,-4.09168715617942e+001,-2.37958214838156e+000

6.68070335542691e+004,-4.09169555312651e+001,-2.41279099492657e+000

6.77396249890018e+004,-4.09170418599861e+001,-2.44646304269571e+000

6.86852349150199e+004,-4.09171306142020e+001,-2.48060474174170e+000

6.96440450636895e+004,-4.09172218620153e+001,-2.51522263147871e+000

7.06162397032520e+004,-4.09173156734380e+001,-2.55032334190042e+000

7.16020056742374e+004,-4.09174121204452e+001,-2.58591359481516e+000

7.26015324253724e+004,-4.09175112770301e+001,-2.62200020509556e+000

7.36150120499896e+004,-4.09176132192598e+001,-2.65859008194670e+000

7.46426393229441e+004,-4.09177180253342e+001,-2.69569023018718e+000

7.56846117380472e+004,-4.09178257756449e+001,-2.73330775154940e+000

7.67411295460207e+004,-4.09179365528367e+001,-2.77144984599573e+000

7.78123957929823e+004,-4.09180504418706e+001,-2.81012381305118e+000

7.88986163594682e+004,-4.09181675300881e+001,-2.84933705315344e+000

7.99999999999995e+004,-4.09182879072784e+001,-2.88909706901928e+000

8.11167583832018e+004,-4.09184116657461e+001,-2.92941146702939e+000

8.22491061324848e+004,-4.09185389003819e+001,-2.97028795862974e+000

8.33972608672892e+004,-4.09186697087343e+001,-3.01173436175202e+000

8.45614432449099e+004,-4.09188041910842e+001,-3.05375860224954e+000

8.57418770029029e+004,-4.09189424505208e+001,-3.09636871535360e+000

8.69387890020841e+004,-4.09190845930203e+001,-3.13957284714605e+000

8.81524092701283e+004,-4.09192307275260e+001,-3.18337925605176e+000

8.93829710457770e+004,-4.09193809660315e+001,-3.22779631434862e+000

9.06307108236633e+004,-4.09195354236653e+001,-3.27283250969616e+000

9.18958683997622e+004,-4.09196942187784e+001,-3.31849644668298e+000

9.31786869174758e+004,-4.09198574730338e+001,-3.36479684839407e+000

9.44794129143618e+004,-4.09200253114994e+001,-3.41174255799588e+000

9.57982963695136e+004,-4.09201978627421e+001,-3.45934254034142e+000

9.71355907516031e+004,-4.09203752589256e+001,-3.50760588359463e+000

9.84915530675926e+004,-4.09205576359104e+001,-3.55654180087409e+000

9.98664439121282e+004,-4.09207451333566e+001,-3.60615963191686e+000

1.01260527517622e+005,-4.09209378948300e+001,-3.65646884476127e+000

1.02674071805032e+005,-4.09211360679099e+001,-3.70747903745152e+000

1.04107348435354e+005,-4.09213398043017e+001,-3.75919993975920e+000

1.05560632861831e+005,-4.09215492599504e+001,-3.81164141492857e+000

1.07034204382888e+005,-4.09217645951597e+001,-3.86481346143978e+000

1.08528346195813e+005,-4.09219859747117e+001,-3.91872621479337e+000

1.10043345451179e+005,-4.09222135679924e+001,-3.97338994931545e+000

1.11579493308032e+005,-4.09224475491188e+001,-4.02881507998298e+000

1.13137084989847e+005,-4.09226880970701e+001,-4.08501216427050e+000

1.14716419841265e+005,-4.09229353958231e+001,-4.14199190401732e+000

1.16317801385624e+005,-4.09231896344902e+001,-4.19976514731589e+000

1.17941537383287e+005,-4.09234510074619e+001,-4.25834289042053e+000

1.19587939890794e+005,-4.09237197145531e+001,-4.31773627967851e+000

1.21257325320831e+005,-4.09239959611531e+001,-4.37795661348102e+000

1.22950014503040e+005,-4.09242799583800e+001,-4.43901534423637e+000

1.24666332745679e+005,-4.09245719232391e+001,-4.50092408036340e+000

1.26406609898139e+005,-4.09248720787858e+001,-4.56369458830722e+000

1.28171180414339e+005,-4.09251806542928e+001,-4.62733879457566e+000

1.29960383416997e+005,-4.09254978854215e+001,-4.69186878779727e+000

1.31774562762811e+005,-4.09258240143989e+001,-4.75729682080051e+000

1.33614067108538e+005,-4.09261592901986e+001,-4.82363531271483e+000

1.35479249978003e+005,-4.09265039687265e+001,-4.89089685109199e+000

1.37370469830040e+005,-4.09268583130127e+001,-4.95909419404955e+000

1.39288090127379e+005,-4.09272225934069e+001,-5.02824027243610e+000

1.41232479406504e+005,-4.09275970877807e+001,-5.09834819201512e+000

1.43204011348474e+005,-4.09279820817339e+001,-5.16943123567376e+000

1.45203064850745e+005,-4.09283778688077e+001,-5.24150286564896e+000

1.47230024099979e+005,-4.09287847507023e+001,-5.31457672577767e+000

1.49285278645888e+005,-4.09292030375019e+001,-5.38866664376441e+000

1.51369223476094e+005,-4.09296330479038e+001,-5.46378663347282e+000

1.53482259092041e+005,-4.09300751094554e+001,-5.53995089723537e+000

1.55624791585964e+005,-4.09305295587964e+001,-5.61717382818450e+000

1.57797232718936e+005,-4.09309967419080e+001,-5.69547001260308e+000

1.59999999999999e+005,-4.09314770143688e+001,-5.77485423229496e+000

1.62233516766403e+005,-4.09319707416167e+001,-5.85534146697568e+000

1.64498212264969e+005,-4.09324782992190e+001,-5.93694689668135e+000

1.66794521734578e+005,-4.09330000731484e+001,-6.01968590419751e+000

1.69122886489819e+005,-4.09335364600675e+001,-6.10357407750590e+000

1.71483754005805e+005,-4.09340878676196e+001,-6.18862721225028e+000

1.73877578004168e+005,-4.09346547147282e+001,-6.27486131421918e+000

1.76304818540256e+005,-4.09352374319039e+001,-6.36229260184699e+000

1.78765942091554e+005,-4.09358364615589e+001,-6.45093750873219e+000

1.81261421647326e+005,-4.09364522583312e+001,-6.54081268617067e+000

1.83791736799524e+005,-4.09370852894153e+001,-6.63193500570690e+000

1.86357373834951e+005,-4.09377360349032e+001,-6.72432156169955e+000

1.88958825828723e+005,-4.09384049881334e+001,-6.81798967390186e+000

1.91596592739027e+005,-4.09390926560491e+001,-6.91295689005712e+000

1.94271181503206e+005,-4.09397995595661e+001,-7.00924098850659e+000

1.96983106135185e+005,-4.09405262339494e+001,-7.10685998081100e+000

1.99732887824256e+005,-4.09412732292003e+001,-7.20583211438391e+000

2.02521055035243e+005,-4.09420411104528e+001,-7.30617587513621e+000

2.05348143610063e+005,-4.09428304583811e+001,-7.40790999013106e+000

2.08214696870707e+005,-4.09436418696162e+001,-7.51105343024831e+000

2.11121265723661e+005,-4.09444759571742e+001,-7.61562541285767e+000

2.14068408765776e+005,-4.09453333508953e+001,-7.72164540449872e+000

2.17056692391625e+005,-4.09462146978929e+001,-7.82913312356805e+000

2.20086690902357e+005,-4.09471206630163e+001,-7.93810854301129e+000

2.23158986616063e+005,-4.09480519293219e+001,-8.04859189301902e+000

2.26274169979693e+005,-4.09490091985595e+001,-8.16060366372611e+000

2.29432839682530e+005,-4.09499931916683e+001,-8.27416460791191e+000

2.32635602771247e+005,-4.09510046492864e+001,-8.38929574370074e+000

2.35883074766574e+005,-4.09520443322729e+001,-8.50601835726095e+000

2.39175879781588e+005,-4.09531130222422e+001,-8.62435400550126e+000

2.42514650641661e+005,-4.09542115221127e+001,-8.74432451876236e+000

2.45900029006080e+005,-4.09553406566675e+001,-8.86595200350187e+000

2.49332665491357e+005,-4.09565012731301e+001,-8.98925884497230e+000

2.52813219796278e+005,-4.09576942417532e+001,-9.11426770988755e+000

2.56342360828676e+005,-4.09589204564220e+001,-9.24100154907908e+000

2.59920766833993e+005,-4.09601808352722e+001,-9.36948360013699e+000

2.63549125525621e+005,-4.09614763213228e+001,-9.49973739003595e+000

2.67228134217075e+005,-4.09628078831237e+001,-9.63178673774157e+000

2.70958499956006e+005,-4.09641765154187e+001,-9.76565575679778e+000

2.74740939660078e+005,-4.09655832398248e+001,-9.90136885788949e+000

2.78576180254757e+005,-4.09670291055261e+001,-1.00389507513804e+001

2.82464958813007e+005,-4.09685151899852e+001,-1.01784264498224e+001

2.86408022696948e+005,-4.09700425996705e+001,-1.03198212704338e+001

2.90406129701488e+005,-4.09716124708001e+001,-1.04631608375433e+001

2.94460048199957e+005,-4.09732259701028e+001,-1.06084710849973e+001

2.98570557291775e+005,-4.09748842955971e+001,-1.07557782585260e+001

3.02738446952187e+005,-4.09765886773859e+001,-1.09051089180682e+001

3.06964518184081e+005,-4.09783403784716e+001,-1.10564899400457e+001

3.11249583171928e+005,-4.09801406955869e+001,-1.12099485195915e+001

3.15594465437872e+005,-4.09819909600452e+001,-1.13655121727196e+001

3.19999999999997e+005,-4.09838925386097e+001,-1.15232087384400e+001

3.24467033532806e+005,-4.09858468343800e+001,-1.16830663808101e+001

3.28996424529938e+005,-4.09878552876996e+001,-1.18451135909205e+001

3.33589043469155e+005,-4.09899193770809e+001,-1.20093791888099e+001

3.38245772979638e+005,-4.09920406201508e+001,-1.21758923253058e+001

3.42967508011610e+005,-4.09942205746158e+001,-1.23446824837853e+001

3.47755156008335e+005,-4.09964608392467e+001,-1.25157794818516e+001

3.52609637080511e+005,-4.09987630548832e+001,-1.26892134729212e+001

3.57531884183106e+005,-4.10011289054595e+001,-1.28650149477174e+001

3.62522843294651e+005,-4.10035601190494e+001,-1.30432147356629e+001

3.67583473599047e+005,-4.10060584689326e+001,-1.32238440061680e+001

3.72714747669902e+005,-4.10086257746812e+001,-1.34069342698089e+001

3.77917651657445e+005,-4.10112639032671e+001,-1.35925173793867e+001

3.83193185478053e+005,-4.10139747701902e+001,-1.37806255308663e+001

3.88542363006410e+005,-4.10167603406276e+001,-1.39712912641854e+001

3.93966212270369e+005,-4.10196226306034e+001,-1.41645474639271e+001

3.99465775648511e+005,-4.10225637081797e+001,-1.43604273598517e+001

4.05042110070485e+005,-4.10255856946685e+001,-1.45589645272797e+001

4.10696287220124e+005,-4.10286907658644e+001,-1.47601928873175e+001

4.16429393741414e+005,-4.10318811532980e+001,-1.49641467069217e+001

4.22242531447321e+005,-4.10351591455101e+001,-1.51708605987917e+001

4.28136817531551e+005,-4.10385270893462e+001,-1.53803695210841e+001

4.34113384783250e+005,-4.10419873912721e+001,-1.55927087769420e+001

4.40173381804713e+005,-4.10455425187084e+001,-1.58079140138295e+001

4.46317973232124e+005,-4.10491950013865e+001,-1.60260212226637e+001

4.52548339959385e+005,-4.10529474327220e+001,-1.62470667367367e+001

4.58865679365059e+005,-4.10568024712099e+001,-1.64710872304180e+001

4.65271205542494e+005,-4.10607628418366e+001,-1.66981197176282e+001

4.71766149533147e+005,-4.10648313375112e+001,-1.69282015500768e+001

4.78351759563174e+005,-4.10690108205143e+001,-1.71613704152520e+001

4.85029301283321e+005,-4.10733042239646e+001,-1.73976643341563e+001

4.91800058012158e+005,-4.10777145533019e+001,-1.76371216587762e+001

4.98665330982714e+005,-4.10822448877860e+001,-1.78797810692766e+001

5.05626439592555e+005,-4.10868983820110e+001,-1.81256815709115e+001

5.12684721657352e+005,-4.10916782674338e+001,-1.83748624906390e+001

5.19841533667984e+005,-4.10965878539171e+001,-1.86273634734318e+001

5.27098251051240e+005,-4.11016305312833e+001,-1.88832244782725e+001

5.34456268434150e+005,-4.11068097708819e+001,-1.91424857738235e+001

5.41916999912011e+005,-4.11121291271656e+001,-1.94051879337609e+001

