Freq.,VOut,OutRef

1.00000000000000e+004,-1.27440623269119e+001,-9.66540226584356e-002

1.01395947979003e+004,-1.27440623230893e+001,-9.80032626124127e-002

1.02811382665607e+004,-1.27440623191593e+001,-9.93713372564353e-002

1.04246576084112e+004,-1.27440623151191e+001,-1.00758509513266e-001

1.05701804056138e+004,-1.27440623109649e+001,-1.02165045978441e-001

1.07177346253629e+004,-1.27440623066941e+001,-1.03591216964249e-001

1.08673486252606e+004,-1.27440623023031e+001,-1.05037296559035e-001

1.10190511587661e+004,-1.27440622977889e+001,-1.06503562676027e-001

1.11728713807222e+004,-1.27440622931477e+001,-1.07990297109528e-001

1.13288388529580e+004,-1.27440622883759e+001,-1.09497785587581e-001

1.14869835499703e+004,-1.27440622834700e+001,-1.11026317824805e-001

1.16473358646846e+004,-1.27440622784262e+001,-1.12576187581206e-001

1.18099266142953e+004,-1.27440622732406e+001,-1.14147692718729e-001

1.19747870461893e+004,-1.27440622679093e+001,-1.15741135254218e-001

1.21419488439505e+004,-1.27440622624280e+001,-1.17356821425784e-001

1.23114441334492e+004,-1.27440622567925e+001,-1.18995061740974e-001

1.24833054890161e+004,-1.27440622509988e+001,-1.20656171043736e-001

1.26575659397028e+004,-1.27440622450422e+001,-1.22340468574806e-001

1.28342589756290e+004,-1.27440622389181e+001,-1.24048278029466e-001

1.30134185544193e+004,-1.27440622326216e+001,-1.25779927622974e-001

1.31950791077289e+004,-1.27440622261483e+001,-1.27535750150747e-001

1.33792755478611e+004,-1.27440622194931e+001,-1.29316083053947e-001

1.35660432744767e+004,-1.27440622126505e+001,-1.31121268487412e-001

1.37554181813974e+004,-1.27440622056158e+001,-1.32951653376541e-001

1.39474366635040e+004,-1.27440621983831e+001,-1.34807589496429e-001

1.41421356237309e+004,-1.27440621909473e+001,-1.36689433526612e-001

1.43395524801583e+004,-1.27440621833023e+001,-1.38597547129244e-001

1.45397251732031e+004,-1.27440621754426e+001,-1.40532297014025e-001

1.47426921729110e+004,-1.27440621673616e+001,-1.42494055011585e-001

1.49484924863494e+004,-1.27440621590536e+001,-1.44483198139546e-001

1.51571656651040e+004,-1.27440621505120e+001,-1.46500108681710e-001

1.53687518128801e+004,-1.27440621417303e+001,-1.48545174256389e-001

1.55832915932100e+004,-1.27440621327017e+001,-1.50618787893952e-001

1.58008262372675e+004,-1.27440621234194e+001,-1.52721348110809e-001

1.60213975517924e+004,-1.27440621138759e+001,-1.54853258987529e-001

1.62450479271247e+004,-1.27440621040642e+001,-1.57014930244216e-001

1.64718203453514e+004,-1.27440620939766e+001,-1.59206777320431e-001

1.67017583885674e+004,-1.27440620836056e+001,-1.61429221454864e-001

1.69349062472505e+004,-1.27440620729429e+001,-1.63682689768462e-001

1.71713087287550e+004,-1.27440620619804e+001,-1.65967615342914e-001

1.74110112659224e+004,-1.27440620507097e+001,-1.68284437305297e-001

1.76540599258131e+004,-1.27440620391223e+001,-1.70633600913583e-001

1.79005014185594e+004,-1.27440620272090e+001,-1.73015557641050e-001

1.81503831063432e+004,-1.27440620149607e+001,-1.75430765264078e-001

1.84037530124975e+004,-1.27440620023683e+001,-1.77879687946407e-001

1.86606598307361e+004,-1.27440619894217e+001,-1.80362796336369e-001

1.89211529345119e+004,-1.27440619761112e+001,-1.82880567647348e-001

1.91852823865052e+004,-1.27440619624265e+001,-1.85433485757559e-001

1.94530989482457e+004,-1.27440619483570e+001,-1.88022041299229e-001

1.97246540898671e+004,-1.27440619338921e+001,-1.90646731751646e-001

1.99999999999999e+004,-1.27440619190204e+001,-1.93308061542662e-001

2.02791895958005e+004,-1.27440619037307e+001,-1.96006542137892e-001

2.05622765331213e+004,-1.27440618880112e+001,-1.98742692144210e-001

2.08493152168224e+004,-1.27440618718496e+001,-2.01517037409223e-001

2.11403608112276e+004,-1.27440618552338e+001,-2.04330111118341e-001

2.14354692507258e+004,-1.27440618381509e+001,-2.07182453903464e-001

2.17346972505211e+004,-1.27440618205876e+001,-2.10074613940688e-001

2.20381023175322e+004,-1.27440618025306e+001,-2.13007147060221e-001

2.23457427614443e+004,-1.27440617839660e+001,-2.15980616849775e-001

2.26576777059159e+004,-1.27440617648795e+001,-2.18995594765697e-001

2.29739670999406e+004,-1.27440617452565e+001,-2.22052660241150e-001

2.32946717293690e+004,-1.27440617250817e+001,-2.25152400799199e-001

2.36198532285905e+004,-1.27440617043398e+001,-2.28295412162128e-001

2.39495740923785e+004,-1.27440616830147e+001,-2.31482298370193e-001

2.42838976879009e+004,-1.27440616610901e+001,-2.34713671895429e-001

2.46228882668982e+004,-1.27440616385492e+001,-2.37990153758327e-001

2.49666109780322e+004,-1.27440616153746e+001,-2.41312373650253e-001

2.53151318794055e+004,-1.27440615915485e+001,-2.44680970053392e-001

2.56685179512580e+004,-1.27440615670525e+001,-2.48096590360555e-001

2.60268371088386e+004,-1.27440615418679e+001,-2.51559891003212e-001

2.63901582154578e+004,-1.27440615159754e+001,-2.55071537576351e-001

2.67585510957221e+004,-1.27440614893549e+001,-2.58632204966872e-001

2.71320865489533e+004,-1.27440614619859e+001,-2.62242577482547e-001

2.75108363627948e+004,-1.27440614338477e+001,-2.65903348982434e-001

2.78948733270080e+004,-1.27440614049183e+001,-2.69615223013873e-001

2.82842712474618e+004,-1.27440613751757e+001,-2.73378912943915e-001

2.86791049603164e+004,-1.27440613445970e+001,-2.77195142098064e-001

2.90794503464061e+004,-1.27440613131586e+001,-2.81064643900376e-001

2.94853843458219e+004,-1.27440612808364e+001,-2.84988162012340e-001

2.98969849726987e+004,-1.27440612476055e+001,-2.88966450476611e-001

3.03143313302078e+004,-1.27440612134404e+001,-2.93000273862055e-001

3.07375036257601e+004,-1.27440611783148e+001,-2.97090407411103e-001

3.11665831864199e+004,-1.27440611422018e+001,-3.01237637187744e-001

3.16016524745350e+004,-1.27440611050736e+001,-3.05442760229737e-001

3.20427951035848e+004,-1.27440610669017e+001,-3.09706584700558e-001

3.24900958542493e+004,-1.27440610276567e+001,-3.14029930046439e-001

3.29436406907028e+004,-1.27440609873083e+001,-3.18413627152620e-001

3.34035167771346e+004,-1.27440609458257e+001,-3.22858518501402e-001

3.38698124945009e+004,-1.27440609031770e+001,-3.27365458338359e-001

3.43426174575100e+004,-1.27440608593292e+001,-3.31935312833403e-001

3.48220225318448e+004,-1.27440608142489e+001,-3.36568960246552e-001

3.53081198516260e+004,-1.27440607679012e+001,-3.41267291100002e-001

3.58010028371187e+004,-1.27440607202506e+001,-3.46031208346613e-001

3.63007662126863e+004,-1.27440606712605e+001,-3.50861627543098e-001

3.68075060249948e+004,-1.27440606208932e+001,-3.55759477029419e-001

3.73213196614721e+004,-1.27440605691099e+001,-3.60725698103165e-001

3.78423058690237e+004,-1.27440605158711e+001,-3.65761245202321e-001

3.83705647730104e+004,-1.27440604611355e+001,-3.70867086090052e-001

3.89061978964912e+004,-1.27440604048612e+001,-3.76044202038303e-001

3.94493081797342e+004,-1.27440603470050e+001,-3.81293588016384e-001

3.99999999999998e+004,-1.27440602875224e+001,-3.86616252884804e-001

4.05583791916010e+004,-1.27440602263675e+001,-3.92013219587316e-001

4.11245530662425e+004,-1.27440601634937e+001,-3.97485525346324e-001

4.16986304336447e+004,-1.27440600988523e+001,-4.03034221865607e-001

4.22807216224550e+004,-1.27440600323938e+001,-4.08660375529220e-001

4.28709385014515e+004,-1.27440599640670e+001,-4.14365067609140e-001

4.34693945010421e+004,-1.27440598938197e+001,-4.20149394469207e-001

4.40762046350642e+004,-1.27440598215975e+001,-4.26014467782128e-001

4.46914855228886e+004,-1.27440597473452e+001,-4.31961414735671e-001

4.53153554118317e+004,-1.27440596710054e+001,-4.37991378256043e-001

4.59479341998812e+004,-1.27440595925198e+001,-4.44105517221988e-001

4.65893434587380e+004,-1.27440595118280e+001,-4.50305006691607e-001

4.72397064571810e+004,-1.27440594288678e+001,-4.56591038127426e-001

4.78991481847569e+004,-1.27440593435756e+001,-4.62964819622524e-001

4.85677953758016e+004,-1.27440592558859e+001,-4.69427576136549e-001

4.92457765337964e+004,-1.27440591657311e+001,-4.75980549729747e-001

4.99332219560642e+004,-1.27440590730420e+001,-4.82624999800190e-001

5.06302637588109e+004,-1.27440589777476e+001,-4.89362203327967e-001

5.13370359025159e+004,-1.27440588797744e+001,-4.96193455119998e-001

5.20536742176771e+004,-1.27440587790472e+001,-5.03120068058017e-001

5.27803164309155e+004,-1.27440586754886e+001,-5.10143373352035e-001

5.35171021914442e+004,-1.27440585690190e+001,-5.17264720796469e-001

5.42641730979066e+004,-1.27440584595568e+001,-5.24485479027314e-001

5.50216727255895e+004,-1.27440583470175e+001,-5.31807035789111e-001

5.57897466540159e+004,-1.27440582313149e+001,-5.39230798197393e-001

5.65685424949235e+004,-1.27440581123600e+001,-5.46758193012069e-001

5.73582099206328e+004,-1.27440579900614e+001,-5.54390666911089e-001

5.81589006928121e+004,-1.27440578643252e+001,-5.62129686768120e-001

5.89707686916437e+004,-1.27440577350547e+001,-5.69976739933776e-001

5.97939699453972e+004,-1.27440576021507e+001,-5.77933334523499e-001

6.06286626604156e+004,-1.27440574655110e+001,-5.86000999705797e-001

6.14750072515201e+004,-1.27440573250306e+001,-5.94181285996685e-001

6.23331663728396e+004,-1.27440571806016e+001,-6.02475765558596e-001

6.32033049490698e+004,-1.27440570321130e+001,-6.10886032500712e-001

6.40855902071694e+004,-1.27440568794508e+001,-6.19413703186812e-001

6.49801917084985e+004,-1.27440567224976e+001,-6.28060416546160e-001

6.58872813814055e+004,-1.27440565611330e+001,-6.36827834387305e-001

6.68070335542691e+004,-1.27440563952328e+001,-6.45717641718641e-001

6.77396249890018e+004,-1.27440562246698e+001,-6.54731547072003e-001

6.86852349150199e+004,-1.27440560493128e+001,-6.63871282831148e-001

6.96440450636895e+004,-1.27440558690271e+001,-6.73138605564305e-001

7.06162397032520e+004,-1.27440556836743e+001,-6.82535296362387e-001

7.16020056742374e+004,-1.27440554931120e+001,-6.92063161181324e-001

7.26015324253724e+004,-1.27440552971938e+001,-7.01724031189691e-001

7.36150120499896e+004,-1.27440550957692e+001,-7.11519763118604e-001

7.46426393229441e+004,-1.27440548886835e+001,-7.21452239622498e-001

7.56846117380472e+004,-1.27440546757777e+001,-7.31523369637108e-001

7.67411295460207e+004,-1.27440544568882e+001,-7.41735088748743e-001

7.78123957929823e+004,-1.27440542318469e+001,-7.52089359565880e-001

7.88986163594682e+004,-1.27440540004809e+001,-7.62588172097070e-001

7.99999999999995e+004,-1.27440537626127e+001,-7.73233544131093e-001

8.11167583832018e+004,-1.27440535180595e+001,-7.84027521628458e-001

8.22491061324848e+004,-1.27440532666335e+001,-7.94972179112660e-001

8.33972608672892e+004,-1.27440530081416e+001,-8.06069620068975e-001

8.45614432449099e+004,-1.27440527423854e+001,-8.17321977349035e-001

8.57418770029029e+004,-1.27440524691607e+001,-8.28731413581499e-001

8.69387890020841e+004,-1.27440521882578e+001,-8.40300121587624e-001

8.81524092701283e+004,-1.27440518994611e+001,-8.52030324802362e-001

8.93829710457770e+004,-1.27440516025486e+001,-8.63924277703001e-001

9.06307108236633e+004,-1.27440512972926e+001,-8.75984266240849e-001

9.18958683997622e+004,-1.27440509834586e+001,-8.88212608281815e-001

9.31786869174758e+004,-1.27440506608057e+001,-9.00611654053267e-001

9.44794129143618e+004,-1.27440503290862e+001,-9.13183786593665e-001

9.57982963695136e+004,-1.27440499880455e+001,-9.25931422211639e-001

9.71355907516031e+004,-1.27440496374217e+001,-9.38857010951806e-001

9.84915530675926e+004,-1.27440492769458e+001,-9.51963037064405e-001

9.98664439121282e+004,-1.27440489063411e+001,-9.65252019483237e-001

1.01260527517622e+005,-1.27440485253231e+001,-9.78726512310197e-001

1.02674071805032e+005,-1.27440481335993e+001,-9.92389105307945e-001

1.04107348435354e+005,-1.27440477308693e+001,-1.00624242439418e+000

1.05560632861831e+005,-1.27440473168238e+001,-1.02028913215094e+000

1.07034204382888e+005,-1.27440468911452e+001,-1.03453192833340e+000

1.08528346195813e+005,-1.27440464535069e+001,-1.04897355039128e+000

1.10043345451179e+005,-1.27440460035729e+001,-1.06361677399383e+000

1.11579493308032e+005,-1.27440455409982e+001,-1.07846441356351e+000

1.13137084989847e+005,-1.27440450654279e+001,-1.09351932281878e+000

1.14716419841265e+005,-1.27440445764970e+001,-1.10878439532213e+000

1.16317801385624e+005,-1.27440440738306e+001,-1.12426256503598e+000

1.17941537383287e+005,-1.27440435570430e+001,-1.13995680688790e+000

1.19587939890794e+005,-1.27440430257379e+001,-1.15587013734159e+000

1.21257325320831e+005,-1.27440424795078e+001,-1.17200561497979e+000

1.22950014503040e+005,-1.27440419179337e+001,-1.18836634108863e+000

1.24666332745679e+005,-1.27440413405850e+001,-1.20495546025784e+000

1.26406609898139e+005,-1.27440407470190e+001,-1.22177616098287e+000

1.28171180414339e+005,-1.27440401367805e+001,-1.23883167628084e+000

1.29960383416997e+005,-1.27440395094018e+001,-1.25612528430926e+000

1.31774562762811e+005,-1.27440388644017e+001,-1.27366030900010e+000

1.33614067108538e+005,-1.27440382012858e+001,-1.29144012069694e+000

1.35479249978003e+005,-1.27440375195460e+001,-1.30946813680347e+000

1.37370469830040e+005,-1.27440368186596e+001,-1.32774782244223e+000

1.39288090127379e+005,-1.27440360980894e+001,-1.34628269112083e+000

1.41232479406504e+005,-1.27440353572833e+001,-1.36507630540663e+000

1.43204011348474e+005,-1.27440345956736e+001,-1.38413227761445e+000

1.45203064850745e+005,-1.27440338126768e+001,-1.40345427049916e+000

1.47230024099979e+005,-1.27440330076930e+001,-1.42304599796270e+000

1.49285278645888e+005,-1.27440321801056e+001,-1.44291122576749e+000

1.51369223476094e+005,-1.27440313292806e+001,-1.46305377226138e+000

1.53482259092041e+005,-1.27440304545665e+001,-1.48347750911188e+000

1.55624791585964e+005,-1.27440295552933e+001,-1.50418636205280e+000

1.57797232718936e+005,-1.27440286307725e+001,-1.52518431163788e+000

1.59999999999999e+005,-1.27440276802962e+001,-1.54647539400819e+000

1.62233516766403e+005,-1.27440267031368e+001,-1.56806370166856e+000

1.64498212264969e+005,-1.27440256985464e+001,-1.58995338427462e+000

1.66794521734578e+005,-1.27440246657558e+001,-1.61214864943379e+000

1.69122886489819e+005,-1.27440236039750e+001,-1.63465376351152e+000

1.71483754005805e+005,-1.27440225123914e+001,-1.65747305245658e+000

1.73877578004168e+005,-1.27440213901699e+001,-1.68061090263050e+000

1.76304818540256e+005,-1.27440202364520e+001,-1.70407176165466e+000

1.78765942091554e+005,-1.27440190503553e+001,-1.72786013926449e+000

1.81261421647326e+005,-1.27440178309728e+001,-1.75198060817935e+000

1.83791736799524e+005,-1.27440165773719e+001,-1.77643780498215e+000

1.86357373834951e+005,-1.27440152885945e+001,-1.80123643101202e+000

1.88958825828723e+005,-1.27440139636552e+001,-1.82638125327073e+000

1.91596592739027e+005,-1.27440126015416e+001,-1.85187710533958e+000

1.94271181503206e+005,-1.27440112012126e+001,-1.87772888831068e+000

1.96983106135185e+005,-1.27440097615986e+001,-1.90394157173082e+000

1.99732887824256e+005,-1.27440082815997e+001,-1.93052019455930e+000

2.02521055035243e+005,-1.27440067600856e+001,-1.95746986613800e+000

2.05348143610063e+005,-1.27440051958945e+001,-1.98479576717545e+000

2.08214696870707e+005,-1.27440035878322e+001,-2.01250315074543e+000

2.11121265723661e+005,-1.27440019346712e+001,-2.04059734329860e+000

2.14068408765776e+005,-1.27440002351500e+001,-2.06908374568936e+000

2.17056692391625e+005,-1.27439984879718e+001,-2.09796783421576e+000

2.20086690902357e+005,-1.27439966918037e+001,-2.12725516167593e+000

2.23158986616063e+005,-1.27439948452760e+001,-2.15695135843710e+000

2.26274169979693e+005,-1.27439929469806e+001,-2.18706213352112e+000

2.29432839682530e+005,-1.27439909954705e+001,-2.21759327570584e+000

2.32635602771247e+005,-1.27439889892582e+001,-2.24855065463926e+000

2.35883074766574e+005,-1.27439869268153e+001,-2.27994022197233e+000

2.39175879781588e+005,-1.27439848065707e+001,-2.31176801250647e+000

2.42514650641661e+005,-1.27439826269095e+001,-2.34404014535653e+000

2.45900029006080e+005,-1.27439803861724e+001,-2.37676282513128e+000

2.49332665491357e+005,-1.27439780826538e+001,-2.40994234312960e+000

2.52813219796278e+005,-1.27439757146009e+001,-2.44358507855447e+000

2.56342360828676e+005,-1.27439732802122e+001,-2.47769749974307e+000

2.59920766833993e+005,-1.27439707776365e+001,-2.51228616541470e+000

2.63549125525621e+005,-1.27439682049713e+001,-2.54735772593553e+000

2.67228134217075e+005,-1.27439655602612e+001,-2.58291892460342e+000

2.70958499956006e+005,-1.27439628414969e+001,-2.61897659894786e+000

2.74740939660078e+005,-1.27439600466135e+001,-2.65553768204953e+000

2.78576180254757e+005,-1.27439571734889e+001,-2.69260920387961e+000

2.82464958813007e+005,-1.27439542199427e+001,-2.73019829265536e+000

2.86408022696948e+005,-1.27439511837338e+001,-2.76831217621848e+000

2.90406129701488e+005,-1.27439480625596e+001,-2.80695818342815e+000

2.94460048199957e+005,-1.27439448540539e+001,-2.84614374557850e+000

2.98570557291775e+005,-1.27439415557852e+001,-2.88587639783291e+000

3.02738446952187e+005,-1.27439381652549e+001,-2.92616378067969e+000

3.06964518184081e+005,-1.27439346798959e+001,-2.96701364140830e+000

3.11249583171928e+005,-1.27439310970700e+001,-3.00843383560647e+000

3.15594465437872e+005,-1.27439274140669e+001,-3.05043232867798e+000

3.19999999999997e+005,-1.27439236281015e+001,-3.09301719738267e+000

3.24467033532806e+005,-1.27439197363122e+001,-3.13619663139717e+000

3.28996424529938e+005,-1.27439157357588e+001,-3.17997893489944e+000

3.33589043469155e+005,-1.27439116234207e+001,-3.22437252817344e+000

3.38245772979638e+005,-1.27439073961942e+001,-3.26938594923841e+000

3.42967508011610e+005,-1.27439030508907e+001,-3.31502785550031e+000

3.47755156008335e+005,-1.27438985842343e+001,-3.36130702542687e+000

3.52609637080511e+005,-1.27438939928594e+001,-3.40823236024658e+000

3.57531884183106e+005,-1.27438892733086e+001,-3.45581288567140e+000

3.62522843294651e+005,-1.27438844220299e+001,-3.50405775364403e+000

3.67583473599047e+005,-1.27438794353744e+001,-3.55297624411031e+000

3.72714747669902e+005,-1.27438743095939e+001,-3.60257776681582e+000

3.77917651657445e+005,-1.27438690408379e+001,-3.65287186312995e+000

3.83193185478053e+005,-1.27438636251511e+001,-3.70386820789307e+000

3.88542363006410e+005,-1.27438580584709e+001,-3.75557661129261e+000

3.93966212270369e+005,-1.27438523366242e+001,-3.80800702076419e+000

3.99465775648511e+005,-1.27438464553246e+001,-3.86116952292089e+000

4.05042110070485e+005,-1.27438404101697e+001,-3.91507434550869e+000

4.10696287220124e+005,-1.27438341966377e+001,-3.96973185939125e+000

4.16429393741414e+005,-1.27438278100849e+001,-4.02515258056172e+000

4.22242531447321e+005,-1.27438212457416e+001,-4.08134717218380e+000

4.28136817531551e+005,-1.27438144987099e+001,-4.13832644666231e+000

4.34113384783250e+005,-1.27438075639596e+001,-4.19610136774288e+000

4.40173381804713e+005,-1.27438004363254e+001,-4.25468305264099e+000

4.46317973232124e+005,-1.27437931105028e+001,-4.31408277420317e+000

4.52548339959385e+005,-1.27437855810452e+001,-4.37431196309687e+000

4.58865679365059e+005,-1.27437778423599e+001,-4.43538221003423e+000

4.65271205542494e+005,-1.27437698887046e+001,-4.49730526802533e+000

4.71766149533147e+005,-1.27437617141833e+001,-4.56009305466507e+000

4.78351759563174e+005,-1.27437533127428e+001,-4.62375765445302e+000

4.85029301283321e+005,-1.27437446781687e+001,-4.68831132114500e+000

4.91800058012158e+005,-1.27437358040812e+001,-4.75376648014093e+000

4.98665330982714e+005,-1.27437266839308e+001,-4.82013573090486e+000

5.05626439592555e+005,-1.27437173109950e+001,-4.88743184942011e+000

5.12684721657352e+005,-1.27437076783728e+001,-4.95566779068113e+000

5.19841533667984e+005,-1.27436977789810e+001,-5.02485669122043e+000

5.27098251051240e+005,-1.27436876055501e+001,-5.09501187167093e+000

5.34456268434150e+005,-1.27436771506188e+001,-5.16614683936686e+000

5.41916999912011e+005,-1.27436664065302e+001,-5.23827529098189e+000

