Freq.,VOut,OutRef

1.00000000000000e+004,-5.64235311386997e+000,-8.97451265679565e-002

1.01395947979003e+004,-5.64235303275234e+000,-9.09979222463584e-002

1.02811382665607e+004,-5.64235294935402e+000,-9.22682063185974e-002

1.04246576084112e+004,-5.64235286361116e+000,-9.35562229128609e-002

1.05701804056138e+004,-5.64235277545778e+000,-9.48622195665625e-002

1.07177346253629e+004,-5.64235268482609e+000,-9.61864472734117e-002

1.08673486252606e+004,-5.64235259164624e+000,-9.75291605309864e-002

1.10190511587661e+004,-5.64235249584680e+000,-9.88906173878397e-002

1.11728713807222e+004,-5.64235239735434e+000,-1.00271079494095e-001

1.13288388529580e+004,-5.64235229609256e+000,-1.01670812157704e-001

1.14869835499703e+004,-5.64235219198410e+000,-1.03090084383985e-001

1.16473358646846e+004,-5.64235208494872e+000,-1.04529168936640e-001

1.18099266142953e+004,-5.64235197490408e+000,-1.05988342387508e-001

1.19747870461893e+004,-5.64235186176576e+000,-1.07467885166702e-001

1.21419488439505e+004,-5.64235174544664e+000,-1.08968081621524e-001

1.23114441334492e+004,-5.64235162585723e+000,-1.10489220068343e-001

1.24833054890161e+004,-5.64235150290584e+000,-1.12031592845985e-001

1.26575659397028e+004,-5.64235137649784e+000,-1.13595496376718e-001

1.28342589756290e+004,-5.64235124653611e+000,-1.15181231219559e-001

1.30134185544193e+004,-5.64235111292061e+000,-1.16789102130338e-001

1.31950791077289e+004,-5.64235097554854e+000,-1.18419418119300e-001

1.33792755478611e+004,-5.64235083431455e+000,-1.20072492507854e-001

1.35660432744767e+004,-5.64235068910999e+000,-1.21748642993378e-001

1.37554181813974e+004,-5.64235053982306e+000,-1.23448191709007e-001

1.39474366635040e+004,-5.64235038633902e+000,-1.25171465283427e-001

1.41421356237309e+004,-5.64235022854021e+000,-1.26918794902853e-001

1.43395524801583e+004,-5.64235006630503e+000,-1.28690516380855e-001

1.45397251732031e+004,-5.64234989950853e+000,-1.30486970218674e-001

1.47426921729110e+004,-5.64234972802309e+000,-1.32308501665254e-001

1.49484924863494e+004,-5.64234955171630e+000,-1.34155460796795e-001

1.51571656651040e+004,-5.64234937045296e+000,-1.36028202570535e-001

1.53687518128801e+004,-5.64234918409367e+000,-1.37927086901390e-001

1.55832915932100e+004,-5.64234899249501e+000,-1.39852478729262e-001

1.58008262372675e+004,-5.64234879550992e+000,-1.41804748085858e-001

1.60213975517924e+004,-5.64234859298668e+000,-1.43784270172077e-001

1.62450479271247e+004,-5.64234838476987e+000,-1.45791425422853e-001

1.64718203453514e+004,-5.64234817069921e+000,-1.47826599586852e-001

1.67017583885674e+004,-5.64234795061021e+000,-1.49890183796089e-001

1.69349062472505e+004,-5.64234772433384e+000,-1.51982574641867e-001

1.71713087287550e+004,-5.64234749169581e+000,-1.54104174255193e-001

1.74110112659224e+004,-5.64234725251752e+000,-1.56255390377177e-001

1.76540599258131e+004,-5.64234700661503e+000,-1.58436636442892e-001

1.79005014185594e+004,-5.64234675379925e+000,-1.60648331658258e-001

1.81503831063432e+004,-5.64234649387593e+000,-1.62890901081003e-001

1.84037530124975e+004,-5.64234622664524e+000,-1.65164775703055e-001

1.86606598307361e+004,-5.64234595190159e+000,-1.67470392533549e-001

1.89211529345119e+004,-5.64234566943382e+000,-1.69808194681241e-001

1.91852823865052e+004,-5.64234537902502e+000,-1.72178631439467e-001

1.94530989482457e+004,-5.64234508045146e+000,-1.74582158377846e-001

1.97246540898671e+004,-5.64234477348403e+000,-1.77019237420506e-001

1.99999999999999e+004,-5.64234445788659e+000,-1.79490336943271e-001

2.02791895958005e+004,-5.64234413341654e+000,-1.81995931859630e-001

2.05622765331213e+004,-5.64234379982447e+000,-1.84536503712511e-001

2.08493152168224e+004,-5.64234345685372e+000,-1.87112540768698e-001

2.11403608112276e+004,-5.64234310424093e+000,-1.89724538108327e-001

2.14354692507258e+004,-5.64234274171481e+000,-1.92372997725601e-001

2.17346972505211e+004,-5.64234236899667e+000,-1.95058428621522e-001

2.20381023175322e+004,-5.64234198580012e+000,-1.97781346901730e-001

2.23457427614443e+004,-5.64234159183034e+000,-2.00542275879007e-001

2.26576777059159e+004,-5.64234118678483e+000,-2.03341746168283e-001

2.29739670999406e+004,-5.64234077035181e+000,-2.06180295796273e-001

2.32946717293690e+004,-5.64234034221147e+000,-2.09058470295867e-001

2.36198532285905e+004,-5.64233990203429e+000,-2.11976822820909e-001

2.39495740923785e+004,-5.64233944948221e+000,-2.14935914241868e-001

2.42838976879009e+004,-5.64233898420727e+000,-2.17936313262201e-001

2.46228882668982e+004,-5.64233850585175e+000,-2.20978596524116e-001

2.49666109780322e+004,-5.64233801404777e+000,-2.24063348720683e-001

2.53151318794055e+004,-5.64233750841734e+000,-2.27191162705492e-001

2.56685179512580e+004,-5.64233698857178e+000,-2.30362639609738e-001

2.60268371088386e+004,-5.64233645411158e+000,-2.33578388955057e-001

2.63901582154578e+004,-5.64233590462553e+000,-2.36839028775658e-001

2.67585510957221e+004,-5.64233533969157e+000,-2.40145185728796e-001

2.71320865489533e+004,-5.64233475887513e+000,-2.43497495224659e-001

2.75108363627948e+004,-5.64233416172980e+000,-2.46896601541028e-001

2.78948733270080e+004,-5.64233354779657e+000,-2.50343157950836e-001

2.82842712474618e+004,-5.64233291660337e+000,-2.53837826847573e-001

2.86791049603164e+004,-5.64233226766509e+000,-2.57381279870642e-001

2.90794503464061e+004,-5.64233160048273e+000,-2.60974198037464e-001

2.94853843458219e+004,-5.64233091454341e+000,-2.64617271871903e-001

2.98969849726987e+004,-5.64233020931980e+000,-2.68311201537714e-001

3.03143313302078e+004,-5.64232948426992e+000,-2.72056696972683e-001

3.07375036257601e+004,-5.64232873883609e+000,-2.75854478028241e-001

3.11665831864199e+004,-5.64232797244544e+000,-2.79705274602563e-001

3.16016524745350e+004,-5.64232718450886e+000,-2.83609826784143e-001

3.20427951035848e+004,-5.64232637442045e+000,-2.87568884995530e-001

3.24900958542493e+004,-5.64232554155752e+000,-2.91583210133310e-001

3.29436406907028e+004,-5.64232468527978e+000,-2.95653573718326e-001

3.34035167771346e+004,-5.64232380492899e+000,-2.99780758041516e-001

3.38698124945009e+004,-5.64232289982842e+000,-3.03965556314785e-001

3.43426174575100e+004,-5.64232196928206e+000,-3.08208772826110e-001

3.48220225318448e+004,-5.64232101257481e+000,-3.12511223088991e-001

3.53081198516260e+004,-5.64232002897108e+000,-3.16873734004358e-001

3.58010028371187e+004,-5.64231901771473e+000,-3.21297144016427e-001

3.63007662126863e+004,-5.64231797802828e+000,-3.25782303275892e-001

3.68075060249948e+004,-5.64231690911268e+000,-3.30330073800414e-001

3.73213196614721e+004,-5.64231581014594e+000,-3.34941329645222e-001

3.78423058690237e+004,-5.64231468028338e+000,-3.39616957065792e-001

3.83705647730104e+004,-5.64231351865632e+000,-3.44357854692074e-001

3.89061978964912e+004,-5.64231232437182e+000,-3.49164933699120e-001

3.94493081797342e+004,-5.64231109651182e+000,-3.54039117983478e-001

3.99999999999998e+004,-5.64230983413246e+000,-3.58981344340043e-001

4.05583791916010e+004,-5.64230853626307e+000,-3.63992562644055e-001

4.11245530662425e+004,-5.64230720190601e+000,-3.69073736031066e-001

4.16986304336447e+004,-5.64230583003553e+000,-3.74225841083259e-001

4.22807216224550e+004,-5.64230441959691e+000,-3.79449868018432e-001

4.28709385014515e+004,-5.64230296950605e+000,-3.84746820877297e-001

4.34693945010421e+004,-5.64230147864803e+000,-3.90117717720978e-001

4.40762046350642e+004,-5.64229994587696e+000,-3.95563590822208e-001

4.46914855228886e+004,-5.64229837001442e+000,-4.01085486867810e-001

4.53153554118317e+004,-5.64229674984884e+000,-4.06684467158223e-001

4.59479341998812e+004,-5.64229508413492e+000,-4.12361607809872e-001

4.65893434587380e+004,-5.64229337159213e+000,-4.18117999964793e-001

4.72397064571810e+004,-5.64229161090388e+000,-4.23954750000422e-001

4.78991481847569e+004,-5.64228980071683e+000,-4.29872979739324e-001

4.85677953758016e+004,-5.64228793963919e+000,-4.35873826669971e-001

4.92457765337964e+004,-5.64228602624041e+000,-4.41958444160126e-001

4.99332219560642e+004,-5.64228405904964e+000,-4.48128001681848e-001

5.06302637588109e+004,-5.64228203655457e+000,-4.54383685036484e-001

5.13370359025159e+004,-5.64227995720039e+000,-4.60726696582021e-001

5.20536742176771e+004,-5.64227781938876e+000,-4.67158255462968e-001

5.27803164309155e+004,-5.64227562147616e+000,-4.73679597848191e-001

5.35171021914442e+004,-5.64227336177302e+000,-4.80291977165364e-001

5.42641730979066e+004,-5.64227103854226e+000,-4.86996664344276e-001

5.50216727255895e+004,-5.64226864999791e+000,-4.93794948060073e-001

5.57897466540159e+004,-5.64226619430394e+000,-5.00688134981298e-001

5.65685424949235e+004,-5.64226366957241e+000,-5.07677550023251e-001

5.73582099206328e+004,-5.64226107386266e+000,-5.14764536598819e-001

5.81589006928121e+004,-5.64225840517928e+000,-5.21950456880896e-001

5.89707686916437e+004,-5.64225566147069e+000,-5.29236692063267e-001

5.97939699453972e+004,-5.64225284062793e+000,-5.36624642623956e-001

6.06286626604156e+004,-5.64224994048236e+000,-5.44115728599301e-001

6.14750072515201e+004,-5.64224695880484e+000,-5.51711389851733e-001

6.23331663728396e+004,-5.64224389330310e+000,-5.59413086352764e-001

6.32033049490698e+004,-5.64224074162063e+000,-5.67222298459155e-001

6.40855902071694e+004,-5.64223750133488e+000,-5.75140527198538e-001

6.49801917084985e+004,-5.64223416995487e+000,-5.83169294561233e-001

6.58872813814055e+004,-5.64223074491981e+000,-5.91310143789799e-001

6.68070335542691e+004,-5.64222722359688e+000,-5.99564639677629e-001

6.77396249890018e+004,-5.64222360327911e+000,-6.07934368870611e-001

6.86852349150199e+004,-5.64221988118360e+000,-6.16420940170745e-001

6.96440450636895e+004,-5.64221605444921e+000,-6.25025984847181e-001

7.06162397032520e+004,-5.64221212013440e+000,-6.33751156949179e-001

7.16020056742374e+004,-5.64220807521469e+000,-6.42598133627110e-001

7.26015324253724e+004,-5.64220391658091e+000,-6.51568615451161e-001

7.36150120499896e+004,-5.64219964103635e+000,-6.60664326741697e-001

7.46426393229441e+004,-5.64219524529442e+000,-6.69887015900793e-001

7.56846117380472e+004,-5.64219072597624e+000,-6.79238455747744e-001

7.67411295460207e+004,-5.64218607960774e+000,-6.88720443862525e-001

7.78123957929823e+004,-5.64218130261747e+000,-6.98334802928786e-001

7.88986163594682e+004,-5.64217639133335e+000,-7.08083381088126e-001

7.99999999999995e+004,-5.64217134198035e+000,-7.17968052292848e-001

8.11167583832018e+004,-5.64216615067699e+000,-7.27990716670201e-001

8.22491061324848e+004,-5.64216081343289e+000,-7.38153300885943e-001

8.33972608672892e+004,-5.64215532614565e+000,-7.48457758514668e-001

8.45614432449099e+004,-5.64214968459723e+000,-7.58906070419697e-001

8.57418770029029e+004,-5.64214388445123e+000,-7.69500245130791e-001

8.69387890020841e+004,-5.64213792124929e+000,-7.80242319233865e-001

8.81524092701283e+004,-5.64213179040780e+000,-7.91134357761449e-001

8.93829710457770e+004,-5.64212548721419e+000,-8.02178454591480e-001

9.06307108236633e+004,-5.64211900682366e+000,-8.13376732850379e-001

9.18958683997622e+004,-5.64211234425503e+000,-8.24731345322393e-001

9.31786869174758e+004,-5.64210549438712e+000,-8.36244474865338e-001

9.44794129143618e+004,-5.64209845195495e+000,-8.47918334828696e-001

9.57982963695136e+004,-5.64209121154538e+000,-8.59755169483359e-001

9.71355907516031e+004,-5.64208376759326e+000,-8.71757254451808e-001

9.84915530675926e+004,-5.64207611437694e+000,-8.83926897148304e-001

9.98664439121282e+004,-5.64206824601412e+000,-8.96266437221995e-001

1.01260527517622e+005,-5.64206015645684e+000,-9.08778247011108e-001

1.02674071805032e+005,-5.64205183948750e+000,-9.21464731996477e-001

1.04107348435354e+005,-5.64204328871355e+000,-9.34328331268402e-001

1.05560632861831e+005,-5.64203449756283e+000,-9.47371517995540e-001

1.07034204382888e+005,-5.64202545927850e+000,-9.60596799902406e-001

1.08528346195813e+005,-5.64201616691377e+000,-9.74006719753521e-001

1.10043345451179e+005,-5.64200661332659e+000,-9.87603855843043e-001

1.11579493308032e+005,-5.64199679117430e+000,-1.00139082249238e+000

1.13137084989847e+005,-5.64198669290777e+000,-1.01537027055532e+000

1.14716419841265e+005,-5.64197631076573e+000,-1.02954488792909e+000

1.16317801385624e+005,-5.64196563676876e+000,-1.04391740007374e+000

1.17941537383287e+005,-5.64195466271330e+000,-1.05849057053620e+000

1.19587939890794e+005,-5.64194338016524e+000,-1.07326720148617e+000

1.21257325320831e+005,-5.64193178045322e+000,-1.08825013425691e+000

1.22950014503040e+005,-5.64191985466243e+000,-1.10344224989225e+000

1.24666332745679e+005,-5.64190759362751e+000,-1.11884646970360e+000

1.26406609898139e+005,-5.64189498792546e+000,-1.13446575583535e+000

1.28171180414339e+005,-5.64188202786840e+000,-1.15030311183634e+000

1.29960383416997e+005,-5.64186870349648e+000,-1.16636158323881e+000

1.31774562762811e+005,-5.64185500456970e+000,-1.18264425814962e+000

1.33614067108538e+005,-5.64184092056043e+000,-1.19915426784466e+000

1.35479249978003e+005,-5.64182644064527e+000,-1.21589478737489e+000

1.37370469830040e+005,-5.64181155369643e+000,-1.23286903618129e+000

1.39288090127379e+005,-5.64179624827378e+000,-1.25008027871519e+000

1.41232479406504e+005,-5.64178051261551e+000,-1.26753182507136e+000

1.43204011348474e+005,-5.64176433462939e+000,-1.28522703162712e+000

1.45203064850745e+005,-5.64174770188338e+000,-1.30316930169260e+000

1.47230024099979e+005,-5.64173060159624e+000,-1.32136208616813e+000

1.49285278645888e+005,-5.64171302062743e+000,-1.33980888421365e+000

1.51369223476094e+005,-5.64169494546734e+000,-1.35851324392418e+000

1.53482259092041e+005,-5.64167636222678e+000,-1.37747876301795e+000

1.55624791585964e+005,-5.64165725662629e+000,-1.39670908953295e+000

1.57797232718936e+005,-5.64163761398525e+000,-1.41620792253302e+000

1.59999999999999e+005,-5.64161741921055e+000,-1.43597901282497e+000

1.62233516766403e+005,-5.64159665678513e+000,-1.45602616368498e+000

1.64498212264969e+005,-5.64157531075593e+000,-1.47635323159605e+000

1.66794521734578e+005,-5.64155336472177e+000,-1.49696412699514e+000

1.69122886489819e+005,-5.64153080182065e+000,-1.51786281503245e+000

1.71483754005805e+005,-5.64150760471693e+000,-1.53905331633920e+000

1.73877578004168e+005,-5.64148375558799e+000,-1.56053970780836e+000

1.76304818540256e+005,-5.64145923611061e+000,-1.58232612338535e+000

1.78765942091554e+005,-5.64143402744673e+000,-1.60441675487177e+000

1.81261421647326e+005,-5.64140811022926e+000,-1.62681585273721e+000

1.83791736799524e+005,-5.64138146454712e+000,-1.64952772694637e+000

1.86357373834951e+005,-5.64135406992984e+000,-1.67255674779640e+000

1.88958825828723e+005,-5.64132590533221e+000,-1.69590734676427e+000

1.91596592739027e+005,-5.64129694911767e+000,-1.71958401737118e+000

1.94271181503206e+005,-5.64126717904218e+000,-1.74359131605408e+000

1.96983106135185e+005,-5.64123657223690e+000,-1.76793386305270e+000

1.99732887824256e+005,-5.64120510519079e+000,-1.79261634330839e+000

2.02521055035243e+005,-5.64117275373254e+000,-1.81764350737639e+000

2.05348143610063e+005,-5.64113949301194e+000,-1.84302017235138e+000

2.08214696870707e+005,-5.64110529748102e+000,-1.86875122280459e+000

2.11121265723661e+005,-5.64107014087449e+000,-1.89484161173597e+000

2.14068408765776e+005,-5.64103399618934e+000,-1.92129636154100e+000

2.17056692391625e+005,-5.64099683566464e+000,-1.94812056498739e+000

2.20086690902357e+005,-5.64095863075969e+000,-1.97531938621256e+000

2.23158986616063e+005,-5.64091935213272e+000,-2.00289806172749e+000

2.26274169979693e+005,-5.64087896961796e+000,-2.03086190144262e+000

2.29432839682530e+005,-5.64083745220287e+000,-2.05921628970304e+000

2.32635602771247e+005,-5.64079476800424e+000,-2.08796668634156e+000

2.35883074766574e+005,-5.64075088424393e+000,-2.11711862774582e+000

2.39175879781588e+005,-5.64070576722346e+000,-2.14667772794255e+000

2.42514650641661e+005,-5.64065938229861e+000,-2.17664967969478e+000

2.45900029006080e+005,-5.64061169385269e+000,-2.20704025561755e+000

2.49332665491357e+005,-5.64056266526939e+000,-2.23785530930836e+000

2.52813219796278e+005,-5.64051225890458e+000,-2.26910077649578e+000

2.56342360828676e+005,-5.64046043605781e+000,-2.30078267620184e+000

2.59920766833993e+005,-5.64040715694243e+000,-2.33290711192499e+000

2.63549125525621e+005,-5.64035238065549e+000,-2.36548027283690e+000

2.67228134217075e+005,-5.64029606514601e+000,-2.39850843500041e+000

2.70958499956006e+005,-5.64023816718342e+000,-2.43199796260109e+000

2.74740939660078e+005,-5.64017864232382e+000,-2.46595530920208e+000

2.78576180254757e+005,-5.64011744487684e+000,-2.50038701901086e+000

2.82464958813007e+005,-5.64005452786990e+000,-2.53529972817216e+000

2.86408022696948e+005,-5.63998984301295e+000,-2.57070016607304e+000

2.90406129701488e+005,-5.63992334066129e+000,-2.60659515667146e+000

2.94460048199957e+005,-5.63985496977776e+000,-2.64299161984341e+000

2.98570557291775e+005,-5.63978467789375e+000,-2.67989657274929e+000

3.02738446952187e+005,-5.63971241106903e+000,-2.71731713122205e+000

3.06964518184081e+005,-5.63963811385093e+000,-2.75526051117339e+000

3.11249583171928e+005,-5.63956172923158e+000,-2.79373403002437e+000

3.15594465437872e+005,-5.63948319860475e+000,-2.83274510815407e+000

3.19999999999997e+005,-5.63940246172104e+000,-2.87230127037185e+000

3.24467033532806e+005,-5.63931945664199e+000,-2.91241014741078e+000

3.28996424529938e+005,-5.63923411969266e+000,-2.95307947744449e+000

3.33589043469155e+005,-5.63914638541347e+000,-2.99431710762440e+000

3.38245772979638e+005,-5.63905618650999e+000,-3.03613099564323e+000

3.42967508011610e+005,-5.63896345380183e+000,-3.07852921131975e+000

3.47755156008335e+005,-5.63886811616994e+000,-3.12151993820806e+000

3.52609637080511e+005,-5.63877010050246e+000,-3.16511147523168e+000

3.57531884183106e+005,-5.63866933163900e+000,-3.20931223834221e+000

3.62522843294651e+005,-5.63856573231360e+000,-3.25413076220238e+000

3.67583473599047e+005,-5.63845922309583e+000,-3.29957570189585e+000

3.72714747669902e+005,-5.63834972233046e+000,-3.34565583466236e+000

3.77917651657445e+005,-5.63823714607527e+000,-3.39238006165994e+000

3.83193185478053e+005,-5.63812140803736e+000,-3.43975740975394e+000

3.88542363006410e+005,-5.63800241950759e+000,-3.48779703333286e+000

3.93966212270369e+005,-5.63788008929313e+000,-3.53650821615308e+000

3.99465775648511e+005,-5.63775432364827e+000,-3.58590037321210e+000

4.05042110070485e+005,-5.63762502620339e+000,-3.63598305264908e+000

4.10696287220124e+005,-5.63749209789148e+000,-3.68676593767814e+000

4.16429393741414e+005,-5.63735543687352e+000,-3.73825884854798e+000

4.22242531447321e+005,-5.63721493846081e+000,-3.79047174453476e+000

4.28136817531551e+005,-5.63707049503589e+000,-3.84341472596548e+000

4.34113384783250e+005,-5.63692199597105e+000,-3.89709803627161e+000

4.40173381804713e+005,-5.63676932754437e+000,-3.95153206407767e+000

4.46317973232124e+005,-5.63661237285383e+000,-4.00672734532100e+000

4.52548339959385e+005,-5.63645101172882e+000,-4.06269456540478e+000

4.58865679365059e+005,-5.63628512063918e+000,-4.11944456138668e+000

4.65271205542494e+005,-5.63611457260195e+000,-4.17698832420174e+000

4.71766149533147e+005,-5.63593923708548e+000,-4.23533700091956e+000

4.78351759563174e+005,-5.63575897991069e+000,-4.29450189703982e+000

4.85029301283321e+005,-5.63557366315005e+000,-4.35449447882293e+000

4.91800058012158e+005,-5.63538314502330e+000,-4.41532637565940e+000

4.98665330982714e+005,-5.63518727979079e+000,-4.47700938247721e+000

5.05626439592555e+005,-5.63498591764347e+000,-4.53955546218808e+000

5.12684721657352e+005,-5.63477890459032e+000,-4.60297674817309e+000

5.19841533667984e+005,-5.63456608234227e+000,-4.66728554681120e+000

5.27098251051240e+005,-5.63434728819320e+000,-4.73249434004722e+000

5.34456268434150e+005,-5.63412235489781e+000,-4.79861578800148e+000

5.41916999912011e+005,-5.63389111054571e+000,-4.86566273162643e+000

