Freq.,VOut,OutRef

1.00000000000000e+004,-1.27189020470485e+001,-1.89932876203441e-001

1.01395947979003e+004,-1.27189020304262e+001,-1.92584240952392e-001

1.02811382665607e+004,-1.27189020133366e+001,-1.95272617399022e-001

1.04246576084112e+004,-1.27189019957665e+001,-1.97998522209872e-001

1.05701804056138e+004,-1.27189019777025e+001,-2.00762479261125e-001

1.07177346253629e+004,-1.27189019591307e+001,-2.03565019743478e-001

1.08673486252606e+004,-1.27189019400368e+001,-2.06406682263415e-001

1.10190511587661e+004,-1.27189019204061e+001,-2.09288012945711e-001

1.11728713807222e+004,-1.27189019002234e+001,-2.12209565538099e-001

1.13288388529580e+004,-1.27189018794734e+001,-2.15171901519373e-001

1.14869835499703e+004,-1.27189018581401e+001,-2.18175590204828e-001

1.16473358646846e+004,-1.27189018362070e+001,-2.21221208859339e-001

1.18099266142953e+004,-1.27189018136572e+001,-2.24309342804642e-001

1.19747870461893e+004,-1.27189017904735e+001,-2.27440585534180e-001

1.21419488439505e+004,-1.27189017666381e+001,-2.30615538825000e-001

1.23114441334492e+004,-1.27189017421326e+001,-2.33834812856115e-001

1.24833054890161e+004,-1.27189017169382e+001,-2.37099026323372e-001

1.26575659397028e+004,-1.27189016910355e+001,-2.40408806560377e-001

1.28342589756290e+004,-1.27189016644046e+001,-2.43764789657569e-001

1.30134185544193e+004,-1.27189016370249e+001,-2.47167620585176e-001

1.31950791077289e+004,-1.27189016088756e+001,-2.50617953316291e-001

1.33792755478611e+004,-1.27189015799349e+001,-2.54116450953330e-001

1.35660432744767e+004,-1.27189015501806e+001,-2.57663785856559e-001

1.37554181813974e+004,-1.27189015195900e+001,-2.61260639769991e-001

1.39474366635040e+004,-1.27189014881392e+001,-2.64907703957568e-001

1.41421356237309e+004,-1.27189014558043e+001,-2.68605679330339e-001

1.43395524801583e+004,-1.27189014225604e+001,-2.72355276585098e-001

1.45397251732031e+004,-1.27189013883818e+001,-2.76157216339250e-001

1.47426921729110e+004,-1.27189013532426e+001,-2.80012229269344e-001

1.49484924863494e+004,-1.27189013171153e+001,-2.83921056253953e-001

1.51571656651040e+004,-1.27189012799724e+001,-2.87884448511699e-001

1.53687518128801e+004,-1.27189012417855e+001,-2.91903167748139e-001

1.55832915932100e+004,-1.27189012025248e+001,-2.95977986304526e-001

1.58008262372675e+004,-1.27189011621606e+001,-3.00109687300073e-001

1.60213975517924e+004,-1.27189011206615e+001,-3.04299064789675e-001

1.62450479271247e+004,-1.27189010779959e+001,-3.08546923910197e-001

1.64718203453514e+004,-1.27189010341308e+001,-3.12854081039196e-001

1.67017583885674e+004,-1.27189009890326e+001,-3.17221363950995e-001

1.69349062472505e+004,-1.27189009426665e+001,-3.21649611974534e-001

1.71713087287550e+004,-1.27189008949970e+001,-3.26139676156217e-001

1.74110112659224e+004,-1.27189008459874e+001,-3.30692419421316e-001

1.76540599258131e+004,-1.27189007956000e+001,-3.35308716744266e-001

1.79005014185594e+004,-1.27189007437962e+001,-3.39989455310903e-001

1.81503831063432e+004,-1.27189006905360e+001,-3.44735534694164e-001

1.84037530124975e+004,-1.27189006357786e+001,-3.49547867022501e-001

1.86606598307361e+004,-1.27189005794818e+001,-3.54427377160356e-001

1.89211529345119e+004,-1.27189005216024e+001,-3.59375002880249e-001

1.91852823865052e+004,-1.27189004620960e+001,-3.64391695047414e-001

1.94530989482457e+004,-1.27189004009167e+001,-3.69478417800721e-001

1.97246540898671e+004,-1.27189003380175e+001,-3.74636148737827e-001

1.99999999999999e+004,-1.27189002733501e+001,-3.79865879104401e-001

2.02791895958005e+004,-1.27189002068648e+001,-3.85168613982359e-001

2.05622765331213e+004,-1.27189001385105e+001,-3.90545372485264e-001

2.08493152168224e+004,-1.27189000682348e+001,-3.95997187952179e-001

2.11403608112276e+004,-1.27188999959834e+001,-4.01525108149733e-001

2.14354692507258e+004,-1.27188999217010e+001,-4.07130195469391e-001

2.17346972505211e+004,-1.27188998453304e+001,-4.12813527133313e-001

2.20381023175322e+004,-1.27188997668128e+001,-4.18576195402888e-001

2.23457427614443e+004,-1.27188996860882e+001,-4.24419307785767e-001

2.26576777059159e+004,-1.27188996030941e+001,-4.30343987252128e-001

2.29739670999406e+004,-1.27188995177671e+001,-4.36351372446630e-001

2.32946717293690e+004,-1.27188994300415e+001,-4.42442617910553e-001

2.36198532285905e+004,-1.27188993398498e+001,-4.48618894302106e-001

2.39495740923785e+004,-1.27188992471228e+001,-4.54881388622573e-001

2.42838976879009e+004,-1.27188991517891e+001,-4.61231304442852e-001

2.46228882668982e+004,-1.27188990537755e+001,-4.67669862135687e-001

2.49666109780322e+004,-1.27188989530068e+001,-4.74198299110895e-001

2.53151318794055e+004,-1.27188988494054e+001,-4.80817870051039e-001

2.56685179512580e+004,-1.27188987428917e+001,-4.87529847156170e-001

2.60268371088386e+004,-1.27188986333840e+001,-4.94335520384533e-001

2.63901582154578e+004,-1.27188985207978e+001,-5.01236197703557e-001

2.67585510957221e+004,-1.27188984050470e+001,-5.08233205338389e-001

2.71320865489533e+004,-1.27188982860424e+001,-5.15327888029707e-001

2.75108363627948e+004,-1.27188981636927e+001,-5.22521609290196e-001

2.78948733270080e+004,-1.27188980379036e+001,-5.29815751668041e-001

2.82842712474618e+004,-1.27188979085788e+001,-5.37211717011272e-001

2.86791049603164e+004,-1.27188977756187e+001,-5.44710926737850e-001

2.90794503464061e+004,-1.27188976389211e+001,-5.52314822109428e-001

2.94853843458219e+004,-1.27188974983811e+001,-5.60024864508118e-001

2.98969849726987e+004,-1.27188973538907e+001,-5.67842535715877e-001

3.03143313302078e+004,-1.27188972053387e+001,-5.75769338202671e-001

3.07375036257601e+004,-1.27188970526112e+001,-5.83806795411173e-001

3.11665831864199e+004,-1.27188968955908e+001,-5.91956452053258e-001

3.16016524745350e+004,-1.27188967341567e+001,-6.00219874404615e-001

3.20427951035848e+004,-1.27188965681849e+001,-6.08598650607795e-001

3.24900958542493e+004,-1.27188963975481e+001,-6.17094390974091e-001

3.29436406907028e+004,-1.27188962221149e+001,-6.25708728297772e-001

3.34035167771346e+004,-1.27188960417507e+001,-6.34443318165049e-001

3.38698124945009e+004,-1.27188958563169e+001,-6.43299839277572e-001

3.43426174575100e+004,-1.27188956656710e+001,-6.52279993769978e-001

3.48220225318448e+004,-1.27188954696665e+001,-6.61385507540893e-001

3.53081198516260e+004,-1.27188952681529e+001,-6.70618130582335e-001

3.58010028371187e+004,-1.27188950609754e+001,-6.79979637318028e-001

3.63007662126863e+004,-1.27188948479748e+001,-6.89471826942391e-001

3.68075060249948e+004,-1.27188946289875e+001,-6.99096523769186e-001

3.73213196614721e+004,-1.27188944038452e+001,-7.08855577579597e-001

3.78423058690237e+004,-1.27188941723751e+001,-7.18750863978808e-001

3.83705647730104e+004,-1.27188939343992e+001,-7.28784284757361e-001

3.89061978964912e+004,-1.27188936897349e+001,-7.38957768255430e-001

3.94493081797342e+004,-1.27188934381942e+001,-7.49273269734883e-001

3.99999999999998e+004,-1.27188931795838e+001,-7.59732771754229e-001

4.05583791916010e+004,-1.27188929137052e+001,-7.70338284549438e-001

4.11245530662425e+004,-1.27188926403542e+001,-7.81091846422045e-001

4.16986304336447e+004,-1.27188923593207e+001,-7.91995524129461e-001

4.22807216224550e+004,-1.27188920703890e+001,-8.03051413283254e-001

4.28709385014515e+004,-1.27188917733372e+001,-8.14261638751499e-001

4.34693945010421e+004,-1.27188914679371e+001,-8.25628355067026e-001

4.40762046350642e+004,-1.27188911539542e+001,-8.37153746843595e-001

4.46914855228886e+004,-1.27188908311475e+001,-8.48840029192830e-001

4.53153554118317e+004,-1.27188904992689e+001,-8.60689448152770e-001

4.59479341998812e+004,-1.27188901580637e+001,-8.72704281119070e-001

4.65893434587380e+004,-1.27188898072699e+001,-8.84886837281289e-001

4.72397064571810e+004,-1.27188894466182e+001,-8.97239458069343e-001

4.78991481847569e+004,-1.27188890758315e+001,-9.09764517602318e-001

4.85677953758016e+004,-1.27188886946253e+001,-9.22464423145282e-001

4.92457765337964e+004,-1.27188883027070e+001,-9.35341615571389e-001

4.99332219560642e+004,-1.27188878997754e+001,-9.48398569833132e-001

5.06302637588109e+004,-1.27188874855216e+001,-9.61637795436094e-001

5.13370359025159e+004,-1.27188870596273e+001,-9.75061836923200e-001

5.20536742176771e+004,-1.27188866217656e+001,-9.88673274363493e-001

5.27803164309155e+004,-1.27188861716005e+001,-1.00247472384698e+000

5.35171021914442e+004,-1.27188857087864e+001,-1.01646883799085e+000

5.42641730979066e+004,-1.27188852329682e+001,-1.03065830644549e+000

5.50216727255895e+004,-1.27188847437806e+001,-1.04504585641623e+000

5.57897466540159e+004,-1.27188842408483e+001,-1.05963425318301e+000

5.65685424949235e+004,-1.27188837237852e+001,-1.07442630063678e+000

5.73582099206328e+004,-1.27188831921945e+001,-1.08942484181610e+000

5.81589006928121e+004,-1.27188826456685e+001,-1.10463275945361e+000

5.89707686916437e+004,-1.27188820837877e+001,-1.12005297653281e+000

5.97939699453972e+004,-1.27188815061210e+001,-1.13568845684820e+000

6.06286626604156e+004,-1.27188809122253e+001,-1.15154220557567e+000

6.14750072515201e+004,-1.27188803016450e+001,-1.16761726985115e+000

6.23331663728396e+004,-1.27188796739116e+001,-1.18391673935716e+000

6.32033049490698e+004,-1.27188790285437e+001,-1.20044374691528e+000

6.40855902071694e+004,-1.27188783650461e+001,-1.21720146909070e+000

6.49801917084985e+004,-1.27188776829101e+001,-1.23419312680202e+000

6.58872813814055e+004,-1.27188769816126e+001,-1.25142198594163e+000

6.68070335542691e+004,-1.27188762606156e+001,-1.26889135800359e+000

6.77396249890018e+004,-1.27188755193663e+001,-1.28660460072117e+000

6.86852349150199e+004,-1.27188747572966e+001,-1.30456511871132e+000

6.96440450636895e+004,-1.27188739738218e+001,-1.32277636413294e+000

7.06162397032520e+004,-1.27188731683415e+001,-1.34124183734679e+000

7.16020056742374e+004,-1.27188723402382e+001,-1.35996508759231e+000

7.26015324253724e+004,-1.27188714888772e+001,-1.37894971366948e+000

7.36150120499896e+004,-1.27188706136057e+001,-1.39819936463114e+000

7.46426393229441e+004,-1.27188697137533e+001,-1.41771774048431e+000

7.56846117380472e+004,-1.27188687886301e+001,-1.43750859290452e+000

7.67411295460207e+004,-1.27188678375274e+001,-1.45757572595529e+000

7.78123957929823e+004,-1.27188668597164e+001,-1.47792299682176e+000

7.88986163594682e+004,-1.27188658544480e+001,-1.49855431655210e+000

7.99999999999995e+004,-1.27188648209521e+001,-1.51947365081138e+000

8.11167583832018e+004,-1.27188637584372e+001,-1.54068502064341e+000

8.22491061324848e+004,-1.27188626660893e+001,-1.56219250324567e+000

8.33972608672892e+004,-1.27188615430722e+001,-1.58400023275342e+000

8.45614432449099e+004,-1.27188603885257e+001,-1.60611240103659e+000

8.57418770029029e+004,-1.27188592015660e+001,-1.62853325850532e+000

8.69387890020841e+004,-1.27188579812845e+001,-1.65126711492900e+000

8.81524092701283e+004,-1.27188567267469e+001,-1.67431834026660e+000

8.93829710457770e+004,-1.27188554369932e+001,-1.69769136550610e+000

9.06307108236633e+004,-1.27188541110364e+001,-1.72139068351985e+000

9.18958683997622e+004,-1.27188527478618e+001,-1.74542084992755e+000

9.31786869174758e+004,-1.27188513464267e+001,-1.76978648397548e+000

9.44794129143618e+004,-1.27188499056589e+001,-1.79449226942443e+000

9.57982963695136e+004,-1.27188484244565e+001,-1.81954295545271e+000

9.71355907516031e+004,-1.27188469016867e+001,-1.84494335757016e+000

9.84915530675926e+004,-1.27188453361852e+001,-1.87069835854595e+000

9.98664439121282e+004,-1.27188437267552e+001,-1.89681290934855e+000

1.01260527517622e+005,-1.27188420721664e+001,-1.92329203010103e+000

1.02674071805032e+005,-1.27188403711543e+001,-1.95014081104529e+000

1.04107348435354e+005,-1.27188386224191e+001,-1.97736441352549e+000

1.05560632861831e+005,-1.27188368246248e+001,-2.00496807098071e+000

1.07034204382888e+005,-1.27188349763980e+001,-2.03295708995427e+000

1.08528346195813e+005,-1.27188330763272e+001,-2.06133685111588e+000

1.10043345451179e+005,-1.27188311229615e+001,-2.09011281029792e+000

1.11579493308032e+005,-1.27188291148097e+001,-2.11929049954783e+000

1.13137084989847e+005,-1.27188270503389e+001,-2.14887552819417e+000

1.14716419841265e+005,-1.27188249279737e+001,-2.17887358392707e+000

1.16317801385624e+005,-1.27188227460946e+001,-2.20929043389573e+000

1.17941537383287e+005,-1.27188205030374e+001,-2.24013192581900e+000

1.19587939890794e+005,-1.27188181970914e+001,-2.27140398911398e+000

1.21257325320831e+005,-1.27188158264982e+001,-2.30311263603803e+000

1.22950014503040e+005,-1.27188133894509e+001,-2.33526396284969e+000

1.24666332745679e+005,-1.27188108840921e+001,-2.36786415098297e+000

1.26406609898139e+005,-1.27188083085129e+001,-2.40091946824004e+000

1.28171180414339e+005,-1.27188056607513e+001,-2.43443627000047e+000

1.29960383416997e+005,-1.27188029387910e+001,-2.46842100044735e+000

1.31774562762811e+005,-1.27188001405597e+001,-2.50288019380914e+000

1.33614067108538e+005,-1.27187972639275e+001,-2.53782047562277e+000

1.35479249978003e+005,-1.27187943067056e+001,-2.57324856400999e+000

1.37370469830040e+005,-1.27187912666444e+001,-2.60917127097580e+000

1.39288090127379e+005,-1.27187881414322e+001,-2.64559550372133e+000

1.41232479406504e+005,-1.27187849286929e+001,-2.68252826597900e+000

1.43204011348474e+005,-1.27187816259850e+001,-2.71997665936328e+000

1.45203064850745e+005,-1.27187782307993e+001,-2.75794788474273e+000

1.47230024099979e+005,-1.27187747405572e+001,-2.79644924363059e+000

1.49285278645888e+005,-1.27187711526088e+001,-2.83548813959441e+000

1.51369223476094e+005,-1.27187674642310e+001,-2.87507207968644e+000

1.53482259092041e+005,-1.27187636726256e+001,-2.91520867589422e+000

1.55624791585964e+005,-1.27187597749170e+001,-2.95590564661100e+000

1.57797232718936e+005,-1.27187557681503e+001,-2.99717081812745e+000

1.59999999999999e+005,-1.27187516492894e+001,-3.03901212614429e+000

1.62233516766403e+005,-1.27187474152141e+001,-3.08143761730592e+000

1.64498212264969e+005,-1.27187430627185e+001,-3.12445545075748e+000

1.66794521734578e+005,-1.27187385885086e+001,-3.16807389972083e+000

1.69122886489819e+005,-1.27187339891995e+001,-3.21230135309589e+000

1.71483754005805e+005,-1.27187292613135e+001,-3.25714631708270e+000

1.73877578004168e+005,-1.27187244012772e+001,-3.30261741682790e+000

1.76304818540256e+005,-1.27187194054191e+001,-3.34872339809286e+000

1.78765942091554e+005,-1.27187142699672e+001,-3.39547312894726e+000

1.81261421647326e+005,-1.27187089910457e+001,-3.44287560148523e+000

1.83791736799524e+005,-1.27187035646730e+001,-3.49093993356617e+000

1.86357373834951e+005,-1.27186979867583e+001,-3.53967537058211e+000

1.88958825828723e+005,-1.27186922530990e+001,-3.58909128724643e+000

1.91596592739027e+005,-1.27186863593777e+001,-3.63919718941170e+000

1.94271181503206e+005,-1.27186803011587e+001,-3.69000271591155e+000

1.96983106135185e+005,-1.27186740738859e+001,-3.74151764042842e+000

1.99732887824256e+005,-1.27186676728785e+001,-3.79375187338920e+000

2.02521055035243e+005,-1.27186610933284e+001,-3.84671546388660e+000

2.05348143610063e+005,-1.27186543302968e+001,-3.90041860162921e+000

2.08214696870707e+005,-1.27186473787104e+001,-3.95487161891753e+000

2.11121265723661e+005,-1.27186402333581e+001,-4.01008499265040e+000

2.14068408765776e+005,-1.27186328888877e+001,-4.06606934635765e+000

2.17056692391625e+005,-1.27186253398018e+001,-4.12283545226361e+000

2.20086690902357e+005,-1.27186175804540e+001,-4.18039423338047e+000

2.23158986616063e+005,-1.27186096050456e+001,-4.23875676562842e+000

2.26274169979693e+005,-1.27186014076209e+001,-4.29793427999031e+000

2.29432839682530e+005,-1.27185929820638e+001,-4.35793816469415e+000

2.32635602771247e+005,-1.27185843220931e+001,-4.41877996742806e+000

2.35883074766574e+005,-1.27185754212588e+001,-4.48047139758662e+000

2.39175879781588e+005,-1.27185662729376e+001,-4.54302432854979e+000

2.42514650641661e+005,-1.27185568703282e+001,-4.60645079999437e+000

2.45900029006080e+005,-1.27185472064472e+001,-4.67076302023802e+000

2.49332665491357e+005,-1.27185372741241e+001,-4.73597336861855e+000

2.52813219796278e+005,-1.27185270659970e+001,-4.80209439790561e+000

2.56342360828676e+005,-1.27185165745074e+001,-4.86913883674830e+000

2.59920766833993e+005,-1.27185057918956e+001,-4.93711959215741e+000

2.63549125525621e+005,-1.27184947101952e+001,-5.00604975202451e+000

2.67228134217075e+005,-1.27184833212285e+001,-5.07594258767560e+000

2.70958499956006e+005,-1.27184716166009e+001,-5.14681155646309e+000

2.74740939660078e+005,-1.27184595876960e+001,-5.21867030439512e+000

2.78576180254757e+005,-1.27184472256692e+001,-5.29153266880220e+000

2.82464958813007e+005,-1.27184345214434e+001,-5.36541268104304e+000

2.86408022696948e+005,-1.27184214657024e+001,-5.44032456924958e+000

2.90406129701488e+005,-1.27184080488853e+001,-5.51628276111201e+000

2.94460048199957e+005,-1.27183942611809e+001,-5.59330188670301e+000

2.98570557291775e+005,-1.27183800925215e+001,-5.67139678134524e+000

3.02738446952187e+005,-1.27183655325766e+001,-5.75058248851867e+000

3.06964518184081e+005,-1.27183505707471e+001,-5.83087426281128e+000

3.11249583171928e+005,-1.27183351961586e+001,-5.91228757291225e+000

3.15594465437872e+005,-1.27183193976553e+001,-5.99483810464916e+000

3.19999999999997e+005,-1.27183031637930e+001,-6.07854176406996e+000

3.24467033532806e+005,-1.27182864828329e+001,-6.16341468056918e+000

3.28996424529938e+005,-1.27182693427347e+001,-6.24947321006048e+000

3.33589043469155e+005,-1.27182517311494e+001,-6.33673393819617e+000

3.38245772979638e+005,-1.27182336354129e+001,-6.42521368363310e+000

3.42967508011610e+005,-1.27182150425386e+001,-6.51492950134725e+000

3.47755156008335e+005,-1.27181959392104e+001,-6.60589868599679e+000

3.52609637080511e+005,-1.27181763117750e+001,-6.69813877533512e+000

3.57531884183106e+005,-1.27181561462355e+001,-6.79166755367431e+000

3.62522843294651e+005,-1.27181354282428e+001,-6.88650305539892e+000

3.67583473599047e+005,-1.27181141430892e+001,-6.98266356853316e+000

3.72714747669902e+005,-1.27180922757000e+001,-7.08016763836007e+000

3.77917651657445e+005,-1.27180698106263e+001,-7.17903407109461e+000

3.83193185478053e+005,-1.27180467320370e+001,-7.27928193761172e+000

3.88542363006410e+005,-1.27180230237113e+001,-7.38093057722948e+000

3.93966212270369e+005,-1.27179986690305e+001,-7.48399960154927e+000

3.99465775648511e+005,-1.27179736509708e+001,-7.58850889835240e+000

4.05042110070485e+005,-1.27179479520945e+001,-7.69447863555650e+000

4.10696287220124e+005,-1.27179215545427e+001,-7.80192926522963e+000

4.16429393741414e+005,-1.27178944400272e+001,-7.91088152766606e+000

4.22242531447321e+005,-1.27178665898226e+001,-8.02135645552257e+000

4.28136817531551e+005,-1.27178379847580e+001,-8.13337537801727e+000

4.34113384783250e+005,-1.27178086052096e+001,-8.24695992519193e+000

4.40173381804713e+005,-1.27177784310927e+001,-8.36213203223889e+000

4.46317973232124e+005,-1.27177474418535e+001,-8.47891394389275e+000

4.52548339959385e+005,-1.27177156164618e+001,-8.59732821889050e+000

4.58865679365059e+005,-1.27176829334030e+001,-8.71739773449715e+000

4.65271205542494e+005,-1.27176493706708e+001,-8.83914569110242e+000

4.71766149533147e+005,-1.27176149057596e+001,-8.96259561688621e+000

4.78351759563174e+005,-1.27175795156573e+001,-9.08777137255650e+000

4.85029301283321e+005,-1.27175431768379e+001,-9.21469715615896e+000

4.91800058012158e+005,-1.27175058652552e+001,-9.34339750796139e+000

4.98665330982714e+005,-1.27174675563357e+001,-9.47389731541175e+000

5.05626439592555e+005,-1.27174282249720e+001,-9.60622181817542e+000

5.12684721657352e+005,-1.27173878455172e+001,-9.74039661324727e+000

5.19841533667984e+005,-1.27173463917788e+001,-9.87644766014522e+000

5.27098251051240e+005,-1.27173038370131e+001,-1.00144012861832e+001

5.34456268434150e+005,-1.27172601539206e+001,-1.01542841918267e+001

5.41916999912011e+005,-1.27172153146411e+001,-1.02961234561315e+001

