Freq.,VOut,OutRef

1.00000000000000e+004,-3.33033464813391e+000,-1.12293279326035e-002

1.01395947979003e+004,-3.33033464714382e+000,-1.13860835081583e-002

1.02811382665607e+004,-3.33033464612585e+000,-1.15450273104116e-002

1.04246576084112e+004,-3.33033464507850e+000,-1.17061898904778e-002

1.05701804056138e+004,-3.33033464400235e+000,-1.18696022119703e-002

1.07177346253629e+004,-3.33033464289624e+000,-1.20352956828137e-002

1.08673486252606e+004,-3.33033464175841e+000,-1.22033021523047e-002

1.10190511587661e+004,-3.33033464058900e+000,-1.23736539019741e-002

1.11728713807222e+004,-3.33033463938671e+000,-1.25463836736124e-002

1.13288388529580e+004,-3.33033463815065e+000,-1.27215246629377e-002

1.14869835499703e+004,-3.33033463687939e+000,-1.28991105321649e-002

1.16473358646846e+004,-3.33033463557302e+000,-1.30791754036595e-002

1.18099266142953e+004,-3.33033463422942e+000,-1.32617538904940e-002

1.19747870461893e+004,-3.33033463284806e+000,-1.34468810779949e-002

1.21419488439505e+004,-3.33033463142789e+000,-1.36345925445458e-002

1.23114441334492e+004,-3.33033462996842e+000,-1.38249243615584e-002

1.24833054890161e+004,-3.33033462846695e+000,-1.40179131179430e-002

1.26575659397028e+004,-3.33033462692408e+000,-1.42135958918837e-002

1.28342589756290e+004,-3.33033462533711e+000,-1.44120103002082e-002

1.30134185544193e+004,-3.33033462370608e+000,-1.46131944668847e-002

1.31950791077289e+004,-3.33033462202918e+000,-1.48171870601251e-002

1.33792755478611e+004,-3.33033462030484e+000,-1.50240272859225e-002

1.35660432744767e+004,-3.33033461853210e+000,-1.52337548930245e-002

1.37554181813974e+004,-3.33033461670979e+000,-1.54464101867307e-002

1.39474366635040e+004,-3.33033461483623e+000,-1.56620340380221e-002

1.41421356237309e+004,-3.33033461290929e+000,-1.58806678906340e-002

1.43395524801583e+004,-3.33033461092914e+000,-1.61023537520329e-002

1.45397251732031e+004,-3.33033460889291e+000,-1.63271342354150e-002

1.47426921729110e+004,-3.33033460679933e+000,-1.65550525381723e-002

1.49484924863494e+004,-3.33033460464703e+000,-1.67861524610065e-002

1.51571656651040e+004,-3.33033460243396e+000,-1.70204784203925e-002

1.53687518128801e+004,-3.33033460015900e+000,-1.72580754461614e-002

1.55832915932100e+004,-3.33033459781967e+000,-1.74989892055664e-002

1.58008262372675e+004,-3.33033459541502e+000,-1.77432659930612e-002

1.60213975517924e+004,-3.33033459294278e+000,-1.79909527573754e-002

1.62450479271247e+004,-3.33033459040072e+000,-1.82420971018840e-002

1.64718203453514e+004,-3.33033458778717e+000,-1.84967472914976e-002

1.67017583885674e+004,-3.33033458510050e+000,-1.87549522630224e-002

1.69349062472505e+004,-3.33033458233801e+000,-1.90167616434626e-002

1.71713087287550e+004,-3.33033457949804e+000,-1.92822257457342e-002

1.74110112659224e+004,-3.33033457657792e+000,-1.95513955908111e-002

1.76540599258131e+004,-3.33033457357603e+000,-1.98243229048278e-002

1.79005014185594e+004,-3.33033457048944e+000,-2.01010601444963e-002

1.81503831063432e+004,-3.33033456731654e+000,-2.03816604891378e-002

1.84037530124975e+004,-3.33033456405386e+000,-2.06661778724184e-002

1.86606598307361e+004,-3.33033456070003e+000,-2.09546669667929e-002

1.89211529345119e+004,-3.33033455725161e+000,-2.12471832210645e-002

1.91852823865052e+004,-3.33033455370623e+000,-2.15437828503437e-002

1.94530989482457e+004,-3.33033455006114e+000,-2.18445228564363e-002

1.97246540898671e+004,-3.33033454631355e+000,-2.21494610369922e-002

1.99999999999999e+004,-3.33033454246068e+000,-2.24586559954947e-002

2.02791895958005e+004,-3.33033453849955e+000,-2.27721671546980e-002

2.05622765331213e+004,-3.33033453442728e+000,-2.30900547653120e-002

2.08493152168224e+004,-3.33033453024020e+000,-2.34123799239216e-002

2.11403608112276e+004,-3.33033452593541e+000,-2.37392045741863e-002

2.14354692507258e+004,-3.33033452150957e+000,-2.40705915269194e-002

2.17346972505211e+004,-3.33033451695957e+000,-2.44066044677465e-002

2.20381023175322e+004,-3.33033451228143e+000,-2.47473079762277e-002

2.23457427614443e+004,-3.33033450747175e+000,-2.50927675287807e-002

2.26576777059159e+004,-3.33033450252678e+000,-2.54430495175024e-002

2.29739670999406e+004,-3.33033449744299e+000,-2.57982212597264e-002

2.32946717293690e+004,-3.33033449221637e+000,-2.61583510144686e-002

2.36198532285905e+004,-3.33033448684225e+000,-2.65235079970846e-002

2.39495740923785e+004,-3.33033448131755e+000,-2.68937623783454e-002

2.42838976879009e+004,-3.33033447563749e+000,-2.72691853187256e-002

2.46228882668982e+004,-3.33033446979751e+000,-2.76498489699730e-002

2.49666109780322e+004,-3.33033446379382e+000,-2.80358264849422e-002

2.53151318794055e+004,-3.33033445762080e+000,-2.84271920492089e-002

2.56685179512580e+004,-3.33033445127458e+000,-2.88240208713530e-002

2.60268371088386e+004,-3.33033444474980e+000,-2.92263892187291e-002

2.63901582154578e+004,-3.33033443804163e+000,-2.96343744189817e-002

2.67585510957221e+004,-3.33033443114481e+000,-3.00480548813521e-002

2.71320865489533e+004,-3.33033442405413e+000,-3.04675101080918e-002

2.75108363627948e+004,-3.33033441676392e+000,-3.08928207131869e-002

2.78948733270080e+004,-3.33033440926901e+000,-3.13240684318456e-002

2.82842712474618e+004,-3.33033440156350e+000,-3.17613361443779e-002

2.86791049603164e+004,-3.33033439364088e+000,-3.22047078901351e-002

2.90794503464061e+004,-3.33033438549610e+000,-3.26542688718469e-002

2.94853843458219e+004,-3.33033437712190e+000,-3.31101054943532e-002

2.98969849726987e+004,-3.33033436851234e+000,-3.35723053593844e-002

3.03143313302078e+004,-3.33033435966087e+000,-3.40409572936184e-002

3.07375036257601e+004,-3.33033435056054e+000,-3.45161513658762e-002

3.11665831864199e+004,-3.33033434120427e+000,-3.49979789015745e-002

3.16016524745350e+004,-3.33033433158500e+000,-3.54865324994778e-002

3.20427951035848e+004,-3.33033432169544e+000,-3.59819060514072e-002

3.24900958542493e+004,-3.33033431152765e+000,-3.64841947624821e-002

3.29436406907028e+004,-3.33033430107394e+000,-3.69934951638810e-002

3.34035167771346e+004,-3.33033429032663e+000,-3.75099051329779e-002

3.38698124945009e+004,-3.33033427927680e+000,-3.80335239199792e-002

3.43426174575100e+004,-3.33033426791653e+000,-3.85644521525863e-002

3.48220225318448e+004,-3.33033425623700e+000,-3.91027918672786e-002

3.53081198516260e+004,-3.33033424422900e+000,-3.96486465259411e-002

3.58010028371187e+004,-3.33033423188342e+000,-4.02021210329864e-002

3.63007662126863e+004,-3.33033421919077e+000,-4.07633217570490e-002

3.68075060249948e+004,-3.33033420614114e+000,-4.13323565536314e-002

3.73213196614721e+004,-3.33033419272470e+000,-4.19093347805877e-002

3.78423058690237e+004,-3.33033417893136e+000,-4.24943673229895e-002

3.83705647730104e+004,-3.33033416474970e+000,-4.30875666202871e-002

3.89061978964912e+004,-3.33033415016981e+000,-4.36890466692932e-002

3.94493081797342e+004,-3.33033413517984e+000,-4.42989230697968e-002

3.99999999999998e+004,-3.33033411976852e+000,-4.49173130286136e-002

4.05583791916010e+004,-3.33033410392370e+000,-4.55443353924519e-002

4.11245530662425e+004,-3.33033408763359e+000,-4.61801106630578e-002

4.16986304336447e+004,-3.33033407088556e+000,-4.68247610271310e-002

4.22807216224550e+004,-3.33033405366646e+000,-4.74784103780802e-002

4.28709385014515e+004,-3.33033403596363e+000,-4.81411843336802e-002

4.34693945010421e+004,-3.33033401776278e+000,-4.88132102728852e-002

4.40762046350642e+004,-3.33033399905025e+000,-4.94946173463729e-002

4.46914855228886e+004,-3.33033397981188e+000,-5.01855365089404e-002

4.53153554118317e+004,-3.33033396003234e+000,-5.08861005478486e-002

4.59479341998812e+004,-3.33033393969712e+000,-5.15964440959860e-002

4.65893434587380e+004,-3.33033391878977e+000,-5.23167036758105e-002

4.72397064571810e+004,-3.33033389729488e+000,-5.30470177055911e-002

4.78991481847569e+004,-3.33033387519547e+000,-5.37875265432804e-002

4.85677953758016e+004,-3.33033385247499e+000,-5.45383725006557e-002

4.92457765337964e+004,-3.33033382911569e+000,-5.52996998800179e-002

4.99332219560642e+004,-3.33033380509983e+000,-5.60716549956181e-002

5.06302637588109e+004,-3.33033378040850e+000,-5.68543862081157e-002

5.13370359025159e+004,-3.33033375502312e+000,-5.76480439435441e-002

5.20536742176771e+004,-3.33033372892403e+000,-5.84527807319502e-002

5.27803164309155e+004,-3.33033370209133e+000,-5.92687512296090e-002

5.35171021914442e+004,-3.33033367450423e+000,-6.00961122551108e-002

5.42641730979066e+004,-3.33033364614132e+000,-6.09350228153636e-002

5.50216727255895e+004,-3.33033361698134e+000,-6.17856441325226e-002

5.57897466540159e+004,-3.33033358700123e+000,-6.26481396872025e-002

5.65685424949235e+004,-3.33033355617855e+000,-6.35226752337829e-002

5.73582099206328e+004,-3.33033352448932e+000,-6.44094188461291e-002

5.81589006928121e+004,-3.33033349190894e+000,-6.53085409443936e-002

5.89707686916437e+004,-3.33033345841278e+000,-6.62202143231503e-002

5.97939699453972e+004,-3.33033342397481e+000,-6.71446141939814e-002

6.06286626604156e+004,-3.33033338856879e+000,-6.80819182104364e-002

6.14750072515201e+004,-3.33033335216723e+000,-6.90323065100308e-002

6.23331663728396e+004,-3.33033331474243e+000,-6.99959617407678e-002

6.32033049490698e+004,-3.33033327626536e+000,-7.09730691039822e-002

6.40855902071694e+004,-3.33033323670668e+000,-7.19638163832515e-002

6.49801917084985e+004,-3.33033319603573e+000,-7.29683939867007e-002

6.58872813814055e+004,-3.33033315422136e+000,-7.39869949778118e-002

6.68070335542691e+004,-3.33033311123158e+000,-7.50198151150787e-002

6.77396249890018e+004,-3.33033306703302e+000,-7.60670528928011e-002

6.86852349150199e+004,-3.33033302159193e+000,-7.71289095724418e-002

6.96440450636895e+004,-3.33033297487337e+000,-7.82055892268788e-002

7.06162397032520e+004,-3.33033292684140e+000,-7.92972987775253e-002

7.16020056742374e+004,-3.33033287745888e+000,-8.04042480355906e-002

7.26015324253724e+004,-3.33033282668814e+000,-8.15266497380363e-002

7.36150120499896e+004,-3.33033277449017e+000,-8.26647195931602e-002

7.46426393229441e+004,-3.33033272082455e+000,-8.38186763226362e-002

7.56846117380472e+004,-3.33033266565030e+000,-8.49887416974729e-002

7.67411295460207e+004,-3.33033260892475e+000,-8.61751405877615e-002

7.78123957929823e+004,-3.33033255060449e+000,-8.73781010006792e-002

7.88986163594682e+004,-3.33033249064468e+000,-8.85978541267378e-002

7.99999999999995e+004,-3.33033242899910e+000,-8.98346343845716e-002

8.11167583832018e+004,-3.33033236562048e+000,-9.10886794641241e-002

8.22491061324848e+004,-3.33033230046009e+000,-9.23602303735606e-002

8.33972608672892e+004,-3.33033223346763e+000,-9.36495314872895e-002

8.45614432449099e+004,-3.33033216459197e+000,-9.49568305871411e-002

8.57418770029029e+004,-3.33033209377982e+000,-9.62823789185531e-002

8.69387890020841e+004,-3.33033202097682e+000,-9.76264312311518e-002

8.81524092701283e+004,-3.33033194612724e+000,-9.89892458303998e-002

8.93829710457770e+004,-3.33033186917318e+000,-1.00371084630660e-001

9.06307108236633e+004,-3.33033179005574e+000,-1.01772213199089e-001

9.18958683997622e+004,-3.33033170871393e+000,-1.03192900812786e-001

9.31786869174758e+004,-3.33033162508540e+000,-1.04633420505485e-001

9.44794129143618e+004,-3.33033153910563e+000,-1.06094049124780e-001

9.57982963695136e+004,-3.33033145070874e+000,-1.07575067380283e-001

9.71355907516031e+004,-3.33033135982663e+000,-1.09076759902625e-001

9.84915530675926e+004,-3.33033126638950e+000,-1.10599415294516e-001

9.98664439121282e+004,-3.33033117032544e+000,-1.12143326187841e-001

1.01260527517622e+005,-3.33033107156066e+000,-1.13708789299307e-001

1.02674071805032e+005,-3.33033097001938e+000,-1.15296105486394e-001

1.04107348435354e+005,-3.33033086562323e+000,-1.16905579809910e-001

1.05560632861831e+005,-3.33033075829209e+000,-1.18537521586452e-001

1.07034204382888e+005,-3.33033064794363e+000,-1.20192244449713e-001

1.08528346195813e+005,-3.33033053449271e+000,-1.21870066415275e-001

1.10043345451179e+005,-3.33033041785238e+000,-1.23571309934046e-001

1.11579493308032e+005,-3.33033029793268e+000,-1.25296301961833e-001

1.13137084989847e+005,-3.33033017464172e+000,-1.27045374014962e-001

1.14716419841265e+005,-3.33033004788449e+000,-1.28818862241308e-001

1.16317801385624e+005,-3.33032991756372e+000,-1.30617107478235e-001

1.17941537383287e+005,-3.33032978357902e+000,-1.32440455323336e-001

1.19587939890794e+005,-3.33032964582771e+000,-1.34289256195969e-001

1.21257325320831e+005,-3.33032950420345e+000,-1.36163865411682e-001

1.22950014503040e+005,-3.33032935859779e+000,-1.38064643240494e-001

1.24666332745679e+005,-3.33032920889856e+000,-1.39991954985956e-001

1.26406609898139e+005,-3.33032905499066e+000,-1.41946171050012e-001

1.28171180414339e+005,-3.33032889675583e+000,-1.43927667004613e-001

1.29960383416997e+005,-3.33032873407246e+000,-1.45936823664620e-001

1.31774562762811e+005,-3.33032856681547e+000,-1.47974027161651e-001

1.33614067108538e+005,-3.33032839485622e+000,-1.50039669017360e-001

1.35479249978003e+005,-3.33032821806254e+000,-1.52134146219015e-001

1.37370469830040e+005,-3.33032803629853e+000,-1.54257861295444e-001

1.39288090127379e+005,-3.33032784942442e+000,-1.56411222395039e-001

1.41232479406504e+005,-3.33032765729669e+000,-1.58594643362707e-001

1.43204011348474e+005,-3.33032745976742e+000,-1.60808543822770e-001

1.45203064850745e+005,-3.33032725668488e+000,-1.63053349255390e-001

1.47230024099979e+005,-3.33032704789287e+000,-1.65329491081560e-001

1.49285278645888e+005,-3.33032683323110e+000,-1.67637406742766e-001

1.51369223476094e+005,-3.33032661253425e+000,-1.69977539790539e-001

1.53482259092041e+005,-3.33032638563279e+000,-1.72350339965806e-001

1.55624791585964e+005,-3.33032615235229e+000,-1.74756263287950e-001

1.57797232718936e+005,-3.33032591251345e+000,-1.77195772142720e-001

1.59999999999999e+005,-3.33032566593186e+000,-1.79669335370801e-001

1.62233516766403e+005,-3.33032541241783e+000,-1.82177428358849e-001

1.64498212264969e+005,-3.33032515177664e+000,-1.84720533127013e-001

1.66794521734578e+005,-3.33032488380786e+000,-1.87299138426882e-001

1.69122886489819e+005,-3.33032460830549e+000,-1.89913739832116e-001

1.71483754005805e+005,-3.33032432505769e+000,-1.92564839834907e-001

1.73877578004168e+005,-3.33032403384663e+000,-1.95252947942122e-001

1.76304818540256e+005,-3.33032373444873e+000,-1.97978580771261e-001

1.78765942091554e+005,-3.33032342663360e+000,-2.00742262155158e-001

1.81261421647326e+005,-3.33032311016453e+000,-2.03544523237901e-001

1.83791736799524e+005,-3.33032278479853e+000,-2.06385902576299e-001

1.86357373834951e+005,-3.33032245028507e+000,-2.09266946249937e-001

1.88958825828723e+005,-3.33032210636739e+000,-2.12188207956073e-001

1.91596592739027e+005,-3.33032175278067e+000,-2.15150249127450e-001

1.94271181503206e+005,-3.33032138925350e+000,-2.18153639028536e-001

1.96983106135185e+005,-3.33032101550627e+000,-2.21198954874696e-001

1.99732887824256e+005,-3.33032063125153e+000,-2.24286781938842e-001

2.02521055035243e+005,-3.33032023619393e+000,-2.27417713663413e-001

2.05348143610063e+005,-3.33031983002982e+000,-2.30592351775035e-001

2.08214696870707e+005,-3.33031941244707e+000,-2.33811306400402e-001

2.11121265723661e+005,-3.33031898312442e+000,-2.37075196185967e-001

2.14068408765776e+005,-3.33031854173204e+000,-2.40384648411091e-001

2.17056692391625e+005,-3.33031808793040e+000,-2.43740299115237e-001

2.20086690902357e+005,-3.33031762137073e+000,-2.47142793214987e-001

2.23158986616063e+005,-3.33031714169433e+000,-2.50592784631078e-001

2.26274169979693e+005,-3.33031664853255e+000,-2.54090936411929e-001

2.29432839682530e+005,-3.33031614150611e+000,-2.57637920863908e-001

2.32635602771247e+005,-3.33031562022535e+000,-2.61234419677528e-001

2.35883074766574e+005,-3.33031508428954e+000,-2.64881124060223e-001

2.39175879781588e+005,-3.33031453328654e+000,-2.68578734870196e-001

2.42514650641661e+005,-3.33031396679293e+000,-2.72327962747207e-001

2.45900029006080e+005,-3.33031338437301e+000,-2.76129528254942e-001

2.49332665491357e+005,-3.33031278557926e+000,-2.79984162013204e-001

2.52813219796278e+005,-3.33031216995123e+000,-2.83892604844010e-001

2.56342360828676e+005,-3.33031153701561e+000,-2.87855607910600e-001

2.59920766833993e+005,-3.33031088628601e+000,-2.91873932861682e-001

2.63549125525621e+005,-3.33031021726198e+000,-2.95948351981380e-001

2.67228134217075e+005,-3.33030952942929e+000,-3.00079648333319e-001

2.70958499956006e+005,-3.33030882225908e+000,-3.04268615913839e-001

2.74740939660078e+005,-3.33030809520791e+000,-3.08516059802868e-001

2.78576180254757e+005,-3.33030734771665e+000,-3.12822796321657e-001

2.82464958813007e+005,-3.33030657921073e+000,-3.17189653186162e-001

2.86408022696948e+005,-3.33030578909945e+000,-3.21617469667805e-001

2.90406129701488e+005,-3.33030497677535e+000,-3.26107096755446e-001

2.94460048199957e+005,-3.33030414161394e+000,-3.30659397318448e-001

2.98570557291775e+005,-3.33030328297304e+000,-3.35275246272830e-001

3.02738446952187e+005,-3.33030240019285e+000,-3.39955530746557e-001

3.06964518184081e+005,-3.33030149259454e+000,-3.44701150255785e-001

3.11249583171928e+005,-3.33030055948054e+000,-3.49513016872342e-001

3.15594465437872e+005,-3.33029960013342e+000,-3.54392055402866e-001

3.19999999999997e+005,-3.33029861381565e+000,-3.59339203564928e-001

3.24467033532806e+005,-3.33029759976909e+000,-3.64355412166507e-001

3.28996424529938e+005,-3.33029655721412e+000,-3.69441645290788e-001

3.33589043469155e+005,-3.33029548534932e+000,-3.74598880480317e-001

3.38245772979638e+005,-3.33029438335082e+000,-3.79828108924059e-001

3.42967508011610e+005,-3.33029325037118e+000,-3.85130335651652e-001

3.47755156008335e+005,-3.33029208553972e+000,-3.90506579721240e-001

3.52609637080511e+005,-3.33029088796082e+000,-3.95957874420095e-001

3.57531884183106e+005,-3.33028965671380e+000,-4.01485267461668e-001

3.62522843294651e+005,-3.33028839085232e+000,-4.07089821184800e-001

3.67583473599047e+005,-3.33028708940321e+000,-4.12772612761704e-001

3.72714747669902e+005,-3.33028575136602e+000,-4.18534734402995e-001

3.77917651657445e+005,-3.33028437571208e+000,-4.24377293568458e-001

3.83193185478053e+005,-3.33028296138387e+000,-4.30301413179693e-001

3.88542363006410e+005,-3.33028150729424e+000,-4.36308231835141e-001

3.93966212270369e+005,-3.33028001232521e+000,-4.42398904031509e-001

3.99465775648511e+005,-3.33027847532777e+000,-4.48574600382172e-001

4.05042110070485e+005,-3.33027689512025e+000,-4.54836507846261e-001

4.10696287220124e+005,-3.33027527048792e+000,-4.61185829953917e-001

4.16429393741414e+005,-3.33027360018187e+000,-4.67623787039298e-001

4.22242531447321e+005,-3.33027188291804e+000,-4.74151616474817e-001

4.28136817531551e+005,-3.33027011737645e+000,-4.80770572908367e-001

4.34113384783250e+005,-3.33026830219982e+000,-4.87481928506276e-001

4.40173381804713e+005,-3.33026643599276e+000,-4.94286973196833e-001

4.46317973232124e+005,-3.33026451732075e+000,-5.01187014917876e-001

4.52548339959385e+005,-3.33026254470873e+000,-5.08183379870808e-001

4.58865679365059e+005,-3.33026051664047e+000,-5.15277412771719e-001

4.65271205542494e+005,-3.33025843155682e+000,-5.22470477114414e-001

4.71766149533147e+005,-3.33025628785506e+000,-5.29763955428815e-001

4.78351759563174e+005,-3.33025408388723e+000,-5.37159249549815e-001

4.85029301283321e+005,-3.33025181795908e+000,-5.44657780885645e-001

4.91800058012158e+005,-3.33024948832886e+000,-5.52260990690475e-001

4.98665330982714e+005,-3.33024709320573e+000,-5.59970340343647e-001

5.05626439592555e+005,-3.33024463074850e+000,-5.67787311629362e-001

5.12684721657352e+005,-3.33024209906428e+000,-5.75713407022144e-001

5.19841533667984e+005,-3.33023949620701e+000,-5.83750149975942e-001

5.27098251051240e+005,-3.33023682017575e+000,-5.91899085217601e-001

5.34456268434150e+005,-3.33023406891360e+000,-6.00161779042403e-001

5.41916999912011e+005,-3.33023124030551e+000,-6.08539819618659e-001

