Freq.,VOut,OutRef

1.00000000000000e+004,-1.45550697717473e+000,-1.46778684909930e-001

1.01395947979003e+004,-1.45550689274283e+000,-1.48827639701920e-001

1.02811382665607e+004,-1.45550680593712e+000,-1.50905196867570e-001

1.04246576084112e+004,-1.45550671669122e+000,-1.53011755680080e-001

1.05701804056138e+004,-1.45550662493607e+000,-1.55147720991897e-001

1.07177346253629e+004,-1.45550653060148e+000,-1.57313503301393e-001

1.08673486252606e+004,-1.45550643361476e+000,-1.59509518840770e-001

1.10190511587661e+004,-1.45550633390136e+000,-1.61736189651762e-001

1.11728713807222e+004,-1.45550623138457e+000,-1.63993943667825e-001

1.13288388529580e+004,-1.45550612598577e+000,-1.66283214795042e-001

1.14869835499703e+004,-1.45550601762370e+000,-1.68604442998561e-001

1.16473358646846e+004,-1.45550590621531e+000,-1.70958074382998e-001

1.18099266142953e+004,-1.45550579167471e+000,-1.73344561283493e-001

1.19747870461893e+004,-1.45550567391395e+000,-1.75764362346794e-001

1.21419488439505e+004,-1.45550555284253e+000,-1.78217942623525e-001

1.23114441334492e+004,-1.45550542836729e+000,-1.80705773656421e-001

1.24833054890161e+004,-1.45550530039265e+000,-1.83228333569414e-001

1.26575659397028e+004,-1.45550516882016e+000,-1.85786107162548e-001

1.28342589756290e+004,-1.45550503354856e+000,-1.88379586003641e-001

1.30134185544193e+004,-1.45550489447414e+000,-1.91009268519954e-001

1.31950791077289e+004,-1.45550475148982e+000,-1.93675660099745e-001

1.33792755478611e+004,-1.45550460448556e+000,-1.96379273185552e-001

1.35660432744767e+004,-1.45550445334846e+000,-1.99120627372541e-001

1.37554181813974e+004,-1.45550429796237e+000,-2.01900249509594e-001

1.39474366635040e+004,-1.45550413820787e+000,-2.04718673800190e-001

1.41421356237309e+004,-1.45550397396212e+000,-2.07576441905407e-001

1.43395524801583e+004,-1.45550380509870e+000,-2.10474103048932e-001

1.45397251732031e+004,-1.45550363148789e+000,-2.13412214119506e-001

1.47426921729110e+004,-1.45550345299631e+000,-2.16391339780200e-001

1.49484924863494e+004,-1.45550326948665e+000,-2.19412052577649e-001

1.51571656651040e+004,-1.45550308081787e+000,-2.22474933050286e-001

1.53687518128801e+004,-1.45550288684485e+000,-2.25580569841818e-001

1.55832915932100e+004,-1.45550268741861e+000,-2.28729559811289e-001

1.58008262372675e+004,-1.45550248238574e+000,-2.31922508151564e-001

1.60213975517924e+004,-1.45550227158868e+000,-2.35160028502906e-001

1.62450479271247e+004,-1.45550205486536e+000,-2.38442743072433e-001

1.64718203453514e+004,-1.45550183204905e+000,-2.41771282753847e-001

1.67017583885674e+004,-1.45550160296866e+000,-2.45146287245287e-001

1.69349062472505e+004,-1.45550136744796e+000,-2.48568405178092e-001

1.71713087287550e+004,-1.45550112530587e+000,-2.52038294237134e-001

1.74110112659224e+004,-1.45550087635636e+000,-2.55556621287378e-001

1.76540599258131e+004,-1.45550062040793e+000,-2.59124062505283e-001

1.79005014185594e+004,-1.45550035726388e+000,-2.62741303504884e-001

1.81503831063432e+004,-1.45550008672190e+000,-2.66409039472122e-001

1.84037530124975e+004,-1.45549980857401e+000,-2.70127975297564e-001

1.86606598307361e+004,-1.45549952260637e+000,-2.73898825711755e-001

1.89211529345119e+004,-1.45549922859914e+000,-2.77722315423210e-001

1.91852823865052e+004,-1.45549892632633e+000,-2.81599179256742e-001

1.94530989482457e+004,-1.45549861555549e+000,-2.85530162296268e-001

1.97246540898671e+004,-1.45549829604780e+000,-2.89516020025554e-001

1.99999999999999e+004,-1.45549796755771e+000,-2.93557518475419e-001

2.02791895958005e+004,-1.45549762983251e+000,-2.97655434371895e-001

2.05622765331213e+004,-1.45549728261261e+000,-3.01810555282876e-001

2.08493152168224e+004,-1.45549692563123e+000,-3.06023679769562e-001

2.11403608112276e+004,-1.45549655861380e+000,-3.10295617543432e-001

2.14354692507258e+004,-1.45549618127817e+000,-3.14627189618397e-001

2.17346972505211e+004,-1.45549579333431e+000,-3.19019228469515e-001

2.20381023175322e+004,-1.45549539448406e+000,-3.23472578193197e-001

2.23457427614443e+004,-1.45549498442067e+000,-3.27988094670685e-001

2.26576777059159e+004,-1.45549456282897e+000,-3.32566645730126e-001

2.29739670999406e+004,-1.45549412938486e+000,-3.37209111315149e-001

2.32946717293690e+004,-1.45549368375510e+000,-3.41916383653854e-001

2.36198532285905e+004,-1.45549322559723e+000,-3.46689367428572e-001

2.39495740923785e+004,-1.45549275455889e+000,-3.51528979953396e-001

2.42838976879009e+004,-1.45549227027805e+000,-3.56436151346698e-001

2.46228882668982e+004,-1.45549177238234e+000,-3.61411824712240e-001

2.49666109780322e+004,-1.45549126048921e+000,-3.66456956318284e-001

2.53151318794055e+004,-1.45549073420497e+000,-3.71572515785036e-001

2.56685179512580e+004,-1.45549019312499e+000,-3.76759486268169e-001

2.60268371088386e+004,-1.45548963683357e+000,-3.82018864646378e-001

2.63901582154578e+004,-1.45548906490284e+000,-3.87351661718717e-001

2.67585510957221e+004,-1.45548847689322e+000,-3.92758902392595e-001

2.71320865489533e+004,-1.45548787235268e+000,-3.98241625884763e-001

2.75108363627948e+004,-1.45548725081643e+000,-4.03800885919467e-001

2.78948733270080e+004,-1.45548661180680e+000,-4.09437750931095e-001

2.82842712474618e+004,-1.45548595483248e+000,-4.15153304270235e-001

2.86791049603164e+004,-1.45548527938845e+000,-4.20948644411924e-001

2.90794503464061e+004,-1.45548458495548e+000,-4.26824885165538e-001

2.94853843458219e+004,-1.45548387099969e+000,-4.32783155890942e-001

2.98969849726987e+004,-1.45548313697227e+000,-4.38824601713809e-001

3.03143313302078e+004,-1.45548238230897e+000,-4.44950383746223e-001

3.07375036257601e+004,-1.45548160642973e+000,-4.51161679310086e-001

3.11665831864199e+004,-1.45548080873798e+000,-4.57459682164820e-001

3.16016524745350e+004,-1.45547998862059e+000,-4.63845602733984e-001

3.20427951035848e+004,-1.45547914544706e+000,-4.70320668340393e-001

3.24900958542493e+004,-1.45547827856934e+000,-4.76886123440460e-001

3.29436406907028e+004,-1.45547738732093e+000,-4.83543229865154e-001

3.34035167771346e+004,-1.45547647101677e+000,-4.90293267061110e-001

3.38698124945009e+004,-1.45547552895245e+000,-4.97137532337327e-001

3.43426174575100e+004,-1.45547456040386e+000,-5.04077341113783e-001

3.48220225318448e+004,-1.45547356462641e+000,-5.11114027176027e-001

3.53081198516260e+004,-1.45547254085460e+000,-5.18248942929982e-001

3.58010028371187e+004,-1.45547148830152e+000,-5.25483459662753e-001

3.63007662126863e+004,-1.45547040615804e+000,-5.32818967805557e-001

3.68075060249948e+004,-1.45546929359223e+000,-5.40256877202626e-001

3.73213196614721e+004,-1.45546814974904e+000,-5.47798617379791e-001

3.78423058690237e+004,-1.45546697374902e+000,-5.55445637822436e-001

3.83705647730104e+004,-1.45546576468829e+000,-5.63199408251340e-001

3.89061978964912e+004,-1.45546452163741e+000,-5.71061418907012e-001

3.94493081797342e+004,-1.45546324364083e+000,-5.79033180836112e-001

3.99999999999998e+004,-1.45546192971622e+000,-5.87116226180891e-001

4.05583791916010e+004,-1.45546057885353e+000,-5.95312108474994e-001

4.11245530662425e+004,-1.45545919001442e+000,-6.03622402941715e-001

4.16986304336447e+004,-1.45545776213130e+000,-6.12048706796869e-001

4.22807216224550e+004,-1.45545629410652e+000,-6.20592639556529e-001

4.28709385014515e+004,-1.45545478481167e+000,-6.29255843347647e-001

4.34693945010421e+004,-1.45545323308660e+000,-6.38039983223591e-001

4.40762046350642e+004,-1.45545163773857e+000,-6.46946747485626e-001

4.46914855228886e+004,-1.45544999754123e+000,-6.55977848006962e-001

4.53153554118317e+004,-1.45544831123381e+000,-6.65135020561655e-001

4.59479341998812e+004,-1.45544657752017e+000,-6.74420025158408e-001

4.65893434587380e+004,-1.45544479506757e+000,-6.83834646380229e-001

4.72397064571810e+004,-1.45544296250600e+000,-6.93380693725804e-001

4.78991481847569e+004,-1.45544107842686e+000,-7.03060001959121e-001

4.85677953758016e+004,-1.45543914138184e+000,-7.12874431461904e-001

4.92457765337964e+004,-1.45543714988211e+000,-7.22825868590830e-001

4.99332219560642e+004,-1.45543510239686e+000,-7.32916226041147e-001

5.06302637588109e+004,-1.45543299735234e+000,-7.43147443214360e-001

5.13370359025159e+004,-1.45543083313060e+000,-7.53521486590250e-001

5.20536742176771e+004,-1.45542860806803e+000,-7.64040350107599e-001

5.27803164309155e+004,-1.45542632045441e+000,-7.74706055545329e-001

5.35171021914442e+004,-1.45542396853145e+000,-7.85520652912613e-001

5.42641730979066e+004,-1.45542155049137e+000,-7.96486220842817e-001

5.50216727255895e+004,-1.45541906447561e+000,-8.07604866994019e-001

5.57897466540159e+004,-1.45541650857344e+000,-8.18878728453288e-001

5.65685424949235e+004,-1.45541388082037e+000,-8.30309972149195e-001

5.73582099206328e+004,-1.45541117919660e+000,-8.41900795268481e-001

5.81589006928121e+004,-1.45540840162578e+000,-8.53653425677298e-001

5.89707686916437e+004,-1.45540554597298e+000,-8.65570122352458e-001

5.97939699453972e+004,-1.45540261004345e+000,-8.77653175813460e-001

6.06286626604156e+004,-1.45539959158065e+000,-8.89904908565230e-001

6.14750072515201e+004,-1.45539648826457e+000,-9.02327675544358e-001

6.23331663728396e+004,-1.45539329771018e+000,-9.14923864571560e-001

6.32033049490698e+004,-1.45539001746539e+000,-9.27695896811874e-001

6.40855902071694e+004,-1.45538664500893e+000,-9.40646227241773e-001

6.49801917084985e+004,-1.45538317774896e+000,-9.53777345119403e-001

6.58872813814055e+004,-1.45537961302078e+000,-9.67091774464596e-001

6.68070335542691e+004,-1.45537594808462e+000,-9.80592074545835e-001

6.77396249890018e+004,-1.45537218012391e+000,-9.94280840370870e-001

6.86852349150199e+004,-1.45536830624283e+000,-1.00816070318786e+000

6.96440450636895e+004,-1.45536432346421e+000,-1.02223433099105e+000

7.06162397032520e+004,-1.45536022872724e+000,-1.03650442903445e+000

7.16020056742374e+004,-1.45535601888500e+000,-1.05097374035358e+000

7.26015324253724e+004,-1.45535169070224e+000,-1.06564504629203e+000

7.36150120499896e+004,-1.45534724085283e+000,-1.08052116703773e+000

7.46426393229441e+004,-1.45534266591703e+000,-1.09560496216676e+000

7.56846117380472e+004,-1.45533796237915e+000,-1.11089933119243e+000

7.67411295460207e+004,-1.45533312662459e+000,-1.12640721412518e+000

7.78123957929823e+004,-1.45532815493731e+000,-1.14213159203737e+000

7.88986163594682e+004,-1.45532304349674e+000,-1.15807548763854e+000

7.99999999999995e+004,-1.45531778837507e+000,-1.17424196585666e+000

8.11167583832018e+004,-1.45531238553407e+000,-1.19063413442933e+000

8.22491061324848e+004,-1.45530683082200e+000,-1.20725514450201e+000

8.33972608672892e+004,-1.45530111997059e+000,-1.22410819123461e+000

8.45614432449099e+004,-1.45529524859152e+000,-1.24119651441846e+000

8.57418770029029e+004,-1.45528921217325e+000,-1.25852339909837e+000

8.69387890020841e+004,-1.45528300607750e+000,-1.27609217620780e+000

8.81524092701283e+004,-1.45527662553568e+000,-1.29390622320849e+000

8.93829710457770e+004,-1.45527006564518e+000,-1.31196896474359e+000

9.06307108236633e+004,-1.45526332136568e+000,-1.33028387329621e+000

9.18958683997622e+004,-1.45525638751531e+000,-1.34885446985869e+000

9.31786869174758e+004,-1.45524925876655e+000,-1.36768432461233e+000

9.44794129143618e+004,-1.45524192964230e+000,-1.38677705761417e+000

9.57982963695136e+004,-1.45523439451157e+000,-1.40613633949582e+000

9.71355907516031e+004,-1.45522664758518e+000,-1.42576589217129e+000

9.84915530675926e+004,-1.45521868291133e+000,-1.44566948955430e+000

9.98664439121282e+004,-1.45521049437114e+000,-1.46585095828511e+000

1.01260527517622e+005,-1.45520207567371e+000,-1.48631417847049e+000

1.02674071805032e+005,-1.45519342035153e+000,-1.50706308443073e+000

1.04107348435354e+005,-1.45518452175543e+000,-1.52810166545854e+000

1.05560632861831e+005,-1.45517537304954e+000,-1.54943396658918e+000

1.07034204382888e+005,-1.45516596720583e+000,-1.57106408938091e+000

1.08528346195813e+005,-1.45515629699912e+000,-1.59299619270526e+000

1.10043345451179e+005,-1.45514635500117e+000,-1.61523449355122e+000

1.11579493308032e+005,-1.45513613357526e+000,-1.63778326783764e+000

1.13137084989847e+005,-1.45512562486999e+000,-1.66064685124049e+000

1.14716419841265e+005,-1.45511482081373e+000,-1.68382964002708e+000

1.16317801385624e+005,-1.45510371310812e+000,-1.70733609190702e+000

1.17941537383287e+005,-1.45509229322173e+000,-1.73117072689279e+000

1.19587939890794e+005,-1.45508055238362e+000,-1.75533812817156e+000

1.21257325320831e+005,-1.45506848157663e+000,-1.77984294299083e+000

1.22950014503040e+005,-1.45505607153035e+000,-1.80468988355720e+000

1.24666332745679e+005,-1.45504331271424e+000,-1.82988372794467e+000

1.26406609898139e+005,-1.45503019533004e+000,-1.85542932102017e+000

1.28171180414339e+005,-1.45501670930454e+000,-1.88133157537808e+000

1.29960383416997e+005,-1.45500284428169e+000,-1.90759547229108e+000

1.31774562762811e+005,-1.45498858961480e+000,-1.93422606267187e+000

1.33614067108538e+005,-1.45497393435832e+000,-1.96122846805099e+000

1.35479249978003e+005,-1.45495886725945e+000,-1.98860788156613e+000

1.37370469830040e+005,-1.45494337674960e+000,-2.01636956896769e+000

1.39288090127379e+005,-1.45492745093547e+000,-2.04451886963612e+000

1.41232479406504e+005,-1.45491107759003e+000,-2.07306119761633e+000

1.43204011348474e+005,-1.45489424414312e+000,-2.10200204266472e+000

1.45203064850745e+005,-1.45487693767178e+000,-2.13134697131155e+000

1.47230024099979e+005,-1.45485914489057e+000,-2.16110162793925e+000

1.49285278645888e+005,-1.45484085214115e+000,-2.19127173587502e+000

1.51369223476094e+005,-1.45482204538207e+000,-2.22186309849933e+000

1.53482259092041e+005,-1.45480271017793e+000,-2.25288160037012e+000

1.55624791585964e+005,-1.45478283168832e+000,-2.28433320836336e+000

1.57797232718936e+005,-1.45476239465664e+000,-2.31622397282894e+000

1.59999999999999e+005,-1.45474138339820e+000,-2.34856002876405e+000

1.62233516766403e+005,-1.45471978178850e+000,-2.38134759700228e+000

1.64498212264969e+005,-1.45469757325085e+000,-2.41459298542055e+000

1.66794521734578e+005,-1.45467474074353e+000,-2.44830259016266e+000

1.69122886489819e+005,-1.45465126674701e+000,-2.48248289688055e+000

1.71483754005805e+005,-1.45462713325061e+000,-2.51714048199264e+000

1.73877578004168e+005,-1.45460232173850e+000,-2.55228201396165e+000

1.76304818540256e+005,-1.45457681317583e+000,-2.58791425458903e+000

1.78765942091554e+005,-1.45455058799411e+000,-2.62404406032834e+000

1.81261421647326e+005,-1.45452362607640e+000,-2.66067838361803e+000

1.83791736799524e+005,-1.45449590674174e+000,-2.69782427423308e+000

1.86357373834951e+005,-1.45446740872961e+000,-2.73548888065547e+000

1.88958825828723e+005,-1.45443811018385e+000,-2.77367945146416e+000

1.91596592739027e+005,-1.45440798863559e+000,-2.81240333674671e+000

1.94271181503206e+005,-1.45437702098659e+000,-2.85166798952873e+000

1.96983106135185e+005,-1.45434518349132e+000,-2.89148096722578e+000

1.99732887824256e+005,-1.45431245173920e+000,-2.93184993311501e+000

2.02521055035243e+005,-1.45427880063582e+000,-2.97278265782853e+000

2.05348143610063e+005,-1.45424420438393e+000,-3.01428702086810e+000

2.08214696870707e+005,-1.45420863646379e+000,-3.05637101214204e+000

2.11121265723661e+005,-1.45417206961317e+000,-3.09904273352289e+000

2.14068408765776e+005,-1.45413447580637e+000,-3.14231040042990e+000

2.17056692391625e+005,-1.45409582623324e+000,-3.18618234343232e+000

2.20086690902357e+005,-1.45405609127707e+000,-3.23066700987668e+000

2.23158986616063e+005,-1.45401524049227e+000,-3.27577296553791e+000

2.26274169979693e+005,-1.45397324258117e+000,-3.32150889629362e+000

2.29432839682530e+005,-1.45393006537040e+000,-3.36788360982350e+000

2.32635602771247e+005,-1.45388567578643e+000,-3.41490603733265e+000

2.35883074766574e+005,-1.45384003983048e+000,-3.46258523530084e+000

2.39175879781588e+005,-1.45379312255292e+000,-3.51093038725578e+000

2.42514650641661e+005,-1.45374488802662e+000,-3.55995080557399e+000

2.45900029006080e+005,-1.45369529931988e+000,-3.60965593330679e+000

2.49332665491357e+005,-1.45364431846850e+000,-3.66005534603302e+000

2.52813219796278e+005,-1.45359190644709e+000,-3.71115875373892e+000

2.56342360828676e+005,-1.45353802313945e+000,-3.76297600272633e+000

2.59920766833993e+005,-1.45348262730850e+000,-3.81551707754716e+000

2.63549125525621e+005,-1.45342567656492e+000,-3.86879210296838e+000

2.67228134217075e+005,-1.45336712733542e+000,-3.92281134596346e+000

2.70958499956006e+005,-1.45330693482956e+000,-3.97758521773573e+000

2.74740939660078e+005,-1.45324505300626e+000,-4.03312427576887e+000

2.78576180254757e+005,-1.45318143453907e+000,-4.08943922591014e+000

2.82464958813007e+005,-1.45311603078056e+000,-4.14654092448204e+000

2.86408022696948e+005,-1.45304879172548e+000,-4.20444038042772e+000

2.90406129701488e+005,-1.45297966597356e+000,-4.26314875748564e+000

2.94460048199957e+005,-1.45290860069063e+000,-4.32267737639829e+000

2.98570557291775e+005,-1.45283554156894e+000,-4.38303771715353e+000

3.02738446952187e+005,-1.45276043278659e+000,-4.44424142125755e+000

3.06964518184081e+005,-1.45268321696545e+000,-4.50630029404514e+000

3.11249583171928e+005,-1.45260383512839e+000,-4.56922630702042e+000

3.15594465437872e+005,-1.45252222665491e+000,-4.63303160023601e+000

3.19999999999997e+005,-1.45243832923596e+000,-4.69772848470567e+000

3.24467033532806e+005,-1.45235207882726e+000,-4.76332944485471e+000

3.28996424529938e+005,-1.45226340960143e+000,-4.82984714100582e+000

3.33589043469155e+005,-1.45217225389902e+000,-4.89729441190320e+000

3.38245772979638e+005,-1.45207854217781e+000,-4.96568427727543e+000

3.42967508011610e+005,-1.45198220296122e+000,-5.03502994043561e+000

3.47755156008335e+005,-1.45188316278501e+000,-5.10534479092194e+000

3.52609637080511e+005,-1.45178134614256e+000,-5.17664240717847e+000

3.57531884183106e+005,-1.45167667542895e+000,-5.24893655927623e+000

3.62522843294651e+005,-1.45156907088317e+000,-5.32224121167639e+000

3.67583473599047e+005,-1.45145845052914e+000,-5.39657052603490e+000

3.72714747669902e+005,-1.45134473011478e+000,-5.47193886405144e+000

3.77917651657445e+005,-1.45122782304993e+000,-5.54836079036054e+000

3.83193185478053e+005,-1.45110764034214e+000,-5.62585107546856e+000

3.88542363006410e+005,-1.45098409053098e+000,-5.70442469873580e+000

3.93966212270369e+005,-1.45085707962078e+000,-5.78409685140361e+000

3.99465775648511e+005,-1.45072651101109e+000,-5.86488293967079e+000

4.05042110070485e+005,-1.45059228542594e+000,-5.94679858781512e+000

4.10696287220124e+005,-1.45045430084071e+000,-6.02985964136598e+000

4.16429393741414e+005,-1.45031245240726e+000,-6.11408217032506e+000

4.22242531447321e+005,-1.45016663237723e+000,-6.19948247243834e+000

4.28136817531551e+005,-1.45001673002308e+000,-6.28607707651957e+000

4.34113384783250e+005,-1.44986263155733e+000,-6.37388274582546e+000

4.40173381804713e+005,-1.44970422004934e+000,-6.46291648148559e+000

4.46317973232124e+005,-1.44954137534034e+000,-6.55319552598519e+000

4.52548339959385e+005,-1.44937397395590e+000,-6.64473736670487e+000

4.58865679365059e+005,-1.44920188901635e+000,-6.73755973951582e+000

4.65271205542494e+005,-1.44902499014481e+000,-6.83168063243292e+000

4.71766149533147e+005,-1.44884314337278e+000,-6.92711828932715e+000

4.78351759563174e+005,-1.44865621104342e+000,-7.02389121369680e+000

4.85029301283321e+005,-1.44846405171234e+000,-7.12201817250060e+000

4.91800058012158e+005,-1.44826652004570e+000,-7.22151820005289e+000

4.98665330982714e+005,-1.44806346671592e+000,-7.32241060198162e+000

5.05626439592555e+005,-1.44785473829464e+000,-7.42471495925196e+000

5.12684721657352e+005,-1.44764017714285e+000,-7.52845113225583e+000

5.19841533667984e+005,-1.44741962129860e+000,-7.63363926496766e+000

5.27098251051240e+005,-1.44719290436140e+000,-7.74029978917074e+000

5.34456268434150e+005,-1.44695985537420e+000,-7.84845342875170e+000

5.41916999912011e+005,-1.44672029870207e+000,-7.95812120406807e+000

