Freq.,VOut,OutRef

1.00000000000000e+004,-1.57116134161081e+001,-7.32208204362384e-002

1.01395947979003e+004,-1.57116134438153e+001,-7.42429449266981e-002

1.02811382665607e+004,-1.57116134723015e+001,-7.52793377406050e-002

1.04246576084112e+004,-1.57116135015885e+001,-7.63301980557148e-002

1.05701804056138e+004,-1.57116135316988e+001,-7.73957278313274e-002

1.07177346253629e+004,-1.57116135626558e+001,-7.84761318441721e-002

1.08673486252606e+004,-1.57116135944829e+001,-7.95716177324869e-002

1.10190511587661e+004,-1.57116136272050e+001,-8.06823960288783e-002

1.11728713807222e+004,-1.57116136608467e+001,-8.18086802101066e-002

1.13288388529580e+004,-1.57116136954345e+001,-8.29506867269231e-002

1.14869835499703e+004,-1.57116137309947e+001,-8.41086350563361e-002

1.16473358646846e+004,-1.57116137675546e+001,-8.52827477379703e-002

1.18099266142953e+004,-1.57116138051422e+001,-8.64732504181336e-002

1.19747870461893e+004,-1.57116138437866e+001,-8.76803718908937e-002

1.21419488439505e+004,-1.57116138835175e+001,-8.89043441458033e-002

1.23114441334492e+004,-1.57116139243654e+001,-9.01454024119886e-002

1.24833054890161e+004,-1.57116139663616e+001,-9.14037852004869e-002

1.26575659397028e+004,-1.57116140095386e+001,-9.26797343519995e-002

1.28342589756290e+004,-1.57116140539293e+001,-9.39734950846638e-002

1.30134185544193e+004,-1.57116140995682e+001,-9.52853160369216e-002

1.31950791077289e+004,-1.57116141464900e+001,-9.66154493213502e-002

1.33792755478611e+004,-1.57116141947310e+001,-9.79641505678980e-002

1.35660432744767e+004,-1.57116142443282e+001,-9.93316789751479e-002

1.37554181813974e+004,-1.57116142953199e+001,-1.00718297359996e-001

1.39474366635040e+004,-1.57116143477450e+001,-1.02124272208612e-001

1.41421356237309e+004,-1.57116144016441e+001,-1.03549873726425e-001

1.43395524801583e+004,-1.57116144570585e+001,-1.04995375891510e-001

1.45397251732031e+004,-1.57116145140307e+001,-1.06461056507499e-001

1.47426921729110e+004,-1.57116145726046e+001,-1.07947197252310e-001

1.49484924863494e+004,-1.57116146328254e+001,-1.09454083739011e-001

1.51571656651040e+004,-1.57116146947392e+001,-1.10982005567546e-001

1.53687518128801e+004,-1.57116147583935e+001,-1.12531256380696e-001

1.55832915932100e+004,-1.57116148238375e+001,-1.14102133917458e-001

1.58008262372675e+004,-1.57116148911214e+001,-1.15694940076235e-001

1.60213975517924e+004,-1.57116149602968e+001,-1.17309980969484e-001

1.62450479271247e+004,-1.57116150314170e+001,-1.18947566980565e-001

1.64718203453514e+004,-1.57116151045366e+001,-1.20608012828986e-001

1.67017583885674e+004,-1.57116151797120e+001,-1.22291637623709e-001

1.69349062472505e+004,-1.57116152570009e+001,-1.23998764930593e-001

1.71713087287550e+004,-1.57116153364626e+001,-1.25729722833597e-001

1.74110112659224e+004,-1.57116154181582e+001,-1.27484843993012e-001

1.76540599258131e+004,-1.57116155021506e+001,-1.29264465715263e-001

1.79005014185594e+004,-1.57116155885045e+001,-1.31068930014175e-001

1.81503831063432e+004,-1.57116156772860e+001,-1.32898583679891e-001

1.84037530124975e+004,-1.57116157685635e+001,-1.34753778341266e-001

1.86606598307361e+004,-1.57116158624071e+001,-1.36634870536877e-001

1.89211529345119e+004,-1.57116159588891e+001,-1.38542221781757e-001

1.91852823865052e+004,-1.57116160580837e+001,-1.40476198636491e-001

1.94530989482457e+004,-1.57116161600669e+001,-1.42437172782510e-001

1.97246540898671e+004,-1.57116162649171e+001,-1.44425521086445e-001

1.99999999999999e+004,-1.57116163727151e+001,-1.46441625675404e-001

2.02791895958005e+004,-1.57116164835439e+001,-1.48485874011427e-001

2.05622765331213e+004,-1.57116165974883e+001,-1.50558658966626e-001

2.08493152168224e+004,-1.57116167146362e+001,-1.52660378896311e-001

2.11403608112276e+004,-1.57116168350775e+001,-1.54791437716146e-001

2.14354692507258e+004,-1.57116169589049e+001,-1.56952244980294e-001

2.17346972505211e+004,-1.57116170862137e+001,-1.59143215960521e-001

2.20381023175322e+004,-1.57116172171015e+001,-1.61364771726074e-001

2.23457427614443e+004,-1.57116173516690e+001,-1.63617339223666e-001

2.26576777059159e+004,-1.57116174900199e+001,-1.65901351357198e-001

2.29739670999406e+004,-1.57116176322601e+001,-1.68217247079461e-001

2.32946717293690e+004,-1.57116177784994e+001,-1.70565471464672e-001

2.36198532285905e+004,-1.57116179288500e+001,-1.72946475803815e-001

2.39495740923785e+004,-1.57116180834275e+001,-1.75360717686180e-001

2.42838976879009e+004,-1.57116182423507e+001,-1.77808661089099e-001

2.46228882668982e+004,-1.57116184057420e+001,-1.80290776465428e-001

2.49666109780322e+004,-1.57116185737268e+001,-1.82807540837890e-001

2.53151318794055e+004,-1.57116187464341e+001,-1.85359437886347e-001

2.56685179512580e+004,-1.57116189239970e+001,-1.87946958042073e-001

2.60268371088386e+004,-1.57116191065518e+001,-1.90570598583745e-001

2.63901582154578e+004,-1.57116192942389e+001,-1.93230863730496e-001

2.67585510957221e+004,-1.57116194872028e+001,-1.95928264739805e-001

2.71320865489533e+004,-1.57116196855914e+001,-1.98663320008492e-001

2.75108363627948e+004,-1.57116198895575e+001,-2.01436555167272e-001

2.78948733270080e+004,-1.57116200992580e+001,-2.04248503184313e-001

2.82842712474618e+004,-1.57116203148537e+001,-2.07099704470266e-001

2.86791049603164e+004,-1.57116205365108e+001,-2.09990706975343e-001

2.90794503464061e+004,-1.57116207643994e+001,-2.12922066302451e-001

2.94853843458219e+004,-1.57116209986949e+001,-2.15894345808169e-001

2.98969849726987e+004,-1.57116212395773e+001,-2.18908116714688e-001

3.03143313302078e+004,-1.57116214872319e+001,-2.21963958215856e-001

3.07375036257601e+004,-1.57116217418488e+001,-2.25062457594076e-001

3.11665831864199e+004,-1.57116220036241e+001,-2.28204210325344e-001

3.16016524745350e+004,-1.57116222727588e+001,-2.31389820201183e-001

3.20427951035848e+004,-1.57116225494599e+001,-2.34619899441561e-001

3.24900958542493e+004,-1.57116228339401e+001,-2.37895068810959e-001

3.29436406907028e+004,-1.57116231264181e+001,-2.41215957739633e-001

3.34035167771346e+004,-1.57116234271187e+001,-2.44583204445430e-001

3.38698124945009e+004,-1.57116237362732e+001,-2.47997456053586e-001

3.43426174575100e+004,-1.57116240541192e+001,-2.51459368724077e-001

3.48220225318448e+004,-1.57116243809009e+001,-2.54969607775590e-001

3.53081198516260e+004,-1.57116247168698e+001,-2.58528847813380e-001

3.58010028371187e+004,-1.57116250622841e+001,-2.62137772861157e-001

3.63007662126863e+004,-1.57116254174090e+001,-2.65797076490973e-001

3.68075060249948e+004,-1.57116257825180e+001,-2.69507461954577e-001

3.73213196614721e+004,-1.57116261578915e+001,-2.73269642322517e-001

3.78423058690237e+004,-1.57116265438181e+001,-2.77084340618443e-001

3.83705647730104e+004,-1.57116269405945e+001,-2.80952289959160e-001

3.89061978964912e+004,-1.57116273485259e+001,-2.84874233693767e-001

3.94493081797342e+004,-1.57116277679257e+001,-2.88850925549442e-001

3.99999999999998e+004,-1.57116281991164e+001,-2.92883129774231e-001

4.05583791916010e+004,-1.57116286424293e+001,-2.96971621284488e-001

4.11245530662425e+004,-1.57116290982055e+001,-3.01117185812860e-001

4.16986304336447e+004,-1.57116295667952e+001,-3.05320620061163e-001

4.22807216224550e+004,-1.57116300485587e+001,-3.09582731851206e-001

4.28709385014515e+004,-1.57116305438664e+001,-3.13904340282518e-001

4.34693945010421e+004,-1.57116310530989e+001,-3.18286275887990e-001

4.40762046350642e+004,-1.57116315766479e+001,-3.22729380792548e-001

4.46914855228886e+004,-1.57116321149157e+001,-3.27234508879129e-001

4.53153554118317e+004,-1.57116326683162e+001,-3.31802525947752e-001

4.59479341998812e+004,-1.57116332372748e+001,-3.36434309884200e-001

4.65893434587380e+004,-1.57116338222289e+001,-3.41130750829492e-001

4.72397064571810e+004,-1.57116344236281e+001,-3.45892751350328e-001

4.78991481847569e+004,-1.57116350419350e+001,-3.50721226610722e-001

4.85677953758016e+004,-1.57116356776246e+001,-3.55617104551017e-001

4.92457765337964e+004,-1.57116363311858e+001,-3.60581326063554e-001

4.99332219560642e+004,-1.57116370031209e+001,-3.65614845174594e-001

5.06302637588109e+004,-1.57116376939466e+001,-3.70718629227656e-001

5.13370359025159e+004,-1.57116384041939e+001,-3.75893659069168e-001

5.20536742176771e+004,-1.57116391344087e+001,-3.81140929237477e-001

5.27803164309155e+004,-1.57116398851526e+001,-3.86461448152949e-001

5.35171021914442e+004,-1.57116406570025e+001,-3.91856238311826e-001

5.42641730979066e+004,-1.57116414505519e+001,-3.97326336484619e-001

5.50216727255895e+004,-1.57116422664108e+001,-4.02872793912253e-001

5.57897466540159e+004,-1.57116431052064e+001,-4.08496676509626e-001

5.65685424949235e+004,-1.57116439675835e+001,-4.14199065072620e-001

5.73582099206328e+004,-1.57116448542051e+001,-4.19981055480907e-001

5.81589006928121e+004,-1.57116457657528e+001,-4.25843758911994e-001

5.89707686916437e+004,-1.57116467029273e+001,-4.31788302054911e-001

5.97939699453972e+004,-1.57116476664492e+001,-4.37815827324230e-001

6.06286626604156e+004,-1.57116486570589e+001,-4.43927493082453e-001

6.14750072515201e+004,-1.57116496755182e+001,-4.50124473859391e-001

6.23331663728396e+004,-1.57116507226099e+001,-4.56407960581438e-001

6.32033049490698e+004,-1.57116517991390e+001,-4.62779160796913e-001

6.40855902071694e+004,-1.57116529059331e+001,-4.69239298910098e-001

6.49801917084985e+004,-1.57116540438431e+001,-4.75789616416786e-001

6.58872813814055e+004,-1.57116552137435e+001,-4.82431372141620e-001

6.68070335542691e+004,-1.57116564165340e+001,-4.89165842479966e-001

6.77396249890018e+004,-1.57116576531391e+001,-4.95994321643418e-001

6.86852349150199e+004,-1.57116589245093e+001,-5.02918121910035e-001

6.96440450636895e+004,-1.57116602316220e+001,-5.09938573873700e-001

7.06162397032520e+004,-1.57116615754822e+001,-5.17057026700705e-001

7.16020056742374e+004,-1.57116629571228e+001,-5.24274848390601e-001

7.26015324253724e+004,-1.57116643776060e+001,-5.31593426037082e-001

7.36150120499896e+004,-1.57116658380238e+001,-5.39014166094511e-001

7.46426393229441e+004,-1.57116673394989e+001,-5.46538494649185e-001

7.56846117380472e+004,-1.57116688831853e+001,-5.54167857693897e-001

7.67411295460207e+004,-1.57116704702701e+001,-5.61903721401734e-001

7.78123957929823e+004,-1.57116721019728e+001,-5.69747572414469e-001

7.88986163594682e+004,-1.57116737795483e+001,-5.77700918120384e-001

7.99999999999995e+004,-1.57116755042858e+001,-5.85765286951306e-001

8.11167583832018e+004,-1.57116772775114e+001,-5.93942228669447e-001

8.22491061324848e+004,-1.57116791005881e+001,-6.02233314670814e-001

8.33972608672892e+004,-1.57116809749174e+001,-6.10640138283064e-001

8.45614432449099e+004,-1.57116829019402e+001,-6.19164315073504e-001

8.57418770029029e+004,-1.57116848831377e+001,-6.27807483159541e-001

8.69387890020841e+004,-1.57116869200330e+001,-6.36571303521378e-001

8.81524092701283e+004,-1.57116890141918e+001,-6.45457460324398e-001

8.93829710457770e+004,-1.57116911672241e+001,-6.54467661238722e-001

9.06307108236633e+004,-1.57116933807848e+001,-6.63603637770228e-001

9.18958683997622e+004,-1.57116956565755e+001,-6.72867145592628e-001

9.31786869174758e+004,-1.57116979963459e+001,-6.82259964882183e-001

9.44794129143618e+004,-1.57117004018943e+001,-6.91783900663569e-001

9.57982963695136e+004,-1.57117028750700e+001,-7.01440783153929e-001

9.71355907516031e+004,-1.57117054177741e+001,-7.11232468114584e-001

9.84915530675926e+004,-1.57117080319614e+001,-7.21160837207713e-001

9.98664439121282e+004,-1.57117107196411e+001,-7.31227798359098e-001

1.01260527517622e+005,-1.57117134828796e+001,-7.41435286121184e-001

1.02674071805032e+005,-1.57117163238007e+001,-7.51785262049355e-001

1.04107348435354e+005,-1.57117192445885e+001,-7.62279715073581e-001

1.05560632861831e+005,-1.57117222474879e+001,-7.72920661884528e-001

1.07034204382888e+005,-1.57117253348074e+001,-7.83710147318000e-001

1.08528346195813e+005,-1.57117285089202e+001,-7.94650244748855e-001

1.10043345451179e+005,-1.57117317722662e+001,-8.05743056489142e-001

1.11579493308032e+005,-1.57117351273538e+001,-8.16990714191672e-001

1.13137084989847e+005,-1.57117385767623e+001,-8.28395379258828e-001

1.14716419841265e+005,-1.57117421231428e+001,-8.39959243258848e-001

1.16317801385624e+005,-1.57117457692216e+001,-8.51684528344694e-001

1.17941537383287e+005,-1.57117495178013e+001,-8.63573487682387e-001

1.19587939890794e+005,-1.57117533717634e+001,-8.75628405882654e-001

1.21257325320831e+005,-1.57117573340704e+001,-8.87851599439837e-001

1.22950014503040e+005,-1.57117614077678e+001,-9.00245417177261e-001

1.24666332745679e+005,-1.57117655959871e+001,-9.12812240696817e-001

1.26406609898139e+005,-1.57117699019475e+001,-9.25554484837075e-001

1.28171180414339e+005,-1.57117743289590e+001,-9.38474598136520e-001

1.29960383416997e+005,-1.57117788804243e+001,-9.51575063304449e-001

1.31774562762811e+005,-1.57117835598421e+001,-9.64858397695618e-001

1.33614067108538e+005,-1.57117883708091e+001,-9.78327153794966e-001

1.35479249978003e+005,-1.57117933170232e+001,-9.91983919708070e-001

1.37370469830040e+005,-1.57117984022864e+001,-1.00583131965605e+000

1.39288090127379e+005,-1.57118036305075e+001,-1.01987201447958e+000

1.41232479406504e+005,-1.57118090057049e+001,-1.03410870215182e+000

1.43204011348474e+005,-1.57118145320104e+001,-1.04854411829311e+000

1.45203064850745e+005,-1.57118202136715e+001,-1.06318103669750e+000

1.47230024099979e+005,-1.57118260550555e+001,-1.07802226986506e+000

1.49285278645888e+005,-1.57118320606520e+001,-1.09307066954160e+000

1.51369223476094e+005,-1.57118382350771e+001,-1.10832912726496e+000

1.53482259092041e+005,-1.57118445830765e+001,-1.12380057492110e+000

1.55624791585964e+005,-1.57118511095295e+001,-1.13948798530513e+000

1.57797232718936e+005,-1.57118578194522e+001,-1.15539437269345e+000

1.59999999999999e+005,-1.57118647180019e+001,-1.17152279342011e+000

1.62233516766403e+005,-1.57118718104808e+001,-1.18787634646396e+000

1.64498212264969e+005,-1.57118791023401e+001,-1.20445817404465e+000

1.66794521734578e+005,-1.57118865991842e+001,-1.22127146222173e+000

1.69122886489819e+005,-1.57118943067751e+001,-1.23831944150935e+000

1.71483754005805e+005,-1.57119022310365e+001,-1.25560538749401e+000

1.73877578004168e+005,-1.57119103780590e+001,-1.27313262146250e+000

1.76304818540256e+005,-1.57119187541038e+001,-1.29090451104049e+000

1.78765942091554e+005,-1.57119273656085e+001,-1.30892447083628e+000

1.81261421647326e+005,-1.57119362191916e+001,-1.32719596309669e+000

1.83791736799524e+005,-1.57119453216574e+001,-1.34572249837079e+000

1.86357373834951e+005,-1.57119546800014e+001,-1.36450763618287e+000

1.88958825828723e+005,-1.57119643014159e+001,-1.38355498571426e+000

1.91596592739027e+005,-1.57119741932950e+001,-1.40286820649695e+000

1.94271181503206e+005,-1.57119843632411e+001,-1.42245100911183e+000

1.96983106135185e+005,-1.57119948190697e+001,-1.44230715590355e+000

1.99732887824256e+005,-1.57120055688162e+001,-1.46244046169891e+000

2.02521055035243e+005,-1.57120166207417e+001,-1.48285479453902e+000

2.05348143610063e+005,-1.57120279833395e+001,-1.50355407642051e+000

2.08214696870707e+005,-1.57120396653416e+001,-1.52454228404669e+000

2.11121265723661e+005,-1.57120516757251e+001,-1.54582344958956e+000

2.14068408765776e+005,-1.57120640237197e+001,-1.56740166146206e+000

2.17056692391625e+005,-1.57120767188142e+001,-1.58928106510176e+000

2.20086690902357e+005,-1.57120897707641e+001,-1.61146586376400e+000

2.23158986616063e+005,-1.57121031895990e+001,-1.63396031932813e+000

2.26274169979693e+005,-1.57121169856303e+001,-1.65676875311219e+000

2.29432839682530e+005,-1.57121311694591e+001,-1.67989554670141e+000

2.32635602771247e+005,-1.57121457519844e+001,-1.70334514278649e+000

2.35883074766574e+005,-1.57121607444113e+001,-1.72712204601497e+000

2.39175879781588e+005,-1.57121761582597e+001,-1.75123082385254e+000

2.42514650641661e+005,-1.57121920053734e+001,-1.77567610745744e+000

2.45900029006080e+005,-1.57122082979285e+001,-1.80046259256748e+000

2.49332665491357e+005,-1.57122250484436e+001,-1.82559504039693e+000

2.52813219796278e+005,-1.57122422697888e+001,-1.85107827854999e+000

2.56342360828676e+005,-1.57122599751957e+001,-1.87691720194197e+000

2.59920766833993e+005,-1.57122781782677e+001,-1.90311677373636e+000

2.63549125525621e+005,-1.57122968929902e+001,-1.92968202629517e+000

2.67228134217075e+005,-1.57123161337415e+001,-1.95661806213929e+000

2.70958499956006e+005,-1.57123359153039e+001,-1.98393005492583e+000

2.74740939660078e+005,-1.57123562528748e+001,-2.01162325043586e+000

2.78576180254757e+005,-1.57123771620784e+001,-2.03970296757848e+000

2.82464958813007e+005,-1.57123986589779e+001,-2.06817459940580e+000

2.86408022696948e+005,-1.57124207600877e+001,-2.09704361414461e+000

2.90406129701488e+005,-1.57124434823857e+001,-2.12631555624113e+000

2.94460048199957e+005,-1.57124668433270e+001,-2.15599604741896e+000

2.98570557291775e+005,-1.57124908608568e+001,-2.18609078775441e+000

3.02738446952187e+005,-1.57125155534240e+001,-2.21660555676369e+000

3.06964518184081e+005,-1.57125409399961e+001,-2.24754621450681e+000

3.11249583171928e+005,-1.57125670400728e+001,-2.27891870270633e+000

3.15594465437872e+005,-1.57125938737015e+001,-2.31072904588133e+000

3.19999999999997e+005,-1.57126214614926e+001,-2.34298335249645e+000

3.24467033532806e+005,-1.57126498246352e+001,-2.37568781612779e+000

3.28996424529938e+005,-1.57126789849133e+001,-2.40884871664438e+000

3.33589043469155e+005,-1.57127089647226e+001,-2.44247242140515e+000

3.38245772979638e+005,-1.57127397870874e+001,-2.47656538647299e+000

3.42967508011610e+005,-1.57127714756787e+001,-2.51113415784596e+000

3.47755156008335e+005,-1.57128040548318e+001,-2.54618537270390e+000

3.52609637080511e+005,-1.57128375495653e+001,-2.58172576067341e+000

3.57531884183106e+005,-1.57128719855999e+001,-2.61776214510964e+000

3.62522843294651e+005,-1.57129073893785e+001,-2.65430144439564e+000

3.67583473599047e+005,-1.57129437880862e+001,-2.69135067325925e+000

3.72714747669902e+005,-1.57129812096711e+001,-2.72891694410843e+000

3.77917651657445e+005,-1.57130196828656e+001,-2.76700746838440e+000

3.83193185478053e+005,-1.57130592372087e+001,-2.80562955793361e+000

3.88542363006410e+005,-1.57130999030681e+001,-2.84479062639769e+000

3.93966212270369e+005,-1.57131417116640e+001,-2.88449819062334e+000

3.99465775648511e+005,-1.57131846950924e+001,-2.92475987209100e+000

4.05042110070485e+005,-1.57132288863502e+001,-2.96558339836228e+000

4.10696287220124e+005,-1.57132743193597e+001,-3.00697660454829e+000

4.16429393741414e+005,-1.57133210289953e+001,-3.04894743479659e+000

4.22242531447321e+005,-1.57133690511097e+001,-3.09150394379962e+000

4.28136817531551e+005,-1.57134184225614e+001,-3.13465429832266e+000

4.34113384783250e+005,-1.57134691812426e+001,-3.17840677875215e+000

4.40173381804713e+005,-1.57135213661088e+001,-3.22276978066705e+000

4.46317973232124e+005,-1.57135750172078e+001,-3.26775181642874e+000

4.52548339959385e+005,-1.57136301757106e+001,-3.31336151679404e+000

4.58865679365059e+005,-1.57136868839429e+001,-3.35960763254986e+000

4.65271205542494e+005,-1.57137451854174e+001,-3.40649903616876e+000

4.71766149533147e+005,-1.57138051248666e+001,-3.45404472348940e+000

4.78351759563174e+005,-1.57138667482775e+001,-3.50225381541580e+000

4.85029301283321e+005,-1.57139301029262e+001,-3.55113555964338e+000

4.91800058012158e+005,-1.57139952374143e+001,-3.60069933240502e+000

4.98665330982714e+005,-1.57140622017058e+001,-3.65095464024239e+000

5.05626439592555e+005,-1.57141310471647e+001,-3.70191112180108e+000

5.12684721657352e+005,-1.57142018265952e+001,-3.75357854964774e+000

5.19841533667984e+005,-1.57142745942810e+001,-3.80596683211452e+000

5.27098251051240e+005,-1.57143494060268e+001,-3.85908601516493e+000

5.34456268434150e+005,-1.57144263192012e+001,-3.91294628428786e+000

5.41916999912011e+005,-1.57145053927799e+001,-3.96755796641353e+000

