Freq.,VOut,OutRef

1.00000000000000e+004,-1.45788435797523e+000,-7.47165845426809e-002

1.01395947979003e+004,-1.45788433606375e+000,-7.57595892884624e-002

1.02811382665607e+004,-1.45788431353631e+000,-7.68171538416077e-002

1.04246576084112e+004,-1.45788429037576e+000,-7.78894814486162e-002

1.05701804056138e+004,-1.45788426656386e+000,-7.89767781969094e-002

1.07177346253629e+004,-1.45788424208268e+000,-8.00792530455429e-002

1.08673486252606e+004,-1.45788421691301e+000,-8.11971178755302e-002

1.10190511587661e+004,-1.45788419103587e+000,-8.23305875212221e-002

1.11728713807222e+004,-1.45788416443123e+000,-8.34798798184514e-002

1.13288388529580e+004,-1.45788413707852e+000,-8.46452156442350e-002

1.14869835499703e+004,-1.45788410895696e+000,-8.58268189568127e-002

1.16473358646846e+004,-1.45788408004475e+000,-8.70249168427441e-002

1.18099266142953e+004,-1.45788405031973e+000,-8.82397395577937e-002

1.19747870461893e+004,-1.45788401975896e+000,-8.94715205726837e-002

1.21419488439505e+004,-1.45788398833903e+000,-9.07204966162221e-002

1.23114441334492e+004,-1.45788395603573e+000,-9.19869077226833e-002

1.24833054890161e+004,-1.45788392282435e+000,-9.32709972758035e-002

1.26575659397028e+004,-1.45788388867925e+000,-9.45730120587724e-002

1.28342589756290e+004,-1.45788385357421e+000,-9.58932022983275e-002

1.30134185544193e+004,-1.45788381748225e+000,-9.72318217147408e-002

1.31950791077289e+004,-1.45788378037556e+000,-9.85891275705312e-002

1.33792755478611e+004,-1.45788374222569e+000,-9.99653807185665e-002

1.35660432744767e+004,-1.45788370300310e+000,-1.01360845654903e-001

1.37554181813974e+004,-1.45788366267796e+000,-1.02775790564373e-001

1.39474366635040e+004,-1.45788362121922e+000,-1.04210487378071e-001

1.41421356237309e+004,-1.45788357859491e+000,-1.05665211823194e-001

1.43395524801583e+004,-1.45788353477215e+000,-1.07140243476454e-001

1.45397251732031e+004,-1.45788348971735e+000,-1.08635865815345e-001

1.47426921729110e+004,-1.45788344339605e+000,-1.10152366274898e-001

1.49484924863494e+004,-1.45788339577230e+000,-1.11690036305113e-001

1.51571656651040e+004,-1.45788334680973e+000,-1.13249171421590e-001

1.53687518128801e+004,-1.45788329647070e+000,-1.14830071265835e-001

1.55832915932100e+004,-1.45788324471643e+000,-1.16433039663698e-001

1.58008262372675e+004,-1.45788319150721e+000,-1.18058384680234e-001

1.60213975517924e+004,-1.45788313680198e+000,-1.19706418683402e-001

1.62450479271247e+004,-1.45788308055878e+000,-1.21377458399539e-001

1.64718203453514e+004,-1.45788302273437e+000,-1.23071824977118e-001

1.67017583885674e+004,-1.45788296328433e+000,-1.24789844047466e-001

1.69349062472505e+004,-1.45788290216300e+000,-1.26531845787548e-001

1.71713087287550e+004,-1.45788283932313e+000,-1.28298164985362e-001

1.74110112659224e+004,-1.45788277471673e+000,-1.30089141098591e-001

1.76540599258131e+004,-1.45788270829392e+000,-1.31905118327461e-001

1.79005014185594e+004,-1.45788264000375e+000,-1.33746445674262e-001

1.81503831063432e+004,-1.45788256979367e+000,-1.35613477015047e-001

1.84037530124975e+004,-1.45788249760980e+000,-1.37506571164180e-001

1.86606598307361e+004,-1.45788242339645e+000,-1.39426091947220e-001

1.89211529345119e+004,-1.45788234709673e+000,-1.41372408266385e-001

1.91852823865052e+004,-1.45788226865210e+000,-1.43345894173478e-001

1.94530989482457e+004,-1.45788218800189e+000,-1.45346928945427e-001

1.97246540898671e+004,-1.45788210508436e+000,-1.47375897149333e-001

1.99999999999999e+004,-1.45788201983575e+000,-1.49433188722766e-001

2.02791895958005e+004,-1.45788193219031e+000,-1.51519199047872e-001

2.05622765331213e+004,-1.45788184208099e+000,-1.53634329022753e-001

2.08493152168224e+004,-1.45788174943838e+000,-1.55778985144641e-001

2.11403608112276e+004,-1.45788165419119e+000,-1.57953579584945e-001

2.14354692507258e+004,-1.45788155626616e+000,-1.60158530268690e-001

2.17346972505211e+004,-1.45788145558815e+000,-1.62394260954296e-001

2.20381023175322e+004,-1.45788135207974e+000,-1.64661201315771e-001

2.23457427614443e+004,-1.45788124566129e+000,-1.66959787026446e-001

2.26576777059159e+004,-1.45788113625111e+000,-1.69290459839826e-001

2.29739670999406e+004,-1.45788102376489e+000,-1.71653667678060e-001

2.32946717293690e+004,-1.45788090811627e+000,-1.74049864714203e-001

2.36198532285905e+004,-1.45788078921635e+000,-1.76479511462521e-001

2.39495740923785e+004,-1.45788066697384e+000,-1.78943074864911e-001

2.42838976879009e+004,-1.45788054129447e+000,-1.81441028383943e-001

2.46228882668982e+004,-1.45788041208179e+000,-1.83973852089079e-001

2.49666109780322e+004,-1.45788027923654e+000,-1.86542032751696e-001

2.53151318794055e+004,-1.45788014265645e+000,-1.89146063940050e-001

2.56685179512580e+004,-1.45788000223664e+000,-1.91786446110362e-001

2.60268371088386e+004,-1.45787985786901e+000,-1.94463686707037e-001

2.63901582154578e+004,-1.45787970944278e+000,-1.97178300256297e-001

2.67585510957221e+004,-1.45787955684371e+000,-1.99930808468349e-001

2.71320865489533e+004,-1.45787939995450e+000,-2.02721740336122e-001

2.75108363627948e+004,-1.45787923865457e+000,-2.05551632236822e-001

2.78948733270080e+004,-1.45787907281988e+000,-2.08421028035364e-001

2.82842712474618e+004,-1.45787890232294e+000,-2.11330479189405e-001

2.86791049603164e+004,-1.45787872703275e+000,-2.14280544853635e-001

2.90794503464061e+004,-1.45787854681446e+000,-2.17271791989822e-001

2.94853843458219e+004,-1.45787836152962e+000,-2.20304795473225e-001

2.98969849726987e+004,-1.45787817103569e+000,-2.23380138205009e-001

3.03143313302078e+004,-1.45787797518635e+000,-2.26498411222622e-001

3.07375036257601e+004,-1.45787777383095e+000,-2.29660213815634e-001

3.11665831864199e+004,-1.45787756681466e+000,-2.32866153638477e-001

3.16016524745350e+004,-1.45787735397842e+000,-2.36116846828374e-001

3.20427951035848e+004,-1.45787713515858e+000,-2.39412918124209e-001

3.24900958542493e+004,-1.45787691018688e+000,-2.42755000985747e-001

3.29436406907028e+004,-1.45787667889047e+000,-2.46143737715514e-001

3.34035167771346e+004,-1.45787644109140e+000,-2.49579779583504e-001

3.38698124945009e+004,-1.45787619660699e+000,-2.53063786949715e-001

3.43426174575100e+004,-1.45787594524919e+000,-2.56596429394451e-001

3.48220225318448e+004,-1.45787568682481e+000,-2.60178385843848e-001

3.53081198516260e+004,-1.45787542113526e+000,-2.63810344701914e-001

3.58010028371187e+004,-1.45787514797618e+000,-2.67493003983887e-001

3.63007662126863e+004,-1.45787486713753e+000,-2.71227071448360e-001

3.68075060249948e+004,-1.45787457840361e+000,-2.75013264733434e-001

3.73213196614721e+004,-1.45787428155233e+000,-2.78852311496687e-001

3.78423058690237e+004,-1.45787397635539e+000,-2.82744949553837e-001

3.83705647730104e+004,-1.45787366257841e+000,-2.86691927018289e-001

3.89061978964912e+004,-1.45787333997993e+000,-2.90694002450493e-001

3.94493081797342e+004,-1.45787300831208e+000,-2.94751944997274e-001

3.99999999999998e+004,-1.45787266731989e+000,-2.98866534544188e-001

4.05583791916010e+004,-1.45787231674123e+000,-3.03038561863925e-001

4.11245530662425e+004,-1.45787195630649e+000,-3.07268828768668e-001

4.16986304336447e+004,-1.45787158573865e+000,-3.11558148262983e-001

4.22807216224550e+004,-1.45787120475295e+000,-3.15907344701153e-001

4.28709385014515e+004,-1.45787081305632e+000,-3.20317253946774e-001

4.34693945010421e+004,-1.45787041034769e+000,-3.24788723531051e-001

4.40762046350642e+004,-1.45786999631758e+000,-3.29322612816476e-001

4.46914855228886e+004,-1.45786957064760e+000,-3.33919793163241e-001

4.53153554118317e+004,-1.45786913301058e+000,-3.38581148095268e-001

4.59479341998812e+004,-1.45786868307001e+000,-3.43307573471323e-001

4.65893434587380e+004,-1.45786822048008e+000,-3.48099977655347e-001

4.72397064571810e+004,-1.45786774488513e+000,-3.52959281693066e-001

4.78991481847569e+004,-1.45786725591954e+000,-3.57886419488208e-001

4.85677953758016e+004,-1.45786675320758e+000,-3.62882337980723e-001

4.92457765337964e+004,-1.45786623636263e+000,-3.67947997332025e-001

4.99332219560642e+004,-1.45786570498726e+000,-3.73084371107495e-001

5.06302637588109e+004,-1.45786515867327e+000,-3.78292446461181e-001

5.13370359025159e+004,-1.45786459700045e+000,-3.83573224331121e-001

5.20536742176771e+004,-1.45786401953716e+000,-3.88927719627111e-001

5.27803164309155e+004,-1.45786342583943e+000,-3.94356961427929e-001

5.35171021914442e+004,-1.45786281545085e+000,-3.99861993178941e-001

5.42641730979066e+004,-1.45786218790223e+000,-4.05443872891760e-001

5.50216727255895e+004,-1.45786154271119e+000,-4.11103673348550e-001

5.57897466540159e+004,-1.45786087938161e+000,-4.16842482309018e-001

5.65685424949235e+004,-1.45786019740370e+000,-4.22661402716911e-001

5.73582099206328e+004,-1.45785949625308e+000,-4.28561552915003e-001

5.81589006928121e+004,-1.45785877539094e+000,-4.34544066856992e-001

5.89707686916437e+004,-1.45785803426298e+000,-4.40610094329444e-001

5.97939699453972e+004,-1.45785727229951e+000,-4.46760801169159e-001

6.06286626604156e+004,-1.45785648891480e+000,-4.52997369489224e-001

6.14750072515201e+004,-1.45785568350656e+000,-4.59320997905986e-001

6.23331663728396e+004,-1.45785485545579e+000,-4.65732901768598e-001

6.32033049490698e+004,-1.45785400412594e+000,-4.72234313393790e-001

6.40855902071694e+004,-1.45785312886248e+000,-4.78826482302956e-001

6.49801917084985e+004,-1.45785222899268e+000,-4.85510675460870e-001

6.58872813814055e+004,-1.45785130382469e+000,-4.92288177521121e-001

6.68070335542691e+004,-1.45785035264748e+000,-4.99160291070765e-001

6.77396249890018e+004,-1.45784937472968e+000,-5.06128336884306e-001

6.86852349150199e+004,-1.45784836931963e+000,-5.13193654174004e-001

6.96440450636895e+004,-1.45784733564446e+000,-5.20357600849017e-001

7.06162397032520e+004,-1.45784627290963e+000,-5.27621553776541e-001

7.16020056742374e+004,-1.45784518029812e+000,-5.34986909046575e-001

7.26015324253724e+004,-1.45784405697012e+000,-5.42455082239505e-001

7.36150120499896e+004,-1.45784290206209e+000,-5.50027508699675e-001

7.46426393229441e+004,-1.45784171468619e+000,-5.57705643810223e-001

7.56846117380472e+004,-1.45784049392981e+000,-5.65490963272872e-001

7.67411295460207e+004,-1.45783923885444e+000,-5.73384963393300e-001

7.78123957929823e+004,-1.45783794849540e+000,-5.81389161366080e-001

7.88986163594682e+004,-1.45783662186072e+000,-5.89505095569423e-001

7.99999999999995e+004,-1.45783525793075e+000,-5.97734325858666e-001

8.11167583832018e+004,-1.45783385565694e+000,-6.06078433867707e-001

8.22491061324848e+004,-1.45783241396140e+000,-6.14539023312559e-001

8.33972608672892e+004,-1.45783093173600e+000,-6.23117720299076e-001

8.45614432449099e+004,-1.45782940784128e+000,-6.31816173637398e-001

8.57418770029029e+004,-1.45782784110599e+000,-6.40636055156940e-001

8.69387890020841e+004,-1.45782623032569e+000,-6.49579060030257e-001

8.81524092701283e+004,-1.45782457426229e+000,-6.58646907096543e-001

8.93829710457770e+004,-1.45782287164281e+000,-6.67841339193988e-001

9.06307108236633e+004,-1.45782112115856e+000,-6.77164123494369e-001

9.18958683997622e+004,-1.45781932146391e+000,-6.86617051842936e-001

9.31786869174758e+004,-1.45781747117560e+000,-6.96201941102959e-001

9.44794129143618e+004,-1.45781556887128e+000,-7.05920633505660e-001

9.57982963695136e+004,-1.45781361308890e+000,-7.15774997003162e-001

9.71355907516031e+004,-1.45781160232499e+000,-7.25766925630575e-001

9.84915530675926e+004,-1.45780953503413e+000,-7.35898339866387e-001

9.98664439121282e+004,-1.45780740962718e+000,-7.46171187005567e-001

1.01260527517622e+005,-1.45780522447062e+000,-7.56587441531635e-001

1.02674071805032e+005,-1.45780297788473e+000,-7.67149105498425e-001

1.04107348435354e+005,-1.45780066814277e+000,-7.77858208913351e-001

1.05560632861831e+005,-1.45779829346942e+000,-7.88716810129075e-001

1.07034204382888e+005,-1.45779585203941e+000,-7.99726996239402e-001

1.08528346195813e+005,-1.45779334197631e+000,-8.10890883479903e-001

1.10043345451179e+005,-1.45779076135073e+000,-8.22210617636918e-001

1.11579493308032e+005,-1.45778810817927e+000,-8.33688374458321e-001

1.13137084989847e+005,-1.45778538042269e+000,-8.45326360073147e-001

1.14716419841265e+005,-1.45778257598438e+000,-8.57126811416586e-001

1.16317801385624e+005,-1.45777969270891e+000,-8.69091996659093e-001

1.17941537383287e+005,-1.45777672838020e+000,-8.81224215644152e-001

1.19587939890794e+005,-1.45777368071992e+000,-8.93525800329563e-001

1.21257325320831e+005,-1.45777054738570e+000,-9.05999115237263e-001

1.22950014503040e+005,-1.45776732596942e+000,-9.18646557907511e-001

1.24666332745679e+005,-1.45776401399508e+000,-9.31470559361551e-001

1.26406609898139e+005,-1.45776060891730e+000,-9.44473584567759e-001

1.28171180414339e+005,-1.45775710811908e+000,-9.57658132917149e-001

1.29960383416997e+005,-1.45775350890984e+000,-9.71026738704817e-001

1.31774562762811e+005,-1.45774980852349e+000,-9.84581971615998e-001

1.33614067108538e+005,-1.45774600411612e+000,-9.98326437222706e-001

1.35479249978003e+005,-1.45774209276394e+000,-1.01226277748428e+000

1.37370469830040e+005,-1.45773807146096e+000,-1.02639367125594e+000

1.39288090127379e+005,-1.45773393711673e+000,-1.04072183480488e+000

1.41232479406504e+005,-1.45772968655405e+000,-1.05525002233250e+000

1.43204011348474e+005,-1.45772531650627e+000,-1.06998102650596e+000

1.45203064850745e+005,-1.45772082361506e+000,-1.08491767899466e+000

1.47230024099979e+005,-1.45771620442777e+000,-1.10006285101544e+000

1.49285278645888e+005,-1.45771145539451e+000,-1.11541945388741e+000

1.51369223476094e+005,-1.45770657286593e+000,-1.13099043958950e+000

1.53482259092041e+005,-1.45770155308995e+000,-1.14677880133159e+000

1.55624791585964e+005,-1.45769639220906e+000,-1.16278757413003e+000

1.57797232718936e+005,-1.45769108625751e+000,-1.17901983539141e+000

1.59999999999999e+005,-1.45768563115794e+000,-1.19547870550700e+000

1.62233516766403e+005,-1.45768002271855e+000,-1.21216734845248e+000

1.64498212264969e+005,-1.45767425662982e+000,-1.22908897239750e+000

1.66794521734578e+005,-1.45766832846088e+000,-1.24624683032539e+000

1.69122886489819e+005,-1.45766223365675e+000,-1.26364422065713e+000

1.71483754005805e+005,-1.45765596753419e+000,-1.28128448788957e+000

1.73877578004168e+005,-1.45764952527849e+000,-1.29917102323839e+000

1.76304818540256e+005,-1.45764290193968e+000,-1.31730726529207e+000

1.78765942091554e+005,-1.45763609242869e+000,-1.33569670067454e+000

1.81261421647326e+005,-1.45762909151358e+000,-1.35434286471714e+000

1.83791736799524e+005,-1.45762189381539e+000,-1.37324934213991e+000

1.86357373834951e+005,-1.45761449380390e+000,-1.39241976774372e+000

1.88958825828723e+005,-1.45760688579383e+000,-1.41185782710899e+000

1.91596592739027e+005,-1.45759906394003e+000,-1.43156725730811e+000

1.94271181503206e+005,-1.45759102223311e+000,-1.45155184762565e+000

1.96983106135185e+005,-1.45758275449504e+000,-1.47181544028825e+000

1.99732887824256e+005,-1.45757425437412e+000,-1.49236193120663e+000

2.02521055035243e+005,-1.45756551534035e+000,-1.51319527072632e+000

2.05348143610063e+005,-1.45755653068029e+000,-1.53431946439002e+000

2.08214696870707e+005,-1.45754729349192e+000,-1.55573857371057e+000

2.11121265723661e+005,-1.45753779667942e+000,-1.57745671695406e+000

2.14068408765776e+005,-1.45752803294767e+000,-1.59947806993476e+000

2.17056692391625e+005,-1.45751799479667e+000,-1.62180686682121e+000

2.20086690902357e+005,-1.45750767451586e+000,-1.64444740095258e+000

2.23158986616063e+005,-1.45749706417801e+000,-1.66740402566901e+000

2.26274169979693e+005,-1.45748615563350e+000,-1.69068115514993e+000

2.29432839682530e+005,-1.45747494050363e+000,-1.71428326526849e+000

2.32635602771247e+005,-1.45746341017473e+000,-1.73821489445371e+000

2.35883074766574e+005,-1.45745155579097e+000,-1.76248064456910e+000

2.39175879781588e+005,-1.45743936824811e+000,-1.78708518179972e+000

2.42514650641661e+005,-1.45742683818618e+000,-1.81203323755478e+000

2.45900029006080e+005,-1.45741395598245e+000,-1.83732960938134e+000

2.49332665491357e+005,-1.45740071174408e+000,-1.86297916189135e+000

2.52813219796278e+005,-1.45738709530051e+000,-1.88898682770170e+000

2.56342360828676e+005,-1.45737309619564e+000,-1.91535760838842e+000

2.59920766833993e+005,-1.45735870367991e+000,-1.94209657545240e+000

2.63549125525621e+005,-1.45734390670198e+000,-1.96920887130112e+000

2.67228134217075e+005,-1.45732869390049e+000,-1.99669971024240e+000

2.70958499956006e+005,-1.45731305359492e+000,-2.02457437949384e+000

2.74740939660078e+005,-1.45729697377718e+000,-2.05283824020461e+000

2.78576180254757e+005,-1.45728044210213e+000,-2.08149672849371e+000

2.82464958813007e+005,-1.45726344587814e+000,-2.11055535650185e+000

2.86408022696948e+005,-1.45724597205753e+000,-2.14001971345776e+000

2.90406129701488e+005,-1.45722800722644e+000,-2.16989546676145e+000

2.94460048199957e+005,-1.45720953759471e+000,-2.20018836308116e+000

2.98570557291775e+005,-1.45719054898525e+000,-2.23090422946584e+000

3.02738446952187e+005,-1.45717102682328e+000,-2.26204897447540e+000

3.06964518184081e+005,-1.45715095612502e+000,-2.29362858932476e+000

3.11249583171928e+005,-1.45713032148662e+000,-2.32564914904491e+000

3.15594465437872e+005,-1.45710910707194e+000,-2.35811681366129e+000

3.19999999999997e+005,-1.45708729660086e+000,-2.39103782938792e+000

3.24467033532806e+005,-1.45706487333651e+000,-2.42441852983939e+000

3.28996424529938e+005,-1.45704182007272e+000,-2.45826533725916e+000

3.33589043469155e+005,-1.45701811912094e+000,-2.49258476376593e+000

3.38245772979638e+005,-1.45699375229653e+000,-2.52738341261794e+000

3.42967508011610e+005,-1.45696870090495e+000,-2.56266797949579e+000

3.47755156008335e+005,-1.45694294572769e+000,-2.59844525380168e+000

3.52609637080511e+005,-1.45691646700737e+000,-2.63472211997931e+000

3.57531884183106e+005,-1.45688924443290e+000,-2.67150555885141e+000

3.62522843294651e+005,-1.45686125712382e+000,-2.70880264897762e+000

3.67583473599047e+005,-1.45683248361448e+000,-2.74662056802990e+000

3.72714747669902e+005,-1.45680290183780e+000,-2.78496659418967e+000

3.77917651657445e+005,-1.45677248910814e+000,-2.82384810756432e+000

3.83193185478053e+005,-1.45674122210441e+000,-2.86327259162293e+000

3.88542363006410e+005,-1.45670907685220e+000,-2.90324763465373e+000

3.93966212270369e+005,-1.45667602870535e+000,-2.94378093124348e+000

3.99465775648511e+005,-1.45664205232743e+000,-2.98488028377569e+000

4.05042110070485e+005,-1.45660712167245e+000,-3.02655360395221e+000

4.10696287220124e+005,-1.45657120996498e+000,-3.06880891433639e+000

4.16429393741414e+005,-1.45653428967985e+000,-3.11165434991813e+000

4.22242531447321e+005,-1.45649633252131e+000,-3.15509815970192e+000

4.28136817531551e+005,-1.45645730940132e+000,-3.19914870831788e+000

4.34113384783250e+005,-1.45641719041781e+000,-3.24381447765526e+000

4.40173381804713e+005,-1.45637594483175e+000,-3.28910406852088e+000

4.46317973232124e+005,-1.45633354104386e+000,-3.33502620232084e+000

4.52548339959385e+005,-1.45628994657068e+000,-3.38158972276684e+000

4.58865679365059e+005,-1.45624512802013e+000,-3.42880359760647e+000

4.65271205542494e+005,-1.45619905106581e+000,-3.47667692038056e+000

4.71766149533147e+005,-1.45615168042147e+000,-3.52521891220391e+000

4.78351759563174e+005,-1.45610297981391e+000,-3.57443892357388e+000

4.85029301283321e+005,-1.45605291195586e+000,-3.62434643620338e+000

4.91800058012158e+005,-1.45600143851751e+000,-3.67495106488298e+000

4.98665330982714e+005,-1.45594852009772e+000,-3.72626255936800e+000

5.05626439592555e+005,-1.45589411619418e+000,-3.77829080629468e+000

5.12684721657352e+005,-1.45583818517285e+000,-3.83104583112401e+000

5.19841533667984e+005,-1.45578068423651e+000,-3.88453780011391e+000

5.27098251051240e+005,-1.45572156939249e+000,-3.93877702232057e+000

5.34456268434150e+005,-1.45566079541950e+000,-3.99377395162932e+000

5.41916999912011e+005,-1.45559831583365e+000,-4.04953918881492e+000

