Freq.,VOut,OutRef

1.00000000000000e+004,-6.58524730997983e+000,-2.57051219911924e-002

1.01395947979003e+004,-6.58524730336063e+000,-2.60639521299868e-002

1.02811382665607e+004,-6.58524729655491e+000,-2.64277913536721e-002

1.04246576084112e+004,-6.58524728955812e+000,-2.67967095825021e-002

1.05701804056138e+004,-6.58524728236434e+000,-2.71707777202821e-002

1.07177346253629e+004,-6.58524727496871e+000,-2.75500676524348e-002

1.08673486252606e+004,-6.58524726736484e+000,-2.79346522772929e-002

1.10190511587661e+004,-6.58524725954722e+000,-2.83246055037201e-002

1.11728713807222e+004,-6.58524725151027e+000,-2.87200022719854e-002

1.13288388529580e+004,-6.58524724324696e+000,-2.91209185766691e-002

1.14869835499703e+004,-6.58524723475127e+000,-2.95274314653992e-002

1.16473358646846e+004,-6.58524722601698e+000,-2.99396190614258e-002

1.18099266142953e+004,-6.58524721703704e+000,-3.03575605831173e-002

1.19747870461893e+004,-6.58524720780451e+000,-3.07813363525900e-002

1.21419488439505e+004,-6.58524719831249e+000,-3.12110278113765e-002

1.23114441334492e+004,-6.58524718855359e+000,-3.16467175404509e-002

1.24833054890161e+004,-6.58524717852034e+000,-3.20884892718648e-002

1.26575659397028e+004,-6.58524716820520e+000,-3.25364279066158e-002

1.28342589756290e+004,-6.58524715759985e+000,-3.29906195337416e-002

1.30134185544193e+004,-6.58524714669646e+000,-3.34511514398742e-002

1.31950791077289e+004,-6.58524713548630e+000,-3.39181121341669e-002

1.33792755478611e+004,-6.58524712396143e+000,-3.43915913545181e-002

1.35660432744767e+004,-6.58524711211201e+000,-3.48716801031751e-002

1.37554181813974e+004,-6.58524709992990e+000,-3.53584706389962e-002

1.39474366635040e+004,-6.58524708740499e+000,-3.58520565204760e-002

1.41421356237309e+004,-6.58524707452811e+000,-3.63525326041032e-002

1.43395524801583e+004,-6.58524706128942e+000,-3.68599950732934e-002

1.45397251732031e+004,-6.58524704767843e+000,-3.73745414564921e-002

1.47426921729110e+004,-6.58524703368453e+000,-3.78962706420444e-002

1.49484924863494e+004,-6.58524701929729e+000,-3.84252828964286e-002

1.51571656651040e+004,-6.58524700450564e+000,-3.89616798876137e-002

1.53687518128801e+004,-6.58524698929808e+000,-3.95055647034976e-002

1.55832915932100e+004,-6.58524697366316e+000,-4.00570418685624e-002

1.58008262372675e+004,-6.58524695758858e+000,-4.06162173701172e-002

1.60213975517924e+004,-6.58524694106202e+000,-4.11831986726645e-002

1.62450479271247e+004,-6.58524692407080e+000,-4.17580947409068e-002

1.64718203453514e+004,-6.58524690660194e+000,-4.23410160605983e-002

1.67017583885674e+004,-6.58524688864196e+000,-4.29320746605136e-002

1.69349062472505e+004,-6.58524687017726e+000,-4.35313841313047e-002

1.71713087287550e+004,-6.58524685119332e+000,-4.41390596532565e-002

1.74110112659224e+004,-6.58524683167563e+000,-4.47552180116473e-002

1.76540599258131e+004,-6.58524681160925e+000,-4.53799776218221e-002

1.79005014185594e+004,-6.58524679097849e+000,-4.60134585548952e-002

1.81503831063432e+004,-6.58524676976788e+000,-4.66557825533767e-002

1.84037530124975e+004,-6.58524674796119e+000,-4.73070730614633e-002

1.86606598307361e+004,-6.58524672554125e+000,-4.79674552496967e-002

1.89211529345119e+004,-6.58524670249101e+000,-4.86370560324012e-002

1.91852823865052e+004,-6.58524667879253e+000,-4.93160040973597e-002

1.94530989482457e+004,-6.58524665442824e+000,-5.00044299241343e-002

1.97246540898671e+004,-6.58524662937845e+000,-5.07024658232787e-002

1.99999999999999e+004,-6.58524660362479e+000,-5.14102459410733e-002

2.02791895958005e+004,-6.58524657714710e+000,-5.21279063042545e-002

2.05622765331213e+004,-6.58524654992492e+000,-5.28555848363783e-002

2.08493152168224e+004,-6.58524652193733e+000,-5.35934213861117e-002

2.11403608112276e+004,-6.58524649316296e+000,-5.43415577534145e-002

2.14354692507258e+004,-6.58524646357976e+000,-5.51001377180884e-002

2.17346972505211e+004,-6.58524643316481e+000,-5.58693070683460e-002

2.20381023175322e+004,-6.58524640189459e+000,-5.66492136278877e-002

2.23457427614443e+004,-6.58524636974544e+000,-5.74400072800029e-002

2.26576777059159e+004,-6.58524633669244e+000,-5.82418400043769e-002

2.29739670999406e+004,-6.58524630271013e+000,-5.90548659014095e-002

2.32946717293690e+004,-6.58524626777260e+000,-5.98792412206095e-002

2.36198532285905e+004,-6.58524623185251e+000,-6.07151243973238e-002

2.39495740923785e+004,-6.58524619492279e+000,-6.15626760718754e-002

2.42838976879009e+004,-6.58524615695482e+000,-6.24220591322451e-002

2.46228882668982e+004,-6.58524611791945e+000,-6.32934387383834e-002

2.49666109780322e+004,-6.58524607778680e+000,-6.41769823552204e-002

2.53151318794055e+004,-6.58524603652555e+000,-6.50728597893429e-002

2.56685179512580e+004,-6.58524599410448e+000,-6.59812432111569e-002

2.60268371088386e+004,-6.58524595049087e+000,-6.69023071989466e-002

2.63901582154578e+004,-6.58524590565077e+000,-6.78362287696569e-002

2.67585510957221e+004,-6.58524585955047e+000,-6.87831874040292e-002

2.71320865489533e+004,-6.58524581215373e+000,-6.97433650981242e-002

2.75108363627948e+004,-6.58524576342472e+000,-7.07169463792233e-002

2.78948733270080e+004,-6.58524571332569e+000,-7.17041183569618e-002

2.82842712474618e+004,-6.58524566181829e+000,-7.27050707495036e-002

2.86791049603164e+004,-6.58524560886258e+000,-7.37199959267381e-002

2.90794503464061e+004,-6.58524555441818e+000,-7.47490889400163e-002

2.94853843458219e+004,-6.58524549844320e+000,-7.57925475652486e-002

2.98969849726987e+004,-6.58524544089460e+000,-7.68505723395605e-002

3.03143313302078e+004,-6.58524538172799e+000,-7.79233666001281e-002

3.07375036257601e+004,-6.58524532089818e+000,-7.90111365197075e-002

3.11665831864199e+004,-6.58524525835793e+000,-8.01140911541887e-002

3.16016524745350e+004,-6.58524519405945e+000,-8.12324424731738e-002

3.20427951035848e+004,-6.58524512795347e+000,-8.23664054056542e-002

3.24900958542493e+004,-6.58524505998912e+000,-8.35161978823714e-002

3.29436406907028e+004,-6.58524499011375e+000,-8.46820408788168e-002

3.34035167771346e+004,-6.58524491827386e+000,-8.58641584508832e-002

3.38698124945009e+004,-6.58524484441447e+000,-8.70627777821702e-002

3.43426174575100e+004,-6.58524476847869e+000,-8.82781292300872e-002

3.48220225318448e+004,-6.58524469040787e+000,-8.95104463685538e-002

3.53081198516260e+004,-6.58524461014227e+000,-9.07599660287484e-002

3.58010028371187e+004,-6.58524452762002e+000,-9.20269283506120e-002

3.63007662126863e+004,-6.58524444277779e+000,-9.33115768244523e-002

3.68075060249948e+004,-6.58524435555035e+000,-9.46141583407054e-002

3.73213196614721e+004,-6.58524426587070e+000,-9.59349232358298e-002

3.78423058690237e+004,-6.58524417366968e+000,-9.72741253422541e-002

3.83705647730104e+004,-6.58524407887661e+000,-9.86320220335272e-002

3.89061978964912e+004,-6.58524398141864e+000,-1.00008874277070e-001

3.94493081797342e+004,-6.58524388122050e+000,-1.01404946685496e-001

3.99999999999998e+004,-6.58524377820561e+000,-1.02820507560677e-001

4.05583791916010e+004,-6.58524367229444e+000,-1.04255828954382e-001

4.11245530662425e+004,-6.58524356340584e+000,-1.05711186712579e-001

4.16986304336447e+004,-6.58524345145586e+000,-1.07186860535034e-001

4.22807216224550e+004,-6.58524333635859e+000,-1.08683134023673e-001

4.28709385014515e+004,-6.58524321802569e+000,-1.10200294739098e-001

4.34693945010421e+004,-6.58524309636577e+000,-1.11738634260409e-001

4.40762046350642e+004,-6.58524297128541e+000,-1.13298448232981e-001

4.46914855228886e+004,-6.58524284268885e+000,-1.14880036427779e-001

4.53153554118317e+004,-6.58524271047665e+000,-1.16483702806872e-001

4.59479341998812e+004,-6.58524257454772e+000,-1.18109755568168e-001

4.65893434587380e+004,-6.58524243479730e+000,-1.19758507216974e-001

4.72397064571810e+004,-6.58524229111791e+000,-1.21430274619683e-001

4.78991481847569e+004,-6.58524214339915e+000,-1.23125379065734e-001

4.85677953758016e+004,-6.58524199152733e+000,-1.24844146330315e-001

4.92457765337964e+004,-6.58524183538597e+000,-1.26586906734583e-001

4.99332219560642e+004,-6.58524167485494e+000,-1.28353995212147e-001

5.06302637588109e+004,-6.58524150981067e+000,-1.30145751373761e-001

5.13370359025159e+004,-6.58524134012640e+000,-1.31962519568205e-001

5.20536742176771e+004,-6.58524116567154e+000,-1.33804648953723e-001

5.27803164309155e+004,-6.58524098631236e+000,-1.35672493559091e-001

5.35171021914442e+004,-6.58524080191050e+000,-1.37566412360488e-001

5.42641730979066e+004,-6.58524061232444e+000,-1.39486769341165e-001

5.50216727255895e+004,-6.58524041740844e+000,-1.41433933566522e-001

5.57897466540159e+004,-6.58524021701268e+000,-1.43408279254371e-001

5.65685424949235e+004,-6.58524001098298e+000,-1.45410185847206e-001

5.73582099206328e+004,-6.58523979916088e+000,-1.47440038084099e-001

5.81589006928121e+004,-6.58523958138386e+000,-1.49498226072375e-001

5.89707686916437e+004,-6.58523935748421e+000,-1.51585145369950e-001

5.97939699453972e+004,-6.58523912728985e+000,-1.53701197052993e-001

6.06286626604156e+004,-6.58523889062395e+000,-1.55846787797486e-001

6.14750072515201e+004,-6.58523864730446e+000,-1.58022329957132e-001

6.23331663728396e+004,-6.58523839714435e+000,-1.60228241641682e-001

6.32033049490698e+004,-6.58523813995135e+000,-1.62464946797485e-001

6.40855902071694e+004,-6.58523787552745e+000,-1.64732875290907e-001

6.49801917084985e+004,-6.58523760366974e+000,-1.67032462985110e-001

6.58872813814055e+004,-6.58523732416910e+000,-1.69364151831379e-001

6.68070335542691e+004,-6.58523703681078e+000,-1.71728389948637e-001

6.77396249890018e+004,-6.58523674137351e+000,-1.74125631714523e-001

6.86852349150199e+004,-6.58523643763055e+000,-1.76556337845488e-001

6.96440450636895e+004,-6.58523612534817e+000,-1.79020975492713e-001

7.06162397032520e+004,-6.58523580428644e+000,-1.81520018327103e-001

7.16020056742374e+004,-6.58523547419839e+000,-1.84053946633603e-001

7.26015324253724e+004,-6.58523513483031e+000,-1.86623247400130e-001

7.36150120499896e+004,-6.58523478592138e+000,-1.89228414413692e-001

7.46426393229441e+004,-6.58523442720320e+000,-1.91869948355700e-001

7.56846117380472e+004,-6.58523405840035e+000,-1.94548356893661e-001

7.67411295460207e+004,-6.58523367922887e+000,-1.97264154787046e-001

7.78123957929823e+004,-6.58523328939751e+000,-2.00017863977485e-001

7.88986163594682e+004,-6.58523288860648e+000,-2.02810013694847e-001

7.99999999999995e+004,-6.58523247654779e+000,-2.05641140555348e-001

8.11167583832018e+004,-6.58523205290458e+000,-2.08511788668630e-001

8.22491061324848e+004,-6.58523161735119e+000,-2.11422509738433e-001

8.33972608672892e+004,-6.58523116955289e+000,-2.14373863170658e-001

8.45614432449099e+004,-6.58523070916506e+000,-2.17366416183026e-001

8.57418770029029e+004,-6.58523023583428e+000,-2.20400743906441e-001

8.69387890020841e+004,-6.58522974919633e+000,-2.23477429506154e-001

8.81524092701283e+004,-6.58522924887713e+000,-2.26597064285823e-001

8.93829710457770e+004,-6.58522873449215e+000,-2.29760247803567e-001

9.06307108236633e+004,-6.58522820564580e+000,-2.32967587989477e-001

9.18958683997622e+004,-6.58522766193169e+000,-2.36219701257726e-001

9.31786869174758e+004,-6.58522710293183e+000,-2.39517212629396e-001

9.44794129143618e+004,-6.58522652821647e+000,-2.42860755851198e-001

9.57982963695136e+004,-6.58522593734364e+000,-2.46250973517266e-001

9.71355907516031e+004,-6.58522532985925e+000,-2.49688517191600e-001

9.84915530675926e+004,-6.58522470529617e+000,-2.53174047535618e-001

9.98664439121282e+004,-6.58522406317429e+000,-2.56708234432687e-001

1.01260527517622e+005,-6.58522340300011e+000,-2.60291757117231e-001

1.02674071805032e+005,-6.58522272426610e+000,-2.63925304307878e-001

1.04107348435354e+005,-6.58522202645021e+000,-2.67609574338731e-001

1.05560632861831e+005,-6.58522130901626e+000,-2.71345275289999e-001

1.07034204382888e+005,-6.58522057141260e+000,-2.75133125129495e-001

1.08528346195813e+005,-6.58521981307223e+000,-2.78973851847431e-001

1.10043345451179e+005,-6.58521903341219e+000,-2.82868193597011e-001

1.11579493308032e+005,-6.58521823183312e+000,-2.86816898836576e-001

1.13137084989847e+005,-6.58521740771859e+000,-2.90820726475130e-001

1.14716419841265e+005,-6.58521656043534e+000,-2.94880446013256e-001

1.16317801385624e+005,-6.58521568933190e+000,-2.98996837696861e-001

1.17941537383287e+005,-6.58521479373849e+000,-3.03170692664665e-001

1.19587939890794e+005,-6.58521387296680e+000,-3.07402813098514e-001

1.21257325320831e+005,-6.58521292630893e+000,-3.11694012380169e-001

1.22950014503040e+005,-6.58521195303713e+000,-3.16045115247983e-001

1.24666332745679e+005,-6.58521095240309e+000,-3.20456957953789e-001

1.26406609898139e+005,-6.58520992363769e+000,-3.24930388423184e-001

1.28171180414339e+005,-6.58520886595010e+000,-3.29466266420702e-001

1.29960383416997e+005,-6.58520777852705e+000,-3.34065463714631e-001

1.31774562762811e+005,-6.58520666053261e+000,-3.38728864243247e-001

1.33614067108538e+005,-6.58520551110750e+000,-3.43457364284419e-001

1.35479249978003e+005,-6.58520432936795e+000,-3.48251872631606e-001

1.37370469830040e+005,-6.58520311440555e+000,-3.53113310764120e-001

1.39288090127379e+005,-6.58520186528623e+000,-3.58042613027308e-001

1.41232479406504e+005,-6.58520058104981e+000,-3.63040726811052e-001

1.43204011348474e+005,-6.58519926070907e+000,-3.68108612731179e-001

1.45203064850745e+005,-6.58519790324879e+000,-3.73247244817209e-001

1.47230024099979e+005,-6.58519650762563e+000,-3.78457610694880e-001

1.49285278645888e+005,-6.58519507276671e+000,-3.83740711779884e-001

1.51369223476094e+005,-6.58519359756879e+000,-3.89097563470646e-001

1.53482259092041e+005,-6.58519208089806e+000,-3.94529195339153e-001

1.55624791585964e+005,-6.58519052158851e+000,-4.00036651334474e-001

1.57797232718936e+005,-6.58518891844145e+000,-4.05620989979664e-001

1.59999999999999e+005,-6.58518727022437e+000,-4.11283284578226e-001

1.62233516766403e+005,-6.58518557567021e+000,-4.17024623417834e-001

1.64498212264969e+005,-6.58518383347651e+000,-4.22846109979758e-001

1.66794521734578e+005,-6.58518204230373e+000,-4.28748863154903e-001

1.69122886489819e+005,-6.58518020077511e+000,-4.34734017453168e-001

1.71483754005805e+005,-6.58517830747490e+000,-4.40802723227029e-001

1.73877578004168e+005,-6.58517636094766e+000,-4.46956146889376e-001

1.76304818540256e+005,-6.58517435969704e+000,-4.53195471139121e-001

1.78765942091554e+005,-6.58517230218458e+000,-4.59521895188275e-001

1.81261421647326e+005,-6.58517018682874e+000,-4.65936634992645e-001

1.83791736799524e+005,-6.58516801200317e+000,-4.72440923487186e-001

1.86357373834951e+005,-6.58516577603619e+000,-4.79036010820070e-001

1.88958825828723e+005,-6.58516347720885e+000,-4.85723164596329e-001

1.91596592739027e+005,-6.58516111375401e+000,-4.92503670119668e-001

1.94271181503206e+005,-6.58515868385476e+000,-4.99378830641111e-001

1.96983106135185e+005,-6.58515618564336e+000,-5.06349967607157e-001

1.99732887824256e+005,-6.58515361719909e+000,-5.13418420919024e-001

2.02521055035243e+005,-6.58515097654781e+000,-5.20585549183544e-001

2.05348143610063e+005,-6.58514826165938e+000,-5.27852729981697e-001

2.08214696870707e+005,-6.58514547044690e+000,-5.35221360127553e-001

2.11121265723661e+005,-6.58514260076476e+000,-5.42692855940868e-001

2.14068408765776e+005,-6.58513965040695e+000,-5.50268653518179e-001

2.17056692391625e+005,-6.58513661710546e+000,-5.57950209009902e-001

2.20086690902357e+005,-6.58513349852851e+000,-5.65738998899326e-001

2.23158986616063e+005,-6.58513029227894e+000,-5.73636520287330e-001

2.26274169979693e+005,-6.58512699589194e+000,-5.81644291181182e-001

2.29432839682530e+005,-6.58512360683368e+000,-5.89763850785080e-001

2.32635602771247e+005,-6.58512012249887e+000,-5.97996759798454e-001

2.35883074766574e+005,-6.58511654020920e+000,-6.06344600714054e-001

2.39175879781588e+005,-6.58511285721081e+000,-6.14808978124924e-001

2.42514650641661e+005,-6.58510907067263e+000,-6.23391519030973e-001

2.45900029006080e+005,-6.58510517768402e+000,-6.32093873153291e-001

2.49332665491357e+005,-6.58510117525237e+000,-6.40917713252318e-001

2.52813219796278e+005,-6.58509706030112e+000,-6.49864735447922e-001

2.56342360828676e+005,-6.58509282966709e+000,-6.58936659548087e-001

2.59920766833993e+005,-6.58508848009817e+000,-6.68135229379164e-001

2.63549125525621e+005,-6.58508400825112e+000,-6.77462213119834e-001

2.67228134217075e+005,-6.58507941068817e+000,-6.86919403646128e-001

2.70958499956006e+005,-6.58507468387555e+000,-6.96508618870120e-001

2.74740939660078e+005,-6.58506982417978e+000,-7.06231702095991e-001

2.78576180254757e+005,-6.58506482786524e+000,-7.16090522371938e-001

2.82464958813007e+005,-6.58505969109142e+000,-7.26086974850863e-001

2.86408022696948e+005,-6.58505440990992e+000,-7.36222981154212e-001

2.90406129701488e+005,-6.58504898026115e+000,-7.46500489744389e-001

2.94460048199957e+005,-6.58504339797159e+000,-7.56921476298028e-001

2.98570557291775e+005,-6.58503765875042e+000,-7.67487944086655e-001

3.02738446952187e+005,-6.58503175818595e+000,-7.78201924365151e-001

3.06964518184081e+005,-6.58502569174282e+000,-7.89065476758955e-001

3.11249583171928e+005,-6.58501945475805e+000,-8.00080689663942e-001

3.15594465437872e+005,-6.58501304243748e+000,-8.11249680648223e-001

3.19999999999997e+005,-6.58500644985235e+000,-8.22574596859306e-001

3.24467033532806e+005,-6.58499967193536e+000,-8.34057615438730e-001

3.28996424529938e+005,-6.58499270347670e+000,-8.45700943940828e-001

3.33589043469155e+005,-6.58498553912018e+000,-8.57506820759275e-001

3.38245772979638e+005,-6.58497817335918e+000,-8.69477515556696e-001

3.42967508011610e+005,-6.58497060053200e+000,-8.81615329705484e-001

3.47755156008335e+005,-6.58496281481805e+000,-8.93922596727719e-001

3.52609637080511e+005,-6.58495481023319e+000,-9.06401682746601e-001

3.57531884183106e+005,-6.58494658062483e+000,-9.19054986944394e-001

3.62522843294651e+005,-6.58493811966775e+000,-9.31884942021657e-001

3.67583473599047e+005,-6.58492942085874e+000,-9.44894014669062e-001

3.72714747669902e+005,-6.58492047751191e+000,-9.58084706042467e-001

3.77917651657445e+005,-6.58491128275347e+000,-9.71459552244283e-001

3.83193185478053e+005,-6.58490182951645e+000,-9.85021124814367e-001

3.88542363006410e+005,-6.58489211053518e+000,-9.98772031224980e-001

3.93966212270369e+005,-6.58488211833990e+000,-1.01271491538448e+000

3.99465775648511e+005,-6.58487184525086e+000,-1.02685245814691e+000

4.05042110070485e+005,-6.58486128337244e+000,-1.04118737783044e+000

4.10696287220124e+005,-6.58485042458727e+000,-1.05572243074040e+000

4.16429393741414e+005,-6.58483926054967e+000,-1.07046041170350e+000

4.22242531447321e+005,-6.58482778267957e+000,-1.08540415460490e+000

4.28136817531551e+005,-6.58481598215566e+000,-1.10055653293805e+000

4.34113384783250e+005,-6.58480384990893e+000,-1.11592046035677e+000

4.40173381804713e+005,-6.58479137661525e+000,-1.13149889124113e+000

4.46317973232124e+005,-6.58477855268863e+000,-1.14729482126509e+000

4.52548339959385e+005,-6.58476536827366e+000,-1.16331128797749e+000

4.58865679365059e+005,-6.58475181323798e+000,-1.17955137138781e+000

4.65271205542494e+005,-6.58473787716454e+000,-1.19601819456137e+000

4.71766149533147e+005,-6.58472354934354e+000,-1.21271492422371e+000

4.78351759563174e+005,-6.58470881876421e+000,-1.22964477137203e+000

4.85029301283321e+005,-6.58469367410645e+000,-1.24681099189620e+000

4.91800058012158e+005,-6.58467810373199e+000,-1.26421688720905e+000

4.98665330982714e+005,-6.58466209567564e+000,-1.28186580488344e+000

5.05626439592555e+005,-6.58464563763592e+000,-1.29976113930103e+000

5.12684721657352e+005,-6.58462871696576e+000,-1.31790633230880e+000

5.19841533667984e+005,-6.58461132066276e+000,-1.33630487388457e+000

5.27098251051240e+005,-6.58459343535918e+000,-1.35496030281274e+000

5.34456268434150e+005,-6.58457504731155e+000,-1.37387620737074e+000

5.41916999912011e+005,-6.58455614239049e+000,-1.39305622602077e+000

