Freq.,VOut,OutRef

1.00000000000000e+004,-1.46751093993621e+001,-5.07413337802766e-002

1.01395947979003e+004,-1.46751094080304e+001,-5.14496563922124e-002

1.02811382665607e+004,-1.46751094169426e+001,-5.21678668171540e-002

1.04246576084112e+004,-1.46751094261054e+001,-5.28961030856120e-002

1.05701804056138e+004,-1.46751094355257e+001,-5.36345051530553e-002

1.07177346253629e+004,-1.46751094452108e+001,-5.43832149294472e-002

1.08673486252606e+004,-1.46751094551683e+001,-5.51423763032484e-002

1.10190511587661e+004,-1.46751094654057e+001,-5.59121351745361e-002

1.11728713807222e+004,-1.46751094759308e+001,-5.66926394794364e-002

1.13288388529580e+004,-1.46751094867520e+001,-5.74840392159396e-002

1.14869835499703e+004,-1.46751094978773e+001,-5.82864864815546e-002

1.16473358646846e+004,-1.46751095093155e+001,-5.91001354917656e-002

1.18099266142953e+004,-1.46751095210752e+001,-5.99251426187049e-002

1.19747870461893e+004,-1.46751095331654e+001,-6.07616664154642e-002

1.21419488439505e+004,-1.46751095455956e+001,-6.16098676484303e-002

1.23114441334492e+004,-1.46751095583752e+001,-6.24699093280675e-002

1.24833054890161e+004,-1.46751095715140e+001,-6.33419567417649e-002

1.26575659397028e+004,-1.46751095850223e+001,-6.42261774827635e-002

1.28342589756290e+004,-1.46751095989105e+001,-6.51227414829499e-002

1.30134185544193e+004,-1.46751096131890e+001,-6.60318210497201e-002

1.31950791077289e+004,-1.46751096278689e+001,-6.69535908939889e-002

1.33792755478611e+004,-1.46751096429617e+001,-6.78882281632169e-002

1.35660432744767e+004,-1.46751096584787e+001,-6.88359124814697e-002

1.37554181813974e+004,-1.46751096744318e+001,-6.97968259797113e-002

1.39474366635040e+004,-1.46751096908335e+001,-7.07711533291279e-002

1.41421356237309e+004,-1.46751097076963e+001,-7.17590817796537e-002

1.43395524801583e+004,-1.46751097250335e+001,-7.27608011940706e-002

1.45397251732031e+004,-1.46751097428576e+001,-7.37765040914913e-002

1.47426921729110e+004,-1.46751097611830e+001,-7.48063856709772e-002

1.49484924863494e+004,-1.46751097800238e+001,-7.58506438583406e-002

1.51571656651040e+004,-1.46751097993940e+001,-7.69094793465557e-002

1.53687518128801e+004,-1.46751098193089e+001,-7.79830956254919e-002

1.55832915932100e+004,-1.46751098397837e+001,-7.90716990265267e-002

1.58008262372675e+004,-1.46751098608340e+001,-8.01754987639540e-002

1.60213975517924e+004,-1.46751098824763e+001,-8.12947069683117e-002

1.62450479271247e+004,-1.46751099047270e+001,-8.24295387353172e-002

1.64718203453514e+004,-1.46751099276031e+001,-8.35802121615481e-002

1.67017583885674e+004,-1.46751099511224e+001,-8.47469483879881e-002

1.69349062472505e+004,-1.46751099753029e+001,-8.59299716428021e-002

1.71713087287550e+004,-1.46751100001633e+001,-8.71295092835511e-002

1.74110112659224e+004,-1.46751100257227e+001,-8.83457918428382e-002

1.76540599258131e+004,-1.46751100520004e+001,-8.95790530728373e-002

1.79005014185594e+004,-1.46751100790172e+001,-9.08295299834933e-002

1.81503831063432e+004,-1.46751101067933e+001,-9.20974628991855e-002

1.84037530124975e+004,-1.46751101353503e+001,-9.33830954961520e-002

1.86606598307361e+004,-1.46751101647104e+001,-9.46866748509787e-002

1.89211529345119e+004,-1.46751101948956e+001,-9.60084514936631e-002

1.91852823865052e+004,-1.46751102259295e+001,-9.73486794466164e-002

1.94530989482457e+004,-1.46751102578360e+001,-9.87076162801049e-002

1.97246540898671e+004,-1.46751102906394e+001,-1.00085523162204e-001

1.99999999999999e+004,-1.46751103243649e+001,-1.01482664903917e-001

2.02791895958005e+004,-1.46751103590389e+001,-1.02899310011853e-001

2.05622765331213e+004,-1.46751103946874e+001,-1.04335730745524e-001

2.08493152168224e+004,-1.46751104313383e+001,-1.05792203160653e-001

2.11403608112276e+004,-1.46751104690195e+001,-1.07269007168084e-001

2.14354692507258e+004,-1.46751105077603e+001,-1.08766426585654e-001

2.17346972505211e+004,-1.46751105475899e+001,-1.10284749195909e-001

2.20381023175322e+004,-1.46751105885395e+001,-1.11824266793175e-001

2.23457427614443e+004,-1.46751106306404e+001,-1.13385275249939e-001

2.26576777059159e+004,-1.46751106739247e+001,-1.14968074567496e-001

2.29739670999406e+004,-1.46751107184259e+001,-1.16572968934879e-001

2.32946717293690e+004,-1.46751107641785e+001,-1.18200266784574e-001

2.36198532285905e+004,-1.46751108112170e+001,-1.19850280860858e-001

2.39495740923785e+004,-1.46751108595782e+001,-1.21523328267498e-001

2.42838976879009e+004,-1.46751109092988e+001,-1.23219730539581e-001

2.46228882668982e+004,-1.46751109604174e+001,-1.24939813696817e-001

2.49666109780322e+004,-1.46751110129731e+001,-1.26683908312337e-001

2.53151318794055e+004,-1.46751110670064e+001,-1.28452349573376e-001

2.56685179512580e+004,-1.46751111225587e+001,-1.30245477346538e-001

2.60268371088386e+004,-1.46751111796727e+001,-1.32063636242044e-001

2.63901582154578e+004,-1.46751112383925e+001,-1.33907175680230e-001

2.67585510957221e+004,-1.46751112987632e+001,-1.35776449960664e-001

2.71320865489533e+004,-1.46751113608310e+001,-1.37671818328066e-001

2.75108363627948e+004,-1.46751114246439e+001,-1.39593645041326e-001

2.78948733270080e+004,-1.46751114902507e+001,-1.41542299445343e-001

2.82842712474618e+004,-1.46751115577020e+001,-1.43518156039984e-001

2.86791049603164e+004,-1.46751116270497e+001,-1.45521594552347e-001

2.90794503464061e+004,-1.46751116983469e+001,-1.47553000013130e-001

2.94853843458219e+004,-1.46751117716485e+001,-1.49612762824697e-001

2.98969849726987e+004,-1.46751118470110e+001,-1.51701278839794e-001

3.03143313302078e+004,-1.46751119244923e+001,-1.53818949438305e-001

3.07375036257601e+004,-1.46751120041518e+001,-1.55966181602722e-001

3.11665831864199e+004,-1.46751120860509e+001,-1.58143387995507e-001

3.16016524745350e+004,-1.46751121702523e+001,-1.60350987042400e-001

3.20427951035848e+004,-1.46751122568211e+001,-1.62589403006349e-001

3.24900958542493e+004,-1.46751123458236e+001,-1.64859066076344e-001

3.29436406907028e+004,-1.46751124373283e+001,-1.67160412444601e-001

3.34035167771346e+004,-1.46751125314057e+001,-1.69493884391899e-001

3.38698124945009e+004,-1.46751126281278e+001,-1.71859930375227e-001

3.43426174575100e+004,-1.46751127275691e+001,-1.74259005109362e-001

3.48220225318448e+004,-1.46751128298062e+001,-1.76691569658131e-001

3.53081198516260e+004,-1.46751129349175e+001,-1.79158091520560e-001

3.58010028371187e+004,-1.46751130429839e+001,-1.81659044722349e-001

3.63007662126863e+004,-1.46751131540885e+001,-1.84194909905879e-001

3.68075060249948e+004,-1.46751132683165e+001,-1.86766174424811e-001

3.73213196614721e+004,-1.46751133857562e+001,-1.89373332431766e-001

3.78423058690237e+004,-1.46751135064973e+001,-1.92016884982271e-001

3.83705647730104e+004,-1.46751136306329e+001,-1.94697340123719e-001

3.89061978964912e+004,-1.46751137582585e+001,-1.97415212994827e-001

3.94493081797342e+004,-1.46751138894722e+001,-2.00171025926897e-001

3.99999999999998e+004,-1.46751140243747e+001,-2.02965308542897e-001

4.05583791916010e+004,-1.46751141630699e+001,-2.05798597857055e-001

4.11245530662425e+004,-1.46751143056644e+001,-2.08671438381880e-001

4.16986304336447e+004,-1.46751144522677e+001,-2.11584382230690e-001

4.22807216224550e+004,-1.46751146029925e+001,-2.14537989222912e-001

4.28709385014515e+004,-1.46751147579548e+001,-2.17532826992829e-001

4.34693945010421e+004,-1.46751149172737e+001,-2.20569471099877e-001

4.40762046350642e+004,-1.46751150810716e+001,-2.23648505136732e-001

4.46914855228886e+004,-1.46751152494745e+001,-2.26770520843299e-001

4.53153554118317e+004,-1.46751154226119e+001,-2.29936118218853e-001

4.59479341998812e+004,-1.46751156006168e+001,-2.33145905638680e-001

4.65893434587380e+004,-1.46751157836262e+001,-2.36400499971185e-001

4.72397064571810e+004,-1.46751159717805e+001,-2.39700526695920e-001

4.78991481847569e+004,-1.46751161652245e+001,-2.43046620023571e-001

4.85677953758016e+004,-1.46751163641072e+001,-2.46439423015594e-001

4.92457765337964e+004,-1.46751165685811e+001,-2.49879587713845e-001

4.99332219560642e+004,-1.46751167788035e+001,-2.53367775260096e-001

5.06302637588109e+004,-1.46751169949360e+001,-2.56904656026533e-001

5.13370359025159e+004,-1.46751172171450e+001,-2.60490909740924e-001

5.20536742176771e+004,-1.46751174456009e+001,-2.64127225622853e-001

5.27803164309155e+004,-1.46751176804796e+001,-2.67814302509764e-001

5.35171021914442e+004,-1.46751179219617e+001,-2.71552848996300e-001

5.42641730979066e+004,-1.46751181702329e+001,-2.75343583567605e-001

5.50216727255895e+004,-1.46751184254837e+001,-2.79187234740575e-001

5.57897466540159e+004,-1.46751186879107e+001,-2.83084541197412e-001

5.65685424949235e+004,-1.46751189577154e+001,-2.87036251936513e-001

5.73582099206328e+004,-1.46751192351053e+001,-2.91043126408908e-001

5.81589006928121e+004,-1.46751195202938e+001,-2.95105934666884e-001

5.89707686916437e+004,-1.46751198135000e+001,-2.99225457513186e-001

5.97939699453972e+004,-1.46751201149492e+001,-3.03402486650802e-001

6.06286626604156e+004,-1.46751204248734e+001,-3.07637824831402e-001

6.14750072515201e+004,-1.46751207435107e+001,-3.11932286015408e-001

6.23331663728396e+004,-1.46751210711060e+001,-3.16286695524621e-001

6.32033049490698e+004,-1.46751214079114e+001,-3.20701890199627e-001

6.40855902071694e+004,-1.46751217541855e+001,-3.25178718566620e-001

6.49801917084985e+004,-1.46751221101947e+001,-3.29718040992963e-001

6.58872813814055e+004,-1.46751224762127e+001,-3.34320729857404e-001

6.68070335542691e+004,-1.46751228525208e+001,-3.38987669717062e-001

6.77396249890018e+004,-1.46751232394083e+001,-3.43719757476222e-001

6.86852349150199e+004,-1.46751236371726e+001,-3.48517902558994e-001

6.96440450636895e+004,-1.46751240461196e+001,-3.53383027084519e-001

7.06162397032520e+004,-1.46751244665637e+001,-3.58316066043141e-001

7.16020056742374e+004,-1.46751248988278e+001,-3.63317967479069e-001

7.26015324253724e+004,-1.46751253432446e+001,-3.68389692667799e-001

7.36150120499896e+004,-1.46751258001556e+001,-3.73532216304982e-001

7.46426393229441e+004,-1.46751262699122e+001,-3.78746526691113e-001

7.56846117380472e+004,-1.46751267528752e+001,-3.84033625924333e-001

7.67411295460207e+004,-1.46751272494161e+001,-3.89394530089454e-001

7.78123957929823e+004,-1.46751277599166e+001,-3.94830269455694e-001

7.88986163594682e+004,-1.46751282847691e+001,-4.00341888672980e-001

7.99999999999995e+004,-1.46751288243772e+001,-4.05930446974964e-001

8.11167583832018e+004,-1.46751293791558e+001,-4.11597018379595e-001

8.22491061324848e+004,-1.46751299495311e+001,-4.17342691899212e-001

8.33972608672892e+004,-1.46751305359419e+001,-4.23168571745480e-001

8.45614432449099e+004,-1.46751311388386e+001,-4.29075777546394e-001

8.57418770029029e+004,-1.46751317586851e+001,-4.35065444555309e-001

8.69387890020841e+004,-1.46751323959577e+001,-4.41138723875674e-001

8.81524092701283e+004,-1.46751330511464e+001,-4.47296782677995e-001

8.93829710457770e+004,-1.46751337247547e+001,-4.53540804425877e-001

9.06307108236633e+004,-1.46751344173008e+001,-4.59871989101136e-001

9.18958683997622e+004,-1.46751351293168e+001,-4.66291553437911e-001

9.31786869174758e+004,-1.46751358613501e+001,-4.72800731154836e-001

9.44794129143618e+004,-1.46751366139636e+001,-4.79400773189512e-001

9.57982963695136e+004,-1.46751373877357e+001,-4.86092947944504e-001

9.71355907516031e+004,-1.46751381832614e+001,-4.92878541524736e-001

9.84915530675926e+004,-1.46751390011522e+001,-4.99758857990236e-001

9.98664439121282e+004,-1.46751398420367e+001,-5.06735219603442e-001

1.01260527517622e+005,-1.46751407065616e+001,-5.13808967082767e-001

1.02674071805032e+005,-1.46751415953914e+001,-5.20981459863006e-001

1.04107348435354e+005,-1.46751425092095e+001,-5.28254076354188e-001

1.05560632861831e+005,-1.46751434487182e+001,-5.35628214207826e-001

1.07034204382888e+005,-1.46751444146398e+001,-5.43105290585443e-001

1.08528346195813e+005,-1.46751454077169e+001,-5.50686742428086e-001

1.10043345451179e+005,-1.46751464287130e+001,-5.58374026737207e-001

1.11579493308032e+005,-1.46751474784127e+001,-5.66168620851304e-001

1.13137084989847e+005,-1.46751485576234e+001,-5.74072022729326e-001

1.14716419841265e+005,-1.46751496671745e+001,-5.82085751240778e-001

1.16317801385624e+005,-1.46751508079189e+001,-5.90211346457236e-001

1.17941537383287e+005,-1.46751519807336e+001,-5.98450369946687e-001

1.19587939890794e+005,-1.46751531865204e+001,-6.06804405073247e-001

1.21257325320831e+005,-1.46751544262059e+001,-6.15275057305459e-001

1.22950014503040e+005,-1.46751557007434e+001,-6.23863954518428e-001

1.24666332745679e+005,-1.46751570111125e+001,-6.32572747312958e-001

1.26406609898139e+005,-1.46751583583206e+001,-6.41403109327532e-001

1.28171180414339e+005,-1.46751597434034e+001,-6.50356737563260e-001

1.29960383416997e+005,-1.46751611674257e+001,-6.59435352707759e-001

1.31774562762811e+005,-1.46751626314821e+001,-6.68640699468277e-001

1.33614067108538e+005,-1.46751641366981e+001,-6.77974546903949e-001

1.35479249978003e+005,-1.46751656842309e+001,-6.87438688766934e-001

1.37370469830040e+005,-1.46751672752701e+001,-6.97034943847599e-001

1.39288090127379e+005,-1.46751689110389e+001,-7.06765156323709e-001

1.41232479406504e+005,-1.46751705927945e+001,-7.16631196114220e-001

1.43204011348474e+005,-1.46751723218300e+001,-7.26634959238554e-001

1.45203064850745e+005,-1.46751740994744e+001,-7.36778368181712e-001

1.47230024099979e+005,-1.46751759270944e+001,-7.47063372261723e-001

1.49285278645888e+005,-1.46751778060948e+001,-7.57491948007339e-001

1.51369223476094e+005,-1.46751797379201e+001,-7.68066099533107e-001

1.53482259092041e+005,-1.46751817240555e+001,-7.78787858929499e-001

1.55624791585964e+005,-1.46751837660276e+001,-7.89659286649561e-001

1.57797232718936e+005,-1.46751858654062e+001,-8.00682471906307e-001

1.59999999999999e+005,-1.46751880238051e+001,-8.11859533073864e-001

1.62233516766403e+005,-1.46751902428836e+001,-8.23192618093861e-001

1.64498212264969e+005,-1.46751925243475e+001,-8.34683904888571e-001

1.66794521734578e+005,-1.46751948699506e+001,-8.46335601779505e-001

1.69122886489819e+005,-1.46751972814961e+001,-8.58149947910524e-001

1.71483754005805e+005,-1.46751997608378e+001,-8.70129213679134e-001

1.73877578004168e+005,-1.46752023098815e+001,-8.82275701172363e-001

1.76304818540256e+005,-1.46752049305868e+001,-8.94591744607647e-001

1.78765942091554e+005,-1.46752076249683e+001,-9.07079710783790e-001

1.81261421647326e+005,-1.46752103950971e+001,-9.19741999532464e-001

1.83791736799524e+005,-1.46752132431027e+001,-9.32581044181629e-001

1.86357373834951e+005,-1.46752161711744e+001,-9.45599312021200e-001

1.88958825828723e+005,-1.46752191815630e+001,-9.58799304778698e-001

1.91596592739027e+005,-1.46752222765827e+001,-9.72183559097474e-001

1.94271181503206e+005,-1.46752254586125e+001,-9.85754647025847e-001

1.96983106135185e+005,-1.46752287300986e+001,-9.99515176510359e-001

1.99732887824256e+005,-1.46752320935557e+001,-1.01346779189664e+000

2.02521055035243e+005,-1.46752355515693e+001,-1.02761517443647e+000

2.05348143610063e+005,-1.46752391067976e+001,-1.04196004280404e+000

2.08214696870707e+005,-1.46752427619735e+001,-1.05650515361763e+000

2.11121265723661e+005,-1.46752465199066e+001,-1.07125330196823e+000

2.14068408765776e+005,-1.46752503834857e+001,-1.08620732195708e+000

2.17056692391625e+005,-1.46752543556807e+001,-1.10137008723955e+000

2.20086690902357e+005,-1.46752584395449e+001,-1.11674451157725e+000

2.23158986616063e+005,-1.46752626382175e+001,-1.13233354939678e+000

2.26274169979693e+005,-1.46752669549260e+001,-1.14814019635836e+000

2.29432839682530e+005,-1.46752713929885e+001,-1.16416748992923e+000

2.32635602771247e+005,-1.46752759558165e+001,-1.18041850996823e+000

2.35883074766574e+005,-1.46752806469173e+001,-1.19689637931703e+000

2.39175879781588e+005,-1.46752854698968e+001,-1.21360426439831e+000

2.42514650641661e+005,-1.46752904284622e+001,-1.23054537582615e+000

2.45900029006080e+005,-1.46752955264250e+001,-1.24772296901959e+000

2.49332665491357e+005,-1.46753007677039e+001,-1.26514034482988e+000

2.52813219796278e+005,-1.46753061563276e+001,-1.28280085017235e+000

2.56342360828676e+005,-1.46753116964380e+001,-1.30070787867085e+000

2.59920766833993e+005,-1.46753173922937e+001,-1.31886487130692e+000

2.63549125525621e+005,-1.46753232482727e+001,-1.33727531708206e+000

2.67228134217075e+005,-1.46753292688761e+001,-1.35594275368696e+000

2.70958499956006e+005,-1.46753354587317e+001,-1.37487076817968e+000

2.74740939660078e+005,-1.46753418225972e+001,-1.39406299767551e+000

2.78576180254757e+005,-1.46753483653641e+001,-1.41352313004347e+000

2.82464958813007e+005,-1.46753550920613e+001,-1.43325490461588e+000

2.86408022696948e+005,-1.46753620078592e+001,-1.45326211290402e+000

2.90406129701488e+005,-1.46753691180733e+001,-1.47354859932735e+000

2.94460048199957e+005,-1.46753764281688e+001,-1.49411826194970e+000

2.98570557291775e+005,-1.46753839437642e+001,-1.51497505322883e+000

3.02738446952187e+005,-1.46753916706362e+001,-1.53612298077374e+000

3.06964518184081e+005,-1.46753996147235e+001,-1.55756610811396e+000

3.11249583171928e+005,-1.46754077821320e+001,-1.57930855547884e+000

3.15594465437872e+005,-1.46754161791391e+001,-1.60135450058877e+000

3.19999999999997e+005,-1.46754248121987e+001,-1.62370817945525e+000

3.24467033532806e+005,-1.46754336879459e+001,-1.64637388719564e+000

3.28996424529938e+005,-1.46754428132026e+001,-1.66935597885431e+000

3.33589043469155e+005,-1.46754521949820e+001,-1.69265887024075e+000

3.38245772979638e+005,-1.46754618404948e+001,-1.71628703877361e+000

3.42967508011610e+005,-1.46754717571540e+001,-1.74024502434260e+000

3.47755156008335e+005,-1.46754819525812e+001,-1.76453743017668e+000

3.52609637080511e+005,-1.46754924346120e+001,-1.78916892372741e+000

3.57531884183106e+005,-1.46755032113025e+001,-1.81414423756432e+000

3.62522843294651e+005,-1.46755142909347e+001,-1.83946817028236e+000

3.67583473599047e+005,-1.46755256820237e+001,-1.86514558742176e+000

3.72714747669902e+005,-1.46755373933239e+001,-1.89118142240035e+000

3.77917651657445e+005,-1.46755494338356e+001,-1.91758067745970e+000

3.83193185478053e+005,-1.46755618128118e+001,-1.94434842462514e+000

3.88542363006410e+005,-1.46755745397661e+001,-1.97148980667499e+000

3.93966212270369e+005,-1.46755876244787e+001,-1.99901003812980e+000

3.99465775648511e+005,-1.46756010770053e+001,-2.02691440624855e+000

4.05042110070485e+005,-1.46756149076837e+001,-2.05520827204415e+000

4.10696287220124e+005,-1.46756291271423e+001,-2.08389707130926e+000

4.16429393741414e+005,-1.46756437463083e+001,-2.11298631565836e+000

4.22242531447321e+005,-1.46756587764158e+001,-2.14248159358397e+000

4.28136817531551e+005,-1.46756742290144e+001,-2.17238857152595e+000

4.34113384783250e+005,-1.46756901159785e+001,-2.20271299495889e+000

4.40173381804713e+005,-1.46757064495160e+001,-2.23346068949061e+000

4.46317973232124e+005,-1.46757232421778e+001,-2.26463756197878e+000

4.52548339959385e+005,-1.46757405068674e+001,-2.29624960166194e+000

4.58865679365059e+005,-1.46757582568509e+001,-2.32830288130615e+000

4.65271205542494e+005,-1.46757765057669e+001,-2.36080355836790e+000

4.71766149533147e+005,-1.46757952676375e+001,-2.39375787617246e+000

4.78351759563174e+005,-1.46758145568785e+001,-2.42717216510908e+000

4.85029301283321e+005,-1.46758343883106e+001,-2.46105284384286e+000

4.91800058012158e+005,-1.46758547771712e+001,-2.49540642054218e+000

4.98665330982714e+005,-1.46758757391255e+001,-2.53023949412507e+000

5.05626439592555e+005,-1.46758972902787e+001,-2.56555875552106e+000

5.12684721657352e+005,-1.46759194471884e+001,-2.60137098895194e+000

5.19841533667984e+005,-1.46759422268775e+001,-2.63768307322726e+000

5.27098251051240e+005,-1.46759656468471e+001,-2.67450198306284e+000

5.34456268434150e+005,-1.46759897250894e+001,-2.71183479041251e+000

5.41916999912011e+005,-1.46760144801026e+001,-2.74968866582023e+000

