Freq.,VOut,OutRef

1.00000000000000e+004,-1.58452715024146e+001,-8.78450750181513e-003

1.01395947979003e+004,-1.58452715028301e+001,-8.90713465726806e-003

1.02811382665607e+004,-1.58452715032577e+001,-9.03147362181475e-003

1.04246576084112e+004,-1.58452715036969e+001,-9.15754829612760e-003

1.05701804056138e+004,-1.58452715041485e+001,-9.28538290638162e-003

1.07177346253629e+004,-1.58452715046132e+001,-9.41500201956011e-003

1.08673486252606e+004,-1.58452715050903e+001,-9.54643055219289e-003

1.10190511587661e+004,-1.58452715055819e+001,-9.67969375125265e-003

1.11728713807222e+004,-1.58452715060864e+001,-9.81481724193371e-003

1.13288388529580e+004,-1.58452715066050e+001,-9.95182698578142e-003

1.14869835499703e+004,-1.58452715071385e+001,-1.00907493132068e-002

1.16473358646846e+004,-1.58452715076867e+001,-1.02316109259722e-002

1.18099266142953e+004,-1.58452715082509e+001,-1.03744388894141e-002

1.19747870461893e+004,-1.58452715088304e+001,-1.05192606602185e-002

1.21419488439505e+004,-1.58452715094266e+001,-1.06661040656854e-002

1.23114441334492e+004,-1.58452715100390e+001,-1.08149973317197e-002

1.24833054890161e+004,-1.58452715106689e+001,-1.09659690692445e-002

1.26575659397028e+004,-1.58452715113169e+001,-1.11190482904373e-002

1.28342589756290e+004,-1.58452715119830e+001,-1.12742644188921e-002

1.30134185544193e+004,-1.58452715126677e+001,-1.14316472842753e-002

1.31950791077289e+004,-1.58452715133714e+001,-1.15912271344013e-002

1.33792755478611e+004,-1.58452715140950e+001,-1.17530346353142e-002

1.35660432744767e+004,-1.58452715148392e+001,-1.19171008834534e-002

1.37554181813974e+004,-1.58452715156041e+001,-1.20834574122493e-002

1.39474366635040e+004,-1.58452715163902e+001,-1.22521361936802e-002

1.41421356237309e+004,-1.58452715171990e+001,-1.24231696395711e-002

1.43395524801583e+004,-1.58452715180304e+001,-1.25965906241190e-002

1.45397251732031e+004,-1.58452715188850e+001,-1.27724324758409e-002

1.47426921729110e+004,-1.58452715197637e+001,-1.29507289884694e-002

1.49484924863494e+004,-1.58452715206672e+001,-1.31315144269340e-002

1.51571656651040e+004,-1.58452715215956e+001,-1.33148235391386e-002

1.53687518128801e+004,-1.58452715225509e+001,-1.35006915463889e-002

1.55832915932100e+004,-1.58452715235325e+001,-1.36891541776704e-002

1.58008262372675e+004,-1.58452715245418e+001,-1.38802476486362e-002

1.60213975517924e+004,-1.58452715255797e+001,-1.40740086831538e-002

1.62450479271247e+004,-1.58452715266462e+001,-1.42704745251161e-002

1.64718203453514e+004,-1.58452715277434e+001,-1.44696829231178e-002

1.67017583885674e+004,-1.58452715288710e+001,-1.46716721695508e-002

1.69349062472505e+004,-1.58452715300304e+001,-1.48764810805302e-002

1.71713087287550e+004,-1.58452715312228e+001,-1.50841490142154e-002

1.74110112659224e+004,-1.58452715324479e+001,-1.52947158899219e-002

1.76540599258131e+004,-1.58452715337079e+001,-1.55082221666220e-002

1.79005014185594e+004,-1.58452715350034e+001,-1.57247088789844e-002

1.81503831063432e+004,-1.58452715363354e+001,-1.59442176326554e-002

1.84037530124975e+004,-1.58452715377046e+001,-1.61667906165862e-002

1.86606598307361e+004,-1.58452715391120e+001,-1.63924706048368e-002

1.89211529345119e+004,-1.58452715405599e+001,-1.66213009624582e-002

1.91852823865052e+004,-1.58452715420476e+001,-1.68533256784873e-002

1.94530989482457e+004,-1.58452715435774e+001,-1.70885893373199e-002

1.97246540898671e+004,-1.58452715451505e+001,-1.73271371525720e-002

1.99999999999999e+004,-1.58452715467674e+001,-1.75690149736955e-002

2.02791895958005e+004,-1.58452715484301e+001,-1.78142692810267e-002

2.05622765331213e+004,-1.58452715501396e+001,-1.80629472107906e-002

2.08493152168224e+004,-1.58452715518969e+001,-1.83150965568176e-002

2.11403608112276e+004,-1.58452715537036e+001,-1.85707657764348e-002

2.14354692507258e+004,-1.58452715555611e+001,-1.88300040048543e-002

2.17346972505211e+004,-1.58452715574709e+001,-1.90928610641563e-002

2.20381023175322e+004,-1.58452715594345e+001,-1.93593874697885e-002

2.23457427614443e+004,-1.58452715614530e+001,-1.96296344477565e-002

2.26576777059159e+004,-1.58452715635287e+001,-1.99036539298899e-002

2.29739670999406e+004,-1.58452715656624e+001,-2.01814985839295e-002

2.32946717293690e+004,-1.58452715678560e+001,-2.04632218052138e-002

2.36198532285905e+004,-1.58452715701115e+001,-2.07488777342541e-002

2.39495740923785e+004,-1.58452715724303e+001,-2.10385212724003e-002

2.42838976879009e+004,-1.58452715748145e+001,-2.13322080815168e-002

2.46228882668982e+004,-1.58452715772654e+001,-2.16299946090287e-002

2.49666109780322e+004,-1.58452715797856e+001,-2.19319380778739e-002

2.53151318794055e+004,-1.58452715823762e+001,-2.22380965236317e-002

2.56685179512580e+004,-1.58452715850399e+001,-2.25485287802334e-002

2.60268371088386e+004,-1.58452715877784e+001,-2.28632945103671e-002

2.63901582154578e+004,-1.58452715905940e+001,-2.31824542049877e-002

2.67585510957221e+004,-1.58452715934886e+001,-2.35060692042486e-002

2.71320865489533e+004,-1.58452715964649e+001,-2.38342016986999e-002

2.75108363627948e+004,-1.58452715995246e+001,-2.41669147532976e-002

2.78948733270080e+004,-1.58452716026705e+001,-2.45042723071319e-002

2.82842712474618e+004,-1.58452716059044e+001,-2.48463392009832e-002

2.86791049603164e+004,-1.58452716092297e+001,-2.51931811662785e-002

2.90794503464061e+004,-1.58452716126483e+001,-2.55448648667513e-002

2.94853843458219e+004,-1.58452716161631e+001,-2.59014578882466e-002

2.98969849726987e+004,-1.58452716197764e+001,-2.62630287640154e-002

3.03143313302078e+004,-1.58452716234918e+001,-2.66296469779919e-002

3.07375036257601e+004,-1.58452716273114e+001,-2.70013829930233e-002

3.11665831864199e+004,-1.58452716312380e+001,-2.73783082514959e-002

3.16016524745350e+004,-1.58452716352756e+001,-2.77604951871571e-002

3.20427951035848e+004,-1.58452716394264e+001,-2.81480172546102e-002

3.24900958542493e+004,-1.58452716436942e+001,-2.85409489270395e-002

3.29436406907028e+004,-1.58452716480815e+001,-2.89393657239328e-002

3.34035167771346e+004,-1.58452716525923e+001,-2.93433442103211e-002

3.38698124945009e+004,-1.58452716572302e+001,-2.97529620250589e-002

3.43426174575100e+004,-1.58452716619983e+001,-3.01682978917538e-002

3.48220225318448e+004,-1.58452716669004e+001,-3.05894316310366e-002

3.53081198516260e+004,-1.58452716719405e+001,-3.10164441777440e-002

3.58010028371187e+004,-1.58452716771220e+001,-3.14494175983459e-002

3.63007662126863e+004,-1.58452716824493e+001,-3.18884351016313e-002

3.68075060249948e+004,-1.58452716879263e+001,-3.23335810613559e-002

3.73213196614721e+004,-1.58452716935576e+001,-3.27849410249754e-002

3.78423058690237e+004,-1.58452716993468e+001,-3.32426017410422e-002

3.83705647730104e+004,-1.58452717052990e+001,-3.37066511611012e-002

3.89061978964912e+004,-1.58452717114184e+001,-3.41771784693526e-002

3.94493081797342e+004,-1.58452717177101e+001,-3.46542740929357e-002

3.99999999999998e+004,-1.58452717241785e+001,-3.51380297234848e-002

4.05583791916010e+004,-1.58452717308287e+001,-3.56285383317887e-002

4.11245530662425e+004,-1.58452717376661e+001,-3.61258941826497e-002

4.16986304336447e+004,-1.58452717446953e+001,-3.66301928647070e-002

4.22807216224550e+004,-1.58452717519226e+001,-3.71415312906626e-002

4.28709385014515e+004,-1.58452717593529e+001,-3.76600077356803e-002

4.34693945010421e+004,-1.58452717669921e+001,-3.81857218419422e-002

4.40762046350642e+004,-1.58452717748460e+001,-3.87187746434458e-002

4.46914855228886e+004,-1.58452717829205e+001,-3.92592685859163e-002

4.53153554118317e+004,-1.58452717912224e+001,-3.98073075397750e-002

4.59479341998812e+004,-1.58452717997574e+001,-4.03629968331065e-002

4.65893434587380e+004,-1.58452718085326e+001,-4.09264432579131e-002

4.72397064571810e+004,-1.58452718175542e+001,-4.14977551030993e-002

4.78991481847569e+004,-1.58452718268296e+001,-4.20770421636014e-002

4.85677953758016e+004,-1.58452718363658e+001,-4.26644157685093e-002

4.92457765337964e+004,-1.58452718461702e+001,-4.32599888025658e-002

4.99332219560642e+004,-1.58452718562501e+001,-4.38638757261533e-002

5.06302637588109e+004,-1.58452718666135e+001,-4.44761925960389e-002

5.13370359025159e+004,-1.58452718772682e+001,-4.50970570903436e-002

5.20536742176771e+004,-1.58452718882223e+001,-4.57265885297307e-002

5.27803164309155e+004,-1.58452718994844e+001,-4.63649079003675e-002

5.35171021914442e+004,-1.58452719110631e+001,-4.70121378758988e-002

5.42641730979066e+004,-1.58452719229676e+001,-4.76684028431097e-002

5.50216727255895e+004,-1.58452719352065e+001,-4.83338289286057e-002

5.57897466540159e+004,-1.58452719477896e+001,-4.90085440148735e-002

5.65685424949235e+004,-1.58452719607265e+001,-4.96926777712926e-002

5.73582099206328e+004,-1.58452719740271e+001,-5.03863616780904e-002

5.81589006928121e+004,-1.58452719877015e+001,-5.10897290513131e-002

5.89707686916437e+004,-1.58452720017603e+001,-5.18029150659085e-002

5.97939699453972e+004,-1.58452720162146e+001,-5.25260567842945e-002

6.06286626604156e+004,-1.58452720310751e+001,-5.32592931840854e-002

6.14750072515201e+004,-1.58452720463531e+001,-5.40027651831075e-002

6.23331663728396e+004,-1.58452720620611e+001,-5.47566156611221e-002

6.32033049490698e+004,-1.58452720782106e+001,-5.55209894983283e-002

6.40855902071694e+004,-1.58452720948141e+001,-5.62960335953173e-002

6.49801917084985e+004,-1.58452721118844e+001,-5.70818969039815e-002

6.58872813814055e+004,-1.58452721294345e+001,-5.78787304539229e-002

6.68070335542691e+004,-1.58452721474779e+001,-5.86866873852955e-002

6.77396249890018e+004,-1.58452721660287e+001,-5.95059229733691e-002

6.86852349150199e+004,-1.58452721851011e+001,-6.03365946607931e-002

6.96440450636895e+004,-1.58452722047098e+001,-6.11788620908580e-002

7.06162397032520e+004,-1.58452722248696e+001,-6.20328871355214e-002

7.16020056742374e+004,-1.58452722455963e+001,-6.28988339230016e-002

7.26015324253724e+004,-1.58452722669054e+001,-6.37768688766539e-002

7.36150120499896e+004,-1.58452722888139e+001,-6.46671607382247e-002

7.46426393229441e+004,-1.58452723113384e+001,-6.55698806079093e-002

7.56846117380472e+004,-1.58452723344958e+001,-6.64852019774386e-002

7.67411295460207e+004,-1.58452723583045e+001,-6.74133007528501e-002

7.78123957929823e+004,-1.58452723827824e+001,-6.83543553031902e-002

7.88986163594682e+004,-1.58452724079485e+001,-6.93085464829175e-002

7.99999999999995e+004,-1.58452724338222e+001,-7.02760576713512e-002

8.11167583832018e+004,-1.58452724604234e+001,-7.12570748097069e-002

8.22491061324848e+004,-1.58452724877723e+001,-7.22517864352213e-002

8.33972608672892e+004,-1.58452725158900e+001,-7.32603837153165e-002

8.45614432449099e+004,-1.58452725447984e+001,-7.42830604838653e-002

8.57418770029029e+004,-1.58452725745194e+001,-7.53200132860078e-002

8.69387890020841e+004,-1.58452726050759e+001,-7.63714414067793e-002

8.81524092701283e+004,-1.58452726364917e+001,-7.74375469122424e-002

8.93829710457770e+004,-1.58452726687905e+001,-7.85185346936589e-002

9.06307108236633e+004,-1.58452727019975e+001,-7.96146124971037e-002

9.18958683997622e+004,-1.58452727361379e+001,-8.07259909737513e-002

9.31786869174758e+004,-1.58452727712382e+001,-8.18528837107004e-002

9.44794129143618e+004,-1.58452728073253e+001,-8.29955072801222e-002

9.57982963695136e+004,-1.58452728444270e+001,-8.41540812749865e-002

9.71355907516031e+004,-1.58452728825718e+001,-8.53288283557206e-002

9.84915530675926e+004,-1.58452729217888e+001,-8.65199742906913e-002

9.98664439121282e+004,-1.58452729621085e+001,-8.77277479968997e-002

1.01260527517622e+005,-1.58452730035618e+001,-8.89523815900226e-002

1.02674071805032e+005,-1.58452730461803e+001,-9.01941104269190e-002

1.04107348435354e+005,-1.58452730899972e+001,-9.14531731454810e-002

1.05560632861831e+005,-1.58452731350459e+001,-9.27298117186499e-002

1.07034204382888e+005,-1.58452731813609e+001,-9.40242714973201e-002

1.08528346195813e+005,-1.58452732289782e+001,-9.53368012522631e-002

1.10043345451179e+005,-1.58452732779341e+001,-9.66676532346932e-002

1.11579493308032e+005,-1.58452733282664e+001,-9.80170832104990e-002

1.13137084989847e+005,-1.58452733800136e+001,-9.93853505197322e-002

1.14716419841265e+005,-1.58452734332159e+001,-1.00772718120019e-001

1.16317801385624e+005,-1.58452734879136e+001,-1.02179452643710e-001

1.17941537383287e+005,-1.58452735441492e+001,-1.03605824440345e-001

1.19587939890794e+005,-1.58452736019657e+001,-1.05052107636632e-001

1.21257325320831e+005,-1.58452736614078e+001,-1.06518580184139e-001

1.22950014503040e+005,-1.58452737225210e+001,-1.08005523916490e-001

1.24666332745679e+005,-1.58452737853523e+001,-1.09513224599659e-001

1.26406609898139e+005,-1.58452738499502e+001,-1.11041971988842e-001

1.28171180414339e+005,-1.58452739163639e+001,-1.12592059886742e-001

1.29960383416997e+005,-1.58452739846448e+001,-1.14163786193940e-001

1.31774562762811e+005,-1.58452740548454e+001,-1.15757452970625e-001

1.33614067108538e+005,-1.58452741270197e+001,-1.17373366493916e-001

1.35479249978003e+005,-1.58452742012230e+001,-1.19011837316829e-001

1.37370469830040e+005,-1.58452742775124e+001,-1.20673180326654e-001

1.39288090127379e+005,-1.58452743559466e+001,-1.22357714807046e-001

1.41232479406504e+005,-1.58452744365859e+001,-1.24065764497473e-001

1.43204011348474e+005,-1.58452745194922e+001,-1.25797657658967e-001

1.45203064850745e+005,-1.58452746047294e+001,-1.27553727131049e-001

1.47230024099979e+005,-1.58452746923630e+001,-1.29334310402905e-001

1.49285278645888e+005,-1.58452747824602e+001,-1.31139749674850e-001

1.51369223476094e+005,-1.58452748750905e+001,-1.32970391920760e-001

1.53482259092041e+005,-1.58452749703248e+001,-1.34826588963082e-001

1.55624791585964e+005,-1.58452750682367e+001,-1.36708697529578e-001

1.57797232718936e+005,-1.58452751689011e+001,-1.38617079332910e-001

1.59999999999999e+005,-1.58452752723958e+001,-1.40552101131697e-001

1.62233516766403e+005,-1.58452753787998e+001,-1.42514134807774e-001

1.64498212264969e+005,-1.58452754881954e+001,-1.44503557429220e-001

1.66794521734578e+005,-1.58452756006666e+001,-1.46520751331330e-001

1.69122886489819e+005,-1.58452757162996e+001,-1.48566104186892e-001

1.71483754005805e+005,-1.58452758351836e+001,-1.50640009078052e-001

1.73877578004168e+005,-1.58452759574099e+001,-1.52742864575342e-001

1.76304818540256e+005,-1.58452760830725e+001,-1.54875074812704e-001

1.78765942091554e+005,-1.58452762122678e+001,-1.57037049567443e-001

1.81261421647326e+005,-1.58452763450953e+001,-1.59229204333855e-001

1.83791736799524e+005,-1.58452764816571e+001,-1.61451960408344e-001

1.86357373834951e+005,-1.58452766220583e+001,-1.63705744967580e-001

1.88958825828723e+005,-1.58452767664066e+001,-1.65990991152772e-001

1.91596592739027e+005,-1.58452769148130e+001,-1.68308138149622e-001

1.94271181503206e+005,-1.58452770673918e+001,-1.70657631274971e-001

1.96983106135185e+005,-1.58452772242600e+001,-1.73039922063338e-001

1.99732887824256e+005,-1.58452773855385e+001,-1.75455468350458e-001

2.02521055035243e+005,-1.58452775513512e+001,-1.77904734363499e-001

2.05348143610063e+005,-1.58452777218253e+001,-1.80388190812796e-001

2.08214696870707e+005,-1.58452778970923e+001,-1.82906314974379e-001

2.11121265723661e+005,-1.58452780772865e+001,-1.85459590791981e-001

2.14068408765776e+005,-1.58452782625468e+001,-1.88048508960889e-001

2.17056692391625e+005,-1.58452784530154e+001,-1.90673567027215e-001

2.20086690902357e+005,-1.58452786488388e+001,-1.93335269484638e-001

2.23158986616063e+005,-1.58452788501675e+001,-1.96034127865860e-001

2.26274169979693e+005,-1.58452790571564e+001,-1.98770660846710e-001

2.29432839682530e+005,-1.58452792699644e+001,-2.01545394342050e-001

2.32635602771247e+005,-1.58452794887553e+001,-2.04358861608675e-001

2.35883074766574e+005,-1.58452797136973e+001,-2.07211603346795e-001

2.39175879781588e+005,-1.58452799449632e+001,-2.10104167805502e-001

2.42514650641661e+005,-1.58452801827309e+001,-2.13037110885420e-001

2.45900029006080e+005,-1.58452804271831e+001,-2.16010996248811e-001

2.49332665491357e+005,-1.58452806785078e+001,-2.19026395424461e-001

2.52813219796278e+005,-1.58452809368982e+001,-2.22083887920974e-001

2.56342360828676e+005,-1.58452812025528e+001,-2.25184061335699e-001

2.59920766833993e+005,-1.58452814756760e+001,-2.28327511467663e-001

2.63549125525621e+005,-1.58452817564778e+001,-2.31514842434005e-001

2.67228134217075e+005,-1.58452820451739e+001,-2.34746666784238e-001

2.70958499956006e+005,-1.58452823419864e+001,-2.38023605618606e-001

2.74740939660078e+005,-1.58452826471433e+001,-2.41346288707823e-001

2.78576180254757e+005,-1.58452829608794e+001,-2.44715354612579e-001

2.82464958813007e+005,-1.58452832834357e+001,-2.48131450808711e-001

2.86408022696948e+005,-1.58452836150603e+001,-2.51595233810233e-001

2.90406129701488e+005,-1.58452839560081e+001,-2.55107369293597e-001

2.94460048199957e+005,-1.58452843065412e+001,-2.58668532230371e-001

2.98570557291775e+005,-1.58452846669291e+001,-2.62279407011518e-001

3.02738446952187e+005,-1.58452850374489e+001,-2.65940687583254e-001

3.06964518184081e+005,-1.58452854183852e+001,-2.69653077578813e-001

3.11249583171928e+005,-1.58452858100312e+001,-2.73417290451465e-001

3.15594465437872e+005,-1.58452862126878e+001,-2.77234049615400e-001

3.19999999999997e+005,-1.58452866266645e+001,-2.81104088583415e-001

3.24467033532806e+005,-1.58452870522797e+001,-2.85028151105965e-001

3.28996424529938e+005,-1.58452874898604e+001,-2.89006991316906e-001

3.33589043469155e+005,-1.58452879397432e+001,-2.93041373875595e-001

3.38245772979638e+005,-1.58452884022739e+001,-2.97132074116701e-001

3.42967508011610e+005,-1.58452888778079e+001,-3.01279878198036e-001

3.47755156008335e+005,-1.58452893667111e+001,-3.05485583248695e-001

3.52609637080511e+005,-1.58452898693589e+001,-3.09749997529012e-001

3.57531884183106e+005,-1.58452903861381e+001,-3.14073940578911e-001

3.62522843294651e+005,-1.58452909174459e+001,-3.18458243378253e-001

3.67583473599047e+005,-1.58452914636907e+001,-3.22903748508308e-001

3.72714747669902e+005,-1.58452920252924e+001,-3.27411310310578e-001

3.77917651657445e+005,-1.58452926026828e+001,-3.31981795052352e-001

3.83193185478053e+005,-1.58452931963057e+001,-3.36616081094096e-001

3.88542363006410e+005,-1.58452938066175e+001,-3.41315059055772e-001

3.93966212270369e+005,-1.58452944340874e+001,-3.46079631990185e-001

3.99465775648511e+005,-1.58452950791978e+001,-3.50910715555813e-001

4.05042110070485e+005,-1.58452957424445e+001,-3.55809238192567e-001

4.10696287220124e+005,-1.58452964243375e+001,-3.60776141299723e-001

4.16429393741414e+005,-1.58452971254010e+001,-3.65812379418596e-001

4.22242531447321e+005,-1.58452978461739e+001,-3.70918920413693e-001

4.28136817531551e+005,-1.58452985872104e+001,-3.76096745660269e-001

4.34113384783250e+005,-1.58452993490800e+001,-3.81346850232233e-001

4.40173381804713e+005,-1.58453001323684e+001,-3.86670243093757e-001

4.46317973232124e+005,-1.58453009376779e+001,-3.92067947291912e-001

4.52548339959385e+005,-1.58453017656276e+001,-3.97541000155068e-001

4.58865679365059e+005,-1.58453026168538e+001,-4.03090453491523e-001

4.65271205542494e+005,-1.58453034920111e+001,-4.08717373790545e-001

4.71766149533147e+005,-1.58453043917721e+001,-4.14422842428821e-001

4.78351759563174e+005,-1.58453053168287e+001,-4.20207955876876e-001

4.85029301283321e+005,-1.58453062678917e+001,-4.26073825911798e-001

4.91800058012158e+005,-1.58453072456926e+001,-4.32021579827525e-001

4.98665330982714e+005,-1.58453082509828e+001,-4.38052360655285e-001

5.05626439592555e+005,-1.58453092845353e+001,-4.44167327379707e-001

5.12684721657352e+005,-1.58453103471445e+001,-4.50367655164777e-001

5.19841533667984e+005,-1.58453114396274e+001,-4.56654535575834e-001

5.27098251051240e+005,-1.58453125628238e+001,-4.63029176812475e-001

5.34456268434150e+005,-1.58453137175971e+001,-4.69492803938175e-001

5.41916999912011e+005,-1.58453149048351e+001,-4.76046659116063e-001

