Freq.,VOut,OutRef

1.00000000000000e+004,-2.09821647029085e+001,-1.24396206398088e-001

1.01395947979003e+004,-2.09821648776891e+001,-1.26132711796805e-001

1.02811382665607e+004,-2.09821650573835e+001,-1.27893457867583e-001

1.04246576084112e+004,-2.09821652421298e+001,-1.29678782996278e-001

1.05701804056138e+004,-2.09821654320700e+001,-1.31489030291706e-001

1.07177346253629e+004,-2.09821656273503e+001,-1.33324547652669e-001

1.08673486252606e+004,-2.09821658281204e+001,-1.35185687835468e-001

1.10190511587661e+004,-2.09821660345351e+001,-1.37072808517622e-001

1.11728713807222e+004,-2.09821662467527e+001,-1.38986272372711e-001

1.13288388529580e+004,-2.09821664649367e+001,-1.40926447134337e-001

1.14869835499703e+004,-2.09821666892546e+001,-1.42893705671587e-001

1.16473358646846e+004,-2.09821669198790e+001,-1.44888426056948e-001

1.18099266142953e+004,-2.09821671569872e+001,-1.46910991640236e-001

1.19747870461893e+004,-2.09821674007612e+001,-1.48961791125794e-001

1.21419488439505e+004,-2.09821676513887e+001,-1.51041218639765e-001

1.23114441334492e+004,-2.09821679090623e+001,-1.53149673812398e-001

1.24833054890161e+004,-2.09821681739800e+001,-1.55287561851704e-001

1.26575659397028e+004,-2.09821684463456e+001,-1.57455293621697e-001

1.28342589756290e+004,-2.09821687263685e+001,-1.59653285722367e-001

1.30134185544193e+004,-2.09821690142638e+001,-1.61881960569645e-001

1.31950791077289e+004,-2.09821693102529e+001,-1.64141746475119e-001

1.33792755478611e+004,-2.09821696145633e+001,-1.66433077729294e-001

1.35660432744767e+004,-2.09821699274292e+001,-1.68756394683830e-001

1.37554181813974e+004,-2.09821702490908e+001,-1.71112143840961e-001

1.39474366635040e+004,-2.09821705797956e+001,-1.73500777931152e-001

1.41421356237309e+004,-2.09821709197977e+001,-1.75922756007996e-001

1.43395524801583e+004,-2.09821712693584e+001,-1.78378543532447e-001

1.45397251732031e+004,-2.09821716287467e+001,-1.80868612461038e-001

1.47426921729110e+004,-2.09821719982387e+001,-1.83393441339351e-001

1.49484924863494e+004,-2.09821723781186e+001,-1.85953515393820e-001

1.51571656651040e+004,-2.09821727686783e+001,-1.88549326623915e-001

1.53687518128801e+004,-2.09821731702181e+001,-1.91181373896389e-001

1.55832915932100e+004,-2.09821735830467e+001,-1.93850163041740e-001

1.58008262372675e+004,-2.09821740074813e+001,-1.96556206952153e-001

1.60213975517924e+004,-2.09821744438485e+001,-1.99300025677924e-001

1.62450479271247e+004,-2.09821748924836e+001,-2.02082146529468e-001

1.64718203453514e+004,-2.09821753537314e+001,-2.04903104178612e-001

1.67017583885674e+004,-2.09821758279466e+001,-2.07763440759763e-001

1.69349062472505e+004,-2.09821763154938e+001,-2.10663705974320e-001

1.71713087287550e+004,-2.09821768167478e+001,-2.13604457198348e-001

1.74110112659224e+004,-2.09821773320938e+001,-2.16586259588224e-001

1.76540599258131e+004,-2.09821778619282e+001,-2.19609686187636e-001

1.79005014185594e+004,-2.09821784066581e+001,-2.22675318041491e-001

1.81503831063432e+004,-2.09821789667025e+001,-2.25783744302676e-001

1.84037530124975e+004,-2.09821795424916e+001,-2.28935562351980e-001

1.86606598307361e+004,-2.09821801344685e+001,-2.32131377904325e-001

1.89211529345119e+004,-2.09821807430880e+001,-2.35371805132572e-001

1.91852823865052e+004,-2.09821813688180e+001,-2.38657466782644e-001

1.94530989482457e+004,-2.09821820121395e+001,-2.41988994292677e-001

1.97246540898671e+004,-2.09821826735471e+001,-2.45367027914673e-001

1.99999999999999e+004,-2.09821833535494e+001,-2.48792216837334e-001

2.02791895958005e+004,-2.09821840526690e+001,-2.52265219312178e-001

2.05622765331213e+004,-2.09821847714435e+001,-2.55786702778212e-001

2.08493152168224e+004,-2.09821855104254e+001,-2.59357343991779e-001

2.11403608112276e+004,-2.09821862701826e+001,-2.62977829156369e-001

2.14354692507258e+004,-2.09821870512994e+001,-2.66648854051303e-001

2.17346972505211e+004,-2.09821878543763e+001,-2.70371124170542e-001

2.20381023175322e+004,-2.09821886800306e+001,-2.74145354855393e-001

2.23457427614443e+004,-2.09821895288971e+001,-2.77972271430641e-001

2.26576777059159e+004,-2.09821904016282e+001,-2.81852609347649e-001

2.29739670999406e+004,-2.09821912988949e+001,-2.85787114322862e-001

2.32946717293690e+004,-2.09821922213872e+001,-2.89776542479767e-001

2.36198532285905e+004,-2.09821931698139e+001,-2.93821660499839e-001

2.39495740923785e+004,-2.09821941449044e+001,-2.97923245762875e-001

2.42838976879009e+004,-2.09821951474082e+001,-3.02082086501550e-001

2.46228882668982e+004,-2.09821961780959e+001,-3.06298981950683e-001

2.49666109780322e+004,-2.09821972377599e+001,-3.10574742500489e-001

2.53151318794055e+004,-2.09821983272149e+001,-3.14910189852881e-001

2.56685179512580e+004,-2.09821994472983e+001,-3.19306157179657e-001

2.60268371088386e+004,-2.09822005988712e+001,-3.23763489282519e-001

2.63901582154578e+004,-2.09822017828190e+001,-3.28283042753661e-001

2.67585510957221e+004,-2.09822030000518e+001,-3.32865686143093e-001

2.71320865489533e+004,-2.09822042515053e+001,-3.37512300123685e-001

2.75108363627948e+004,-2.09822055381415e+001,-3.42223777661206e-001

2.78948733270080e+004,-2.09822068609496e+001,-3.47001024183904e-001

2.82842712474618e+004,-2.09822082209465e+001,-3.51844957760294e-001

2.86791049603164e+004,-2.09822096191777e+001,-3.56756509271081e-001

2.90794503464061e+004,-2.09822110567180e+001,-3.61736622590904e-001

2.94853843458219e+004,-2.09822125346726e+001,-3.66786254770071e-001

2.98969849726987e+004,-2.09822140541776e+001,-3.71906376215198e-001

3.03143313302078e+004,-2.09822156164012e+001,-3.77097970878701e-001

3.07375036257601e+004,-2.09822172225443e+001,-3.82362036446354e-001

3.11665831864199e+004,-2.09822188738416e+001,-3.87699584529366e-001

3.16016524745350e+004,-2.09822205715625e+001,-3.93111640859538e-001

3.20427951035848e+004,-2.09822223170122e+001,-3.98599245483042e-001

3.24900958542493e+004,-2.09822241115324e+001,-4.04163452964852e-001

3.29436406907028e+004,-2.09822259565026e+001,-4.09805332588463e-001

3.34035167771346e+004,-2.09822278533413e+001,-4.15525968559741e-001

3.38698124945009e+004,-2.09822298035065e+001,-4.21326460220399e-001

3.43426174575100e+004,-2.09822318084973e+001,-4.27207922253605e-001

3.48220225318448e+004,-2.09822338698552e+001,-4.33171484900854e-001

3.53081198516260e+004,-2.09822359891646e+001,-4.39218294179297e-001

3.58010028371187e+004,-2.09822381680549e+001,-4.45349512100215e-001

3.63007662126863e+004,-2.09822404082010e+001,-4.51566316893626e-001

3.68075060249948e+004,-2.09822427113251e+001,-4.57869903233347e-001

3.73213196614721e+004,-2.09822450791975e+001,-4.64261482468226e-001

3.78423058690237e+004,-2.09822475136384e+001,-4.70742282853239e-001

3.83705647730104e+004,-2.09822500165194e+001,-4.77313549784572e-001

3.89061978964912e+004,-2.09822525897645e+001,-4.83976546041735e-001

3.94493081797342e+004,-2.09822552353518e+001,-4.90732552026673e-001

3.99999999999998e+004,-2.09822579553149e+001,-4.97582866012749e-001

4.05583791916010e+004,-2.09822607517449e+001,-5.04528804390845e-001

4.11245530662425e+004,-2.09822636267913e+001,-5.11571701925238e-001

4.16986304336447e+004,-2.09822665826644e+001,-5.18712912007702e-001

4.22807216224550e+004,-2.09822696216361e+001,-5.25953806918936e-001

4.28709385014515e+004,-2.09822727460429e+001,-5.33295778089524e-001

4.34693945010421e+004,-2.09822759582863e+001,-5.40740236370001e-001

4.40762046350642e+004,-2.09822792608357e+001,-5.48288612300532e-001

4.46914855228886e+004,-2.09822826562299e+001,-5.55942356384790e-001

4.53153554118317e+004,-2.09822861470787e+001,-5.63702939369899e-001

4.59479341998812e+004,-2.09822897360659e+001,-5.71571852527135e-001

4.65893434587380e+004,-2.09822934259500e+001,-5.79550607940088e-001

4.72397064571810e+004,-2.09822972195676e+001,-5.87640738792780e-001

4.78991481847569e+004,-2.09823011198350e+001,-5.95843799665616e-001

4.85677953758016e+004,-2.09823051297501e+001,-6.04161366833238e-001

4.92457765337964e+004,-2.09823092523955e+001,-6.12595038567360e-001

4.99332219560642e+004,-2.09823134909400e+001,-6.21146435442426e-001

5.06302637588109e+004,-2.09823178486421e+001,-6.29817200647674e-001

5.13370359025159e+004,-2.09823223288512e+001,-6.38609000302695e-001

5.20536742176771e+004,-2.09823269350114e+001,-6.47523523776306e-001

5.27803164309155e+004,-2.09823316706633e+001,-6.56562484011784e-001

5.35171021914442e+004,-2.09823365394471e+001,-6.65727617853924e-001

5.42641730979066e+004,-2.09823415451054e+001,-6.75020686383506e-001

5.50216727255895e+004,-2.09823466914859e+001,-6.84443475256426e-001

5.57897466540159e+004,-2.09823519825445e+001,-6.93997795043055e-001

5.65685424949235e+004,-2.09823574223483e+001,-7.03685481578844e-001

5.73582099206328e+004,-2.09823630150787e+001,-7.13508396314310e-001

5.81589006928121e+004,-2.09823687650347e+001,-7.23468426672973e-001

5.89707686916437e+004,-2.09823746766360e+001,-7.33567486414261e-001

5.97939699453972e+004,-2.09823807544267e+001,-7.43807515999234e-001

6.06286626604156e+004,-2.09823870030786e+001,-7.54190482962913e-001

6.14750072515201e+004,-2.09823934273946e+001,-7.64718382292637e-001

6.23331663728396e+004,-2.09824000323128e+001,-7.75393236810313e-001

6.32033049490698e+004,-2.09824068229101e+001,-7.86217097559683e-001

6.40855902071694e+004,-2.09824138044061e+001,-7.97192044200342e-001

6.49801917084985e+004,-2.09824209821670e+001,-8.08320185405441e-001

6.58872813814055e+004,-2.09824283617098e+001,-8.19603659268457e-001

6.68070335542691e+004,-2.09824359487069e+001,-8.31044633710348e-001

6.77396249890018e+004,-2.09824437489896e+001,-8.42645306897003e-001

6.86852349150199e+004,-2.09824517685535e+001,-8.54407907659217e-001

6.96440450636895e+004,-2.09824600135628e+001,-8.66334695921229e-001

7.06162397032520e+004,-2.09824684903545e+001,-8.78427963134044e-001

7.16020056742374e+004,-2.09824772054441e+001,-8.90690032712400e-001

7.26015324253724e+004,-2.09824861655300e+001,-9.03123260482938e-001

7.36150120499896e+004,-2.09824953774990e+001,-9.15730035134008e-001

7.46426393229441e+004,-2.09825048484313e+001,-9.28512778673806e-001

7.56846117380472e+004,-2.09825145856064e+001,-9.41473946893385e-001

7.67411295460207e+004,-2.09825245965081e+001,-9.54616029839699e-001

7.78123957929823e+004,-2.09825348888305e+001,-9.67941552289263e-001

7.88986163594682e+004,-2.09825454704841e+001,-9.81453074235637e-001

7.99999999999995e+004,-2.09825563496017e+001,-9.95153191375064e-001

8.11167583832018e+004,-2.09825675345446e+001,-1.00904453560890e+000

8.22491061324848e+004,-2.09825790339091e+001,-1.02312977554259e+000

8.33972608672892e+004,-2.09825908565331e+001,-1.03741161700059e+000

8.45614432449099e+004,-2.09826030115028e+001,-1.05189280354134e+000

8.57418770029029e+004,-2.09826155081599e+001,-1.06657611698535e+000

8.69387890020841e+004,-2.09826283561085e+001,-1.08146437794495e+000

8.81524092701283e+004,-2.09826415652226e+001,-1.09656044636621e+000

8.93829710457770e+004,-2.09826551456536e+001,-1.11186722207561e+000

9.06307108236633e+004,-2.09826691078384e+001,-1.12738764533376e+000

9.18958683997622e+004,-2.09826834625070e+001,-1.14312469740039e+000

9.31786869174758e+004,-2.09826982206909e+001,-1.15908140110174e+000

9.44794129143618e+004,-2.09827133937317e+001,-1.17526082141162e+000

9.57982963695136e+004,-2.09827289932898e+001,-1.19166606603490e+000

9.71355907516031e+004,-2.09827450313527e+001,-1.20830028600491e+000

9.84915530675926e+004,-2.09827615202455e+001,-1.22516667628226e+000

9.98664439121282e+004,-2.09827784726391e+001,-1.24226847636814e+000

1.01260527517622e+005,-2.09827959015605e+001,-1.25960897092375e+000

1.02674071805032e+005,-2.09828138204030e+001,-1.27719149039548e+000

1.04107348435354e+005,-2.09828322429357e+001,-1.29501941165458e+000

1.05560632861831e+005,-2.09828511833152e+001,-1.31309615863964e+000

1.07034204382888e+005,-2.09828706560954e+001,-1.33142520301184e+000

1.08528346195813e+005,-2.09828906762392e+001,-1.35001006481831e+000

1.10043345451179e+005,-2.09829112591299e+001,-1.36885431316394e+000

1.11579493308032e+005,-2.09829324205830e+001,-1.38796156689161e+000

1.13137084989847e+005,-2.09829541768584e+001,-1.40733549527493e+000

1.14716419841265e+005,-2.09829765446726e+001,-1.42697981871751e+000

1.16317801385624e+005,-2.09829995412120e+001,-1.44689830946266e+000

1.17941537383287e+005,-2.09830231841456e+001,-1.46709479231339e+000

1.19587939890794e+005,-2.09830474916387e+001,-1.48757314536229e+000

1.21257325320831e+005,-2.09830724823670e+001,-1.50833730073019e+000

1.22950014503040e+005,-2.09830981755308e+001,-1.52939124531583e+000

1.24666332745679e+005,-2.09831245908699e+001,-1.55073902155664e+000

1.26406609898139e+005,-2.09831517486782e+001,-1.57238472819872e+000

1.28171180414339e+005,-2.09831796698198e+001,-1.59433252107725e+000

1.29960383416997e+005,-2.09832083757451e+001,-1.61658661390818e+000

1.31774562762811e+005,-2.09832378885065e+001,-1.63915127909133e+000

1.33614067108538e+005,-2.09832682307762e+001,-1.66203084852296e+000

1.35479249978003e+005,-2.09832994258628e+001,-1.68522971442030e+000

1.37370469830040e+005,-2.09833314977298e+001,-1.70875233015708e+000

1.39288090127379e+005,-2.09833644710135e+001,-1.73260321111196e+000

1.41232479406504e+005,-2.09833983710421e+001,-1.75678693552489e+000

1.43204011348474e+005,-2.09834332238554e+001,-1.78130814536923e+000

1.45203064850745e+005,-2.09834690562238e+001,-1.80617154723359e+000

1.47230024099979e+005,-2.09835058956699e+001,-1.83138191321529e+000

1.49285278645888e+005,-2.09835437704891e+001,-1.85694408182727e+000

1.51369223476094e+005,-2.09835827097709e+001,-1.88286295891686e+000

1.53482259092041e+005,-2.09836227434222e+001,-1.90914351859587e+000

1.55624791585964e+005,-2.09836639021890e+001,-1.93579080418573e+000

1.57797232718936e+005,-2.09837062176808e+001,-1.96280992917279e+000

1.59999999999999e+005,-2.09837497223945e+001,-1.99020607817856e+000

1.62233516766403e+005,-2.09837944497392e+001,-2.01798450794171e+000

1.64498212264969e+005,-2.09838404340620e+001,-2.04615054831369e+000

1.66794521734578e+005,-2.09838877106739e+001,-2.07470960326928e+000

1.69122886489819e+005,-2.09839363158774e+001,-2.10366715192765e+000

1.71483754005805e+005,-2.09839862869937e+001,-2.13302874959045e+000

1.73877578004168e+005,-2.09840376623918e+001,-2.16280002879110e+000

1.76304818540256e+005,-2.09840904815172e+001,-2.19298670036102e+000

1.78765942091554e+005,-2.09841447849227e+001,-2.22359455450720e+000

1.81261421647326e+005,-2.09842006142989e+001,-2.25462946190655e+000

1.83791736799524e+005,-2.09842580125066e+001,-2.28609737481350e+000

1.86357373834951e+005,-2.09843170236091e+001,-2.31800432818334e+000

1.88958825828723e+005,-2.09843776929061e+001,-2.35035644080983e+000

1.91596592739027e+005,-2.09844400669682e+001,-2.38315991647879e+000

1.94271181503206e+005,-2.09845041936728e+001,-2.41642104513598e+000

1.96983106135185e+005,-2.09845701222404e+001,-2.45014620407121e+000

1.99732887824256e+005,-2.09846379032720e+001,-2.48434185911892e+000

2.02521055035243e+005,-2.09847075887883e+001,-2.51901456587280e+000

2.05348143610063e+005,-2.09847792322689e+001,-2.55417097091831e+000

2.08214696870707e+005,-2.09848528886935e+001,-2.58981781308075e+000

2.11121265723661e+005,-2.09849286145836e+001,-2.62596192468959e+000

2.14068408765776e+005,-2.09850064680460e+001,-2.66261023285958e+000

2.17056692391625e+005,-2.09850865088164e+001,-2.69976976078989e+000

2.20086690902357e+005,-2.09851687983060e+001,-2.73744762907774e+000

2.23158986616063e+005,-2.09852533996474e+001,-2.77565105705278e+000

2.26274169979693e+005,-2.09853403777434e+001,-2.81438736412484e+000

2.29432839682530e+005,-2.09854297993160e+001,-2.85366397115386e+000

2.32635602771247e+005,-2.09855217329574e+001,-2.89348840183328e+000

2.35883074766574e+005,-2.09856162491826e+001,-2.93386828409503e+000

2.39175879781588e+005,-2.09857134204826e+001,-2.97481135152959e+000

2.42514650641661e+005,-2.09858133213799e+001,-3.01632544482809e+000

2.45900029006080e+005,-2.09859160284852e+001,-3.05841851323909e+000

2.49332665491357e+005,-2.09860216205558e+001,-3.10109861604802e+000

2.52813219796278e+005,-2.09861301785552e+001,-3.14437392407237e+000

2.56342360828676e+005,-2.09862417857149e+001,-3.18825272117809e+000

2.59920766833993e+005,-2.09863565275980e+001,-3.23274340581507e+000

2.63549125525621e+005,-2.09864744921636e+001,-3.27785449257166e+000

2.67228134217075e+005,-2.09865957698343e+001,-3.32359461374955e+000

2.70958499956006e+005,-2.09867204535643e+001,-3.36997252095850e+000

2.74740939660078e+005,-2.09868486389106e+001,-3.41699708673127e+000

2.78576180254757e+005,-2.09869804241052e+001,-3.46467730615893e+000

2.82464958813007e+005,-2.09871159101295e+001,-3.51302229854707e+000

2.86408022696948e+005,-2.09872552007912e+001,-3.56204130909241e+000

2.90406129701488e+005,-2.09873984028033e+001,-3.61174371058016e+000

2.94460048199957e+005,-2.09875456258642e+001,-3.66213900510363e+000

2.98570557291775e+005,-2.09876969827415e+001,-3.71323682580460e+000

3.02738446952187e+005,-2.09878525893573e+001,-3.76504693863455e+000

3.06964518184081e+005,-2.09880125648757e+001,-3.81757924413852e+000

3.11249583171928e+005,-2.09881770317935e+001,-3.87084377926139e+000

3.15594465437872e+005,-2.09883461160322e+001,-3.92485071917468e+000

3.19999999999997e+005,-2.09885199470340e+001,-3.97961037912686e+000

3.24467033532806e+005,-2.09886986578588e+001,-4.03513321631616e+000

3.28996424529938e+005,-2.09888823852855e+001,-4.09142983178511e+000

3.33589043469155e+005,-2.09890712699150e+001,-4.14851097233926e+000

3.38245772979638e+005,-2.09892654562758e+001,-4.20638753248737e+000

3.42967508011610e+005,-2.09894650929342e+001,-4.26507055640574e+000

3.47755156008335e+005,-2.09896703326050e+001,-4.32457123992564e+000

3.52609637080511e+005,-2.09898813322676e+001,-4.38490093254457e+000

3.57531884183106e+005,-2.09900982532835e+001,-4.44607113945984e+000

3.62522843294651e+005,-2.09903212615183e+001,-4.50809352362761e+000

3.67583473599047e+005,-2.09905505274662e+001,-4.57097990784424e+000

3.72714747669902e+005,-2.09907862263781e+001,-4.63474227685323e+000

3.77917651657445e+005,-2.09910285383935e+001,-4.69939277947497e+000

3.83193185478053e+005,-2.09912776486755e+001,-4.76494373076137e+000

3.88542363006410e+005,-2.09915337475499e+001,-4.83140761417496e+000

3.93966212270369e+005,-2.09917970306480e+001,-4.89879708379193e+000

3.99465775648511e+005,-2.09920676990527e+001,-4.96712496653042e+000

4.05042110070485e+005,-2.09923459594497e+001,-5.03640426440301e+000

4.10696287220124e+005,-2.09926320242816e+001,-5.10664815679423e+000

4.16429393741414e+005,-2.09929261119070e+001,-5.17787000276296e+000

4.22242531447321e+005,-2.09932284467635e+001,-5.25008334336863e+000

4.28136817531551e+005,-2.09935392595352e+001,-5.32330190402412e+000

4.34113384783250e+005,-2.09938587873249e+001,-5.39753959687227e+000

4.40173381804713e+005,-2.09941872738304e+001,-5.47281052318801e+000

4.46317973232124e+005,-2.09945249695263e+001,-5.54912897580471e+000

4.52548339959385e+005,-2.09948721318502e+001,-5.62650944156612e+000

4.58865679365059e+005,-2.09952290253937e+001,-5.70496660380403e+000

4.65271205542494e+005,-2.09955959220991e+001,-5.78451534483883e+000

4.71766149533147e+005,-2.09959731014611e+001,-5.86517074850637e+000

4.78351759563174e+005,-2.09963608507337e+001,-5.94694810270990e+000

4.85029301283321e+005,-2.09967594651425e+001,-6.02986290199580e+000

4.91800058012158e+005,-2.09971692481039e+001,-6.11393085015395e+000

4.98665330982714e+005,-2.09975905114480e+001,-6.19916786284334e+000

5.05626439592555e+005,-2.09980235756493e+001,-6.28559007024189e+000

5.12684721657352e+005,-2.09984687700626e+001,-6.37321381971973e+000

5.19841533667984e+005,-2.09989264331653e+001,-6.46205567853713e+000

5.27098251051240e+005,-2.09993969128062e+001,-6.55213243656580e+000

5.34456268434150e+005,-2.09998805664608e+001,-6.64346110903503e+000

5.41916999912011e+005,-2.10003777614933e+001,-6.73605893929869e+000

