Freq.,VOut,OutRef

1.00000000000000e+004,-8.95064709610534e+000,-1.13079318510909e-002

1.01395947979003e+004,-8.95064709512044e+000,-1.14657846990296e-002

1.02811382665607e+004,-8.95064709410805e+000,-1.16258410893866e-002

1.04246576084112e+004,-8.95064709306699e+000,-1.17881317848882e-002

1.05701804056138e+004,-8.95064709199673e+000,-1.19526879738316e-002

1.07177346253629e+004,-8.95064709089691e+000,-1.21195412780805e-002

1.08673486252606e+004,-8.95064708976542e+000,-1.22887237725868e-002

1.10190511587661e+004,-8.95064708860253e+000,-1.24602679641443e-002

1.11728713807222e+004,-8.95064708740684e+000,-1.26342068240794e-002

1.13288388529580e+004,-8.95064708617785e+000,-1.28105737779445e-002

1.14869835499703e+004,-8.95064708491399e+000,-1.29894027248322e-002

1.16473358646846e+004,-8.95064708361465e+000,-1.31707280303740e-002

1.18099266142953e+004,-8.95064708227887e+000,-1.33545845424860e-002

1.19747870461893e+004,-8.95064708090530e+000,-1.35410075974526e-002

1.21419488439505e+004,-8.95064707949291e+000,-1.37300330224929e-002

1.23114441334492e+004,-8.95064707804136e+000,-1.39216971407817e-002

1.24833054890161e+004,-8.95064707654887e+000,-1.41160367913425e-002

1.26575659397028e+004,-8.95064707501414e+000,-1.43130893240688e-002

1.28342589756290e+004,-8.95064707343690e+000,-1.45128926036787e-002

1.30134185544193e+004,-8.95064707181443e+000,-1.47154850389368e-002

1.31950791077289e+004,-8.95064707014667e+000,-1.49209055570713e-002

1.33792755478611e+004,-8.95064706843236e+000,-1.51291936368089e-002

1.35660432744767e+004,-8.95064706666941e+000,-1.53403893127005e-002

1.37554181813974e+004,-8.95064706485734e+000,-1.55545331674497e-002

1.39474366635040e+004,-8.95064706299441e+000,-1.57716663587129e-002

1.41421356237309e+004,-8.95064706107850e+000,-1.59918306201178e-002

1.43395524801583e+004,-8.95064705910895e+000,-1.62150682587932e-002

1.45397251732031e+004,-8.95064705708431e+000,-1.64414221770569e-002

1.47426921729110e+004,-8.95064705500260e+000,-1.66709358793304e-002

1.49484924863494e+004,-8.95064705286246e+000,-1.69036534729519e-002

1.51571656651040e+004,-8.95064705066157e+000,-1.71396196869756e-002

1.53687518128801e+004,-8.95064704839983e+000,-1.73788798600110e-002

1.55832915932100e+004,-8.95064704607359e+000,-1.76214799866646e-002

1.58008262372675e+004,-8.95064704368220e+000,-1.78674666831357e-002

1.60213975517924e+004,-8.95064704122366e+000,-1.81168872258835e-002

1.62450479271247e+004,-8.95064703869627e+000,-1.83697895478116e-002

1.64718203453514e+004,-8.95064703609734e+000,-1.86262222578419e-002

1.67017583885674e+004,-8.95064703342545e+000,-1.88862346345120e-002

1.69349062472505e+004,-8.95064703067870e+000,-1.91498766471207e-002

1.71713087287550e+004,-8.95064702785447e+000,-1.94171989670564e-002

1.74110112659224e+004,-8.95064702495107e+000,-1.96882529660983e-002

1.76540599258131e+004,-8.95064702196585e+000,-1.99630907392149e-002

1.79005014185594e+004,-8.95064701889687e+000,-2.02417651038842e-002

1.81503831063432e+004,-8.95064701574157e+000,-2.05243296180091e-002

1.84037530124975e+004,-8.95064701249767e+000,-2.08108385851053e-002

1.86606598307361e+004,-8.95064700916227e+000,-2.11013470707869e-002

1.89211529345119e+004,-8.95064700573326e+000,-2.13959109027244e-002

1.91852823865052e+004,-8.95064700220779e+000,-2.16945866931507e-002

1.94530989482457e+004,-8.95064699858316e+000,-2.19974318426023e-002

1.97246540898671e+004,-8.95064699485692e+000,-2.23045045511446e-002

1.99999999999999e+004,-8.95064699102537e+000,-2.26158638387907e-002

2.02791895958005e+004,-8.95064698708643e+000,-2.29315695381097e-002

2.05622765331213e+004,-8.95064698303687e+000,-2.32516823242190e-002

2.08493152168224e+004,-8.95064697887327e+000,-2.35762637196695e-002

2.11403608112276e+004,-8.95064697459275e+000,-2.39053761020753e-002

2.14354692507258e+004,-8.95064697019189e+000,-2.42390827223014e-002

2.17346972505211e+004,-8.95064696566761e+000,-2.45774477117416e-002

2.20381023175322e+004,-8.95064696101564e+000,-2.49205361036775e-002

2.23457427614443e+004,-8.95064695623308e+000,-2.52684138301885e-002

2.26576777059159e+004,-8.95064695131577e+000,-2.56211477509897e-002

2.29739670999406e+004,-8.95064694626056e+000,-2.59788056517721e-002

2.32946717293690e+004,-8.95064694106327e+000,-2.63414562711139e-002

2.36198532285905e+004,-8.95064693571959e+000,-2.67091693062610e-002

2.39495740923785e+004,-8.95064693022568e+000,-2.70820154244019e-002

2.42838976879009e+004,-8.95064692457779e+000,-2.74600662779355e-002

2.46228882668982e+004,-8.95064691877063e+000,-2.78433945279835e-002

2.49666109780322e+004,-8.95064691280044e+000,-2.82320738400902e-002

2.53151318794055e+004,-8.95064690666228e+000,-2.86261789142056e-002

2.56685179512580e+004,-8.95064690035139e+000,-2.90257854918451e-002

2.60268371088386e+004,-8.95064689386322e+000,-2.94309703687568e-002

2.63901582154578e+004,-8.95064688719260e+000,-2.98418114164060e-002

2.67585510957221e+004,-8.95064688033465e+000,-3.02583875908116e-002

2.71320865489533e+004,-8.95064687328394e+000,-3.06807789519593e-002

2.75108363627948e+004,-8.95064686603492e+000,-3.11090666776960e-002

2.78948733270080e+004,-8.95064685858187e+000,-3.15433330795563e-002

2.82842712474618e+004,-8.95064685091952e+000,-3.19836616134413e-002

2.86791049603164e+004,-8.95064684304183e+000,-3.24301369046594e-002

2.90794503464061e+004,-8.95064683494222e+000,-3.28828447622067e-002

2.94853843458219e+004,-8.95064682661542e+000,-3.33418721831621e-002

2.98969849726987e+004,-8.95064681805424e+000,-3.38073073905950e-002

3.03143313302078e+004,-8.95064680925246e+000,-3.42792398314859e-002

3.07375036257601e+004,-8.95064680020326e+000,-3.47577602042846e-002

3.11665831864199e+004,-8.95064679089962e+000,-3.52429604735923e-002

3.16016524745350e+004,-8.95064678133438e+000,-3.57349338871968e-002

3.20427951035848e+004,-8.95064677150009e+000,-3.62337749954310e-002

3.24900958542493e+004,-8.95064676138955e+000,-3.67395796653331e-002

3.29436406907028e+004,-8.95064675099453e+000,-3.72524451078039e-002

3.34035167771346e+004,-8.95064674030747e+000,-3.77724698846481e-002

3.38698124945009e+004,-8.95064672931992e+000,-3.82997539380640e-002

3.43426174575100e+004,-8.95064671802359e+000,-3.88343986026713e-002

3.48220225318448e+004,-8.95064670640949e+000,-3.93765066309813e-002

3.53081198516260e+004,-8.95064669446885e+000,-3.99261822065842e-002

3.58010028371187e+004,-8.95064668219270e+000,-4.04835309672924e-002

3.63007662126863e+004,-8.95064666957107e+000,-4.10486600300282e-002

3.68075060249948e+004,-8.95064665659486e+000,-4.16216780001832e-002

3.73213196614721e+004,-8.95064664325396e+000,-4.22026950035559e-002

3.78423058690237e+004,-8.95064662953775e+000,-4.27918227047922e-002

3.83705647730104e+004,-8.95064661543610e+000,-4.33891743227732e-002

3.89061978964912e+004,-8.95064660093805e+000,-4.39948646596029e-002

3.94493081797342e+004,-8.95064658603229e+000,-4.46090101206906e-002

3.99999999999998e+004,-8.95064657070734e+000,-4.52317287354043e-002

4.05583791916010e+004,-8.95064655495172e+000,-4.58631401785307e-002

4.11245530662425e+004,-8.95064653875300e+000,-4.65033657996256e-002

4.16986304336447e+004,-8.95064652209882e+000,-4.71525286394567e-002

4.22807216224550e+004,-8.95064650497670e+000,-4.78107534550122e-002

4.28709385014515e+004,-8.95064648737318e+000,-4.84781667486096e-002

4.34693945010421e+004,-8.95064646927455e+000,-4.91548967879657e-002

4.40762046350642e+004,-8.95064645066722e+000,-4.98410736280763e-002

4.46914855228886e+004,-8.95064643153680e+000,-5.05368291418199e-002

4.53153554118317e+004,-8.95064641186867e+000,-5.12422970419839e-002

4.59479341998812e+004,-8.95064639164724e+000,-5.19576129118916e-002

4.65893434587380e+004,-8.95064637085755e+000,-5.26829142201065e-002

4.72397064571810e+004,-8.95064634948325e+000,-5.34183403605178e-002

4.78991481847569e+004,-8.95064632750816e+000,-5.41640326696536e-002

4.85677953758016e+004,-8.95064630491534e+000,-5.49201344574022e-002

4.92457765337964e+004,-8.95064628168730e+000,-5.56867910362687e-002

4.99332219560642e+004,-8.95064625780618e+000,-5.64641497455045e-002

5.06302637588109e+004,-8.95064623325340e+000,-5.72523599828136e-002

5.13370359025159e+004,-8.95064620801076e+000,-5.80515732256906e-002

5.20536742176771e+004,-8.95064618205826e+000,-5.88619430744592e-002

5.27803164309155e+004,-8.95064615537624e+000,-5.96836252677807e-002

5.35171021914442e+004,-8.95064612794414e+000,-6.05167777203955e-002

5.42641730979066e+004,-8.95064609974057e+000,-6.13615605533676e-002

5.50216727255895e+004,-8.95064607074422e+000,-6.22181361183615e-002

5.57897466540159e+004,-8.95064604093279e+000,-6.30866690363340e-002

5.65685424949235e+004,-8.95064601028307e+000,-6.39673262274894e-002

5.73582099206328e+004,-8.95064597877169e+000,-6.48602769395603e-002

5.81589006928121e+004,-8.95064594637457e+000,-6.57656927827762e-002

5.89707686916437e+004,-8.95064591306635e+000,-6.66837477670475e-002

5.97939699453972e+004,-8.95064587882193e+000,-6.76146183252580e-002

6.06286626604156e+004,-8.95064584361482e+000,-6.85584833571548e-002

6.14750072515201e+004,-8.95064580741774e+000,-6.95155242608587e-002

6.23331663728396e+004,-8.95064577020319e+000,-7.04859249625803e-002

6.32033049490698e+004,-8.95064573194218e+000,-7.14698719608331e-002

6.40855902071694e+004,-8.95064569260561e+000,-7.24675543532262e-002

6.49801917084985e+004,-8.95064565216309e+000,-7.34791638797598e-002

6.58872813814055e+004,-8.95064561058366e+000,-7.45048949558059e-002

6.68070335542691e+004,-8.95064556783542e+000,-7.55449447102223e-002

6.77396249890018e+004,-8.95064552388511e+000,-7.65995130273650e-002

6.86852349150199e+004,-8.95064547869931e+000,-7.76688025770173e-002

6.96440450636895e+004,-8.95064543224296e+000,-7.87530188620896e-002

7.06162397032520e+004,-8.95064538448090e+000,-7.98523702489860e-002

7.16020056742374e+004,-8.95064533537570e+000,-8.09670680205880e-002

7.26015324253724e+004,-8.95064528489020e+000,-8.20973264011448e-002

7.36150120499896e+004,-8.95064523298535e+000,-8.32433626105950e-002

7.46426393229441e+004,-8.95064517962121e+000,-8.44053968998962e-002

7.56846117380472e+004,-8.95064512475678e+000,-8.55836525943019e-002

7.67411295460207e+004,-8.95064506834991e+000,-8.67783561361584e-002

7.78123957929823e+004,-8.95064501035714e+000,-8.79897371303401e-002

7.88986163594682e+004,-8.95064495073406e+000,-8.92180283843751e-002

7.99999999999995e+004,-8.95064488943490e+000,-9.04634659570167e-002

8.11167583832018e+004,-8.95064482641242e+000,-9.17262892033326e-002

8.22491061324848e+004,-8.95064476161795e+000,-9.30067408200700e-002

8.33972608672892e+004,-8.95064469500161e+000,-9.43050668910673e-002

8.45614432449099e+004,-8.95064462651278e+000,-9.56215169313625e-002

8.57418770029029e+004,-8.95064455609847e+000,-9.69563439447436e-002

8.69387890020841e+004,-8.95064448370433e+000,-9.83098044665514e-002

8.81524092701283e+004,-8.95064440927505e+000,-9.96821586091718e-002

8.93829710457770e+004,-8.95064433275336e+000,-1.01073670118583e-001

9.06307108236633e+004,-8.95064425408021e+000,-1.02484606424377e-001

9.18958683997622e+004,-8.95064417319545e+000,-1.03915238684553e-001

9.31786869174758e+004,-8.95064409003651e+000,-1.05365841848372e-001

9.44794129143618e+004,-8.95064400453989e+000,-1.06836694696777e-001

9.57982963695136e+004,-8.95064391663928e+000,-1.08328079909829e-001

9.71355907516031e+004,-8.95064382626776e+000,-1.09840284105030e-001

9.84915530675926e+004,-8.95064373335541e+000,-1.11373597908784e-001

9.98664439121282e+004,-8.95064363783100e+000,-1.12928315999709e-001

1.01260527517622e+005,-8.95064353962106e+000,-1.14504737171640e-001

1.02674071805032e+005,-8.95064343865001e+000,-1.16103164390223e-001

1.04107348435354e+005,-8.95064333484020e+000,-1.17723904849551e-001

1.05560632861831e+005,-8.95064322811206e+000,-1.19367270030370e-001

1.07034204382888e+005,-8.95064311838319e+000,-1.21033575765904e-001

1.08528346195813e+005,-8.95064300556964e+000,-1.22723142292607e-001

1.10043345451179e+005,-8.95064288958449e+000,-1.24436294321781e-001

1.11579493308032e+005,-8.95064277033829e+000,-1.26173361098144e-001

1.13137084989847e+005,-8.95064264773979e+000,-1.27934676457506e-001

1.14716419841265e+005,-8.95064252169463e+000,-1.29720578900107e-001

1.16317801385624e+005,-8.95064239210584e+000,-1.31531411650469e-001

1.17941537383287e+005,-8.95064225887375e+000,-1.33367522724918e-001

1.19587939890794e+005,-8.95064212189620e+000,-1.35229264995595e-001

1.21257325320831e+005,-8.95064198106750e+000,-1.37116996264963e-001

1.22950014503040e+005,-8.95064183627963e+000,-1.39031079326349e-001

1.24666332745679e+005,-8.95064168742125e+000,-1.40971882038974e-001

1.26406609898139e+005,-8.95064153437776e+000,-1.42939777398512e-001

1.28171180414339e+005,-8.95064137703189e+000,-1.44935143603879e-001

1.29960383416997e+005,-8.95064121526226e+000,-1.46958364138401e-001

1.31774562762811e+005,-8.95064104894468e+000,-1.49009827835507e-001

1.33614067108538e+005,-8.95064087795135e+000,-1.51089928956968e-001

1.35479249978003e+005,-8.95064070215064e+000,-1.53199067269918e-001

1.37370469830040e+005,-8.95064052140767e+000,-1.55337648119268e-001

1.39288090127379e+005,-8.95064033558325e+000,-1.57506082511827e-001

1.41232479406504e+005,-8.95064014453456e+000,-1.59704787190180e-001

1.43204011348474e+005,-8.95063994811483e+000,-1.61934184713977e-001

1.45203064850745e+005,-8.95063974617311e+000,-1.64194703541993e-001

1.47230024099979e+005,-8.95063953855384e+000,-1.66486778117049e-001

1.49285278645888e+005,-8.95063932509776e+000,-1.68810848941781e-001

1.51369223476094e+005,-8.95063910564062e+000,-1.71167362671328e-001

1.53482259092041e+005,-8.95063888001363e+000,-1.73556772196528e-001

1.55624791585964e+005,-8.95063864804344e+000,-1.75979536728231e-001

1.57797232718936e+005,-8.95063840955178e+000,-1.78436121888816e-001

1.59999999999999e+005,-8.95063816435515e+000,-1.80926999801341e-001

1.62233516766403e+005,-8.95063791226520e+000,-1.83452649178595e-001

1.64498212264969e+005,-8.95063765308807e+000,-1.86013555416708e-001

1.66794521734578e+005,-8.95063738662428e+000,-1.88610210689377e-001

1.69122886489819e+005,-8.95063711266953e+000,-1.91243114035953e-001

1.71483754005805e+005,-8.95063683101270e+000,-1.93912771468913e-001

1.73877578004168e+005,-8.95063654143742e+000,-1.96619696060243e-001

1.76304818540256e+005,-8.95063624372120e+000,-1.99364408045120e-001

1.78765942091554e+005,-8.95063593763508e+000,-2.02147434921921e-001

1.81261421647326e+005,-8.95063562294366e+000,-2.04969311553422e-001

1.83791736799524e+005,-8.95063529940509e+000,-2.07830580267415e-001

1.86357373834951e+005,-8.95063496677077e+000,-2.10731790962927e-001

1.88958825828723e+005,-8.95063462478476e+000,-2.13673501217265e-001

1.91596592739027e+005,-8.95063427318438e+000,-2.16656276388779e-001

1.94271181503206e+005,-8.95063391169911e+000,-2.19680689731008e-001

1.96983106135185e+005,-8.95063354005115e+000,-2.22747322498665e-001

1.99732887824256e+005,-8.95063315795488e+000,-2.25856764059830e-001

2.02521055035243e+005,-8.95063276511628e+000,-2.29009612013376e-001

2.05348143610063e+005,-8.95063236123376e+000,-2.32206472295903e-001

2.08214696870707e+005,-8.95063194599640e+000,-2.35447959308629e-001

2.11121265723661e+005,-8.95063151908535e+000,-2.38734696024405e-001

2.14068408765776e+005,-8.95063108017227e+000,-2.42067314116255e-001

2.17056692391625e+005,-8.95063062891966e+000,-2.45446454075475e-001

2.20086690902357e+005,-8.95063016498067e+000,-2.48872765332888e-001

2.23158986616063e+005,-8.95062968799879e+000,-2.52346906386037e-001

2.26274169979693e+005,-8.95062919760712e+000,-2.55869544926845e-001

2.29432839682530e+005,-8.95062869342883e+000,-2.59441357965622e-001

2.32635602771247e+005,-8.95062817507615e+000,-2.63063031967117e-001

2.35883074766574e+005,-8.95062764215073e+000,-2.66735262976415e-001

2.39175879781588e+005,-8.95062709424282e+000,-2.70458756757150e-001

2.42514650641661e+005,-8.95062653093124e+000,-2.74234228925085e-001

2.45900029006080e+005,-8.95062595178290e+000,-2.78062405086816e-001

2.49332665491357e+005,-8.95062535635263e+000,-2.81944020977757e-001

2.52813219796278e+005,-8.95062474418275e+000,-2.85879822604435e-001

2.56342360828676e+005,-8.95062411480245e+000,-2.89870566389706e-001

2.59920766833993e+005,-8.95062346772812e+000,-2.93917019313790e-001

2.63549125525621e+005,-8.95062280246209e+000,-2.98019959067135e-001

2.67228134217075e+005,-8.95062211849313e+000,-3.02180174194061e-001

2.70958499956006e+005,-8.95062141529537e+000,-3.06398464249857e-001

2.74740939660078e+005,-8.95062069232822e+000,-3.10675639950791e-001

2.78576180254757e+005,-8.95061994903576e+000,-3.15012523332390e-001

2.82464958813007e+005,-8.95061918484681e+000,-3.19409947904113e-001

2.86408022696948e+005,-8.95061839917382e+000,-3.23868758813340e-001

2.90406129701488e+005,-8.95061759141275e+000,-3.28389813006588e-001

2.94460048199957e+005,-8.95061676094261e+000,-3.32973979393261e-001

2.98570557291775e+005,-8.95061590712514e+000,-3.37622139012366e-001

3.02738446952187e+005,-8.95061502930381e+000,-3.42335185205183e-001

3.06964518184081e+005,-8.95061412680383e+000,-3.47114023783224e-001

3.11249583171928e+005,-8.95061319893142e+000,-3.51959573203904e-001

3.15594465437872e+005,-8.95061224497339e+000,-3.56872764747025e-001

3.19999999999997e+005,-8.95061126419611e+000,-3.61854542695766e-001

3.24467033532806e+005,-8.95061025584589e+000,-3.66905864513306e-001

3.28996424529938e+005,-8.95060921914741e+000,-3.72027701032741e-001

3.33589043469155e+005,-8.95060815330383e+000,-3.77221036638803e-001

3.38245772979638e+005,-8.95060705749565e+000,-3.82486869461489e-001

3.42967508011610e+005,-8.95060593088057e+000,-3.87826211563820e-001

3.47755156008335e+005,-8.95060477259255e+000,-3.93240089139383e-001

3.52609637080511e+005,-8.95060358174113e+000,-3.98729542708609e-001

3.57531884183106e+005,-8.95060235741072e+000,-4.04295627319734e-001

3.62522843294651e+005,-8.95060109866039e+000,-4.09939412748465e-001

3.67583473599047e+005,-8.95059980452218e+000,-4.15661983709309e-001

3.72714747669902e+005,-8.95059847400156e+000,-4.21464440057615e-001

3.77917651657445e+005,-8.95059710607550e+000,-4.27347897006995e-001

3.83193185478053e+005,-8.95059569969256e+000,-4.33313485339508e-001

3.88542363006410e+005,-8.95059425377146e+000,-4.39362351626268e-001

3.93966212270369e+005,-8.95059276720086e+000,-4.45495658444075e-001

3.99465775648511e+005,-8.95059123883778e+000,-4.51714584604264e-001

4.05042110070485e+005,-8.95058966750740e+000,-4.58020325374362e-001

4.10696287220124e+005,-8.95058805200194e+000,-4.64414092709834e-001

4.16429393741414e+005,-8.95058639107934e+000,-4.70897115489072e-001

4.22242531447321e+005,-8.95058468346281e+000,-4.77470639747412e-001

4.28136817531551e+005,-8.95058292783981e+000,-4.84135928915908e-001

4.34113384783250e+005,-8.95058112286057e+000,-4.90894264068310e-001

4.40173381804713e+005,-8.95057926713773e+000,-4.97746944162559e-001

4.46317973232124e+005,-8.95057735924467e+000,-5.04695286294626e-001

4.52548339959385e+005,-8.95057539771479e+000,-5.11740625949688e-001

4.58865679365059e+005,-8.95057338104017e+000,-5.18884317259814e-001

4.65271205542494e+005,-8.95057130767072e+000,-5.26127733263204e-001

4.71766149533147e+005,-8.95056917601236e+000,-5.33472266171252e-001

4.78351759563174e+005,-8.95056698442663e+000,-5.40919327632211e-001

4.85029301283321e+005,-8.95056473122889e+000,-5.48470349005452e-001

4.91800058012158e+005,-8.95056241468691e+000,-5.56126781637492e-001

4.98665330982714e+005,-8.95056003302012e+000,-5.63890097138159e-001

5.05626439592555e+005,-8.95055758439756e+000,-5.71761787667153e-001

5.12684721657352e+005,-8.95055506693716e+000,-5.79743366217584e-001

5.19841533667984e+005,-8.95055247870360e+000,-5.87836366910666e-001

5.27098251051240e+005,-8.95054981770733e+000,-5.96042345288570e-001

5.34456268434150e+005,-8.95054708190293e+000,-6.04362878613228e-001

5.41916999912011e+005,-8.95054426918732e+000,-6.12799566172538e-001

