Freq.,VOut,OutRef

1.00000000000000e+004,-4.27294200515886e+001,-4.44372066945991e-001

1.01395947979003e+004,-4.27294229837039e+001,-4.50575211904328e-001

1.02811382665607e+004,-4.27294259982507e+001,-4.56864947078672e-001

1.04246576084112e+004,-4.27294290975459e+001,-4.63242481120206e-001

1.05701804056138e+004,-4.27294322839721e+001,-4.69709039546208e-001

1.07177346253629e+004,-4.27294355599789e+001,-4.76265864976544e-001

1.08673486252606e+004,-4.27294389280847e+001,-4.82914217373566e-001

1.10190511587661e+004,-4.27294423908783e+001,-4.89655374283516e-001

1.11728713807222e+004,-4.27294459510220e+001,-4.96490631079700e-001

1.13288388529580e+004,-4.27294496112523e+001,-5.03421301213332e-001

1.14869835499703e+004,-4.27294533743828e+001,-5.10448716466457e-001

1.16473358646846e+004,-4.27294572433065e+001,-5.17574227203444e-001

1.18099266142953e+004,-4.27294612209974e+001,-5.24799202635148e-001

1.19747870461893e+004,-4.27294653105130e+001,-5.32125031078413e-001

1.21419488439505e+004,-4.27294695149972e+001,-5.39553120223822e-001

1.23114441334492e+004,-4.27294738376819e+001,-5.47084897405551e-001

1.24833054890161e+004,-4.27294782818899e+001,-5.54721809875507e-001

1.26575659397028e+004,-4.27294828510376e+001,-5.62465325079775e-001

1.28342589756290e+004,-4.27294875486372e+001,-5.70316930943329e-001

1.30134185544193e+004,-4.27294923782997e+001,-5.78278136151144e-001

1.31950791077289e+004,-4.27294973437377e+001,-5.86350470442363e-001

1.33792755478611e+004,-4.27295024487681e+001,-5.94535484899743e-001

1.35660432744767e+004,-4.27295076973152e+001,-6.02834752249187e-001

1.37554181813974e+004,-4.27295130934132e+001,-6.11249867162638e-001

1.39474366635040e+004,-4.27295186412102e+001,-6.19782446561099e-001

1.41421356237309e+004,-4.27295243449707e+001,-6.28434129926606e-001

1.43395524801583e+004,-4.27295302090790e+001,-6.37206579617311e-001

1.45397251732031e+004,-4.27295362380428e+001,-6.46101481184382e-001

1.47426921729110e+004,-4.27295424364963e+001,-6.55120543697345e-001

1.49484924863494e+004,-4.27295488092042e+001,-6.64265500069886e-001

1.51571656651040e+004,-4.27295553610649e+001,-6.73538107394312e-001

1.53687518128801e+004,-4.27295620971146e+001,-6.82940147276414e-001

1.55832915932100e+004,-4.27295690225311e+001,-6.92473426178836e-001

1.58008262372675e+004,-4.27295761426377e+001,-7.02139775765721e-001

1.60213975517924e+004,-4.27295834629073e+001,-7.11941053255802e-001

1.62450479271247e+004,-4.27295909889667e+001,-7.21879141777091e-001

1.64718203453514e+004,-4.27295987266006e+001,-7.31955950728776e-001

1.67017583885674e+004,-4.27296066817568e+001,-7.42173416145634e-001

1.69349062472505e+004,-4.27296148605499e+001,-7.52533501071147e-001

1.71713087287550e+004,-4.27296232692663e+001,-7.63038195933025e-001

1.74110112659224e+004,-4.27296319143693e+001,-7.73689518924344e-001

1.76540599258131e+004,-4.27296408025039e+001,-7.84489516389431e-001

1.79005014185594e+004,-4.27296499405016e+001,-7.95440263218150e-001

1.81503831063432e+004,-4.27296593353863e+001,-8.06543863242190e-001

1.84037530124975e+004,-4.27296689943789e+001,-8.17802449637480e-001

1.86606598307361e+004,-4.27296789249037e+001,-8.29218185334205e-001

1.89211529345119e+004,-4.27296891345931e+001,-8.40793263430597e-001

1.91852823865052e+004,-4.27296996312944e+001,-8.52529907612783e-001

1.94530989482457e+004,-4.27297104230755e+001,-8.64430372580293e-001

1.97246540898671e+004,-4.27297215182310e+001,-8.76496944478307e-001

1.99999999999999e+004,-4.27297329252883e+001,-8.88731941336173e-001

2.02791895958005e+004,-4.27297446530148e+001,-9.01137713509652e-001

2.05622765331213e+004,-4.27297567104243e+001,-9.13716644132273e-001

2.08493152168224e+004,-4.27297691067838e+001,-9.26471149569515e-001

2.11403608112276e+004,-4.27297818516207e+001,-9.39403679884024e-001

2.14354692507258e+004,-4.27297949547303e+001,-9.52516719302261e-001

2.17346972505211e+004,-4.27298084261830e+001,-9.65812786691612e-001

2.20381023175322e+004,-4.27298222763325e+001,-9.79294436039699e-001

2.23457427614443e+004,-4.27298365158232e+001,-9.92964256946299e-001

2.26576777059159e+004,-4.27298511555987e+001,-1.00682487511569e+000

2.29739670999406e+004,-4.27298662069101e+001,-1.02087895286107e+000

2.32946717293690e+004,-4.27298816813248e+001,-1.03512918961192e+000

2.36198532285905e+004,-4.27298975907353e+001,-1.04957832243110e+000

2.39495740923785e+004,-4.27299139473680e+001,-1.06422912653844e+000

2.42838976879009e+004,-4.27299307637931e+001,-1.07908441584027e+000

2.46228882668982e+004,-4.27299480529340e+001,-1.09414704346695e+000

2.49666109780322e+004,-4.27299658280774e+001,-1.10941990231926e+000

2.53151318794055e+004,-4.27299841028829e+001,-1.12490592562051e+000

2.56685179512580e+004,-4.27300028913943e+001,-1.14060808747705e+000

2.60268371088386e+004,-4.27300222080500e+001,-1.15652940344469e+000

2.63901582154578e+004,-4.27300420676939e+001,-1.17267293110768e+000

2.67585510957221e+004,-4.27300624855871e+001,-1.18904177065941e+000

2.71320865489533e+004,-4.27300834774197e+001,-1.20563906549533e+000

2.75108363627948e+004,-4.27301050593221e+001,-1.22246800281434e+000

2.78948733270080e+004,-4.27301272478785e+001,-1.23953181422333e+000

2.82842712474618e+004,-4.27301500601387e+001,-1.25683377635786e+000

2.86791049603164e+004,-4.27301735136317e+001,-1.27437721150338e+000

2.90794503464061e+004,-4.27301976263789e+001,-1.29216548823199e+000

2.94853843458219e+004,-4.27302224169078e+001,-1.31020202204218e+000

2.98969849726987e+004,-4.27302479042667e+001,-1.32849027601102e+000

3.03143313302078e+004,-4.27302741080391e+001,-1.34703376145323e+000

3.07375036257601e+004,-4.27303010483584e+001,-1.36583603859165e+000

3.11665831864199e+004,-4.27303287459236e+001,-1.38490071723389e+000

3.16016524745350e+004,-4.27303572220154e+001,-1.40423145745972e+000

3.20427951035848e+004,-4.27303864985120e+001,-1.42383197031958e+000

3.24900958542493e+004,-4.27304165979065e+001,-1.44370601853780e+000

3.29436406907028e+004,-4.27304475433235e+001,-1.46385741723173e+000

3.34035167771346e+004,-4.27304793585373e+001,-1.48429003463532e+000

3.38698124945009e+004,-4.27305120679901e+001,-1.50500779283549e+000

3.43426174575100e+004,-4.27305456968103e+001,-1.52601466851719e+000

3.48220225318448e+004,-4.27305802708325e+001,-1.54731469371957e+000

3.53081198516260e+004,-4.27306158166165e+001,-1.56891195660190e+000

3.58010028371187e+004,-4.27306523614683e+001,-1.59081060222021e+000

3.63007662126863e+004,-4.27306899334606e+001,-1.61301483331314e+000

3.68075060249948e+004,-4.27307285614547e+001,-1.63552891110101e+000

3.73213196614721e+004,-4.27307682751220e+001,-1.65835715609372e+000

3.78423058690237e+004,-4.27308091049678e+001,-1.68150394890903e+000

3.83705647730104e+004,-4.27308510823534e+001,-1.70497373110528e+000

3.89061978964912e+004,-4.27308942395210e+001,-1.72877100602062e+000

3.94493081797342e+004,-4.27309386096180e+001,-1.75290033962840e+000

3.99999999999998e+004,-4.27309842267228e+001,-1.77736636139963e+000

4.05583791916010e+004,-4.27310311258703e+001,-1.80217376518071e+000

4.11245530662425e+004,-4.27310793430793e+001,-1.82732731008076e+000

4.16986304336447e+004,-4.27311289153797e+001,-1.85283182137158e+000

4.22807216224550e+004,-4.27311798808410e+001,-1.87869219140044e+000

4.28709385014515e+004,-4.27312322786016e+001,-1.90491338051309e+000

4.34693945010421e+004,-4.27312861488980e+001,-1.93150041799238e+000

4.40762046350642e+004,-4.27313415330970e+001,-1.95845840300526e+000

4.46914855228886e+004,-4.27313984737260e+001,-1.98579250556635e+000

4.53153554118317e+004,-4.27314570145061e+001,-2.01350796751220e+000

4.59479341998812e+004,-4.27315172003857e+001,-2.04161010348910e+000

4.65893434587380e+004,-4.27315790775746e+001,-2.07010430195453e+000

4.72397064571810e+004,-4.27316426935795e+001,-2.09899602619023e+000

4.78991481847569e+004,-4.27317080972402e+001,-2.12829081533133e+000

4.85677953758016e+004,-4.27317753387670e+001,-2.15799428540714e+000

4.92457765337964e+004,-4.27318444697791e+001,-2.18811213039650e+000

4.99332219560642e+004,-4.27319155433443e+001,-2.21865012329657e+000

5.06302637588109e+004,-4.27319886140189e+001,-2.24961411720674e+000

5.13370359025159e+004,-4.27320637378901e+001,-2.28101004642583e+000

5.20536742176771e+004,-4.27321409726183e+001,-2.31284392756444e+000

5.27803164309155e+004,-4.27322203774818e+001,-2.34512186067052e+000

5.35171021914442e+004,-4.27323020134212e+001,-2.37785003037278e+000

5.42641730979066e+004,-4.27323859430866e+001,-2.41103470703522e+000

5.50216727255895e+004,-4.27324722308852e+001,-2.44468224792908e+000

5.57897466540159e+004,-4.27325609430306e+001,-2.47879909842073e+000

5.65685424949235e+004,-4.27326521475929e+001,-2.51339179317220e+000

5.73582099206328e+004,-4.27327459145513e+001,-2.54846695735992e+000

5.81589006928121e+004,-4.27328423158469e+001,-2.58403130790851e+000

5.89707686916437e+004,-4.27329414254378e+001,-2.62009165473989e+000

5.97939699453972e+004,-4.27330433193555e+001,-2.65665490203937e+000

6.06286626604156e+004,-4.27331480757628e+001,-2.69372804953720e+000

6.14750072515201e+004,-4.27332557750134e+001,-2.73131819380734e+000

6.23331663728396e+004,-4.27333664997132e+001,-2.76943252958254e+000

6.32033049490698e+004,-4.27334803347831e+001,-2.80807835108609e+000

6.40855902071694e+004,-4.27335973675235e+001,-2.84726305338116e+000

6.49801917084985e+004,-4.27337176876812e+001,-2.88699413373577e+000

6.58872813814055e+004,-4.27338413875175e+001,-2.92727919300755e+000

6.68070335542691e+004,-4.27339685618780e+001,-2.96812593704339e+000

6.77396249890018e+004,-4.27340993082657e+001,-3.00954217809832e+000

6.86852349150199e+004,-4.27342337269140e+001,-3.05153583627158e+000

6.96440450636895e+004,-4.27343719208637e+001,-3.09411494096146e+000

7.06162397032520e+004,-4.27345139960411e+001,-3.13728763233691e+000

7.16020056742374e+004,-4.27346600613383e+001,-3.18106216282843e+000

7.26015324253724e+004,-4.27348102286960e+001,-3.22544689863760e+000

7.36150120499896e+004,-4.27349646131888e+001,-3.27045032126426e+000

7.46426393229441e+004,-4.27351233331118e+001,-3.31608102905343e+000

7.56846117380472e+004,-4.27352865100712e+001,-3.36234773876069e+000

7.67411295460207e+004,-4.27354542690758e+001,-3.40925928713655e+000

7.78123957929823e+004,-4.27356267386323e+001,-3.45682463253079e+000

7.88986163594682e+004,-4.27358040508421e+001,-3.50505285651502e+000

7.99999999999995e+004,-4.27359863415021e+001,-3.55395316552523e+000

8.11167583832018e+004,-4.27361737502068e+001,-3.60353489252538e+000

8.22491061324848e+004,-4.27363664204546e+001,-3.65380749868815e+000

8.33972608672892e+004,-4.27365644997558e+001,-3.70478057509785e+000

8.45614432449099e+004,-4.27367681397442e+001,-3.75646384447301e+000

8.57418770029029e+004,-4.27369774962923e+001,-3.80886716290722e+000

8.69387890020841e+004,-4.27371927296281e+001,-3.86200052163359e+000

8.81524092701283e+004,-4.27374140044570e+001,-3.91587404880754e+000

8.93829710457770e+004,-4.27376414900854e+001,-3.97049801130956e+000

9.06307108236633e+004,-4.27378753605489e+001,-4.02588281657038e+000

9.18958683997622e+004,-4.27381157947430e+001,-4.08203901441642e+000

9.31786869174758e+004,-4.27383629765584e+001,-4.13897729893483e+000

9.44794129143618e+004,-4.27386170950191e+001,-4.19670851036098e+000

9.57982963695136e+004,-4.27388783444248e+001,-4.25524363698678e+000

9.71355907516031e+004,-4.27391469244970e+001,-4.31459381708852e+000

9.84915530675926e+004,-4.27394230405293e+001,-4.37477034087823e+000

9.98664439121282e+004,-4.27397069035411e+001,-4.43578465247449e+000

1.01260527517622e+005,-4.27399987304366e+001,-4.49764835189502e+000

1.02674071805032e+005,-4.27402987441673e+001,-4.56037319707076e+000

1.04107348435354e+005,-4.27406071738988e+001,-4.62397110588095e+000

1.05560632861831e+005,-4.27409242551830e+001,-4.68845415821020e+000

1.07034204382888e+005,-4.27412502301341e+001,-4.75383459802509e+000

1.08528346195813e+005,-4.27415853476098e+001,-4.82012483547524e+000

1.10043345451179e+005,-4.27419298633972e+001,-4.88733744901181e+000

1.11579493308032e+005,-4.27422840404040e+001,-4.95548518753117e+000

1.13137084989847e+005,-4.27426481488546e+001,-5.02458097253638e+000

1.14716419841265e+005,-4.27430224664914e+001,-5.09463790032251e+000

1.16317801385624e+005,-4.27434072787819e+001,-5.16566924418100e+000

1.17941537383287e+005,-4.27438028791312e+001,-5.23768845662665e+000

1.19587939890794e+005,-4.27442095691000e+001,-5.31070917164401e+000

1.21257325320831e+005,-4.27446276586286e+001,-5.38474520695593e+000

1.22950014503040e+005,-4.27450574662672e+001,-5.45981056631198e+000

1.24666332745679e+005,-4.27454993194117e+001,-5.53591944179689e+000

1.26406609898139e+005,-4.27459535545464e+001,-5.61308621616010e+000

1.28171180414339e+005,-4.27464205174929e+001,-5.69132546516502e+000

1.29960383416997e+005,-4.27469005636658e+001,-5.77065195995770e+000

1.31774562762811e+005,-4.27473940583347e+001,-5.85108066945646e+000

1.33614067108538e+005,-4.27479013768940e+001,-5.93262676275813e+000

1.35479249978003e+005,-4.27484229051389e+001,-6.01530561156657e+000

1.37370469830040e+005,-4.27489590395498e+001,-6.09913279263691e+000

1.39288090127379e+005,-4.27495101875829e+001,-6.18412409024034e+000

1.41232479406504e+005,-4.27500767679696e+001,-6.27029549864508e+000

1.43204011348474e+005,-4.27506592110231e+001,-6.35766322461597e+000

1.45203064850745e+005,-4.27512579589534e+001,-6.44624368993015e+000

1.47230024099979e+005,-4.27518734661904e+001,-6.53605353391046e+000

1.49285278645888e+005,-4.27525061997153e+001,-6.62710961597392e+000

1.51369223476094e+005,-4.27531566394012e+001,-6.71942901819547e+000

1.53482259092041e+005,-4.27538252783617e+001,-6.81302904788778e+000

1.55624791585964e+005,-4.27545126233094e+001,-6.90792724019394e+000

1.57797232718936e+005,-4.27552191949231e+001,-7.00414136069440e+000

1.59999999999999e+005,-4.27559455282248e+001,-7.10168940802702e+000

1.62233516766403e+005,-4.27566921729665e+001,-7.20058961651819e+000

1.64498212264969e+005,-4.27574596940263e+001,-7.30086045882625e+000

1.66794521734578e+005,-4.27582486718158e+001,-7.40252064859462e+000

1.69122886489819e+005,-4.27590597026964e+001,-7.50558914311456e+000

1.71483754005805e+005,-4.27598933994080e+001,-7.61008514599691e+000

1.73877578004168e+005,-4.27607503915068e+001,-7.71602810985018e+000

1.76304818540256e+005,-4.27616313258159e+001,-7.82343773896639e+000

1.78765942091554e+005,-4.27625368668853e+001,-7.93233399201171e+000

1.81261421647326e+005,-4.27634676974659e+001,-8.04273708472025e+000

1.83791736799524e+005,-4.27644245189934e+001,-8.15466749259231e+000

1.86357373834951e+005,-4.27654080520848e+001,-8.26814595359269e+000

1.88958825828723e+005,-4.27664190370480e+001,-8.38319347085008e+000

1.91596592739027e+005,-4.27674582344034e+001,-8.49983131535440e+000

1.94271181503206e+005,-4.27685264254184e+001,-8.61808102865139e+000

1.96983106135185e+005,-4.27696244126552e+001,-8.73796442553316e+000

1.99732887824256e+005,-4.27707530205320e+001,-8.85950359672181e+000

2.02521055035243e+005,-4.27719130958980e+001,-8.98272091154508e+000

2.05348143610063e+005,-4.27731055086225e+001,-9.10763902060266e+000

2.08214696870707e+005,-4.27743311521975e+001,-9.23428085842009e+000

2.11121265723661e+005,-4.27755909443561e+001,-9.36266964608920e+000

2.14068408765776e+005,-4.27768858277042e+001,-9.49282889389199e+000

2.17056692391625e+005,-4.27782167703690e+001,-9.62478240390655e+000

2.20086690902357e+005,-4.27795847666607e+001,-9.75855427259233e+000

2.23158986616063e+005,-4.27809908377524e+001,-9.89416889335247e+000

2.26274169979693e+005,-4.27824360323735e+001,-1.00316509590699e+001

2.29432839682530e+005,-4.27839214275208e+001,-1.01710254646159e+001

2.32635602771247e+005,-4.27854481291857e+001,-1.03123177093271e+001

2.35883074766574e+005,-4.27870172730979e+001,-1.04555532994487e+001

2.39175879781588e+005,-4.27886300254862e+001,-1.06007581505400e+001

2.42514650641661e+005,-4.27902875838568e+001,-1.07479584898413e+001

2.45900029006080e+005,-4.27919911777891e+001,-1.08971808585958e+001

2.49332665491357e+005,-4.27937420697488e+001,-1.10484521143250e+001

2.52813219796278e+005,-4.27955415559198e+001,-1.12017994330548e+001

2.56342360828676e+005,-4.27973909670543e+001,-1.13572503114858e+001

2.59920766833993e+005,-4.27992916693407e+001,-1.15148325691069e+001

2.63549125525621e+005,-4.28012450652912e+001,-1.16745743502464e+001

2.67228134217075e+005,-4.28032525946482e+001,-1.18365041260574e+001

2.70958499956006e+005,-4.28053157353097e+001,-1.20006506964327e+001

2.74740939660078e+005,-4.28074360042745e+001,-1.21670431918446e+001

2.78576180254757e+005,-4.28096149586068e+001,-1.23357110751063e+001

2.82464958813007e+005,-4.28118541964211e+001,-1.25066841430473e+001

2.86408022696948e+005,-4.28141553578865e+001,-1.26799925281017e+001

2.90406129701488e+005,-4.28165201262521e+001,-1.28556666998008e+001

2.94460048199957e+005,-4.28189502288920e+001,-1.30337374661667e+001

2.98570557291775e+005,-4.28214474383712e+001,-1.32142359750010e+001

3.02738446952187e+005,-4.28240135735320e+001,-1.33971937150619e+001

3.06964518184081e+005,-4.28266505006018e+001,-1.35826425171262e+001

3.11249583171928e+005,-4.28293601343202e+001,-1.37706145549268e+001

3.15594465437872e+005,-4.28321444390888e+001,-1.39611423459632e+001

3.19999999999997e+005,-4.28350054301406e+001,-1.41542587521757e+001

3.24467033532806e+005,-4.28379451747312e+001,-1.43499969804773e+001

3.28996424529938e+005,-4.28409657933499e+001,-1.45483905831383e+001

3.33589043469155e+005,-4.28440694609532e+001,-1.47494734580133e+001

3.38245772979638e+005,-4.28472584082173e+001,-1.49532798486070e+001

3.42967508011610e+005,-4.28505349228129e+001,-1.51598443439681e+001

3.47755156008335e+005,-4.28539013506996e+001,-1.53692018784063e+001

3.52609637080511e+005,-4.28573600974409e+001,-1.55813877310227e+001

3.57531884183106e+005,-4.28609136295396e+001,-1.57964375250467e+001

3.62522843294651e+005,-4.28645644757929e+001,-1.60143872269703e+001

3.67583473599047e+005,-4.28683152286669e+001,-1.62352731454726e+001

3.72714747669902e+005,-4.28721685456909e+001,-1.64591319301246e+001

3.77917651657445e+005,-4.28761271508699e+001,-1.66860005698662e+001

3.83193185478053e+005,-4.28801938361165e+001,-1.69159163912458e+001

3.88542363006410e+005,-4.28843714626991e+001,-1.71489170564148e+001

3.93966212270369e+005,-4.28886629627093e+001,-1.73850405608654e+001

3.99465775648511e+005,-4.28930713405449e+001,-1.76243252309043e+001

4.05042110070485e+005,-4.28975996744089e+001,-1.78668097208508e+001

4.10696287220124e+005,-4.29022511178245e+001,-1.81125330099511e+001

4.16429393741414e+005,-4.29070289011640e+001,-1.83615343989979e+001

4.22242531447321e+005,-4.29119363331917e+001,-1.86138535066446e+001

4.28136817531551e+005,-4.29169768026190e+001,-1.88695302654059e+001

4.34113384783250e+005,-4.29221537796714e+001,-1.91286049173317e+001

4.40173381804713e+005,-4.29274708176660e+001,-1.93911180093462e+001

4.46317973232124e+005,-4.29329315545980e+001,-1.96571103882409e+001

4.52548339959385e+005,-4.29385397147355e+001,-1.99266231953097e+001

4.58865679365059e+005,-4.29442991102202e+001,-2.01996978606177e+001

4.65271205542494e+005,-4.29502136426742e+001,-2.04763760968920e+001

4.71766149533147e+005,-4.29562873048094e+001,-2.07566998930224e+001

4.78351759563174e+005,-4.29625241820390e+001,-2.10407115071647e+001

4.85029301283321e+005,-4.29689284540889e+001,-2.13284534594329e+001

4.91800058012158e+005,-4.29755043966076e+001,-2.16199685241717e+001

4.98665330982714e+005,-4.29822563827714e+001,-2.19152997217985e+001

5.05626439592555e+005,-4.29891888848845e+001,-2.22144903102046e+001

5.12684721657352e+005,-4.29963064759695e+001,-2.25175837757051e+001

5.19841533667984e+005,-4.30036138313487e+001,-2.28246238235296e+001

5.27098251051240e+005,-4.30111157302107e+001,-2.31356543678418e+001

5.34456268434150e+005,-4.30188170571625e+001,-2.34507195212804e+001

5.41916999912011e+005,-4.30267228037618e+001,-2.37698635840129e+001

