Freq.,VOut,OutRef

1.00000000000000e+004,-1.40425399967010e+001,-5.46330622968110e-002

1.01395947979003e+004,-1.40425400032098e+001,-5.53957114197314e-002

1.02811382665607e+004,-1.40425400099016e+001,-5.61690067269031e-002

1.04246576084112e+004,-1.40425400167816e+001,-5.69530968340710e-002

1.05701804056138e+004,-1.40425400238551e+001,-5.77481324301512e-002

1.07177346253629e+004,-1.40425400311273e+001,-5.85542663107666e-002

1.08673486252606e+004,-1.40425400386039e+001,-5.93716534005633e-002

1.10190511587661e+004,-1.40425400462909e+001,-6.02004507873394e-002

1.11728713807222e+004,-1.40425400541939e+001,-6.10408177552157e-002

1.13288388529580e+004,-1.40425400623190e+001,-6.18929158085888e-002

1.14869835499703e+004,-1.40425400706728e+001,-6.27569087054882e-002

1.16473358646846e+004,-1.40425400792613e+001,-6.36329624944062e-002

1.18099266142953e+004,-1.40425400880910e+001,-6.45212455396241e-002

1.19747870461893e+004,-1.40425400971692e+001,-6.54219285518986e-002

1.21419488439505e+004,-1.40425401065028e+001,-6.63351846291642e-002

1.23114441334492e+004,-1.40425401160985e+001,-6.72611892876122e-002

1.24833054890161e+004,-1.40425401259641e+001,-6.82001204881134e-002

1.26575659397028e+004,-1.40425401361070e+001,-6.91521586791884e-002

1.28342589756290e+004,-1.40425401465352e+001,-7.01174868272436e-002

1.30134185544193e+004,-1.40425401572564e+001,-7.10962904541501e-002

1.31950791077289e+004,-1.40425401682790e+001,-7.20887576702104e-002

1.33792755478611e+004,-1.40425401796116e+001,-7.30950792114808e-002

1.35660432744767e+004,-1.40425401912628e+001,-7.41154484767592e-002

1.37554181813974e+004,-1.40425402032415e+001,-7.51500615657709e-002

1.39474366635040e+004,-1.40425402155569e+001,-7.61991173151742e-002

1.41421356237309e+004,-1.40425402282188e+001,-7.72628173353634e-002

1.43395524801583e+004,-1.40425402412363e+001,-7.83413660550573e-002

1.45397251732031e+004,-1.40425402546200e+001,-7.94349707521984e-002

1.47426921729110e+004,-1.40425402683800e+001,-8.05438416010332e-002

1.49484924863494e+004,-1.40425402825269e+001,-8.16681917091753e-002

1.51571656651040e+004,-1.40425402970713e+001,-8.28082371596712e-002

1.53687518128801e+004,-1.40425403120247e+001,-8.39641970506087e-002

1.55832915932100e+004,-1.40425403273985e+001,-8.51362935391932e-002

1.58008262372675e+004,-1.40425403432046e+001,-8.63247518837022e-002

1.60213975517924e+004,-1.40425403594551e+001,-8.75298004869712e-002

1.62450479271247e+004,-1.40425403761622e+001,-8.87516709421382e-002

1.64718203453514e+004,-1.40425403933392e+001,-8.99905980711749e-002

1.67017583885674e+004,-1.40425404109991e+001,-9.12468199777912e-002

1.69349062472505e+004,-1.40425404291555e+001,-9.25205780869005e-002

1.71713087287550e+004,-1.40425404478222e+001,-9.38121171957769e-002

1.74110112659224e+004,-1.40425404670138e+001,-9.51216855178526e-002

1.76540599258131e+004,-1.40425404867449e+001,-9.64495347305062e-002

1.79005014185594e+004,-1.40425405070309e+001,-9.77959200252513e-002

1.81503831063432e+004,-1.40425405278869e+001,-9.91611001585251e-002

1.84037530124975e+004,-1.40425405493295e+001,-1.00545337493414e-001

1.86606598307361e+004,-1.40425405713748e+001,-1.01948898060195e-001

1.89211529345119e+004,-1.40425405940399e+001,-1.03372051601001e-001

1.91852823865052e+004,-1.40425406173423e+001,-1.04815071622653e-001

1.94530989482457e+004,-1.40425406412999e+001,-1.06278235450132e-001

1.97246540898671e+004,-1.40425406659308e+001,-1.07761824283122e-001

1.99999999999999e+004,-1.40425406912543e+001,-1.09266123242065e-001

2.02791895958005e+004,-1.40425407172895e+001,-1.10791421430888e-001

2.05622765331213e+004,-1.40425407440571e+001,-1.12338011984483e-001

2.08493152168224e+004,-1.40425407715770e+001,-1.13906192136808e-001

2.11403608112276e+004,-1.40425407998704e+001,-1.15496263266296e-001

2.14354692507258e+004,-1.40425408289595e+001,-1.17108530958509e-001

2.17346972505211e+004,-1.40425408588663e+001,-1.18743305066322e-001

2.20381023175322e+004,-1.40425408896140e+001,-1.20400899767365e-001

2.23457427614443e+004,-1.40425409212260e+001,-1.22081633626124e-001

2.26576777059159e+004,-1.40425409537268e+001,-1.23785829651101e-001

2.29739670999406e+004,-1.40425409871413e+001,-1.25513815364553e-001

2.32946717293690e+004,-1.40425410214952e+001,-1.27265922855432e-001

2.36198532285905e+004,-1.40425410568149e+001,-1.29042488852394e-001

2.39495740923785e+004,-1.40425410931277e+001,-1.30843854782667e-001

2.42838976879009e+004,-1.40425411304613e+001,-1.32670366840776e-001

2.46228882668982e+004,-1.40425411688445e+001,-1.34522376053560e-001

2.49666109780322e+004,-1.40425412083067e+001,-1.36400238347943e-001

2.53151318794055e+004,-1.40425412488784e+001,-1.38304314619159e-001

2.56685179512580e+004,-1.40425412905908e+001,-1.40234970799287e-001

2.60268371088386e+004,-1.40425413334759e+001,-1.42192577931217e-001

2.63901582154578e+004,-1.40425413775665e+001,-1.44177512236320e-001

2.67585510957221e+004,-1.40425414228968e+001,-1.46190155186781e-001

2.71320865489533e+004,-1.40425414695016e+001,-1.48230893580078e-001

2.75108363627948e+004,-1.40425415174164e+001,-1.50300119615346e-001

2.78948733270080e+004,-1.40425415666783e+001,-1.52398230964264e-001

2.82842712474618e+004,-1.40425416173253e+001,-1.54525630849919e-001

2.86791049603164e+004,-1.40425416693961e+001,-1.56682728125532e-001

2.90794503464061e+004,-1.40425417229309e+001,-1.58869937350449e-001

2.94853843458219e+004,-1.40425417779707e+001,-1.61087678872302e-001

2.98969849726987e+004,-1.40425418345578e+001,-1.63336378905707e-001

3.03143313302078e+004,-1.40425418927359e+001,-1.65616469614242e-001

3.07375036257601e+004,-1.40425419525494e+001,-1.67928389196288e-001

3.11665831864199e+004,-1.40425420140447e+001,-1.70272581965009e-001

3.16016524745350e+004,-1.40425420772688e+001,-1.72649498437500e-001

3.20427951035848e+004,-1.40425421422704e+001,-1.75059595419071e-001

3.24900958542493e+004,-1.40425422090995e+001,-1.77503336091649e-001

3.29436406907028e+004,-1.40425422778073e+001,-1.79981190104511e-001

3.34035167771346e+004,-1.40425423484468e+001,-1.82493633660672e-001

3.38698124945009e+004,-1.40425424210721e+001,-1.85041149612952e-001

3.43426174575100e+004,-1.40425424957394e+001,-1.87624227551727e-001

3.48220225318448e+004,-1.40425425725057e+001,-1.90243363904415e-001

3.53081198516260e+004,-1.40425426514304e+001,-1.92899062026429e-001

3.58010028371187e+004,-1.40425427325737e+001,-1.95591832302691e-001

3.63007662126863e+004,-1.40425428159985e+001,-1.98322192237914e-001

3.68075060249948e+004,-1.40425429017686e+001,-2.01090666565239e-001

3.73213196614721e+004,-1.40425429899500e+001,-2.03897787341331e-001

3.78423058690237e+004,-1.40425430806106e+001,-2.06744094048999e-001

3.83705647730104e+004,-1.40425431738199e+001,-2.09630133704194e-001

3.89061978964912e+004,-1.40425432696497e+001,-2.12556460956387e-001

3.94493081797342e+004,-1.40425433681737e+001,-2.15523638198891e-001

3.99999999999998e+004,-1.40425434694676e+001,-2.18532235676671e-001

4.05583791916010e+004,-1.40425435736092e+001,-2.21582831593333e-001

4.11245530662425e+004,-1.40425436806786e+001,-2.24676012224398e-001

4.16986304336447e+004,-1.40425437907583e+001,-2.27812372029284e-001

4.22807216224550e+004,-1.40425439039326e+001,-2.30992513767599e-001

4.28709385014515e+004,-1.40425440202886e+001,-2.34217048610240e-001

4.34693945010421e+004,-1.40425441399159e+001,-2.37486596261176e-001

4.40762046350642e+004,-1.40425442629065e+001,-2.40801785074285e-001

4.46914855228886e+004,-1.40425443893547e+001,-2.44163252176726e-001

4.53153554118317e+004,-1.40425445193578e+001,-2.47571643588354e-001

4.59479341998812e+004,-1.40425446530159e+001,-2.51027614346259e-001

4.65893434587380e+004,-1.40425447904316e+001,-2.54531828632640e-001

4.72397064571810e+004,-1.40425449317106e+001,-2.58084959901175e-001

4.78991481847569e+004,-1.40425450769615e+001,-2.61687691005999e-001

4.85677953758016e+004,-1.40425452262959e+001,-2.65340714334786e-001

4.92457765337964e+004,-1.40425453798287e+001,-2.69044731938857e-001

4.99332219560642e+004,-1.40425455376779e+001,-2.72800455670076e-001

5.06302637588109e+004,-1.40425456999649e+001,-2.76608607318482e-001

5.13370359025159e+004,-1.40425458668142e+001,-2.80469918749665e-001

5.20536742176771e+004,-1.40425460383546e+001,-2.84385132042958e-001

5.27803164309155e+004,-1.40425462147174e+001,-2.88354999641606e-001

5.35171021914442e+004,-1.40425463960385e+001,-2.92380284487458e-001

5.42641730979066e+004,-1.40425465824573e+001,-2.96461760175618e-001

5.50216727255895e+004,-1.40425467741170e+001,-3.00600211099686e-001

5.57897466540159e+004,-1.40425469711649e+001,-3.04796432602655e-001

5.65685424949235e+004,-1.40425471737527e+001,-3.09051231128614e-001

5.73582099206328e+004,-1.40425473820360e+001,-3.13365424382032e-001

5.81589006928121e+004,-1.40425475961749e+001,-3.17739841479383e-001

5.89707686916437e+004,-1.40425478163341e+001,-3.22175323111752e-001

5.97939699453972e+004,-1.40425480426828e+001,-3.26672721707472e-001

6.06286626604156e+004,-1.40425482753950e+001,-3.31232901591936e-001

6.14750072515201e+004,-1.40425485146498e+001,-3.35856739156615e-001

6.23331663728396e+004,-1.40425487606308e+001,-3.40545123028050e-001

6.32033049490698e+004,-1.40425490135273e+001,-3.45298954236231e-001

6.40855902071694e+004,-1.40425492735337e+001,-3.50119146388727e-001

6.49801917084985e+004,-1.40425495408498e+001,-3.55006625847701e-001

6.58872813814055e+004,-1.40425498156814e+001,-3.59962331904895e-001

6.68070335542691e+004,-1.40425500982394e+001,-3.64987216966480e-001

6.77396249890018e+004,-1.40425503887412e+001,-3.70082246731371e-001

6.86852349150199e+004,-1.40425506874102e+001,-3.75248400380228e-001

6.96440450636895e+004,-1.40425509944759e+001,-3.80486670761427e-001

7.06162397032520e+004,-1.40425513101743e+001,-3.85798064584093e-001

7.16020056742374e+004,-1.40425516347484e+001,-3.91183602608807e-001

7.26015324253724e+004,-1.40425519684474e+001,-3.96644319847757e-001

7.36150120499896e+004,-1.40425523115279e+001,-4.02181265757995e-001

7.46426393229441e+004,-1.40425526642538e+001,-4.07795504448512e-001

7.56846117380472e+004,-1.40425530268962e+001,-4.13488114882070e-001

7.67411295460207e+004,-1.40425533997338e+001,-4.19260191082262e-001

7.78123957929823e+004,-1.40425537830533e+001,-4.25112842345397e-001

7.88986163594682e+004,-1.40425541771495e+001,-4.31047193452405e-001

7.99999999999995e+004,-1.40425545823252e+001,-4.37064384884804e-001

8.11167583832018e+004,-1.40425549988919e+001,-4.43165573046485e-001

8.22491061324848e+004,-1.40425554271699e+001,-4.49351930481201e-001

8.33972608672892e+004,-1.40425558674885e+001,-4.55624646101785e-001

8.45614432449099e+004,-1.40425563201861e+001,-4.61984925417541e-001

8.57418770029029e+004,-1.40425567856108e+001,-4.68433990765680e-001

8.69387890020841e+004,-1.40425572641204e+001,-4.74973081546744e-001

8.81524092701283e+004,-1.40425577560827e+001,-4.81603454461408e-001

8.93829710457770e+004,-1.40425582618760e+001,-4.88326383753587e-001

9.06307108236633e+004,-1.40425587818891e+001,-4.95143161454357e-001

9.18958683997622e+004,-1.40425593165218e+001,-5.02055097631277e-001

9.31786869174758e+004,-1.40425598661850e+001,-5.09063520638809e-001

9.44794129143618e+004,-1.40425604313014e+001,-5.16169777374168e-001

9.57982963695136e+004,-1.40425610123054e+001,-5.23375233535962e-001

9.71355907516031e+004,-1.40425616096437e+001,-5.30681273887539e-001

9.84915530675926e+004,-1.40425622237754e+001,-5.38089302522471e-001

9.98664439121282e+004,-1.40425628551728e+001,-5.45600743133539e-001

1.01260527517622e+005,-1.40425635043211e+001,-5.53217039287430e-001

1.02674071805032e+005,-1.40425641717196e+001,-5.60939654702042e-001

1.04107348435354e+005,-1.40425648578812e+001,-5.68770073527235e-001

1.05560632861831e+005,-1.40425655633335e+001,-5.76709800630823e-001

1.07034204382888e+005,-1.40425662886187e+001,-5.84760361887244e-001

1.08528346195813e+005,-1.40425670342946e+001,-5.92923304469511e-001

1.10043345451179e+005,-1.40425678009342e+001,-6.01200197150269e-001

1.11579493308032e+005,-1.40425685891270e+001,-6.09592630598047e-001

1.13137084989847e+005,-1.40425693994790e+001,-6.18102217688204e-001

1.14716419841265e+005,-1.40425702326132e+001,-6.26730593808347e-001

1.16317801385624e+005,-1.40425710891700e+001,-6.35479417175572e-001

1.17941537383287e+005,-1.40425719698079e+001,-6.44350369154841e-001

1.19587939890794e+005,-1.40425728752040e+001,-6.53345154579482e-001

1.21257325320831e+005,-1.40425738060542e+001,-6.62465502082388e-001

1.22950014503040e+005,-1.40425747630742e+001,-6.71713164425954e-001

1.24666332745679e+005,-1.40425757469998e+001,-6.81089918839215e-001

1.26406609898139e+005,-1.40425767585874e+001,-6.90597567358938e-001

1.28171180414339e+005,-1.40425777986146e+001,-7.00237937178472e-001

1.29960383416997e+005,-1.40425788678810e+001,-7.10012880994796e-001

1.31774562762811e+005,-1.40425799672087e+001,-7.19924277367715e-001

1.33614067108538e+005,-1.40425810974427e+001,-7.29974031079868e-001

1.35479249978003e+005,-1.40425822594521e+001,-7.40164073501793e-001

1.37370469830040e+005,-1.40425834541300e+001,-7.50496362965165e-001

1.39288090127379e+005,-1.40425846823950e+001,-7.60972885136001e-001

1.41232479406504e+005,-1.40425859451913e+001,-7.71595653400307e-001

1.43204011348474e+005,-1.40425872434897e+001,-7.82366709246487e-001

1.45203064850745e+005,-1.40425885782884e+001,-7.93288122661088e-001

1.47230024099979e+005,-1.40425899506134e+001,-8.04361992525249e-001

1.49285278645888e+005,-1.40425913615198e+001,-8.15590447017435e-001

1.51369223476094e+005,-1.40425928120924e+001,-8.26975644022900e-001

1.53482259092041e+005,-1.40425943034462e+001,-8.38519771548921e-001

1.55624791585964e+005,-1.40425958367278e+001,-8.50225048144496e-001

1.57797232718936e+005,-1.40425974131159e+001,-8.62093723326728e-001

1.59999999999999e+005,-1.40425990338225e+001,-8.74128078012564e-001

1.62233516766403e+005,-1.40426007000936e+001,-8.86330424958203e-001

1.64498212264969e+005,-1.40426024132100e+001,-8.98703109203161e-001

1.66794521734578e+005,-1.40426041744889e+001,-9.11248508519333e-001

1.69122886489819e+005,-1.40426059852842e+001,-9.23969033870672e-001

1.71483754005805e+005,-1.40426078469881e+001,-9.36867129873314e-001

1.73877578004168e+005,-1.40426097610317e+001,-9.49945275268199e-001

1.76304818540256e+005,-1.40426117288868e+001,-9.63205983394032e-001

1.78765942091554e+005,-1.40426137520659e+001,-9.76651802674373e-001

1.81261421647326e+005,-1.40426158321246e+001,-9.90285317103201e-001

1.83791736799524e+005,-1.40426179706619e+001,-1.00410914674376e+000

1.86357373834951e+005,-1.40426201693220e+001,-1.01812594823100e+000

1.88958825828723e+005,-1.40426224297951e+001,-1.03233841528293e+000

1.91596592739027e+005,-1.40426247538190e+001,-1.04674927921730e+000

1.94271181503206e+005,-1.40426271431804e+001,-1.06136130947593e+000

1.96983106135185e+005,-1.40426295997163e+001,-1.07617731415828e+000

1.99732887824256e+005,-1.40426321253151e+001,-1.09120014056006e+000

2.02521055035243e+005,-1.40426347219185e+001,-1.10643267571929e+000

2.05348143610063e+005,-1.40426373915228e+001,-1.12187784697287e+000

2.08214696870707e+005,-1.40426401361803e+001,-1.13753862251835e+000

2.11121265723661e+005,-1.40426429580010e+001,-1.15341801198254e+000

2.14068408765776e+005,-1.40426458591543e+001,-1.16951906700268e+000

2.17056692391625e+005,-1.40426488418707e+001,-1.18584488180906e+000

2.20086690902357e+005,-1.40426519084431e+001,-1.20239859382304e+000

2.23158986616063e+005,-1.40426550612291e+001,-1.21918338425704e+000

2.26274169979693e+005,-1.40426583026526e+001,-1.23620247872783e+000

2.29432839682530e+005,-1.40426616352054e+001,-1.25345914787430e+000

2.32635602771247e+005,-1.40426650614498e+001,-1.27095670798633e+000

2.35883074766574e+005,-1.40426685840196e+001,-1.28869852164242e+000

2.39175879781588e+005,-1.40426722056231e+001,-1.30668799835516e+000

2.42514650641661e+005,-1.40426759290444e+001,-1.32492859522630e+000

2.45900029006080e+005,-1.40426797571461e+001,-1.34342381761049e+000

2.49332665491357e+005,-1.40426836928713e+001,-1.36217721978924e+000

2.52813219796278e+005,-1.40426877392456e+001,-1.38119240565307e+000

2.56342360828676e+005,-1.40426918993799e+001,-1.40047302939352e+000

2.59920766833993e+005,-1.40426961764724e+001,-1.42002279620606e+000

2.63549125525621e+005,-1.40427005738115e+001,-1.43984546300067e+000

2.67228134217075e+005,-1.40427050947777e+001,-1.45994483912422e+000

2.70958499956006e+005,-1.40427097428467e+001,-1.48032478709133e+000

2.74740939660078e+005,-1.40427145215919e+001,-1.50098922332756e+000

2.78576180254757e+005,-1.40427194346872e+001,-1.52194211891961e+000

2.82464958813007e+005,-1.40427244859098e+001,-1.54318750038006e+000

2.86408022696948e+005,-1.40427296791430e+001,-1.56472945041926e+000

2.90406129701488e+005,-1.40427350183794e+001,-1.58657210872979e+000

2.94460048199957e+005,-1.40427405077238e+001,-1.60871967278193e+000

2.98570557291775e+005,-1.40427461513964e+001,-1.63117639862859e+000

3.02738446952187e+005,-1.40427519537360e+001,-1.65394660172468e+000

3.06964518184081e+005,-1.40427579192035e+001,-1.67703465775324e+000

3.11249583171928e+005,-1.40427640523851e+001,-1.70044500346779e+000

3.15594465437872e+005,-1.40427703579960e+001,-1.72418213754373e+000

3.19999999999997e+005,-1.40427768408840e+001,-1.74825062144121e+000

3.24467033532806e+005,-1.40427835060332e+001,-1.77265508028208e+000

3.28996424529938e+005,-1.40427903585677e+001,-1.79740020373794e+000

3.33589043469155e+005,-1.40427974037559e+001,-1.82249074692991e+000

3.38245772979638e+005,-1.40428046470140e+001,-1.84793153134242e+000

3.42967508011610e+005,-1.40428120939108e+001,-1.87372744574802e+000

3.47755156008335e+005,-1.40428197501715e+001,-1.89988344714674e+000

3.52609637080511e+005,-1.40428276216823e+001,-1.92640456171743e+000

3.57531884183106e+005,-1.40428357144950e+001,-1.95329588578256e+000

3.62522843294651e+005,-1.40428440348312e+001,-1.98056258678721e+000

3.67583473599047e+005,-1.40428525890878e+001,-2.00820990429059e+000

3.72714747669902e+005,-1.40428613838414e+001,-2.03624315097111e+000

3.77917651657445e+005,-1.40428704258536e+001,-2.06466771364743e+000

3.83193185478053e+005,-1.40428797220760e+001,-2.09348905431211e+000

3.88542363006410e+005,-1.40428892796555e+001,-2.12271271117983e+000

3.93966212270369e+005,-1.40428991059404e+001,-2.15234429975007e+000

3.99465775648511e+005,-1.40429092084852e+001,-2.18238951388493e+000

4.05042110070485e+005,-1.40429195950569e+001,-2.21285412690306e+000

4.10696287220124e+005,-1.40429302736410e+001,-2.24374399268627e+000

4.16429393741414e+005,-1.40429412524474e+001,-2.27506504680300e+000

4.22242531447321e+005,-1.40429525399168e+001,-2.30682330764839e+000

4.28136817531551e+005,-1.40429641447274e+001,-2.33902487759851e+000

4.34113384783250e+005,-1.40429760758011e+001,-2.37167594418080e+000

4.40173381804713e+005,-1.40429883423111e+001,-2.40478278126225e+000

4.46317973232124e+005,-1.40430009536880e+001,-2.43835175025264e+000

4.52548339959385e+005,-1.40430139196279e+001,-2.47238930132489e+000

4.58865679365059e+005,-1.40430272500995e+001,-2.50690197465274e+000

4.65271205542494e+005,-1.40430409553517e+001,-2.54189640166561e+000

4.71766149533147e+005,-1.40430550459215e+001,-2.57737930632003e+000

4.78351759563174e+005,-1.40430695326422e+001,-2.61335750639038e+000

4.85029301283321e+005,-1.40430844266520e+001,-2.64983791477532e+000

4.91800058012158e+005,-1.40430997394018e+001,-2.68682754082491e+000

4.98665330982714e+005,-1.40431154826649e+001,-2.72433349168408e+000

5.05626439592555e+005,-1.40431316685452e+001,-2.76236297365616e+000

5.12684721657352e+005,-1.40431483094872e+001,-2.80092329358424e+000

5.19841533667984e+005,-1.40431654182853e+001,-2.84002186025290e+000

5.27098251051240e+005,-1.40431830080937e+001,-2.87966618580777e+000

5.34456268434150e+005,-1.40432010924363e+001,-2.91986388719672e+000

5.41916999912011e+005,-1.40432196852173e+001,-2.96062268763043e+000

