Freq.,VOut,OutRef

1.00000000000000e+004,-1.71811134583508e+001,-1.29638041568069e-001

1.01395947979003e+004,-1.71811135823929e+001,-1.31447720555027e-001

1.02811382665607e+004,-1.71811137099226e+001,-1.33282661690829e-001

1.04246576084112e+004,-1.71811138410375e+001,-1.35143217622653e-001

1.05701804056138e+004,-1.71811139758386e+001,-1.37029745917957e-001

1.07177346253629e+004,-1.71811141144296e+001,-1.38942609135767e-001

1.08673486252606e+004,-1.71811142569168e+001,-1.40882174897743e-001

1.10190511587661e+004,-1.71811144034099e+001,-1.42848815955338e-001

1.11728713807222e+004,-1.71811145540213e+001,-1.44842910264986e-001

1.13288388529580e+004,-1.71811147088670e+001,-1.46864841057697e-001

1.14869835499703e+004,-1.71811148680661e+001,-1.48914996914376e-001

1.16473358646846e+004,-1.71811150317409e+001,-1.50993771841256e-001

1.18099266142953e+004,-1.71811152000171e+001,-1.53101565343907e-001

1.19747870461893e+004,-1.71811153730242e+001,-1.55238782505124e-001

1.21419488439505e+004,-1.71811155508953e+001,-1.57405834060709e-001

1.23114441334492e+004,-1.71811157337669e+001,-1.59603136483180e-001

1.24833054890161e+004,-1.71811159217799e+001,-1.61831112055265e-001

1.26575659397028e+004,-1.71811161150784e+001,-1.64090188958071e-001

1.28342589756290e+004,-1.71811163138114e+001,-1.66380801345607e-001

1.30134185544193e+004,-1.71811165181315e+001,-1.68703389436239e-001

1.31950791077289e+004,-1.71811167281958e+001,-1.71058399591708e-001

1.33792755478611e+004,-1.71811169441658e+001,-1.73446284404127e-001

1.35660432744767e+004,-1.71811171662077e+001,-1.75867502783648e-001

1.37554181813974e+004,-1.71811173944918e+001,-1.78322520048540e-001

1.39474366635040e+004,-1.71811176291939e+001,-1.80811808009633e-001

1.41421356237309e+004,-1.71811178704943e+001,-1.83335845066091e-001

1.43395524801583e+004,-1.71811181185786e+001,-1.85895116292852e-001

1.45397251732031e+004,-1.71811183736375e+001,-1.88490113538784e-001

1.47426921729110e+004,-1.71811186358670e+001,-1.91121335516649e-001

1.49484924863494e+004,-1.71811189054689e+001,-1.93789287901011e-001

1.51571656651040e+004,-1.71811191826502e+001,-1.96494483426581e-001

1.53687518128801e+004,-1.71811194676243e+001,-1.99237441983917e-001

1.55832915932100e+004,-1.71811197606098e+001,-2.02018690723361e-001

1.58008262372675e+004,-1.71811200618323e+001,-2.04838764149106e-001

1.60213975517924e+004,-1.71811203715233e+001,-2.07698204231373e-001

1.62450479271247e+004,-1.71811206899211e+001,-2.10597560502206e-001

1.64718203453514e+004,-1.71811210172700e+001,-2.13537390168108e-001

1.67017583885674e+004,-1.71811213538219e+001,-2.16518258211399e-001

1.69349062472505e+004,-1.71811216998357e+001,-2.19540737500871e-001

1.71713087287550e+004,-1.71811220555770e+001,-2.22605408903998e-001

1.74110112659224e+004,-1.71811224213197e+001,-2.25712861393513e-001

1.76540599258131e+004,-1.71811227973446e+001,-2.28863692167660e-001

1.79005014185594e+004,-1.71811231839411e+001,-2.32058506757395e-001

1.81503831063432e+004,-1.71811235814064e+001,-2.35297919147677e-001

1.84037530124975e+004,-1.71811239900457e+001,-2.38582551895806e-001

1.86606598307361e+004,-1.71811244101734e+001,-2.41913036247449e-001

1.89211529345119e+004,-1.71811248421125e+001,-2.45290012259226e-001

1.91852823865052e+004,-1.71811252861950e+001,-2.48714128924065e-001

1.94530989482457e+004,-1.71811257427623e+001,-2.52186044293658e-001

1.97246540898671e+004,-1.71811262121654e+001,-2.55706425605300e-001

1.99999999999999e+004,-1.71811266947650e+001,-2.59275949410534e-001

2.02791895958005e+004,-1.71811271909325e+001,-2.62895301703289e-001

2.05622765331213e+004,-1.71811277010490e+001,-2.66565178055777e-001

2.08493152168224e+004,-1.71811282255066e+001,-2.70286283748446e-001

2.11403608112276e+004,-1.71811287647088e+001,-2.74059333905424e-001

2.14354692507258e+004,-1.71811293190699e+001,-2.77885053636053e-001

2.17346972505211e+004,-1.71811298890162e+001,-2.81764178168276e-001

2.20381023175322e+004,-1.71811304749857e+001,-2.85697452995809e-001

2.23457427614443e+004,-1.71811310774289e+001,-2.89685634016853e-001

2.26576777059159e+004,-1.71811316968090e+001,-2.93729487681742e-001

2.29739670999406e+004,-1.71811323336022e+001,-2.97829791138417e-001

2.32946717293690e+004,-1.71811329882979e+001,-3.01987332385061e-001

2.36198532285905e+004,-1.71811336613996e+001,-3.06202910416477e-001

2.39495740923785e+004,-1.71811343534245e+001,-3.10477335384427e-001

2.42838976879009e+004,-1.71811350649047e+001,-3.14811428745446e-001

2.46228882668982e+004,-1.71811357963873e+001,-3.19206023424114e-001

2.49666109780322e+004,-1.71811365484345e+001,-3.23661963972053e-001

2.53151318794055e+004,-1.71811373216244e+001,-3.28180106729576e-001

2.56685179512580e+004,-1.71811381165515e+001,-3.32761319989900e-001

2.60268371088386e+004,-1.71811389338268e+001,-3.37406484166496e-001

2.63901582154578e+004,-1.71811397740787e+001,-3.42116491961630e-001

2.67585510957221e+004,-1.71811406379530e+001,-3.46892248540547e-001

2.71320865489533e+004,-1.71811415261140e+001,-3.51734671699887e-001

2.75108363627948e+004,-1.71811424392443e+001,-3.56644692051486e-001

2.78948733270080e+004,-1.71811433780460e+001,-3.61623253193927e-001

2.82842712474618e+004,-1.71811443432407e+001,-3.66671311898084e-001

2.86791049603164e+004,-1.71811453355704e+001,-3.71789838290174e-001

2.90794503464061e+004,-1.71811463557982e+001,-3.76979816037223e-001

2.94853843458219e+004,-1.71811474047080e+001,-3.82242242537460e-001

2.98969849726987e+004,-1.71811484831064e+001,-3.87578129110756e-001

3.03143313302078e+004,-1.71811495918223e+001,-3.92988501193726e-001

3.07375036257601e+004,-1.71811507317082e+001,-3.98474398534597e-001

3.11665831864199e+004,-1.71811519036402e+001,-4.04036875397518e-001

3.16016524745350e+004,-1.71811531085193e+001,-4.09677000760274e-001

3.20427951035848e+004,-1.71811543472718e+001,-4.15395858521650e-001

3.24900958542493e+004,-1.71811556208499e+001,-4.21194547711399e-001

3.29436406907028e+004,-1.71811569302327e+001,-4.27074182697975e-001

3.34035167771346e+004,-1.71811582764266e+001,-4.33035893405424e-001

3.38698124945009e+004,-1.71811596604668e+001,-4.39080825527848e-001

3.43426174575100e+004,-1.71811610834170e+001,-4.45210140752651e-001

3.48220225318448e+004,-1.71811625463712e+001,-4.51425016981169e-001

3.53081198516260e+004,-1.71811640504540e+001,-4.57726648556369e-001

3.58010028371187e+004,-1.71811655968218e+001,-4.64116246490560e-001

3.63007662126863e+004,-1.71811671866631e+001,-4.70595038700339e-001

3.68075060249948e+004,-1.71811688212002e+001,-4.77164270241337e-001

3.73213196614721e+004,-1.71811705016895e+001,-4.83825203546658e-001

3.78423058690237e+004,-1.71811722294231e+001,-4.90579118670222e-001

3.83705647730104e+004,-1.71811740057290e+001,-4.97427313533192e-001

3.89061978964912e+004,-1.71811758319726e+001,-5.04371104172240e-001

3.94493081797342e+004,-1.71811777095581e+001,-5.11411824991605e-001

3.99999999999998e+004,-1.71811796399285e+001,-5.18550829022608e-001

4.05583791916010e+004,-1.71811816245680e+001,-5.25789488179543e-001

4.11245530662425e+004,-1.71811836650023e+001,-5.33129193525640e-001

4.16986304336447e+004,-1.71811857627996e+001,-5.40571355540665e-001

4.22807216224550e+004,-1.71811879195727e+001,-5.48117404389176e-001

4.28709385014515e+004,-1.71811901369797e+001,-5.55768790198070e-001

4.34693945010421e+004,-1.71811924167249e+001,-5.63526983333726e-001

4.40762046350642e+004,-1.71811947605611e+001,-5.71393474683215e-001

4.46914855228886e+004,-1.71811971702898e+001,-5.79369775944102e-001

4.53153554118317e+004,-1.71811996477635e+001,-5.87457419911344e-001

4.59479341998812e+004,-1.71812021948866e+001,-5.95657960772572e-001

4.65893434587380e+004,-1.71812048136173e+001,-6.03972974407826e-001

4.72397064571810e+004,-1.71812075059685e+001,-6.12404058690388e-001

4.78991481847569e+004,-1.71812102740098e+001,-6.20952833795634e-001

4.85677953758016e+004,-1.71812131198691e+001,-6.29620942510106e-001

4.92457765337964e+004,-1.71812160457340e+001,-6.38410050548259e-001

4.99332219560642e+004,-1.71812190538536e+001,-6.47321846871511e-001

5.06302637588109e+004,-1.71812221465405e+001,-6.56358044013035e-001

5.13370359025159e+004,-1.71812253261716e+001,-6.65520378407547e-001

5.20536742176771e+004,-1.71812285951915e+001,-6.74810610722392e-001

5.27803164309155e+004,-1.71812319561128e+001,-6.84230526197116e-001

5.35171021914442e+004,-1.71812354115192e+001,-6.93781934986703e-001

5.42641730979066e+004,-1.71812389640668e+001,-7.03466672507478e-001

5.50216727255895e+004,-1.71812426164863e+001,-7.13286599790643e-001

5.57897466540159e+004,-1.71812463715856e+001,-7.23243603838880e-001

5.65685424949235e+004,-1.71812502322507e+001,-7.33339597990978e-001

5.73582099206328e+004,-1.71812542014496e+001,-7.43576522284478e-001

5.81589006928121e+004,-1.71812582822332e+001,-7.53956343832205e-001

5.89707686916437e+004,-1.71812624777385e+001,-7.64481057197586e-001

5.97939699453972e+004,-1.71812667911902e+001,-7.75152684780136e-001

6.06286626604156e+004,-1.71812712259041e+001,-7.85973277199170e-001

6.14750072515201e+004,-1.71812757852890e+001,-7.96944913692381e-001

6.23331663728396e+004,-1.71812804728495e+001,-8.08069702510692e-001

6.32033049490698e+004,-1.71812852921889e+001,-8.19349781326405e-001

6.40855902071694e+004,-1.71812902470114e+001,-8.30787317640744e-001

6.49801917084985e+004,-1.71812953411259e+001,-8.42384509200390e-001

6.58872813814055e+004,-1.71813005784476e+001,-8.54143584421434e-001

6.68070335542691e+004,-1.71813059630026e+001,-8.66066802812910e-001

6.77396249890018e+004,-1.71813114989294e+001,-8.78156455414367e-001

6.86852349150199e+004,-1.71813171904833e+001,-8.90414865233415e-001

6.96440450636895e+004,-1.71813230420391e+001,-9.02844387690598e-001

7.06162397032520e+004,-1.71813290580944e+001,-9.15447411074167e-001

7.16020056742374e+004,-1.71813352432734e+001,-9.28226356995309e-001

7.26015324253724e+004,-1.71813416023302e+001,-9.41183680854048e-001

7.36150120499896e+004,-1.71813481401526e+001,-9.54321872310111e-001

7.46426393229441e+004,-1.71813548617656e+001,-9.67643455760817e-001

7.56846117380472e+004,-1.71813617723356e+001,-9.81150990824562e-001

7.67411295460207e+004,-1.71813688771741e+001,-9.94847072832146e-001

7.78123957929823e+004,-1.71813761817420e+001,-1.00873433332431e+000

7.88986163594682e+004,-1.71813836916535e+001,-1.02281544055709e+000

7.99999999999995e+004,-1.71813914126809e+001,-1.03709310001169e+000

8.11167583832018e+004,-1.71813993507584e+001,-1.05157005491601e+000

8.22491061324848e+004,-1.71814075119870e+001,-1.06624908676780e+000

8.33972608672892e+004,-1.71814159026394e+001,-1.08113301587021e+000

8.45614432449099e+004,-1.71814245291646e+001,-1.09622470186988e+000

8.57418770029029e+004,-1.71814333981924e+001,-1.11152704430875e+000

8.69387890020841e+004,-1.71814425165395e+001,-1.12704298317591e+000

8.81524092701283e+004,-1.71814518912137e+001,-1.14277549947448e+000

8.93829710457770e+004,-1.71814615294201e+001,-1.15872761579045e+000

9.06307108236633e+004,-1.71814714385660e+001,-1.17490239687311e+000

9.18958683997622e+004,-1.71814816262671e+001,-1.19130295022206e+000

9.31786869174758e+004,-1.71814921003530e+001,-1.20793242668301e+000

9.44794129143618e+004,-1.71815028688733e+001,-1.22479402105061e+000

9.57982963695136e+004,-1.71815139401037e+001,-1.24189097268161e+000

9.71355907516031e+004,-1.71815253225528e+001,-1.25922656611416e+000

9.84915530675926e+004,-1.71815370249681e+001,-1.27680413169750e+000

9.98664439121282e+004,-1.71815490563428e+001,-1.29462704623062e+000

1.01260527517622e+005,-1.71815614259228e+001,-1.31269873360739e+000

1.02674071805032e+005,-1.71815741432142e+001,-1.33102266547275e+000

1.04107348435354e+005,-1.71815872179897e+001,-1.34960236188787e+000

1.05560632861831e+005,-1.71816006602971e+001,-1.36844139200382e+000

1.07034204382888e+005,-1.71816144804659e+001,-1.38754337474457e+000

1.08528346195813e+005,-1.71816286891165e+001,-1.40691197949997e+000

1.10043345451179e+005,-1.71816432971673e+001,-1.42655092682698e+000

1.11579493308032e+005,-1.71816583158436e+001,-1.44646398916352e+000

1.13137084989847e+005,-1.71816737566860e+001,-1.46665499154855e+000

1.14716419841265e+005,-1.71816896315595e+001,-1.48712781235399e+000

1.16317801385624e+005,-1.71817059526624e+001,-1.50788638402824e+000

1.17941537383287e+005,-1.71817227325357e+001,-1.52893469384601e+000

1.19587939890794e+005,-1.71817399840727e+001,-1.55027678467252e+000

1.21257325320831e+005,-1.71817577205290e+001,-1.57191675573555e+000

1.22950014503040e+005,-1.71817759555324e+001,-1.59385876340978e+000

1.24666332745679e+005,-1.71817947030938e+001,-1.61610702201060e+000

1.26406609898139e+005,-1.71818139776176e+001,-1.63866580460008e+000

1.28171180414339e+005,-1.71818337939129e+001,-1.66153944380354e+000

1.29960383416997e+005,-1.71818541672046e+001,-1.68473233263708e+000

1.31774562762811e+005,-1.71818751131456e+001,-1.70824892534670e+000

1.33614067108538e+005,-1.71818966478281e+001,-1.73209373825916e+000

1.35479249978003e+005,-1.71819187877967e+001,-1.75627135064462e+000

1.37370469830040e+005,-1.71819415500604e+001,-1.78078640559060e+000

1.39288090127379e+005,-1.71819649521063e+001,-1.80564361088877e+000

1.41232479406504e+005,-1.71819890119122e+001,-1.83084773993325e+000

1.43204011348474e+005,-1.71820137479612e+001,-1.85640363263110e+000

1.45203064850745e+005,-1.71820391792553e+001,-1.88231619632594e+000

1.47230024099979e+005,-1.71820653253304e+001,-1.90859040673462e+000

1.49285278645888e+005,-1.71820922062708e+001,-1.93523130889499e+000

1.51369223476094e+005,-1.71821198427248e+001,-1.96224401812871e+000

1.53482259092041e+005,-1.71821482559209e+001,-1.98963372101518e+000

1.55624791585964e+005,-1.71821774676835e+001,-2.01740567638141e+000

1.57797232718936e+005,-1.71822075004496e+001,-2.04556521630339e+000

1.59999999999999e+005,-1.71822383772866e+001,-2.07411774712140e+000

1.62233516766403e+005,-1.71822701219095e+001,-2.10306875046905e+000

1.64498212264969e+005,-1.71823027586989e+001,-2.13242378431909e+000

1.66794521734578e+005,-1.71823363127204e+001,-2.16218848403847e+000

1.69122886489819e+005,-1.71823708097430e+001,-2.19236856346259e+000

1.71483754005805e+005,-1.71824062762590e+001,-2.22296981598177e+000

1.73877578004168e+005,-1.71824427395049e+001,-2.25399811564265e+000

1.76304818540256e+005,-1.71824802274813e+001,-2.28545941826513e+000

1.78765942091554e+005,-1.71825187689752e+001,-2.31735976257457e+000

1.81261421647326e+005,-1.71825583935814e+001,-2.34970527134828e+000

1.83791736799524e+005,-1.71825991317253e+001,-2.38250215258035e+000

1.86357373834951e+005,-1.71826410146867e+001,-2.41575670065788e+000

1.88958825828723e+005,-1.71826840746227e+001,-2.44947529755785e+000

1.91596592739027e+005,-1.71827283445934e+001,-2.48366441405650e+000

1.94271181503206e+005,-1.71827738585864e+001,-2.51833061095784e+000

1.96983106135185e+005,-1.71828206515430e+001,-2.55348054033711e+000

1.99732887824256e+005,-1.71828687593851e+001,-2.58912094680164e+000

2.02521055035243e+005,-1.71829182190425e+001,-2.62525866876845e+000

2.05348143610063e+005,-1.71829690684812e+001,-2.66190063975936e+000

2.08214696870707e+005,-1.71830213467322e+001,-2.69905388971364e+000

2.11121265723661e+005,-1.71830750939216e+001,-2.73672554631873e+000

2.14068408765776e+005,-1.71831303513012e+001,-2.77492283635725e+000

2.17056692391625e+005,-1.71831871612796e+001,-2.81365308707409e+000

2.20086690902357e+005,-1.71832455674554e+001,-2.85292372756096e+000

2.23158986616063e+005,-1.71833056146496e+001,-2.89274229015900e+000

2.26274169979693e+005,-1.71833673489404e+001,-2.93311641188127e+000

2.29432839682530e+005,-1.71834308176982e+001,-2.97405383585349e+000

2.32635602771247e+005,-1.71834960696217e+001,-3.01556241277474e+000

2.35883074766574e+005,-1.71835631547749e+001,-3.05765010239645e+000

2.39175879781588e+005,-1.71836321246258e+001,-3.10032497502219e+000

2.42514650641661e+005,-1.71837030320848e+001,-3.14359521302820e+000

2.45900029006080e+005,-1.71837759315461e+001,-3.18746911240099e+000

2.49332665491357e+005,-1.71838508789282e+001,-3.23195508429912e+000

2.52813219796278e+005,-1.71839279317170e+001,-3.27706165663331e+000

2.56342360828676e+005,-1.71840071490094e+001,-3.32279747566813e+000

2.59920766833993e+005,-1.71840885915585e+001,-3.36917130764553e+000

2.63549125525621e+005,-1.71841723218197e+001,-3.41619204042816e+000

2.67228134217075e+005,-1.71842584039983e+001,-3.46386868516578e+000

2.70958499956006e+005,-1.71843469040982e+001,-3.51221037798373e+000

2.74740939660078e+005,-1.71844378899724e+001,-3.56122638169165e+000

2.78576180254757e+005,-1.71845314313744e+001,-3.61092608751719e+000

2.82464958813007e+005,-1.71846276000111e+001,-3.66131901686096e+000

2.86408022696948e+005,-1.71847264695978e+001,-3.71241482307361e+000

2.90406129701488e+005,-1.71848281159136e+001,-3.76422329325797e+000

2.94460048199957e+005,-1.71849326168593e+001,-3.81675435009330e+000

2.98570557291775e+005,-1.71850400525165e+001,-3.87001805368398e+000

3.02738446952187e+005,-1.71851505052083e+001,-3.92402460343119e+000

3.06964518184081e+005,-1.71852640595618e+001,-3.97878433992963e+000

3.11249583171928e+005,-1.71853808025725e+001,-4.03430774688841e+000

3.15594465437872e+005,-1.71855008236697e+001,-4.09060545307659e+000

3.19999999999997e+005,-1.71856242147848e+001,-4.14768823429352e+000

3.24467033532806e+005,-1.71857510704209e+001,-4.20556701536503e+000

3.28996424529938e+005,-1.71858814877239e+001,-4.26425287216417e+000

3.33589043469155e+005,-1.71860155665566e+001,-4.32375703365839e+000

3.38245772979638e+005,-1.71861534095738e+001,-4.38409088398227e+000

3.42967508011610e+005,-1.71862951223003e+001,-4.44526596453697e+000

3.47755156008335e+005,-1.71864408132104e+001,-4.50729397611563e+000

3.52609637080511e+005,-1.71865905938098e+001,-4.57018678105551e+000

3.57531884183106e+005,-1.71867445787203e+001,-4.63395640541778e+000

3.62522843294651e+005,-1.71869028857654e+001,-4.69861504119411e+000

3.67583473599047e+005,-1.71870656360603e+001,-4.76417504854013e+000

3.72714747669902e+005,-1.71872329541020e+001,-4.83064895803792e+000

3.77917651657445e+005,-1.71874049678644e+001,-4.89804947298509e+000

3.83193185478053e+005,-1.71875818088935e+001,-4.96638947171377e+000

3.88542363006410e+005,-1.71877636124072e+001,-5.03568200993581e+000

3.93966212270369e+005,-1.71879505173966e+001,-5.10594032311855e+000

3.99465775648511e+005,-1.71881426667306e+001,-5.17717782888885e+000

4.05042110070485e+005,-1.71883402072634e+001,-5.24940812946616e+000

4.10696287220124e+005,-1.71885432899445e+001,-5.32264501412482e+000

4.16429393741414e+005,-1.71887520699320e+001,-5.39690246168627e+000

4.22242531447321e+005,-1.71889667067090e+001,-5.47219464304096e+000

4.28136817531551e+005,-1.71891873642031e+001,-5.54853592369997e+000

4.34113384783250e+005,-1.71894142109090e+001,-5.62594086637782e+000

4.40173381804713e+005,-1.71896474200148e+001,-5.70442423360378e+000

4.46317973232124e+005,-1.71898871695311e+001,-5.78400099036574e+000

4.52548339959385e+005,-1.71901336424243e+001,-5.86468630678415e+000

4.58865679365059e+005,-1.71903870267528e+001,-5.94649556081600e+000

4.65271205542494e+005,-1.71906475158078e+001,-6.02944434099109e+000

4.71766149533147e+005,-1.71909153082565e+001,-6.11354844917983e+000

4.78351759563174e+005,-1.71911906082906e+001,-6.19882390339062e+000

4.85029301283321e+005,-1.71914736257780e+001,-6.28528694060078e+000

4.91800058012158e+005,-1.71917645764188e+001,-6.37295401961814e+000

4.98665330982714e+005,-1.71920636819049e+001,-6.46184182397477e+000

5.05626439592555e+005,-1.71923711700853e+001,-6.55196726485229e+000

5.12684721657352e+005,-1.71926872751339e+001,-6.64334748403989e+000

5.19841533667984e+005,-1.71930122377235e+001,-6.73599985692347e+000

5.27098251051240e+005,-1.71933463052034e+001,-6.82994199550790e+000

5.34456268434150e+005,-1.71936897317820e+001,-6.92519175147079e+000

5.41916999912011e+005,-1.71940427787143e+001,-7.02176721924917e+000

