Freq.,VOut,OutRef

1.00000000000000e+004,-1.13235529519754e+001,-8.90803734205977e-002

1.01395947979003e+004,-1.13235529254890e+001,-9.03238892524659e-002

1.02811382665607e+004,-1.13235528982579e+001,-9.15847639256815e-002

1.04246576084112e+004,-1.13235528702613e+001,-9.28632397605092e-002

1.05701804056138e+004,-1.13235528414776e+001,-9.41595624599421e-002

1.07177346253629e+004,-1.13235528118847e+001,-9.54739811575722e-002

1.08673486252606e+004,-1.13235527814596e+001,-9.68067484657455e-002

1.10190511587661e+004,-1.13235527501795e+001,-9.81581205188206e-002

1.11728713807222e+004,-1.13235527180198e+001,-9.95283570319804e-002

1.13288388529580e+004,-1.13235526849560e+001,-1.00917721343350e-001

1.14869835499703e+004,-1.13235526509626e+001,-1.02326480467570e-001

1.16473358646846e+004,-1.13235526160135e+001,-1.03754905145923e-001

1.18099266142953e+004,-1.13235525800818e+001,-1.05203269900405e-001

1.19747870461893e+004,-1.13235525431401e+001,-1.06671853083174e-001

1.21419488439505e+004,-1.13235525051598e+001,-1.08160936934455e-001

1.23114441334492e+004,-1.13235524661118e+001,-1.09670807633390e-001

1.24833054890161e+004,-1.13235524259658e+001,-1.11201755354930e-001

1.26575659397028e+004,-1.13235523846912e+001,-1.12754074322335e-001

1.28342589756290e+004,-1.13235523422564e+001,-1.14328062867147e-001

1.30134185544193e+004,-1.13235522986284e+001,-1.15924023488314e-001

1.31950791077289e+004,-1.13235522537738e+001,-1.17542262903940e-001

1.33792755478611e+004,-1.13235522076584e+001,-1.19183092113997e-001

1.35660432744767e+004,-1.13235521602463e+001,-1.20846826462636e-001

1.37554181813974e+004,-1.13235521115014e+001,-1.22533785692943e-001

1.39474366635040e+004,-1.13235520613861e+001,-1.24244294013824e-001

1.41421356237309e+004,-1.13235520098618e+001,-1.25978680159048e-001

1.43395524801583e+004,-1.13235519568890e+001,-1.27737277450047e-001

1.45397251732031e+004,-1.13235519024270e+001,-1.29520423863987e-001

1.47426921729110e+004,-1.13235518464338e+001,-1.31328462094161e-001

1.49484924863494e+004,-1.13235517888664e+001,-1.33161739619025e-001

1.51571656651040e+004,-1.13235517296805e+001,-1.35020608766036e-001

1.53687518128801e+004,-1.13235516688308e+001,-1.36905426781375e-001

1.55832915932100e+004,-1.13235516062704e+001,-1.38816555899013e-001

1.58008262372675e+004,-1.13235515419511e+001,-1.40754363410762e-001

1.60213975517924e+004,-1.13235514758235e+001,-1.42719221732250e-001

1.62450479271247e+004,-1.13235514078369e+001,-1.44711508480592e-001

1.64718203453514e+004,-1.13235513379389e+001,-1.46731606543754e-001

1.67017583885674e+004,-1.13235512660758e+001,-1.48779904153802e-001

1.69349062472505e+004,-1.13235511921925e+001,-1.50856794962926e-001

1.71713087287550e+004,-1.13235511162318e+001,-1.52962678120217e-001

1.74110112659224e+004,-1.13235510381358e+001,-1.55097958342517e-001

1.76540599258131e+004,-1.13235509578440e+001,-1.57263046001212e-001

1.79005014185594e+004,-1.13235508752951e+001,-1.59458357192271e-001

1.81503831063432e+004,-1.13235507904255e+001,-1.61684313822608e-001

1.84037530124975e+004,-1.13235507031698e+001,-1.63941343689055e-001

1.86606598307361e+004,-1.13235506134609e+001,-1.66229880559370e-001

1.89211529345119e+004,-1.13235505212301e+001,-1.68550364255476e-001

1.91852823865052e+004,-1.13235504264062e+001,-1.70903240741611e-001

1.94530989482457e+004,-1.13235503289166e+001,-1.73288962204419e-001

1.97246540898671e+004,-1.13235502286861e+001,-1.75707987146494e-001

1.99999999999999e+004,-1.13235501256379e+001,-1.78160780467850e-001

2.02791895958005e+004,-1.13235500196925e+001,-1.80647813560360e-001

2.05622765331213e+004,-1.13235499107686e+001,-1.83169564395127e-001

2.08493152168224e+004,-1.13235497987824e+001,-1.85726517616948e-001

2.11403608112276e+004,-1.13235496836480e+001,-1.88319164633755e-001

2.14354692507258e+004,-1.13235495652766e+001,-1.90948003716174e-001

2.17346972505211e+004,-1.13235494435775e+001,-1.93613540087983e-001

2.20381023175322e+004,-1.13235493184569e+001,-1.96316286028145e-001

2.23457427614443e+004,-1.13235491898187e+001,-1.99056760965374e-001

2.26576777059159e+004,-1.13235490575640e+001,-2.01835491580318e-001

2.29739670999406e+004,-1.13235489215911e+001,-2.04653011904291e-001

2.32946717293690e+004,-1.13235487817955e+001,-2.07509863425236e-001

2.36198532285905e+004,-1.13235486380699e+001,-2.10406595188901e-001

2.39495740923785e+004,-1.13235484903035e+001,-2.13343763907886e-001

2.42838976879009e+004,-1.13235483383829e+001,-2.16321934062770e-001

2.46228882668982e+004,-1.13235481821912e+001,-2.19341678017471e-001

2.49666109780322e+004,-1.13235480216084e+001,-2.22403576124437e-001

2.53151318794055e+004,-1.13235478565111e+001,-2.25508216836711e-001

2.56685179512580e+004,-1.13235476867722e+001,-2.28656196823972e-001

2.60268371088386e+004,-1.13235475122615e+001,-2.31848121084192e-001

2.63901582154578e+004,-1.13235473328446e+001,-2.35084603061337e-001

2.67585510957221e+004,-1.13235471483836e+001,-2.38366264762988e-001

2.71320865489533e+004,-1.13235469587367e+001,-2.41693736879693e-001

2.75108363627948e+004,-1.13235467637583e+001,-2.45067658905830e-001

2.78948733270080e+004,-1.13235465632982e+001,-2.48488679264096e-001

2.82842712474618e+004,-1.13235463572025e+001,-2.51957455428098e-001

2.86791049603164e+004,-1.13235461453127e+001,-2.55474654050693e-001

2.90794503464061e+004,-1.13235459274660e+001,-2.59040951088525e-001

2.94853843458219e+004,-1.13235457034948e+001,-2.62657031939094e-001

2.98969849726987e+004,-1.13235454732269e+001,-2.66323591563584e-001

3.03143313302078e+004,-1.13235452364856e+001,-2.70041334626249e-001

3.07375036257601e+004,-1.13235449930885e+001,-2.73810975630004e-001

3.11665831864199e+004,-1.13235447428486e+001,-2.77633239050314e-001

3.16016524745350e+004,-1.13235444855736e+001,-2.81508859476592e-001

3.20427951035848e+004,-1.13235442210657e+001,-2.85438581753446e-001

3.24900958542493e+004,-1.13235439491215e+001,-2.89423161123115e-001

3.29436406907028e+004,-1.13235436695322e+001,-2.93463363370404e-001

3.34035167771346e+004,-1.13235433820825e+001,-2.97559964972467e-001

3.38698124945009e+004,-1.13235430865517e+001,-3.01713753244300e-001

3.43426174575100e+004,-1.13235427827124e+001,-3.05925526493057e-001

3.48220225318448e+004,-1.13235424703312e+001,-3.10196094168116e-001

3.53081198516260e+004,-1.13235421491679e+001,-3.14526277020903e-001

3.58010028371187e+004,-1.13235418189755e+001,-3.18916907261542e-001

3.63007662126863e+004,-1.13235414795003e+001,-3.23368828713988e-001

3.68075060249948e+004,-1.13235411304814e+001,-3.27882896985065e-001

3.73213196614721e+004,-1.13235407716502e+001,-3.32459979626176e-001

3.78423058690237e+004,-1.13235404027313e+001,-3.37100956297305e-001

3.83705647730104e+004,-1.13235400234406e+001,-3.41806718941917e-001

3.89061978964912e+004,-1.13235396334870e+001,-3.46578171952194e-001

3.94493081797342e+004,-1.13235392325703e+001,-3.51416232348182e-001

3.99999999999998e+004,-1.13235388203826e+001,-3.56321829949476e-001

4.05583791916010e+004,-1.13235383966068e+001,-3.61295907558727e-001

4.11245530662425e+004,-1.13235379609175e+001,-3.66339421136915e-001

4.16986304336447e+004,-1.13235375129793e+001,-3.71453339994622e-001

4.22807216224550e+004,-1.13235370524482e+001,-3.76638646970413e-001

4.28709385014515e+004,-1.13235365789701e+001,-3.81896338626244e-001

4.34693945010421e+004,-1.13235360921809e+001,-3.87227425435525e-001

4.40762046350642e+004,-1.13235355917066e+001,-3.92632931977511e-001

4.46914855228886e+004,-1.13235350771623e+001,-3.98113897136405e-001

4.53153554118317e+004,-1.13235345481526e+001,-4.03671374298517e-001

4.59479341998812e+004,-1.13235340042707e+001,-4.09306431556272e-001

4.65893434587380e+004,-1.13235334450985e+001,-4.15020151913339e-001

4.72397064571810e+004,-1.13235328702064e+001,-4.20813633491553e-001

4.78991481847569e+004,-1.13235322791521e+001,-4.26687989746296e-001

4.85677953758016e+004,-1.13235316714815e+001,-4.32644349672655e-001

4.92457765337964e+004,-1.13235310467274e+001,-4.38683858031199e-001

4.99332219560642e+004,-1.13235304044097e+001,-4.44807675561002e-001

5.06302637588109e+004,-1.13235297440342e+001,-4.51016979209224e-001

5.13370359025159e+004,-1.13235290650938e+001,-4.57312962350187e-001

5.20536742176771e+004,-1.13235283670663e+001,-4.63696835020943e-001

5.27803164309155e+004,-1.13235276494152e+001,-4.70169824151548e-001

5.35171021914442e+004,-1.13235269115889e+001,-4.76733173799233e-001

5.42641730979066e+004,-1.13235261530199e+001,-4.83388145392280e-001

5.50216727255895e+004,-1.13235253731256e+001,-4.90136017965810e-001

5.57897466540159e+004,-1.13235245713061e+001,-4.96978088414486e-001

5.65685424949235e+004,-1.13235237469451e+001,-5.03915671737690e-001

5.73582099206328e+004,-1.13235228994092e+001,-5.10950101292681e-001

5.81589006928121e+004,-1.13235220280465e+001,-5.18082729053526e-001

5.89707686916437e+004,-1.13235211321876e+001,-5.25314925866995e-001

5.97939699453972e+004,-1.13235202111436e+001,-5.32648081720780e-001

6.06286626604156e+004,-1.13235192642066e+001,-5.40083606006322e-001

6.14750072515201e+004,-1.13235182906486e+001,-5.47622927794002e-001

6.23331663728396e+004,-1.13235172897214e+001,-5.55267496102932e-001

6.32033049490698e+004,-1.13235162606556e+001,-5.63018780184926e-001

6.40855902071694e+004,-1.13235152026600e+001,-5.70878269803733e-001

6.49801917084985e+004,-1.13235141149216e+001,-5.78847475521639e-001

6.58872813814055e+004,-1.13235129966041e+001,-5.86927928991695e-001

6.68070335542691e+004,-1.13235118468481e+001,-5.95121183249724e-001

6.77396249890018e+004,-1.13235106647696e+001,-6.03428813015587e-001

6.86852349150199e+004,-1.13235094494600e+001,-6.11852414994367e-001

6.96440450636895e+004,-1.13235081999853e+001,-6.20393608183083e-001

7.06162397032520e+004,-1.13235069153850e+001,-6.29054034184039e-001

7.16020056742374e+004,-1.13235055946718e+001,-6.37835357518063e-001

7.26015324253724e+004,-1.13235042368304e+001,-6.46739265946938e-001

7.36150120499896e+004,-1.13235028408172e+001,-6.55767470795810e-001

7.46426393229441e+004,-1.13235014055591e+001,-6.64921707284202e-001

7.56846117380472e+004,-1.13234999299530e+001,-6.74203734857729e-001

7.67411295460207e+004,-1.13234984128646e+001,-6.83615337529518e-001

7.78123957929823e+004,-1.13234968531279e+001,-6.93158324219449e-001

7.88986163594682e+004,-1.13234952495441e+001,-7.02834529105193e-001

7.99999999999995e+004,-1.13234936008805e+001,-7.12645811974120e-001

8.11167583832018e+004,-1.13234919058701e+001,-7.22594058579433e-001

8.22491061324848e+004,-1.13234901632101e+001,-7.32681181005788e-001

8.33972608672892e+004,-1.13234883715610e+001,-7.42909118034633e-001

8.45614432449099e+004,-1.13234865295457e+001,-7.53279835518254e-001

8.57418770029029e+004,-1.13234846357486e+001,-7.63795326758348e-001

8.69387890020841e+004,-1.13234826887139e+001,-7.74457612888124e-001

8.81524092701283e+004,-1.13234806869454e+001,-7.85268743261415e-001

8.93829710457770e+004,-1.13234786289045e+001,-7.96230795848708e-001

9.06307108236633e+004,-1.13234765130094e+001,-8.07345877634917e-001

9.18958683997622e+004,-1.13234743376340e+001,-8.18616125024813e-001

9.31786869174758e+004,-1.13234721011064e+001,-8.30043704255404e-001

9.44794129143618e+004,-1.13234698017075e+001,-8.41630811812561e-001

9.57982963695136e+004,-1.13234674376703e+001,-8.53379674851557e-001

9.71355907516031e+004,-1.13234650071780e+001,-8.65292551627578e-001

9.84915530675926e+004,-1.13234625083624e+001,-8.77371731930718e-001

9.98664439121282e+004,-1.13234599393035e+001,-8.89619537524269e-001

1.01260527517622e+005,-1.13234572980265e+001,-9.02038322594532e-001

1.02674071805032e+005,-1.13234545825018e+001,-9.14630474200237e-001

1.04107348435354e+005,-1.13234517906424e+001,-9.27398412735535e-001

1.05560632861831e+005,-1.13234489203029e+001,-9.40344592393275e-001

1.07034204382888e+005,-1.13234459692774e+001,-9.53471501638834e-001

1.08528346195813e+005,-1.13234429352980e+001,-9.66781663688715e-001

1.10043345451179e+005,-1.13234398160333e+001,-9.80277636994632e-001

1.11579493308032e+005,-1.13234366090861e+001,-9.93962015739006e-001

1.13137084989847e+005,-1.13234333119922e+001,-1.00783743033131e+000

1.14716419841265e+005,-1.13234299222178e+001,-1.02190654791699e+000

1.16317801385624e+005,-1.13234264371581e+001,-1.03617207288901e+000

1.17941537383287e+005,-1.13234228541351e+001,-1.05063674740968e+000

1.19587939890794e+005,-1.13234191703956e+001,-1.06530335193744e+000

1.21257325320831e+005,-1.13234153831088e+001,-1.08017470576437e+000

1.22950014503040e+005,-1.13234114893647e+001,-1.09525366755569e+000

1.24666332745679e+005,-1.13234074861713e+001,-1.11054313590378e+000

1.26406609898139e+005,-1.13234033704527e+001,-1.12604604988432e+000

1.28171180414339e+005,-1.13233991390465e+001,-1.14176538962237e+000

1.29960383416997e+005,-1.13233947887015e+001,-1.15770417686673e+000

1.31774562762811e+005,-1.13233903160752e+001,-1.17386547557273e+000

1.33614067108538e+005,-1.13233857177309e+001,-1.19025239249098e+000

1.35479249978003e+005,-1.13233809901358e+001,-1.20686807776682e+000

1.37370469830040e+005,-1.13233761296577e+001,-1.22371572554568e+000

1.39288090127379e+005,-1.13233711325621e+001,-1.24079857459170e+000

1.41232479406504e+005,-1.13233659950101e+001,-1.25811990890750e+000

1.43204011348474e+005,-1.13233607130545e+001,-1.27568305837027e+000

1.45203064850745e+005,-1.13233552826376e+001,-1.29349139937232e+000

1.47230024099979e+005,-1.13233496995874e+001,-1.31154835547092e+000

1.49285278645888e+005,-1.13233439596149e+001,-1.32985739804953e+000

1.51369223476094e+005,-1.13233380583107e+001,-1.34842204698623e+000

1.53482259092041e+005,-1.13233319911414e+001,-1.36724587133150e+000

1.55624791585964e+005,-1.13233257534464e+001,-1.38633248999774e+000

1.57797232718936e+005,-1.13233193404342e+001,-1.40568557245584e+000

1.59999999999999e+005,-1.13233127471786e+001,-1.42530883944294e+000

1.62233516766403e+005,-1.13233059686153e+001,-1.44520606368004e+000

1.64498212264969e+005,-1.13232989995376e+001,-1.46538107059920e+000

1.66794521734578e+005,-1.13232918345927e+001,-1.48583773908203e+000

1.69122886489819e+005,-1.13232844682774e+001,-1.50658000220717e+000

1.71483754005805e+005,-1.13232768949341e+001,-1.52761184800915e+000

1.73877578004168e+005,-1.13232691087463e+001,-1.54893732024736e+000

1.76304818540256e+005,-1.13232611037340e+001,-1.57056051918807e+000

1.78765942091554e+005,-1.13232528737497e+001,-1.59248560239245e+000

1.81261421647326e+005,-1.13232444124731e+001,-1.61471678552188e+000

1.83791736799524e+005,-1.13232357134063e+001,-1.63725834315043e+000

1.86357373834951e+005,-1.13232267698693e+001,-1.66011460958953e+000

1.88958825828723e+005,-1.13232175749945e+001,-1.68328997972575e+000

1.91596592739027e+005,-1.13232081217213e+001,-1.70678890986813e+000

1.94271181503206e+005,-1.13231984027914e+001,-1.73061591860936e+000

1.96983106135185e+005,-1.13231884107423e+001,-1.75477558769966e+000

1.99732887824256e+005,-1.13231781379022e+001,-1.77927256292871e+000

2.02521055035243e+005,-1.13231675763842e+001,-1.80411155502660e+000

2.05348143610063e+005,-1.13231567180798e+001,-1.82929734057136e+000

2.08214696870707e+005,-1.13231455546531e+001,-1.85483476291338e+000

2.11121265723661e+005,-1.13231340775344e+001,-1.88072873311115e+000

2.14068408765776e+005,-1.13231222779133e+001,-1.90698423088042e+000

2.17056692391625e+005,-1.13231101467324e+001,-1.93360630555668e+000

2.20086690902357e+005,-1.13230976746801e+001,-1.96060007707211e+000

2.23158986616063e+005,-1.13230848521836e+001,-1.98797073694566e+000

2.26274169979693e+005,-1.13230716694017e+001,-2.01572354928711e+000

2.29432839682530e+005,-1.13230581162169e+001,-2.04386385181456e+000

2.32635602771247e+005,-1.13230441822280e+001,-2.07239705688966e+000

2.35883074766574e+005,-1.13230298567422e+001,-2.10132865256181e+000

2.39175879781588e+005,-1.13230151287668e+001,-2.13066420363394e+000

2.42514650641661e+005,-1.13229999870008e+001,-2.16040935273709e+000

2.45900029006080e+005,-1.13229844198261e+001,-2.19056982142522e+000

2.49332665491357e+005,-1.13229684152994e+001,-2.22115141128148e+000

2.52813219796278e+005,-1.13229519611418e+001,-2.25216000504464e+000

2.56342360828676e+005,-1.13229350447309e+001,-2.28360156774622e+000

2.59920766833993e+005,-1.13229176530901e+001,-2.31548214786907e+000

2.63549125525621e+005,-1.13228997728789e+001,-2.34780787851876e+000

2.67228134217075e+005,-1.13228813903833e+001,-2.38058497861344e+000

2.70958499956006e+005,-1.13228624915048e+001,-2.41381975408920e+000

2.74740939660078e+005,-1.13228430617496e+001,-2.44751859912498e+000

2.78576180254757e+005,-1.13228230862182e+001,-2.48168799738205e+000

2.82464958813007e+005,-1.13228025495934e+001,-2.51633452326371e+000

2.86408022696948e+005,-1.13227814361289e+001,-2.55146484319100e+000

2.90406129701488e+005,-1.13227597296374e+001,-2.58708571689847e+000

2.94460048199957e+005,-1.13227374134783e+001,-2.62320399874654e+000

2.98570557291775e+005,-1.13227144705446e+001,-2.65982663905435e+000

3.02738446952187e+005,-1.13226908832508e+001,-2.69696068545070e+000

3.06964518184081e+005,-1.13226666335184e+001,-2.73461328424457e+000

3.11249583171928e+005,-1.13226417027634e+001,-2.77279168181526e+000

3.15594465437872e+005,-1.13226160718811e+001,-2.81150322602263e+000

3.19999999999997e+005,-1.13225897212323e+001,-2.85075536763784e+000

3.24467033532806e+005,-1.13225626306280e+001,-2.89055566179359e+000

3.28996424529938e+005,-1.13225347793145e+001,-2.93091176945610e+000

3.33589043469155e+005,-1.13225061459573e+001,-2.97183145891921e+000

3.38245772979638e+005,-1.13224767086250e+001,-3.01332260731650e+000

3.42967508011610e+005,-1.13224464447729e+001,-3.05539320216050e+000

3.47755156008335e+005,-1.13224153312256e+001,-3.09805134289860e+000

3.52609637080511e+005,-1.13223833441599e+001,-3.14130524249547e+000

3.57531884183106e+005,-1.13223504590864e+001,-3.18516322903699e+000

3.62522843294651e+005,-1.13223166508310e+001,-3.22963374735613e+000

3.67583473599047e+005,-1.13222818935162e+001,-3.27472536068497e+000

3.72714747669902e+005,-1.13222461605413e+001,-3.32044675232767e+000

3.77917651657445e+005,-1.13222094245622e+001,-3.36680672736073e+000

3.83193185478053e+005,-1.13221716574712e+001,-3.41381421435535e+000

3.88542363006410e+005,-1.13221328303753e+001,-3.46147826712745e+000

3.93966212270369e+005,-1.13220929135748e+001,-3.50980806650935e+000

3.99465775648511e+005,-1.13220518765406e+001,-3.55881292215210e+000

4.05042110070485e+005,-1.13220096878918e+001,-3.60850227434931e+000

4.10696287220124e+005,-1.13219663153713e+001,-3.65888569589178e+000

4.16429393741414e+005,-1.13219217258220e+001,-3.70997289394652e+000

4.22242531447321e+005,-1.13218758851619e+001,-3.76177371196370e+000

4.28136817531551e+005,-1.13218287583586e+001,-3.81429813161313e+000

4.34113384783250e+005,-1.13217803094024e+001,-3.86755627474661e+000

4.40173381804713e+005,-1.13217305012801e+001,-3.92155840539180e+000

4.46317973232124e+005,-1.13216792959467e+001,-3.97631493177332e+000

4.52548339959385e+005,-1.13216266542972e+001,-4.03183640836506e+000

4.58865679365059e+005,-1.13215725361372e+001,-4.08813353797127e+000

4.65271205542494e+005,-1.13215169001528e+001,-4.14521717384083e+000

4.71766149533147e+005,-1.13214597038798e+001,-4.20309832180962e+000

4.78351759563174e+005,-1.13214009036723e+001,-4.26178814247740e+000

4.85029301283321e+005,-1.13213404546695e+001,-4.32129795341571e+000

4.91800058012158e+005,-1.13212783107627e+001,-4.38163923140905e+000

4.98665330982714e+005,-1.13212144245610e+001,-4.44282361472867e+000

5.05626439592555e+005,-1.13211487473559e+001,-4.50486290544139e+000

5.12684721657352e+005,-1.13210812290852e+001,-4.56776907175216e+000

5.19841533667984e+005,-1.13210118182955e+001,-4.63155425038187e+000

5.27098251051240e+005,-1.13209404621045e+001,-4.69623074898127e+000

5.34456268434150e+005,-1.13208671061618e+001,-4.76181104858015e+000

5.41916999912011e+005,-1.13207916946081e+001,-4.82830780607475e+000

