Freq.,VOut,OutRef

1.00000000000000e+004,-8.18955207281132e+000,-1.40190780210481e-001

1.01395947979003e+004,-8.18955190098448e+000,-1.42147771913079e-001

1.02811382665607e+004,-8.18955172432700e+000,-1.44132082258122e-001

1.04246576084112e+004,-8.18955154270295e+000,-1.46144092603147e-001

1.05701804056138e+004,-8.18955135597283e+000,-1.48184189627455e-001

1.07177346253629e+004,-8.18955116399316e+000,-1.50252765408234e-001

1.08673486252606e+004,-8.18955096661603e+000,-1.52350217499187e-001

1.10190511587661e+004,-8.18955076368984e+000,-1.54476949000607e-001

1.11728713807222e+004,-8.18955055505869e+000,-1.56633368639994e-001

1.13288388529580e+004,-8.18955034056228e+000,-1.58819890851071e-001

1.14869835499703e+004,-8.18955012003540e+000,-1.61036935854916e-001

1.16473358646846e+004,-8.18954989330871e+000,-1.63284929736424e-001

1.18099266142953e+004,-8.18954966020794e+000,-1.65564304528818e-001

1.19747870461893e+004,-8.18954942055380e+000,-1.67875498297447e-001

1.21419488439505e+004,-8.18954917416205e+000,-1.70218955222744e-001

1.23114441334492e+004,-8.18954892084328e+000,-1.72595125685474e-001

1.24833054890161e+004,-8.18954866040284e+000,-1.75004466353250e-001

1.26575659397028e+004,-8.18954839264043e+000,-1.77447440269495e-001

1.28342589756290e+004,-8.18954811735020e+000,-1.79924516941363e-001

1.30134185544193e+004,-8.18954783432048e+000,-1.82436172430684e-001

1.31950791077289e+004,-8.18954754333395e+000,-1.84982889443014e-001

1.33792755478611e+004,-8.18954724416644e+000,-1.87565157426754e-001

1.35660432744767e+004,-8.18954693658825e+000,-1.90183472658828e-001

1.37554181813974e+004,-8.18954662036307e+000,-1.92838338344427e-001

1.39474366635040e+004,-8.18954629524752e+000,-1.95530264716593e-001

1.41421356237309e+004,-8.18954596099180e+000,-1.98259769128110e-001

1.43395524801583e+004,-8.18954561733883e+000,-2.01027376156300e-001

1.45397251732031e+004,-8.18954526402447e+000,-2.03833617699776e-001

1.47426921729110e+004,-8.18954490077711e+000,-2.06679033083273e-001

1.49484924863494e+004,-8.18954452731764e+000,-2.09564169159296e-001

1.51571656651040e+004,-8.18954414335888e+000,-2.12489580415858e-001

1.53687518128801e+004,-8.18954374860551e+000,-2.15455829082557e-001

1.55832915932100e+004,-8.18954334275406e+000,-2.18463485236074e-001

1.58008262372675e+004,-8.18954292549276e+000,-2.21513126910470e-001

1.60213975517924e+004,-8.18954249650078e+000,-2.24605340210940e-001

1.62450479271247e+004,-8.18954205544809e+000,-2.27740719425736e-001

1.64718203453514e+004,-8.18954160199580e+000,-2.30919867137151e-001

1.67017583885674e+004,-8.18954113579531e+000,-2.34143394340507e-001

1.69349062472505e+004,-8.18954065648828e+000,-2.37411920560392e-001

1.71713087287550e+004,-8.18954016370609e+000,-2.40726073971295e-001

1.74110112659224e+004,-8.18953965707003e+000,-2.44086491515873e-001

1.76540599258131e+004,-8.18953913619055e+000,-2.47493819028955e-001

1.79005014185594e+004,-8.18953860066726e+000,-2.50948711361957e-001

1.81503831063432e+004,-8.18953805008839e+000,-2.54451832507736e-001

1.84037530124975e+004,-8.18953748403072e+000,-2.58003855728490e-001

1.86606598307361e+004,-8.18953690205925e+000,-2.61605463684824e-001

1.89211529345119e+004,-8.18953630372633e+000,-2.65257348569829e-001

1.91852823865052e+004,-8.18953568857204e+000,-2.68960212237999e-001

1.94530989482457e+004,-8.18953505612366e+000,-2.72714766341072e-001

1.97246540898671e+004,-8.18953440589476e+000,-2.76521732468202e-001

1.99999999999999e+004,-8.18953373738553e+000,-2.80381842281147e-001

2.02791895958005e+004,-8.18953305008217e+000,-2.84295837654822e-001

2.05622765331213e+004,-8.18953234345620e+000,-2.88264470822904e-001

2.08493152168224e+004,-8.18953161696444e+000,-2.92288504519608e-001

2.11403608112276e+004,-8.18953087004839e+000,-2.96368712127651e-001

2.14354692507258e+004,-8.18953010213377e+000,-3.00505877827232e-001

2.17346972505211e+004,-8.18952931263039e+000,-3.04700796744846e-001

2.20381023175322e+004,-8.18952850093123e+000,-3.08954275108071e-001

2.23457427614443e+004,-8.18952766641224e+000,-3.13267130400933e-001

2.26576777059159e+004,-8.18952680843191e+000,-3.17640191518909e-001

2.29739670999406e+004,-8.18952592633084e+000,-3.22074298928888e-001

2.32946717293690e+004,-8.18952501943065e+000,-3.26570304833909e-001

2.36198532285905e+004,-8.18952408703434e+000,-3.31129073331486e-001

2.39495740923785e+004,-8.18952312842506e+000,-3.35751480584682e-001

2.42838976879009e+004,-8.18952214286584e+000,-3.40438414988326e-001

2.46228882668982e+004,-8.18952112959923e+000,-3.45190777338275e-001

2.49666109780322e+004,-8.18952008784595e+000,-3.50009481009735e-001

2.53151318794055e+004,-8.18951901680542e+000,-3.54895452126106e-001

2.56685179512580e+004,-8.18951791565418e+000,-3.59849629742774e-001

2.60268371088386e+004,-8.18951678354569e+000,-3.64872966024436e-001

2.63901582154578e+004,-8.18951561960973e+000,-3.69966426429007e-001

2.67585510957221e+004,-8.18951442295146e+000,-3.75130989893866e-001

2.71320865489533e+004,-8.18951319265106e+000,-3.80367649022839e-001

2.75108363627948e+004,-8.18951192776260e+000,-3.85677410279100e-001

2.78948733270080e+004,-8.18951062731384e+000,-3.91061294175599e-001

2.82842712474618e+004,-8.18950929030496e+000,-3.96520335474930e-001

2.86791049603164e+004,-8.18950791570818e+000,-4.02055583385213e-001

2.90794503464061e+004,-8.18950650246680e+000,-4.07668101763964e-001

2.94853843458219e+004,-8.18950504949449e+000,-4.13358969320104e-001

2.98969849726987e+004,-8.18950355567410e+000,-4.19129279826207e-001

3.03143313302078e+004,-8.18950201985752e+000,-4.24980142321930e-001

3.07375036257601e+004,-8.18950044086383e+000,-4.30912681335148e-001

3.11665831864199e+004,-8.18949881747944e+000,-4.36928037090339e-001

3.16016524745350e+004,-8.18949714845625e+000,-4.43027365734498e-001

3.20427951035848e+004,-8.18949543251140e+000,-4.49211839554268e-001

3.24900958542493e+004,-8.18949366832561e+000,-4.55482647206566e-001

3.29436406907028e+004,-8.18949185454269e+000,-4.61840993943027e-001

3.34035167771346e+004,-8.18948998976848e+000,-4.68288101841678e-001

3.38698124945009e+004,-8.18948807256937e+000,-4.74825210046527e-001

3.43426174575100e+004,-8.18948610147163e+000,-4.81453575000137e-001

3.48220225318448e+004,-8.18948407495996e+000,-4.88174470690187e-001

3.53081198516260e+004,-8.18948199147655e+000,-4.94989188891128e-001

3.58010028371187e+004,-8.18947984941966e+000,-5.01899039414828e-001

3.63007662126863e+004,-8.18947764714293e+000,-5.08905350359345e-001

3.68075060249948e+004,-8.18947538295314e+000,-5.16009468370075e-001

3.73213196614721e+004,-8.18947305510995e+000,-5.23212758892428e-001

3.78423058690237e+004,-8.18947066182383e+000,-5.30516606439020e-001

3.83705647730104e+004,-8.18946820125499e+000,-5.37922414854155e-001

3.89061978964912e+004,-8.18946567151206e+000,-5.45431607583623e-001

3.94493081797342e+004,-8.18946307065032e+000,-5.53045627949917e-001

3.99999999999998e+004,-8.18946039667047e+000,-5.60765939428474e-001

4.05583791916010e+004,-8.18945764751693e+000,-5.68594025930842e-001

4.11245530662425e+004,-8.18945482107660e+000,-5.76531392087223e-001

4.16986304336447e+004,-8.18945191517661e+000,-5.84579563540513e-001

4.22807216224550e+004,-8.18944892758324e+000,-5.92740087235382e-001

4.28709385014515e+004,-8.18944585599988e+000,-6.01014531719431e-001

4.34693945010421e+004,-8.18944269806547e+000,-6.09404487441997e-001

4.40762046350642e+004,-8.18943945135258e+000,-6.17911567061865e-001

4.46914855228886e+004,-8.18943611336528e+000,-6.26537405759673e-001

4.53153554118317e+004,-8.18943268153788e+000,-6.35283661547076e-001

4.59479341998812e+004,-8.18942915323222e+000,-6.44152015591944e-001

4.65893434587380e+004,-8.18942552573626e+000,-6.53144172537203e-001

4.72397064571810e+004,-8.18942179626148e+000,-6.62261860832175e-001

4.78991481847569e+004,-8.18941796194121e+000,-6.71506833062967e-001

4.85677953758016e+004,-8.18941401982801e+000,-6.80880866291663e-001

4.92457765337964e+004,-8.18940996689163e+000,-6.90385762397564e-001

4.99332219560642e+004,-8.18940580001677e+000,-7.00023348422903e-001

5.06302637588109e+004,-8.18940151600043e+000,-7.09795476927022e-001

5.13370359025159e+004,-8.18939711154963e+000,-7.19704026341295e-001

5.20536742176771e+004,-8.18939258327883e+000,-7.29750901331105e-001

5.27803164309155e+004,-8.18938792770724e+000,-7.39938033163610e-001

5.35171021914442e+004,-8.18938314125639e+000,-7.50267380077222e-001

5.42641730979066e+004,-8.18937822024711e+000,-7.60740927661641e-001

5.50216727255895e+004,-8.18937316089684e+000,-7.71360689238074e-001

5.57897466540159e+004,-8.18936795931671e+000,-7.82128706248022e-001

5.65685424949235e+004,-8.18936261150851e+000,-7.93047048646326e-001

5.73582099206328e+004,-8.18935711336180e+000,-8.04117815298491e-001

5.81589006928121e+004,-8.18935146065032e+000,-8.15343134388306e-001

5.89707686916437e+004,-8.18934564902932e+000,-8.26725163823819e-001

5.97939699453972e+004,-8.18933967403178e+000,-8.38266091655739e-001

6.06286626604156e+004,-8.18933353106511e+000,-8.49968136498141e-001

6.14750072515201e+004,-8.18932721540768e+000,-8.61833547955986e-001

6.23331663728396e+004,-8.18932072220517e+000,-8.73864607058299e-001

6.32033049490698e+004,-8.18931404646684e+000,-8.86063626698288e-001

6.40855902071694e+004,-8.18930718306160e+000,-8.98432952078438e-001

6.49801917084985e+004,-8.18930012671420e+000,-9.10974961163510e-001

6.58872813814055e+004,-8.18929287200115e+000,-9.23692065137515e-001

6.68070335542691e+004,-8.18928541334647e+000,-9.36586708869808e-001

6.77396249890018e+004,-8.18927774501747e+000,-9.49661371385794e-001

6.86852349150199e+004,-8.18926986112043e+000,-9.62918566344317e-001

6.96440450636895e+004,-8.18926175559596e+000,-9.76360842523205e-001

7.06162397032520e+004,-8.18925342221425e+000,-9.89990784311310e-001

7.16020056742374e+004,-8.18924485457057e+000,-1.00381101220492e+000

7.26015324253724e+004,-8.18923604608016e+000,-1.01782418331464e+000

7.36150120499896e+004,-8.18922698997311e+000,-1.03203299187801e+000

7.46426393229441e+004,-8.18921767928941e+000,-1.04644016977816e+000

7.56846117380472e+004,-8.18920810687336e+000,-1.06104848707203e+000

7.67411295460207e+004,-8.18919826536806e+000,-1.07586075252458e+000

7.78123957929823e+004,-8.18918814721009e+000,-1.09087981414996e+000

7.88986163594682e+004,-8.18917774462326e+000,-1.10610855976247e+000

7.99999999999995e+004,-8.18916704961315e+000,-1.12154991753202e+000

8.11167583832018e+004,-8.18915605396048e+000,-1.13720685655144e+000

8.22491061324848e+004,-8.18914474921486e+000,-1.15308238740972e+000

8.33972608672892e+004,-8.18913312668880e+000,-1.16917956277062e+000

8.45614432449099e+004,-8.18912117745046e+000,-1.18550147796500e+000

8.57418770029029e+004,-8.18910889231700e+000,-1.20205127158816e+000

8.69387890020841e+004,-8.18909626184772e+000,-1.21883212610435e+000

8.81524092701283e+004,-8.18908327633645e+000,-1.23584726846402e+000

8.93829710457770e+004,-8.18906992580441e+000,-1.25309997072565e+000

9.06307108236633e+004,-8.18905619999252e+000,-1.27059355068778e+000

9.18958683997622e+004,-8.18904208835323e+000,-1.28833137253266e+000

9.31786869174758e+004,-8.18902758004279e+000,-1.30631684747417e+000

9.44794129143618e+004,-8.18901266391266e+000,-1.32455343441819e+000

9.57982963695136e+004,-8.18899732850127e+000,-1.34304464063123e+000

9.71355907516031e+004,-8.18898156202485e+000,-1.36179402241947e+000

9.84915530675926e+004,-8.18896535236856e+000,-1.38080518581623e+000

9.98664439121282e+004,-8.18894868707738e+000,-1.40008178727887e+000

1.01260527517622e+005,-8.18893155334617e+000,-1.41962753439806e+000

1.02674071805032e+005,-8.18891393801017e+000,-1.43944618661410e+000

1.04107348435354e+005,-8.18889582753474e+000,-1.45954155594511e+000

1.05560632861831e+005,-8.18887720800508e+000,-1.47991750772475e+000

1.07034204382888e+005,-8.18885806511542e+000,-1.50057796135201e+000

1.08528346195813e+005,-8.18883838415817e+000,-1.52152689104883e+000

1.10043345451179e+005,-8.18881815001259e+000,-1.54276832663147e+000

1.11579493308032e+005,-8.18879734713328e+000,-1.56430635429014e+000

1.13137084989847e+005,-8.18877595953801e+000,-1.58614511738281e+000

1.14716419841265e+005,-8.18875397079578e+000,-1.60828881723699e+000

1.16317801385624e+005,-8.18873136401406e+000,-1.63074171396555e+000

1.17941537383287e+005,-8.18870812182584e+000,-1.65350812729232e+000

1.19587939890794e+005,-8.18868422637635e+000,-1.67659243739090e+000

1.21257325320831e+005,-8.18865965930930e+000,-1.69999908573479e+000

1.22950014503040e+005,-8.18863440175297e+000,-1.72373257595953e+000

1.24666332745679e+005,-8.18860843430564e+000,-1.74779747473640e+000

1.26406609898139e+005,-8.18858173702067e+000,-1.77219841266143e+000

1.28171180414339e+005,-8.18855428939137e+000,-1.79694008515352e+000

1.29960383416997e+005,-8.18852607033504e+000,-1.82202725336835e+000

1.31774562762811e+005,-8.18849705817720e+000,-1.84746474512241e+000

1.33614067108538e+005,-8.18846723063458e+000,-1.87325745583403e+000

1.35479249978003e+005,-8.18843656479829e+000,-1.89941034947462e+000

1.37370469830040e+005,-8.18840503711635e+000,-1.92592845953446e+000

1.39288090127379e+005,-8.18837262337530e+000,-1.95281689000423e+000

1.41232479406504e+005,-8.18833929868205e+000,-1.98008081636766e+000

1.43204011348474e+005,-8.18830503744466e+000,-2.00772548661032e+000

1.45203064850745e+005,-8.18826981335258e+000,-2.03575622224307e+000

1.47230024099979e+005,-8.18823359935694e+000,-2.06417841933895e+000

1.49285278645888e+005,-8.18819636764944e+000,-2.09299754958619e+000

1.51369223476094e+005,-8.18815808964108e+000,-2.12221916135650e+000

1.53482259092041e+005,-8.18811873594074e+000,-2.15184888078683e+000

1.55624791585964e+005,-8.18807827633223e+000,-2.18189241287941e+000

1.57797232718936e+005,-8.18803667975119e+000,-2.21235554261733e+000

1.59999999999999e+005,-8.18799391426170e+000,-2.24324413609323e+000

1.62233516766403e+005,-8.18794994703150e+000,-2.27456414165861e+000

1.64498212264969e+005,-8.18790474430703e+000,-2.30632159108706e+000

1.66794521734578e+005,-8.18785827138764e+000,-2.33852260075529e+000

1.69122886489819e+005,-8.18781049259904e+000,-2.37117337284106e+000

1.71483754005805e+005,-8.18776137126600e+000,-2.40428019653917e+000

1.73877578004168e+005,-8.18771086968439e+000,-2.43784944929432e+000

1.76304818540256e+005,-8.18765894909230e+000,-2.47188759805294e+000

1.78765942091554e+005,-8.18760556964063e+000,-2.50640120053160e+000

1.81261421647326e+005,-8.18755069036235e+000,-2.54139690650669e+000

1.83791736799524e+005,-8.18749426914145e+000,-2.57688145912061e+000

1.86357373834951e+005,-8.18743626268074e+000,-2.61286169620770e+000

1.88958825828723e+005,-8.18737662646866e+000,-2.64934455164119e+000

1.91596592739027e+005,-8.18731531474563e+000,-2.68633705669677e+000

1.94271181503206e+005,-8.18725228046886e+000,-2.72384634143968e+000

1.96983106135185e+005,-8.18718747527649e+000,-2.76187963613083e+000

1.99732887824256e+005,-8.18712084945086e+000,-2.80044427265247e+000

2.02521055035243e+005,-8.18705235188049e+000,-2.83954768595700e+000

2.05348143610063e+005,-8.18698193002120e+000,-2.87919741553587e+000

2.08214696870707e+005,-8.18690952985597e+000,-2.91940110691145e+000

2.11121265723661e+005,-8.18683509585380e+000,-2.96016651314988e+000

2.14068408765776e+005,-8.18675857092759e+000,-3.00150149639664e+000

2.17056692391625e+005,-8.18667989639038e+000,-3.04341402943644e+000

2.20086690902357e+005,-8.18659901191096e+000,-3.08591219727392e+000

2.23158986616063e+005,-8.18651585546772e+000,-3.12900419874117e+000

2.26274169979693e+005,-8.18643036330165e+000,-3.17269834812541e+000

2.29432839682530e+005,-8.18634246986772e+000,-3.21700307682546e+000

2.32635602771247e+005,-8.18625210778505e+000,-3.26192693502979e+000

2.35883074766574e+005,-8.18615920778582e+000,-3.30747859342138e+000

2.39175879781588e+005,-8.18606369866253e+000,-3.35366684490766e+000

2.42514650641661e+005,-8.18596550721379e+000,-3.40050060637839e+000

2.45900029006080e+005,-8.18586455818904e+000,-3.44798892048694e+000

2.49332665491357e+005,-8.18576077423115e+000,-3.49614095746237e+000

2.52813219796278e+005,-8.18565407581787e+000,-3.54496601694571e+000

2.56342360828676e+005,-8.18554438120142e+000,-3.59447352985776e+000

2.59920766833993e+005,-8.18543160634657e+000,-3.64467306029206e+000

2.63549125525621e+005,-8.18531566486688e+000,-3.69557430743950e+000

2.67228134217075e+005,-8.18519646795940e+000,-3.74718710754045e+000

2.70958499956006e+005,-8.18507392433719e+000,-3.79952143586978e+000

2.74740939660078e+005,-8.18494794016036e+000,-3.85258740874920e+000

2.78576180254757e+005,-8.18481841896506e+000,-3.90639528559348e+000

2.82464958813007e+005,-8.18468526159043e+000,-3.96095547098722e+000

2.86408022696948e+005,-8.18454836610385e+000,-4.01627851679355e+000

2.90406129701488e+005,-8.18440762772358e+000,-4.07237512429771e+000

2.94460048199957e+005,-8.18426293873990e+000,-4.12925614638190e+000

2.98570557291775e+005,-8.18411418843376e+000,-4.18693258973566e+000

3.02738446952187e+005,-8.18396126299310e+000,-4.24541561710103e+000

3.06964518184081e+005,-8.18380404542721e+000,-4.30471654955241e+000

3.11249583171928e+005,-8.18364241547846e+000,-4.36484686881353e+000

3.15594465437872e+005,-8.18347624953169e+000,-4.42581821961076e+000

3.19999999999997e+005,-8.18330542052133e+000,-4.48764241206371e+000

3.24467033532806e+005,-8.18312979783550e+000,-4.55033142411513e+000

3.28996424529938e+005,-8.18294924721814e+000,-4.61389740399824e+000

3.33589043469155e+005,-8.18276363066794e+000,-4.67835267274516e+000

3.38245772979638e+005,-8.18257280633472e+000,-4.74370972673560e+000

3.42967508011610e+005,-8.18237662841309e+000,-4.80998124028631e+000

3.47755156008335e+005,-8.18217494703303e+000,-4.87718006828314e+000

3.52609637080511e+005,-8.18196760814759e+000,-4.94531924885680e+000

3.57531884183106e+005,-8.18175445341769e+000,-5.01441200610070e+000

3.62522843294651e+005,-8.18153532009339e+000,-5.08447175283567e+000

3.67583473599047e+005,-8.18131004089251e+000,-5.15551209341832e+000

3.72714747669902e+005,-8.18107844387547e+000,-5.22754682659794e+000

3.77917651657445e+005,-8.18084035231701e+000,-5.30058994841974e+000

3.83193185478053e+005,-8.18059558457443e+000,-5.37465565517685e+000

3.88542363006410e+005,-8.18034395395226e+000,-5.44975834641208e+000

3.93966212270369e+005,-8.18008526856327e+000,-5.52591262797050e+000

3.99465775648511e+005,-8.17981933118570e+000,-5.60313331510335e+000

4.05042110070485e+005,-8.17954593911677e+000,-5.68143543562509e+000

4.10696287220124e+005,-8.17926488402237e+000,-5.76083423312373e+000

4.16429393741414e+005,-8.17897595178229e+000,-5.84134517022784e+000

4.22242531447321e+005,-8.17867892233192e+000,-5.92298393192711e+000

4.28136817531551e+005,-8.17837356949921e+000,-6.00576642895435e+000

4.34113384783250e+005,-8.17805966083753e+000,-6.08970880122271e+000

4.40173381804713e+005,-8.17773695745433e+000,-6.17482742132436e+000

4.46317973232124e+005,-8.17740521383456e+000,-6.26113889809206e+000

4.52548339959385e+005,-8.17706417766027e+000,-6.34866008022132e+000

4.58865679365059e+005,-8.17671358962475e+000,-6.43740805995840e+000

4.65271205542494e+005,-8.17635318324220e+000,-6.52740017685375e+000

4.71766149533147e+005,-8.17598268465217e+000,-6.61865402158215e+000

4.78351759563174e+005,-8.17560181241904e+000,-6.71118743983297e+000

4.85029301283321e+005,-8.17521027732598e+000,-6.80501853626993e+000

4.91800058012158e+005,-8.17480778216383e+000,-6.90016567856331e+000

4.98665330982714e+005,-8.17439402151426e+000,-6.99664750149641e+000

5.05626439592555e+005,-8.17396868152738e+000,-7.09448291114655e+000

5.12684721657352e+005,-8.17353143969360e+000,-7.19369108914584e+000

5.19841533667984e+005,-8.17308196460949e+000,-7.29429149701820e+000

5.27098251051240e+005,-8.17261991573770e+000,-7.39630388060032e+000

5.34456268434150e+005,-8.17214494316046e+000,-7.49974827454504e+000

5.41916999912011e+005,-8.17165668732734e+000,-7.60464500690935e+000

