Freq.,VOut,OutRef

1.00000000000000e+004,-1.92706961111829e+001,-1.56090063640612e-001

1.01395947979003e+004,-1.92706963507008e+001,-1.58268998164343e-001

1.02811382665607e+004,-1.92706965969524e+001,-1.60478349414311e-001

1.04246576084112e+004,-1.92706968501270e+001,-1.62718541988876e-001

1.05701804056138e+004,-1.92706971104194e+001,-1.64990006413935e-001

1.07177346253629e+004,-1.92706973780297e+001,-1.67293179225299e-001

1.08673486252606e+004,-1.92706976531634e+001,-1.69628503052494e-001

1.10190511587661e+004,-1.92706979360321e+001,-1.71996426704127e-001

1.11728713807222e+004,-1.92706982268533e+001,-1.74397405252575e-001

1.13288388529580e+004,-1.92706985258507e+001,-1.76831900123350e-001

1.14869835499703e+004,-1.92706988332538e+001,-1.79300379184563e-001

1.16473358646846e+004,-1.92706991492994e+001,-1.81803316831409e-001

1.18099266142953e+004,-1.92706994742302e+001,-1.84341194084986e-001

1.19747870461893e+004,-1.92706998082959e+001,-1.86914498680355e-001

1.21419488439505e+004,-1.92707001517536e+001,-1.89523725159240e-001

1.23114441334492e+004,-1.92707005048670e+001,-1.92169374968659e-001

1.24833054890161e+004,-1.92707008679078e+001,-1.94851956554150e-001

1.26575659397028e+004,-1.92707012411550e+001,-1.97571985459651e-001

1.28342589756290e+004,-1.92707016248956e+001,-2.00329984423559e-001

1.30134185544193e+004,-1.92707020194247e+001,-2.03126483483279e-001

1.31950791077289e+004,-1.92707024250453e+001,-2.05962020074834e-001

1.33792755478611e+004,-1.92707028420695e+001,-2.08837139136039e-001

1.35660432744767e+004,-1.92707032708179e+001,-2.11752393210081e-001

1.37554181813974e+004,-1.92707037116197e+001,-2.14708342556592e-001

1.39474366635040e+004,-1.92707041648144e+001,-2.17705555251015e-001

1.41421356237309e+004,-1.92707046307499e+001,-2.20744607303315e-001

1.43395524801583e+004,-1.92707051097847e+001,-2.23826082760579e-001

1.45397251732031e+004,-1.92707056022868e+001,-2.26950573824578e-001

1.47426921729110e+004,-1.92707061086350e+001,-2.30118680962304e-001

1.49484924863494e+004,-1.92707066292186e+001,-2.33331013022690e-001

1.51571656651040e+004,-1.92707071644377e+001,-2.36588187355398e-001

1.53687518128801e+004,-1.92707077147038e+001,-2.39890829924928e-001

1.55832915932100e+004,-1.92707082804398e+001,-2.43239575435682e-001

1.58008262372675e+004,-1.92707088620808e+001,-2.46635067450286e-001

1.60213975517924e+004,-1.92707094600737e+001,-2.50077958515751e-001

1.62450479271247e+004,-1.92707100748787e+001,-2.53568910286205e-001

1.64718203453514e+004,-1.92707107069679e+001,-2.57108593655250e-001

1.67017583885674e+004,-1.92707113568275e+001,-2.60697688877090e-001

1.69349062472505e+004,-1.92707120249570e+001,-2.64336885704314e-001

1.71713087287550e+004,-1.92707127118701e+001,-2.68026883516165e-001

1.74110112659224e+004,-1.92707134180949e+001,-2.71768391455143e-001

1.76540599258131e+004,-1.92707141441741e+001,-2.75562128562737e-001

1.79005014185594e+004,-1.92707148906661e+001,-2.79408823915458e-001

1.81503831063432e+004,-1.92707156581447e+001,-2.83309216768327e-001

1.84037530124975e+004,-1.92707164472000e+001,-2.87264056695145e-001

1.86606598307361e+004,-1.92707172584383e+001,-2.91274103733015e-001

1.89211529345119e+004,-1.92707180924836e+001,-2.95340128527085e-001

1.91852823865052e+004,-1.92707189499769e+001,-2.99462912479843e-001

1.94530989482457e+004,-1.92707198315774e+001,-3.03643247902056e-001

1.97246540898671e+004,-1.92707207379629e+001,-3.07881938162384e-001

1.99999999999999e+004,-1.92707216698302e+001,-3.12179797844650e-001

2.02791895958005e+004,-1.92707226278956e+001,-3.16537652902043e-001

2.05622765331213e+004,-1.92707236128955e+001,-3.20956340817704e-001

2.08493152168224e+004,-1.92707246255874e+001,-3.25436710763368e-001

2.11403608112276e+004,-1.92707256667496e+001,-3.29979623765470e-001

2.14354692507258e+004,-1.92707267371827e+001,-3.34585952866668e-001

2.17346972505211e+004,-1.92707278377095e+001,-3.39256583298182e-001

2.20381023175322e+004,-1.92707289691759e+001,-3.43992412646256e-001

2.23457427614443e+004,-1.92707301324518e+001,-3.48794351025927e-001

2.26576777059159e+004,-1.92707313284316e+001,-3.53663321255361e-001

2.29739670999406e+004,-1.92707325580345e+001,-3.58600259035723e-001

2.32946717293690e+004,-1.92707338222059e+001,-3.63606113125721e-001

2.36198532285905e+004,-1.92707351219176e+001,-3.68681845528776e-001

2.39495740923785e+004,-1.92707364581687e+001,-3.73828431675271e-001

2.42838976879009e+004,-1.92707378319865e+001,-3.79046860611602e-001

2.46228882668982e+004,-1.92707392444271e+001,-3.84338135188143e-001

2.49666109780322e+004,-1.92707406965762e+001,-3.89703272253587e-001

2.53151318794055e+004,-1.92707421895503e+001,-3.95143302848787e-001

2.56685179512580e+004,-1.92707437244970e+001,-4.00659272407308e-001

2.60268371088386e+004,-1.92707453025963e+001,-4.06252240952967e-001

2.63901582154578e+004,-1.92707469250615e+001,-4.11923283305199e-001

2.67585510957221e+004,-1.92707485931397e+001,-4.17673489287343e-001

2.71320865489533e+004,-1.92707503081132e+001,-4.23503963931921e-001

2.75108363627948e+004,-1.92707520713004e+001,-4.29415827696469e-001

2.78948733270080e+004,-1.92707538840567e+001,-4.35410216675828e-001

2.82842712474618e+004,-1.92707557477758e+001,-4.41488282823218e-001

2.86791049603164e+004,-1.92707576638901e+001,-4.47651194170123e-001

2.90794503464061e+004,-1.92707596338729e+001,-4.53900135048516e-001

2.94853843458219e+004,-1.92707616592384e+001,-4.60236306323478e-001

2.98969849726987e+004,-1.92707637415436e+001,-4.66660925619202e-001

3.03143313302078e+004,-1.92707658823893e+001,-4.73175227553640e-001

3.07375036257601e+004,-1.92707680834212e+001,-4.79780463978587e-001

3.11665831864199e+004,-1.92707703463312e+001,-4.86477904216565e-001

3.16016524745350e+004,-1.92707726728591e+001,-4.93268835305673e-001

3.20427951035848e+004,-1.92707750647930e+001,-5.00154562248202e-001

3.24900958542493e+004,-1.92707775239720e+001,-5.07136408259262e-001

3.29436406907028e+004,-1.92707800522863e+001,-5.14215715021981e-001

3.34035167771346e+004,-1.92707826516796e+001,-5.21393842944920e-001

3.38698124945009e+004,-1.92707853241500e+001,-5.28672171423255e-001

3.43426174575100e+004,-1.92707880717519e+001,-5.36052099103727e-001

3.48220225318448e+004,-1.92707908965975e+001,-5.43535044152901e-001

3.53081198516260e+004,-1.92707938008583e+001,-5.51122444530325e-001

3.58010028371187e+004,-1.92707967867668e+001,-5.58815758263741e-001

3.63007662126863e+004,-1.92707998566183e+001,-5.66616463729108e-001

3.68075060249948e+004,-1.92708030127726e+001,-5.74526059935033e-001

3.73213196614721e+004,-1.92708062576561e+001,-5.82546066809743e-001

3.78423058690237e+004,-1.92708095937628e+001,-5.90678025494587e-001

3.83705647730104e+004,-1.92708130236574e+001,-5.98923498637049e-001

3.89061978964912e+004,-1.92708165499764e+001,-6.07284070693688e-001

3.94493081797342e+004,-1.92708201754306e+001,-6.15761348232044e-001

3.99999999999998e+004,-1.92708239028068e+001,-6.24356960241020e-001

4.05583791916010e+004,-1.92708277349702e+001,-6.33072558441988e-001

4.11245530662425e+004,-1.92708316748666e+001,-6.41909817605851e-001

4.16986304336447e+004,-1.92708357255246e+001,-6.50870435876300e-001

4.22807216224550e+004,-1.92708398900579e+001,-6.59956135093993e-001

4.28709385014515e+004,-1.92708441716676e+001,-6.69168661127561e-001

4.34693945010421e+004,-1.92708485736451e+001,-6.78509784208628e-001

4.40762046350642e+004,-1.92708530993740e+001,-6.87981299272006e-001

4.46914855228886e+004,-1.92708577523332e+001,-6.97585026299169e-001

4.53153554118317e+004,-1.92708625360993e+001,-7.07322810669093e-001

4.59479341998812e+004,-1.92708674543496e+001,-7.17196523510135e-001

4.65893434587380e+004,-1.92708725108643e+001,-7.27208062062189e-001

4.72397064571810e+004,-1.92708777095306e+001,-7.37359350036459e-001

4.78991481847569e+004,-1.92708830543442e+001,-7.47652337989841e-001

4.85677953758016e+004,-1.92708885494137e+001,-7.58089003694357e-001

4.92457765337964e+004,-1.92708941989629e+001,-7.68671352518450e-001

4.99332219560642e+004,-1.92709000073342e+001,-7.79401417813780e-001

5.06302637588109e+004,-1.92709059789925e+001,-7.90281261301419e-001

5.13370359025159e+004,-1.92709121185277e+001,-8.01312973470074e-001

5.20536742176771e+004,-1.92709184306590e+001,-8.12498673976486e-001

5.27803164309155e+004,-1.92709249202383e+001,-8.23840512051085e-001

5.35171021914442e+004,-1.92709315922536e+001,-8.35340666911415e-001

5.42641730979066e+004,-1.92709384518333e+001,-8.47001348179530e-001

5.50216727255895e+004,-1.92709455042500e+001,-8.58824796305406e-001

5.57897466540159e+004,-1.92709527549242e+001,-8.70813282997662e-001

5.65685424949235e+004,-1.92709602094293e+001,-8.82969111656922e-001

5.73582099206328e+004,-1.92709678734945e+001,-8.95294617821296e-001

5.81589006928121e+004,-1.92709757530110e+001,-9.07792169609329e-001

5.89707686916437e+004,-1.92709838540348e+001,-9.20464168177869e-001

5.97939699453972e+004,-1.92709921827925e+001,-9.33313048181380e-001

6.06286626604156e+004,-1.92710007456856e+001,-9.46341278236535e-001

6.14750072515201e+004,-1.92710095492954e+001,-9.59551361399145e-001

6.23331663728396e+004,-1.92710186003886e+001,-9.72945835639873e-001

6.32033049490698e+004,-1.92710279059215e+001,-9.86527274333385e-001

6.40855902071694e+004,-1.92710374730463e+001,-1.00029828675118e+000

6.49801917084985e+004,-1.92710473091159e+001,-1.01426151856035e+000

6.58872813814055e+004,-1.92710574216903e+001,-1.02841965233081e+000

6.68070335542691e+004,-1.92710678185415e+001,-1.04277540804999e+000

6.77396249890018e+004,-1.92710785076601e+001,-1.05733154364365e+000

6.86852349150199e+004,-1.92710894972614e+001,-1.07209085550283e+000

6.96440450636895e+004,-1.92711007957913e+001,-1.08705617902158e+000

7.06162397032520e+004,-1.92711124119333e+001,-1.10223038913873e+000

7.16020056742374e+004,-1.92711243546148e+001,-1.11761640088739e+000

7.26015324253724e+004,-1.92711366330140e+001,-1.13321716995612e+000

7.36150120499896e+004,-1.92711492565673e+001,-1.14903569325075e+000

7.46426393229441e+004,-1.92711622349759e+001,-1.16507500947204e+000

7.56846117380472e+004,-1.92711755782138e+001,-1.18133819969433e+000

7.67411295460207e+004,-1.92711892965355e+001,-1.19782838795662e+000

7.78123957929823e+004,-1.92712034004833e+001,-1.21454874186005e+000

7.88986163594682e+004,-1.92712179008957e+001,-1.23150247317443e+000

7.99999999999995e+004,-1.92712328089162e+001,-1.24869283845132e+000

8.11167583832018e+004,-1.92712481360010e+001,-1.26612313964893e+000

8.22491061324848e+004,-1.92712638939283e+001,-1.28379672476219e+000

8.33972608672892e+004,-1.92712800948073e+001,-1.30171698846362e+000

8.45614432449099e+004,-1.92712967510875e+001,-1.31988737275185e+000

8.57418770029029e+004,-1.92713138755681e+001,-1.33831136761042e+000

8.69387890020841e+004,-1.92713314814079e+001,-1.35699251167474e+000

8.81524092701283e+004,-1.92713495821355e+001,-1.37593439290838e+000

8.93829710457770e+004,-1.92713681916594e+001,-1.39514064928769e+000

9.06307108236633e+004,-1.92713873242792e+001,-1.41461496949923e+000

9.18958683997622e+004,-1.92714069946959e+001,-1.43436109364150e+000

9.31786869174758e+004,-1.92714272180237e+001,-1.45438281394192e+000

9.44794129143618e+004,-1.92714480098014e+001,-1.47468397547926e+000

9.57982963695136e+004,-1.92714693860043e+001,-1.49526847691907e+000

9.71355907516031e+004,-1.92714913630564e+001,-1.51614027125658e+000

9.84915530675926e+004,-1.92715139578433e+001,-1.53730336657259e+000

9.98664439121282e+004,-1.92715371877248e+001,-1.55876182679680e+000

1.01260527517622e+005,-1.92715610705481e+001,-1.58051977248521e+000

1.02674071805032e+005,-1.92715856246624e+001,-1.60258138160361e+000

1.04107348435354e+005,-1.92716108689314e+001,-1.62495089032692e+000

1.05560632861831e+005,-1.92716368227496e+001,-1.64763259384438e+000

1.07034204382888e+005,-1.92716635060555e+001,-1.67063084718035e+000

1.08528346195813e+005,-1.92716909393480e+001,-1.69395006602323e+000

1.10043345451179e+005,-1.92717191437017e+001,-1.71759472756699e+000

1.11579493308032e+005,-1.92717481407830e+001,-1.74156937136424e+000

1.13137084989847e+005,-1.92717779528668e+001,-1.76587860019052e+000

1.14716419841265e+005,-1.92718086028536e+001,-1.79052708092110e+000

1.16317801385624e+005,-1.92718401142870e+001,-1.81551954541822e+000

1.17941537383287e+005,-1.92718725113720e+001,-1.84086079143237e+000

1.19587939890794e+005,-1.92719058189928e+001,-1.86655568351551e+000

1.21257325320831e+005,-1.92719400627328e+001,-1.89260915394471e+000

1.22950014503040e+005,-1.92719752688936e+001,-1.91902620366099e+000

1.24666332745679e+005,-1.92720114645153e+001,-1.94581190321999e+000

1.26406609898139e+005,-1.92720486773973e+001,-1.97297139375456e+000

1.28171180414339e+005,-1.92720869361194e+001,-2.00050988795187e+000

1.29960383416997e+005,-1.92721262700639e+001,-2.02843267104328e+000

1.31774562762811e+005,-1.92721667094379e+001,-2.05674510180719e+000

1.33614067108538e+005,-1.92722082852966e+001,-2.08545261358630e+000

1.35479249978003e+005,-1.92722510295670e+001,-2.11456071531806e+000

1.37370469830040e+005,-1.92722949750722e+001,-2.14407499257894e+000

1.39288090127379e+005,-1.92723401555566e+001,-2.17400110864435e+000

1.41232479406504e+005,-1.92723866057121e+001,-2.20434480555961e+000

1.43204011348474e+005,-1.92724343612039e+001,-2.23511190522939e+000

1.45203064850745e+005,-1.92724834586984e+001,-2.26630831051896e+000

1.47230024099979e+005,-1.92725339358910e+001,-2.29794000637076e+000

1.49285278645888e+005,-1.92725858315349e+001,-2.33001306093825e+000

1.51369223476094e+005,-1.92726391854709e+001,-2.36253362673101e+000

1.53482259092041e+005,-1.92726940386575e+001,-2.39550794177893e+000

1.55624791585964e+005,-1.92727504332028e+001,-2.42894233080991e+000

1.57797232718936e+005,-1.92728084123961e+001,-2.46284320644375e+000

1.59999999999999e+005,-1.92728680207413e+001,-2.49721707040290e+000

1.62233516766403e+005,-1.92729293039907e+001,-2.53207051473805e+000

1.64498212264969e+005,-1.92729923091802e+001,-2.56741022307153e+000

1.66794521734578e+005,-1.92730570846652e+001,-2.60324297185532e+000

1.69122886489819e+005,-1.92731236801570e+001,-2.63957563164848e+000

1.71483754005805e+005,-1.92731921467616e+001,-2.67641516840822e+000

1.73877578004168e+005,-1.92732625370180e+001,-2.71376864480241e+000

1.76304818540256e+005,-1.92733349049388e+001,-2.75164322153479e+000

1.78765942091554e+005,-1.92734093060509e+001,-2.79004615869145e+000

1.81261421647326e+005,-1.92734857974384e+001,-2.82898481710267e+000

1.83791736799524e+005,-1.92735644377858e+001,-2.86846665972514e+000

1.86357373834951e+005,-1.92736452874227e+001,-2.90849925303922e+000

1.88958825828723e+005,-1.92737284083700e+001,-2.94909026846803e+000

1.91596592739027e+005,-1.92738138643871e+001,-2.99024748381216e+000

1.94271181503206e+005,-1.92739017210204e+001,-3.03197878470574e+000

1.96983106135185e+005,-1.92739920456535e+001,-3.07429216608876e+000

1.99732887824256e+005,-1.92740849075579e+001,-3.11719573370257e+000

2.02521055035243e+005,-1.92741803779466e+001,-3.16069770559986e+000

2.05348143610063e+005,-1.92742785300275e+001,-3.20480641367869e+000

2.08214696870707e+005,-1.92743794390596e+001,-3.24953030523448e+000

2.11121265723661e+005,-1.92744831824102e+001,-3.29487794453164e+000

2.14068408765776e+005,-1.92745898396136e+001,-3.34085801439679e+000

2.17056692391625e+005,-1.92746994924313e+001,-3.38747931783161e+000

2.20086690902357e+005,-1.92748122249150e+001,-3.43475077964628e+000

2.23158986616063e+005,-1.92749281234695e+001,-3.48268144811561e+000

2.26274169979693e+005,-1.92750472769189e+001,-3.53128049665368e+000

2.29432839682530e+005,-1.92751697765739e+001,-3.58055722551207e+000

2.32635602771247e+005,-1.92752957163009e+001,-3.63052106349865e+000

2.35883074766574e+005,-1.92754251925937e+001,-3.68118156971856e+000

2.39175879781588e+005,-1.92755583046461e+001,-3.73254843533668e+000

2.42514650641661e+005,-1.92756951544275e+001,-3.78463148536318e+000

2.45900029006080e+005,-1.92758358467602e+001,-3.83744068046123e+000

2.49332665491357e+005,-1.92759804893984e+001,-3.89098611877663e+000

2.52813219796278e+005,-1.92761291931102e+001,-3.94527803779162e+000

2.56342360828676e+005,-1.92762820717614e+001,-4.00032681620065e+000

2.59920766833993e+005,-1.92764392424016e+001,-4.05614297581008e+000

2.63549125525621e+005,-1.92766008253522e+001,-4.11273718346158e+000

2.67228134217075e+005,-1.92767669442985e+001,-4.17012025297779e+000

2.70958499956006e+005,-1.92769377263820e+001,-4.22830314713383e+000

2.74740939660078e+005,-1.92771133022969e+001,-4.28729697965188e+000

2.78576180254757e+005,-1.92772938063889e+001,-4.34711301722004e+000

2.82464958813007e+005,-1.92774793767563e+001,-4.40776268153566e+000

2.86408022696948e+005,-1.92776701553542e+001,-4.46925755137339e+000

2.90406129701488e+005,-1.92778662881012e+001,-4.53160936467843e+000

2.94460048199957e+005,-1.92780679249900e+001,-4.59483002068459e+000

2.98570557291775e+005,-1.92782752201994e+001,-4.65893158205718e+000

3.02738446952187e+005,-1.92784883322110e+001,-4.72392627706157e+000

3.06964518184081e+005,-1.92787074239280e+001,-4.78982650175742e+000

3.11249583171928e+005,-1.92789326627976e+001,-4.85664482221868e+000

3.15594465437872e+005,-1.92791642209367e+001,-4.92439397677873e+000

3.19999999999997e+005,-1.92794022752614e+001,-4.99308687830206e+000

3.24467033532806e+005,-1.92796470076190e+001,-5.06273661648257e+000

3.28996424529938e+005,-1.92798986049247e+001,-5.13335646016721e+000

3.33589043469155e+005,-1.92801572593017e+001,-5.20495985970578e+000

3.38245772979638e+005,-1.92804231682243e+001,-5.27756044932927e+000

3.42967508011610e+005,-1.92806965346661e+001,-5.35117204955194e+000

3.47755156008335e+005,-1.92809775672514e+001,-5.42580866960253e+000

3.52609637080511e+005,-1.92812664804110e+001,-5.50148450988085e+000

3.57531884183106e+005,-1.92815634945419e+001,-5.57821396444168e+000

3.62522843294651e+005,-1.92818688361717e+001,-5.65601162350615e+000

3.67583473599047e+005,-1.92821827381272e+001,-5.73489227599880e+000

3.72714747669902e+005,-1.92825054397075e+001,-5.81487091211329e+000

3.77917651657445e+005,-1.92828371868618e+001,-5.89596272590443e+000

3.83193185478053e+005,-1.92831782323722e+001,-5.97818311790654e+000

3.88542363006410e+005,-1.92835288360408e+001,-6.06154769778044e+000

3.93966212270369e+005,-1.92838892648824e+001,-6.14607228698677e+000

3.99465775648511e+005,-1.92842597933220e+001,-6.23177292148594e+000

4.05042110070485e+005,-1.92846407033979e+001,-6.31866585446595e+000

4.10696287220124e+005,-1.92850322849695e+001,-6.40676755909692e+000

4.16429393741414e+005,-1.92854348359317e+001,-6.49609473131207e+000

4.22242531447321e+005,-1.92858486624335e+001,-6.58666429261607e+000

4.28136817531551e+005,-1.92862740791042e+001,-6.67849339291971e+000

4.34113384783250e+005,-1.92867114092842e+001,-6.77159941340131e+000

4.40173381804713e+005,-1.92871609852619e+001,-6.86599996939435e+000

4.46317973232124e+005,-1.92876231485181e+001,-6.96171291330139e+000

4.52548339959385e+005,-1.92880982499752e+001,-7.05875633753374e+000

4.58865679365059e+005,-1.92885866502540e+001,-7.15714857747748e+000

4.65271205542494e+005,-1.92890887199371e+001,-7.25690821448415e+000

4.71766149533147e+005,-1.92896048398386e+001,-7.35805407888713e+000

4.78351759563174e+005,-1.92901354012814e+001,-7.46060525304297e+000

4.85029301283321e+005,-1.92906808063815e+001,-7.56458107439660e+000

4.91800058012158e+005,-1.92912414683395e+001,-7.67000113857173e+000

4.98665330982714e+005,-1.92918178117402e+001,-7.77688530248379e+000

5.05626439592555e+005,-1.92924102728592e+001,-7.88525368747704e+000

5.12684721657352e+005,-1.92930192999778e+001,-7.99512668248405e+000

5.19841533667984e+005,-1.92936453537058e+001,-8.10652494720763e+000

5.27098251051240e+005,-1.92942889073129e+001,-8.21946941532403e+000

5.34456268434150e+005,-1.92949504470681e+001,-8.33398129770799e+000

5.41916999912011e+005,-1.92956304725881e+001,-8.45008208567714e+000

