Freq.,VOut,OutRef

1.00000000000000e+004,-1.20913476337722e+000,-1.81344594874227e-001

1.01395947979003e+004,-1.20913465497945e+000,-1.83876072206604e-001

1.02811382665607e+004,-1.20913454353439e+000,-1.86442887692225e-001

1.04246576084112e+004,-1.20913442895608e+000,-1.89045534637375e-001

1.05701804056138e+004,-1.20913431115661e+000,-1.91684513231588e-001

1.07177346253629e+004,-1.20913419004534e+000,-1.94360330648321e-001

1.08673486252606e+004,-1.20913406552913e+000,-1.97073501140772e-001

1.10190511587661e+004,-1.20913393751247e+000,-1.99824546139843e-001

1.11728713807222e+004,-1.20913380589667e+000,-2.02613994358016e-001

1.13288388529580e+004,-1.20913367058069e+000,-2.05442381885725e-001

1.14869835499703e+004,-1.20913353146043e+000,-2.08310252299106e-001

1.16473358646846e+004,-1.20913338842902e+000,-2.11218156760639e-001

1.18099266142953e+004,-1.20913324137648e+000,-2.14166654128104e-001

1.19747870461893e+004,-1.20913309018970e+000,-2.17156311060755e-001

1.21419488439505e+004,-1.20913293475258e+000,-2.20187702127254e-001

1.23114441334492e+004,-1.20913277494550e+000,-2.23261409918253e-001

1.24833054890161e+004,-1.20913261064565e+000,-2.26378025156456e-001

1.26575659397028e+004,-1.20913244172682e+000,-2.29538146810903e-001

1.28342589756290e+004,-1.20913226805906e+000,-2.32742382212453e-001

1.30134185544193e+004,-1.20913208950876e+000,-2.35991347170838e-001

1.31950791077289e+004,-1.20913190593879e+000,-2.39285666090761e-001

1.33792755478611e+004,-1.20913171720800e+000,-2.42625972094196e-001

1.35660432744767e+004,-1.20913152317127e+000,-2.46012907141805e-001

1.37554181813974e+004,-1.20913132367956e+000,-2.49447122154470e-001

1.39474366635040e+004,-1.20913111857935e+000,-2.52929277141824e-001

1.41421356237309e+004,-1.20913090771304e+000,-2.56460041325690e-001

1.43395524801583e+004,-1.20913069091850e+000,-2.60040093270295e-001

1.45397251732031e+004,-1.20913046802910e+000,-2.63670121012660e-001

1.47426921729110e+004,-1.20913023887342e+000,-2.67350822195133e-001

1.49484924863494e+004,-1.20913000327543e+000,-2.71082904197652e-001

1.51571656651040e+004,-1.20912976105387e+000,-2.74867084276983e-001

1.53687518128801e+004,-1.20912951202262e+000,-2.78704089700793e-001

1.55832915932100e+004,-1.20912925599021e+000,-2.82594657890552e-001

1.58008262372675e+004,-1.20912899275983e+000,-2.86539536561786e-001

1.60213975517924e+004,-1.20912872212902e+000,-2.90539483868125e-001

1.62450479271247e+004,-1.20912844388987e+000,-2.94595268546285e-001

1.64718203453514e+004,-1.20912815782853e+000,-2.98707670064467e-001

1.67017583885674e+004,-1.20912786372487e+000,-3.02877478774030e-001

1.69349062472505e+004,-1.20912756135289e+000,-3.07105496057281e-001

1.71713087287550e+004,-1.20912725048029e+000,-3.11392534484458e-001

1.74110112659224e+004,-1.20912693086789e+000,-3.15739417970129e-001

1.76540599258131e+004,-1.20912660227002e+000,-3.20146981930125e-001

1.79005014185594e+004,-1.20912626443419e+000,-3.24616073441460e-001

1.81503831063432e+004,-1.20912591710059e+000,-3.29147551408608e-001

1.84037530124975e+004,-1.20912556000218e+000,-3.33742286724898e-001

1.86606598307361e+004,-1.20912519286458e+000,-3.38401162441148e-001

1.89211529345119e+004,-1.20912481540537e+000,-3.43125073936960e-001

1.91852823865052e+004,-1.20912442733457e+000,-3.47914929089729e-001

1.94530989482457e+004,-1.20912402835374e+000,-3.52771648452124e-001

1.97246540898671e+004,-1.20912361815610e+000,-3.57696165428160e-001

1.99999999999999e+004,-1.20912319642649e+000,-3.62689426450447e-001

2.02791895958005e+004,-1.20912276284062e+000,-3.67752391165597e-001

2.05622765331213e+004,-1.20912231706517e+000,-3.72886032616363e-001

2.08493152168224e+004,-1.20912185875742e+000,-3.78091337429626e-001

2.11403608112276e+004,-1.20912138756512e+000,-3.83369306005302e-001

2.14354692507258e+004,-1.20912090312602e+000,-3.88720952709583e-001

2.17346972505211e+004,-1.20912040506765e+000,-3.94147306069287e-001

2.20381023175322e+004,-1.20911989300732e+000,-3.99649408968695e-001

2.23457427614443e+004,-1.20911936655121e+000,-4.05228318853047e-001

2.26576777059159e+004,-1.20911882529462e+000,-4.10885107928637e-001

2.29739670999406e+004,-1.20911826882160e+000,-4.16620863369390e-001

2.32946717293690e+004,-1.20911769670421e+000,-4.22436687528287e-001

2.36198532285905e+004,-1.20911710850284e+000,-4.28333698145503e-001

2.39495740923785e+004,-1.20911650376516e+000,-4.34313028567188e-001

2.42838976879009e+004,-1.20911588202638e+000,-4.40375827960025e-001

2.46228882668982e+004,-1.20911524280847e+000,-4.46523261534894e-001

2.49666109780322e+004,-1.20911458562010e+000,-4.52756510768560e-001

2.53151318794055e+004,-1.20911390995614e+000,-4.59076773631248e-001

2.56685179512580e+004,-1.20911321529707e+000,-4.65485264819115e-001

2.60268371088386e+004,-1.20911250110897e+000,-4.71983215984833e-001

2.63901582154578e+004,-1.20911176684278e+000,-4.78571875976424e-001

2.67585510957221e+004,-1.20911101193408e+000,-4.85252511075886e-001

2.71320865489533e+004,-1.20911023580253e+000,-4.92026405243847e-001

2.75108363627948e+004,-1.20910943785163e+000,-4.98894860365161e-001

2.78948733270080e+004,-1.20910861746785e+000,-5.05859196501043e-001

2.82842712474618e+004,-1.20910777402062e+000,-5.12920752140544e-001

2.86791049603164e+004,-1.20910690686154e+000,-5.20080884459997e-001

2.90794503464061e+004,-1.20910601532407e+000,-5.27340969582333e-001

2.94853843458219e+004,-1.20910509872283e+000,-5.34702402842724e-001

2.98969849726987e+004,-1.20910415635317e+000,-5.42166599056401e-001

3.03143313302078e+004,-1.20910318749087e+000,-5.49734992790069e-001

3.07375036257601e+004,-1.20910219139097e+000,-5.57409038639749e-001

3.11665831864199e+004,-1.20910116728796e+000,-5.65190211507048e-001

3.16016524745350e+004,-1.20910011439439e+000,-5.73080006887271e-001

3.20427951035848e+004,-1.20909903190111e+000,-5.81079941152033e-001

3.24900958542493e+004,-1.20909791897596e+000,-5.89191551844451e-001

3.29436406907028e+004,-1.20909677476337e+000,-5.97416397973850e-001

3.34035167771346e+004,-1.20909559838395e+000,-6.05756060314113e-001

3.38698124945009e+004,-1.20909438893334e+000,-6.14212141709587e-001

3.43426174575100e+004,-1.20909314548184e+000,-6.22786267382381e-001

3.48220225318448e+004,-1.20909186707363e+000,-6.31480085244925e-001

3.53081198516260e+004,-1.20909055272617e+000,-6.40295266216172e-001

3.58010028371187e+004,-1.20908920142896e+000,-6.49233504544713e-001

3.63007662126863e+004,-1.20908781214348e+000,-6.58296518132178e-001

3.68075060249948e+004,-1.20908638380171e+000,-6.67486048866341e-001

3.73213196614721e+004,-1.20908491530583e+000,-6.76803862952967e-001

3.78423058690237e+004,-1.20908340552692e+000,-6.86251751259002e-001

3.83705647730104e+004,-1.20908185330467e+000,-6.95831529652758e-001

3.89061978964912e+004,-1.20908025744581e+000,-7.05545039357576e-001

3.94493081797342e+004,-1.20907861672377e+000,-7.15394147302501e-001

3.99999999999998e+004,-1.20907692987739e+000,-7.25380746482912e-001

4.05583791916010e+004,-1.20907519561005e+000,-7.35506756324636e-001

4.11245530662425e+004,-1.20907341258874e+000,-7.45774123052522e-001

4.16986304336447e+004,-1.20907157944305e+000,-7.56184820064381e-001

4.22807216224550e+004,-1.20906969476384e+000,-7.66740848312395e-001

4.28709385014515e+004,-1.20906775710259e+000,-7.77444236685565e-001

4.34693945010421e+004,-1.20906576496995e+000,-7.88297042401784e-001

4.40762046350642e+004,-1.20906371683465e+000,-7.99301351402894e-001

4.46914855228886e+004,-1.20906161112261e+000,-8.10459278755336e-001

4.53153554118317e+004,-1.20905944621522e+000,-8.21772969058301e-001

4.59479341998812e+004,-1.20905722044857e+000,-8.33244596855063e-001

4.65893434587380e+004,-1.20905493211200e+000,-8.44876367051538e-001

4.72397064571810e+004,-1.20905257944662e+000,-8.56670515341318e-001

4.78991481847569e+004,-1.20905016064418e+000,-8.68629308635238e-001

4.85677953758016e+004,-1.20904767384569e+000,-8.80755045496315e-001

4.92457765337964e+004,-1.20904511713984e+000,-8.93050056583721e-001

4.99332219560642e+004,-1.20904248856156e+000,-9.05516705100813e-001

5.06302637588109e+004,-1.20903978609067e+000,-9.18157387248688e-001

5.13370359025159e+004,-1.20903700765012e+000,-9.30974532688737e-001

5.20536742176771e+004,-1.20903415110446e+000,-9.43970605009414e-001

5.27803164309155e+004,-1.20903121425839e+000,-9.57148102199461e-001

5.35171021914442e+004,-1.20902819485475e+000,-9.70509557130496e-001

5.42641730979066e+004,-1.20902509057303e+000,-9.84057538042655e-001

5.50216727255895e+004,-1.20902189902744e+000,-9.97794649039981e-001

5.57897466540159e+004,-1.20901861776528e+000,-1.01172353059064e+000

5.65685424949235e+004,-1.20901524426483e+000,-1.02584686003557e+000

5.73582099206328e+004,-1.20901177593348e+000,-1.04016735210449e+000

5.81589006928121e+004,-1.20900821010575e+000,-1.05468775943713e+000

5.89707686916437e+004,-1.20900454404142e+000,-1.06941087311320e+000

5.97939699453972e+004,-1.20900077492314e+000,-1.08433952319058e+000

6.06286626604156e+004,-1.20899689985441e+000,-1.09947657924934e+000

6.14750072515201e+004,-1.20899291585728e+000,-1.11482495094474e+000

6.23331663728396e+004,-1.20898881987031e+000,-1.13038758856611e+000

6.32033049490698e+004,-1.20898460874586e+000,-1.14616748360652e+000

6.40855902071694e+004,-1.20898027924788e+000,-1.16216766933744e+000

6.49801917084985e+004,-1.20897582804947e+000,-1.17839122139346e+000

6.58872813814055e+004,-1.20897125173023e+000,-1.19484125836387e+000

6.68070335542691e+004,-1.20896654677352e+000,-1.21152094239464e+000

6.77396249890018e+004,-1.20896170956421e+000,-1.22843347979456e+000

6.86852349150199e+004,-1.20895673638521e+000,-1.24558212165638e+000

6.96440450636895e+004,-1.20895162341532e+000,-1.26297016447943e+000

7.06162397032520e+004,-1.20894636672579e+000,-1.28060095080718e+000

7.16020056742374e+004,-1.20894096227761e+000,-1.29847786986967e+000

7.26015324253724e+004,-1.20893540591828e+000,-1.31660435823621e+000

7.36150120499896e+004,-1.20892969337857e+000,-1.33498390047898e+000

7.46426393229441e+004,-1.20892382026935e+000,-1.35362002984259e+000

7.56846117380472e+004,-1.20891778207832e+000,-1.37251632892526e+000

7.67411295460207e+004,-1.20891157416622e+000,-1.39167643037000e+000

7.78123957929823e+004,-1.20890519176361e+000,-1.41110401756375e+000

7.88986163594682e+004,-1.20889862996707e+000,-1.43080282534697e+000

7.99999999999995e+004,-1.20889188373538e+000,-1.45077664073461e+000

8.11167583832018e+004,-1.20888494788572e+000,-1.47102930364495e+000

8.22491061324848e+004,-1.20887781708985e+000,-1.49156470763967e+000

8.33972608672892e+004,-1.20887048586969e+000,-1.51238680067547e+000

8.45614432449099e+004,-1.20886294859342e+000,-1.53349958586404e+000

8.57418770029029e+004,-1.20885519947095e+000,-1.55490712224478e+000

8.69387890020841e+004,-1.20884723254966e+000,-1.57661352556680e+000

8.81524092701283e+004,-1.20883904170974e+000,-1.59862296908301e+000

8.93829710457770e+004,-1.20883062065955e+000,-1.62093968435449e+000

9.06307108236633e+004,-1.20882196293072e+000,-1.64356796206719e+000

9.18958683997622e+004,-1.20881306187320e+000,-1.66651215285952e+000

9.31786869174758e+004,-1.20880391065035e+000,-1.68977666816113e+000

9.44794129143618e+004,-1.20879450223347e+000,-1.71336598104437e+000

9.57982963695136e+004,-1.20878482939647e+000,-1.73728462708782e+000

9.71355907516031e+004,-1.20877488471040e+000,-1.76153720525106e+000

9.84915530675926e+004,-1.20876466053785e+000,-1.78612837876202e+000

9.98664439121282e+004,-1.20875414902681e+000,-1.81106287601773e+000

1.01260527517622e+005,-1.20874334210500e+000,-1.83634549149655e+000

1.02674071805032e+005,-1.20873223147336e+000,-1.86198108668476e+000

1.04107348435354e+005,-1.20872080859999e+000,-1.88797459101405e+000

1.05560632861831e+005,-1.20870906471350e+000,-1.91433100281388e+000

1.07034204382888e+005,-1.20869699079618e+000,-1.94105539027811e+000

1.08528346195813e+005,-1.20868457757734e+000,-1.96815289244220e+000

1.10043345451179e+005,-1.20867181552603e+000,-1.99562872017724e+000

1.11579493308032e+005,-1.20865869484380e+000,-2.02348815719663e+000

1.13137084989847e+005,-1.20864520545727e+000,-2.05173656107700e+000

1.14716419841265e+005,-1.20863133701030e+000,-2.08037936429412e+000

1.16317801385624e+005,-1.20861707885624e+000,-2.10942207527272e+000

1.17941537383287e+005,-1.20860242004965e+000,-2.13887027945183e+000

1.19587939890794e+005,-1.20858734933789e+000,-2.16872964036512e+000

1.21257325320831e+005,-1.20857185515282e+000,-2.19900590073546e+000

1.22950014503040e+005,-1.20855592560164e+000,-2.22970488358707e+000

1.24666332745679e+005,-1.20853954845783e+000,-2.26083249337172e+000

1.26406609898139e+005,-1.20852271115207e+000,-2.29239471711078e+000

1.28171180414339e+005,-1.20850540076234e+000,-2.32439762555536e+000

1.29960383416997e+005,-1.20848760400433e+000,-2.35684737436005e+000

1.31774562762811e+005,-1.20846930722096e+000,-2.38975020527683e+000

1.33614067108538e+005,-1.20845049637232e+000,-2.42311244736217e+000

1.35479249978003e+005,-1.20843115702473e+000,-2.45694051820402e+000

1.37370469830040e+005,-1.20841127433978e+000,-2.49124092516580e+000

1.39288090127379e+005,-1.20839083306302e+000,-2.52602026664646e+000

1.41232479406504e+005,-1.20836981751232e+000,-2.56128523336060e+000

1.43204011348474e+005,-1.20834821156595e+000,-2.59704260963537e+000

1.45203064850745e+005,-1.20832599865026e+000,-2.63329927472627e+000

1.47230024099979e+005,-1.20830316172703e+000,-2.67006220415223e+000

1.49285278645888e+005,-1.20827968328055e+000,-2.70733847104872e+000

1.51369223476094e+005,-1.20825554530421e+000,-2.74513524754121e+000

1.53482259092041e+005,-1.20823072928684e+000,-2.78345980613708e+000

1.55624791585964e+005,-1.20820521619862e+000,-2.82231952113853e+000

1.57797232718936e+005,-1.20817898647647e+000,-2.86172187007543e+000

1.59999999999999e+005,-1.20815202000950e+000,-2.90167443515739e+000

1.62233516766403e+005,-1.20812429612328e+000,-2.94218490474900e+000

1.64498212264969e+005,-1.20809579356441e+000,-2.98326107486427e+000

1.66794521734578e+005,-1.20806649048431e+000,-3.02491085068266e+000

1.69122886489819e+005,-1.20803636442257e+000,-3.06714224808796e+000

1.71483754005805e+005,-1.20800539228988e+000,-3.10996339522841e+000

1.73877578004168e+005,-1.20797355035061e+000,-3.15338253409914e+000

1.76304818540256e+005,-1.20794081420469e+000,-3.19740802214783e+000

1.78765942091554e+005,-1.20790715876904e+000,-3.24204833390367e+000

1.81261421647326e+005,-1.20787255825876e+000,-3.28731206262806e+000

1.83791736799524e+005,-1.20783698616736e+000,-3.33320792199203e+000

1.86357373834951e+005,-1.20780041524672e+000,-3.37974474777519e+000

1.88958825828723e+005,-1.20776281748656e+000,-3.42693149959077e+000

1.91596592739027e+005,-1.20772416409310e+000,-3.47477726263424e+000

1.94271181503206e+005,-1.20768442546735e+000,-3.52329124945921e+000

1.96983106135185e+005,-1.20764357118262e+000,-3.57248280177700e+000

1.99732887824256e+005,-1.20760156996157e+000,-3.62236139228349e+000

2.02521055035243e+005,-1.20755838965264e+000,-3.67293662651185e+000

2.05348143610063e+005,-1.20751399720556e+000,-3.72421824471305e+000

2.08214696870707e+005,-1.20746835864656e+000,-3.77621612376234e+000

2.11121265723661e+005,-1.20742143905271e+000,-3.82894027909480e+000

2.14068408765776e+005,-1.20737320252538e+000,-3.88240086666831e+000

2.17056692391625e+005,-1.20732361216353e+000,-3.93660818495505e+000

2.20086690902357e+005,-1.20727263003553e+000,-3.99157267696326e+000

2.23158986616063e+005,-1.20722021715086e+000,-4.04730493228646e+000

2.26274169979693e+005,-1.20716633343054e+000,-4.10381568918498e+000

2.29432839682530e+005,-1.20711093767718e+000,-4.16111583669614e+000

2.32635602771247e+005,-1.20705398754387e+000,-4.21921641677648e+000

2.35883074766574e+005,-1.20699543950244e+000,-4.27812862647504e+000

2.39175879781588e+005,-1.20693524881074e+000,-4.33786382013866e+000

2.42514650641661e+005,-1.20687336947901e+000,-4.39843351164971e+000

2.45900029006080e+005,-1.20680975423552e+000,-4.45984937669723e+000

2.49332665491357e+005,-1.20674435449106e+000,-4.52212325508097e+000

2.52813219796278e+005,-1.20667712030261e+000,-4.58526715304982e+000

2.56342360828676e+005,-1.20660800033590e+000,-4.64929324567525e+000

2.59920766833993e+005,-1.20653694182709e+000,-4.71421387925971e+000

2.63549125525621e+005,-1.20646389054338e+000,-4.78004157378003e+000

2.67228134217075e+005,-1.20638879074242e+000,-4.84678902536885e+000

2.70958499956006e+005,-1.20631158513089e+000,-4.91446910883154e+000

2.74740939660078e+005,-1.20623221482167e+000,-4.98309488020179e+000

2.78576180254757e+005,-1.20615061929011e+000,-5.05267957933452e+000

2.82464958813007e+005,-1.20606673632896e+000,-5.12323663253818e+000

2.86408022696948e+005,-1.20598050200210e+000,-5.19477965524719e+000

2.90406129701488e+005,-1.20589185059720e+000,-5.26732245473286e+000

2.94460048199957e+005,-1.20580071457697e+000,-5.34087903285708e+000

2.98570557291775e+005,-1.20570702452892e+000,-5.41546358886661e+000

3.02738446952187e+005,-1.20561070911439e+000,-5.49109052222938e+000

3.06964518184081e+005,-1.20551169501536e+000,-5.56777443551483e+000

3.11249583171928e+005,-1.20540990688073e+000,-5.64553013731710e+000

3.15594465437872e+005,-1.20530526727045e+000,-5.72437264522323e+000

3.19999999999997e+005,-1.20519769659867e+000,-5.80431718882643e+000

3.24467033532806e+005,-1.20508711307504e+000,-5.88537921278577e+000

3.28996424529938e+005,-1.20497343264476e+000,-5.96757437993219e+000

3.33589043469155e+005,-1.20485656892686e+000,-6.05091857442269e+000

3.38245772979638e+005,-1.20473643315078e+000,-6.13542790494361e+000

3.42967508011610e+005,-1.20461293409162e+000,-6.22111870796177e+000

3.47755156008335e+005,-1.20448597800331e+000,-6.30800755102778e+000

3.52609637080511e+005,-1.20435546855035e+000,-6.39611123612940e+000

3.57531884183106e+005,-1.20422130673748e+000,-6.48544680309778e+000

3.62522843294651e+005,-1.20408339083781e+000,-6.57603153306626e+000

3.67583473599047e+005,-1.20394161631894e+000,-6.66788295198351e+000

3.72714747669902e+005,-1.20379587576706e+000,-6.76101883418206e+000

3.77917651657445e+005,-1.20364605880937e+000,-6.85545720600258e+000

3.83193185478053e+005,-1.20349205203426e+000,-6.95121634947541e+000

3.88542363006410e+005,-1.20333373890948e+000,-7.04831480606055e+000

3.93966212270369e+005,-1.20317099969846e+000,-7.14677138044660e+000

3.99465775648511e+005,-1.20300371137410e+000,-7.24660514441046e+000

4.05042110070485e+005,-1.20283174753071e+000,-7.34783544073870e+000

4.10696287220124e+005,-1.20265497829345e+000,-7.45048188721146e+000

4.16429393741414e+005,-1.20247327022580e+000,-7.55456438065045e+000

4.22242531447321e+005,-1.20228648623432e+000,-7.66010310103233e+000

4.28136817531551e+005,-1.20209448547139e+000,-7.76711851566846e+000

4.34113384783250e+005,-1.20189712323526e+000,-7.87563138345232e+000

4.40173381804713e+005,-1.20169425086773e+000,-7.98566275917658e+000

4.46317973232124e+005,-1.20148571564921e+000,-8.09723399792002e+000

4.52548339959385e+005,-1.20127136069136e+000,-8.21036675950706e+000

4.58865679365059e+005,-1.20105102482699e+000,-8.32508301303984e+000

4.65271205542494e+005,-1.20082454249701e+000,-8.44140504150625e+000

4.71766149533147e+005,-1.20059174363525e+000,-8.55935544646316e+000

4.78351759563174e+005,-1.20035245354988e+000,-8.67895715279836e+000

4.85029301283321e+005,-1.20010649280220e+000,-8.80023341357162e+000

4.91800058012158e+005,-1.19985367708269e+000,-8.92320781493733e+000

4.98665330982714e+005,-1.19959381708377e+000,-9.04790428114948e+000

5.05626439592555e+005,-1.19932671836996e+000,-9.17434707965141e+000

5.12684721657352e+005,-1.19905218124444e+000,-9.30256082625226e+000

5.19841533667984e+005,-1.19877000061304e+000,-9.43257049039118e+000

5.27098251051240e+005,-1.19847996584472e+000,-9.56440140049162e+000

5.34456268434150e+005,-1.19818186062893e+000,-9.69807924940793e+000

5.41916999912011e+005,-1.19787546282969e+000,-9.83363009996559e+000

