Freq.,VOut,OutRef

1.00000000000000e+004,-2.20308650201801e+001,-1.67948875072691e-001

1.01395947979003e+004,-2.20308653584219e+001,-1.70293351546206e-001

1.02811382665607e+004,-2.20308657061732e+001,-1.72670555586127e-001

1.04246576084112e+004,-2.20308660637008e+001,-1.75080944050304e-001

1.05701804056138e+004,-2.20308664312799e+001,-1.77524980170014e-001

1.07177346253629e+004,-2.20308668091931e+001,-1.80003133644459e-001

1.08673486252606e+004,-2.20308671977308e+001,-1.82515880729126e-001

1.10190511587661e+004,-2.20308675971917e+001,-1.85063704327622e-001

1.11728713807222e+004,-2.20308680078830e+001,-1.87647094084336e-001

1.13288388529580e+004,-2.20308684301204e+001,-1.90266546478439e-001

1.14869835499703e+004,-2.20308688642285e+001,-1.92922564920380e-001

1.16473358646846e+004,-2.20308693105408e+001,-1.95615659846672e-001

1.18099266142953e+004,-2.20308697694008e+001,-1.98346348818544e-001

1.19747870461893e+004,-2.20308702411609e+001,-2.01115156624043e-001

1.21419488439505e+004,-2.20308707261840e+001,-2.03922615374334e-001

1.23114441334492e+004,-2.20308712248430e+001,-2.06769264608555e-001

1.24833054890161e+004,-2.20308717375210e+001,-2.09655651399328e-001

1.26575659397028e+004,-2.20308722646124e+001,-2.12582330453618e-001

1.28342589756290e+004,-2.20308728065222e+001,-2.15549864222225e-001

1.30134185544193e+004,-2.20308733636672e+001,-2.18558823006879e-001

1.31950791077289e+004,-2.20308739364755e+001,-2.21609785070608e-001

1.33792755478611e+004,-2.20308745253877e+001,-2.24703336747665e-001

1.35660432744767e+004,-2.20308751308563e+001,-2.27840072557938e-001

1.37554181813974e+004,-2.20308757533468e+001,-2.31020595318716e-001

1.39474366635040e+004,-2.20308763933378e+001,-2.34245516262426e-001

1.41421356237309e+004,-2.20308770513213e+001,-2.37515455153930e-001

1.43395524801583e+004,-2.20308777278032e+001,-2.40831040408079e-001

1.45397251732031e+004,-2.20308784233035e+001,-2.44192909212592e-001

1.47426921729110e+004,-2.20308791383568e+001,-2.47601707650007e-001

1.49484924863494e+004,-2.20308798735129e+001,-2.51058090819696e-001

1.51571656651040e+004,-2.20308806293370e+001,-2.54562722965878e-001

1.53687518128801e+004,-2.20308814064100e+001,-2.58116277606336e-001

1.55832915932100e+004,-2.20308822053293e+001,-2.61719437657900e-001

1.58008262372675e+004,-2.20308830267092e+001,-2.65372895570744e-001

1.60213975517924e+004,-2.20308838711810e+001,-2.69077353461423e-001

1.62450479271247e+004,-2.20308847393941e+001,-2.72833523245870e-001

1.64718203453514e+004,-2.20308856320158e+001,-2.76642126777520e-001

1.67017583885674e+004,-2.20308865497322e+001,-2.80503895987088e-001

1.69349062472505e+004,-2.20308874932490e+001,-2.84419573019804e-001

1.71713087287550e+004,-2.20308884632915e+001,-2.88389910380716e-001

1.74110112659224e+004,-2.20308894606054e+001,-2.92415671080368e-001

1.76540599258131e+004,-2.20308904859573e+001,-2.96497628777250e-001

1.79005014185594e+004,-2.20308915401355e+001,-3.00636567930443e-001

1.81503831063432e+004,-2.20308926239504e+001,-3.04833283947378e-001

1.84037530124975e+004,-2.20308937382354e+001,-3.09088583338520e-001

1.86606598307361e+004,-2.20308948838468e+001,-3.13403283872356e-001

1.89211529345119e+004,-2.20308960616655e+001,-3.17778214731676e-001

1.91852823865052e+004,-2.20308972725967e+001,-3.22214216673083e-001

1.94530989482457e+004,-2.20308985175716e+001,-3.26712142187513e-001

1.97246540898671e+004,-2.20308997975471e+001,-3.31272855666262e-001

1.99999999999999e+004,-2.20309011135073e+001,-3.35897233565444e-001

2.02791895958005e+004,-2.20309024664638e+001,-3.40586164574348e-001

2.05622765331213e+004,-2.20309038574565e+001,-3.45340549787352e-001

2.08493152168224e+004,-2.20309052875549e+001,-3.50161302876089e-001

2.11403608112276e+004,-2.20309067578585e+001,-3.55049350263496e-001

2.14354692507258e+004,-2.20309082694974e+001,-3.60005631304446e-001

2.17346972505211e+004,-2.20309098236337e+001,-3.65031098466586e-001

2.20381023175322e+004,-2.20309114214622e+001,-3.70126717509394e-001

2.23457427614443e+004,-2.20309130642112e+001,-3.75293467672782e-001

2.26576777059159e+004,-2.20309147531435e+001,-3.80532341865401e-001

2.29739670999406e+004,-2.20309164895574e+001,-3.85844346853672e-001

2.32946717293690e+004,-2.20309182747880e+001,-3.91230503455771e-001

2.36198532285905e+004,-2.20309201102074e+001,-3.96691846738339e-001

2.39495740923785e+004,-2.20309219972267e+001,-4.02229426214715e-001

2.42838976879009e+004,-2.20309239372965e+001,-4.07844306046847e-001

2.46228882668982e+004,-2.20309259319083e+001,-4.13537565247939e-001

2.49666109780322e+004,-2.20309279825953e+001,-4.19310297894236e-001

2.53151318794055e+004,-2.20309300909340e+001,-4.25163613328622e-001

2.56685179512580e+004,-2.20309322585451e+001,-4.31098636379965e-001

2.60268371088386e+004,-2.20309344870949e+001,-4.37116507575168e-001

2.63901582154578e+004,-2.20309367782968e+001,-4.43218383358499e-001

2.67585510957221e+004,-2.20309391339118e+001,-4.49405436316300e-001

2.71320865489533e+004,-2.20309415557509e+001,-4.55678855399286e-001

2.75108363627948e+004,-2.20309440456758e+001,-4.62039846152326e-001

2.78948733270080e+004,-2.20309466056005e+001,-4.68489630946002e-001

2.82842712474618e+004,-2.20309492374931e+001,-4.75029449209706e-001

2.86791049603164e+004,-2.20309519433766e+001,-4.81660557672219e-001

2.90794503464061e+004,-2.20309547253311e+001,-4.88384230601090e-001

2.94853843458219e+004,-2.20309575854953e+001,-4.95201760047789e-001

2.98969849726987e+004,-2.20309605260677e+001,-5.02114456096500e-001

3.03143313302078e+004,-2.20309635493088e+001,-5.09123647114275e-001

3.07375036257601e+004,-2.20309666575427e+001,-5.16230680007596e-001

3.11665831864199e+004,-2.20309698531588e+001,-5.23436920479218e-001

3.16016524745350e+004,-2.20309731386134e+001,-5.30743753292932e-001

3.20427951035848e+004,-2.20309765164323e+001,-5.38152582535993e-001

3.24900958542493e+004,-2.20309799892118e+001,-5.45664831892879e-001

3.29436406907028e+004,-2.20309835596218e+001,-5.53281944913342e-001

3.34035167771346e+004,-2.20309872304066e+001,-5.61005385295269e-001

3.38698124945009e+004,-2.20309910043882e+001,-5.68836637160846e-001

3.43426174575100e+004,-2.20309948844676e+001,-5.76777205343895e-001

3.48220225318448e+004,-2.20309988736272e+001,-5.84828615679032e-001

3.53081198516260e+004,-2.20310029749338e+001,-5.92992415292625e-001

3.58010028371187e+004,-2.20310071915399e+001,-6.01270172901236e-001

3.63007662126863e+004,-2.20310115266869e+001,-6.09663479112639e-001

3.68075060249948e+004,-2.20310159837069e+001,-6.18173946730794e-001

3.73213196614721e+004,-2.20310205660264e+001,-6.26803211063933e-001

3.78423058690237e+004,-2.20310252771674e+001,-6.35552930241557e-001

3.83705647730104e+004,-2.20310301207516e+001,-6.44424785529046e-001

3.89061978964912e+004,-2.20310351005020e+001,-6.53420481654068e-001

3.94493081797342e+004,-2.20310402202464e+001,-6.62541747129753e-001

3.99999999999998e+004,-2.20310454839205e+001,-6.71790334588621e-001

4.05583791916010e+004,-2.20310508955701e+001,-6.81168021119640e-001

4.11245530662425e+004,-2.20310564593550e+001,-6.90676608606440e-001

4.16986304336447e+004,-2.20310621795521e+001,-7.00317924075078e-001

4.22807216224550e+004,-2.20310680605583e+001,-7.10093820043532e-001

4.28709385014515e+004,-2.20310741068941e+001,-7.20006174878134e-001

4.34693945010421e+004,-2.20310803232070e+001,-7.30056893153628e-001

4.40762046350642e+004,-2.20310867142753e+001,-7.40247906015831e-001

4.46914855228886e+004,-2.20310932850115e+001,-7.50581171556164e-001

4.53153554118317e+004,-2.20311000404662e+001,-7.61058675184443e-001

4.59479341998812e+004,-2.20311069858321e+001,-7.71682430010467e-001

4.65893434587380e+004,-2.20311141264476e+001,-7.82454477230172e-001

4.72397064571810e+004,-2.20311214678013e+001,-7.93376886515874e-001

4.78991481847569e+004,-2.20311290155360e+001,-8.04451756414684e-001

4.85677953758016e+004,-2.20311367754533e+001,-8.15681214750355e-001

4.92457765337964e+004,-2.20311447535176e+001,-8.27067419029973e-001

4.99332219560642e+004,-2.20311529558610e+001,-8.38612556859701e-001

5.06302637588109e+004,-2.20311613887881e+001,-8.50318846361980e-001

5.13370359025159e+004,-2.20311700587806e+001,-8.62188536601716e-001

5.20536742176771e+004,-2.20311789725023e+001,-8.74223908017432e-001

5.27803164309155e+004,-2.20311881368045e+001,-8.86427272857801e-001

5.35171021914442e+004,-2.20311975587308e+001,-8.98800975625222e-001

5.42641730979066e+004,-2.20312072455229e+001,-9.11347393524187e-001

5.50216727255895e+004,-2.20312172046261e+001,-9.24068936917342e-001

5.57897466540159e+004,-2.20312274436947e+001,-9.36968049787905e-001

5.65685424949235e+004,-2.20312379705985e+001,-9.50047210205769e-001

5.73582099206328e+004,-2.20312487934282e+001,-9.63308930804149e-001

5.81589006928121e+004,-2.20312599205019e+001,-9.76755759259866e-001

5.89707686916437e+004,-2.20312713603715e+001,-9.90390278781503e-001

5.97939699453972e+004,-2.20312831218292e+001,-1.00421510860412e+000

6.06286626604156e+004,-2.20312952139146e+001,-1.01823290448899e+000

6.14750072515201e+004,-2.20313076459208e+001,-1.03244635923568e+000

6.23331663728396e+004,-2.20313204274025e+001,-1.04685820319356e+000

6.32033049490698e+004,-2.20313335681827e+001,-1.06147120478745e+000

6.40855902071694e+004,-2.20313470783605e+001,-1.07628817104458e+000

6.49801917084985e+004,-2.20313609683188e+001,-1.09131194813481e+000

6.58872813814055e+004,-2.20313752487323e+001,-1.10654542191223e+000

6.68070335542691e+004,-2.20313899305755e+001,-1.12199151846952e+000

6.77396249890018e+004,-2.20314050251316e+001,-1.13765320469556e+000

6.86852349150199e+004,-2.20314205440007e+001,-1.15353348884480e+000

6.96440450636895e+004,-2.20314364991087e+001,-1.16963542111171e+000

7.06162397032520e+004,-2.20314529027169e+001,-1.18596209421325e+000

7.16020056742374e+004,-2.20314697674310e+001,-1.20251664398100e+000

7.26015324253724e+004,-2.20314871062107e+001,-1.21930224996069e+000

7.36150120499896e+004,-2.20315049323803e+001,-1.23632213601846e+000

7.46426393229441e+004,-2.20315232596381e+001,-1.25357957095857e+000

7.56846117380472e+004,-2.20315421020674e+001,-1.27107786914707e+000

7.67411295460207e+004,-2.20315614741472e+001,-1.28882039114495e+000

7.78123957929823e+004,-2.20315813907633e+001,-1.30681054434981e+000

7.88986163594682e+004,-2.20316018672197e+001,-1.32505178364642e+000

7.99999999999995e+004,-2.20316229192507e+001,-1.34354761206690e+000

8.11167583832018e+004,-2.20316445630320e+001,-1.36230158145898e+000

8.22491061324848e+004,-2.20316668151943e+001,-1.38131729316411e+000

8.33972608672892e+004,-2.20316896928353e+001,-1.40059839870381e+000

8.45614432449099e+004,-2.20317132135331e+001,-1.42014860047689e+000

8.57418770029029e+004,-2.20317373953594e+001,-1.43997165246605e+000

8.69387890020841e+004,-2.20317622568940e+001,-1.46007136095277e+000

8.81524092701283e+004,-2.20317878172381e+001,-1.48045158524346e+000

8.93829710457770e+004,-2.20318140960300e+001,-1.50111623840440e+000

9.06307108236633e+004,-2.20318411134593e+001,-1.52206928800887e+000

9.18958683997622e+004,-2.20318688902827e+001,-1.54331475689148e+000

9.31786869174758e+004,-2.20318974478401e+001,-1.56485672391463e+000

9.44794129143618e+004,-2.20319268080708e+001,-1.58669932474634e+000

9.57982963695136e+004,-2.20319569935302e+001,-1.60884675264552e+000

9.71355907516031e+004,-2.20319880274071e+001,-1.63130325926240e+000

9.84915530675926e+004,-2.20320199335420e+001,-1.65407315544512e+000

9.98664439121282e+004,-2.20320527364445e+001,-1.67716081206135e+000

1.01260527517622e+005,-2.20320864613127e+001,-1.70057066082863e+000

1.02674071805032e+005,-2.20321211340526e+001,-1.72430719515679e+000

1.04107348435354e+005,-2.20321567812972e+001,-1.74837497100232e+000

1.05560632861831e+005,-2.20321934304278e+001,-1.77277860773359e+000

1.07034204382888e+005,-2.20322311095945e+001,-1.79752278900760e+000

1.08528346195813e+005,-2.20322698477378e+001,-1.82261226366052e+000

1.10043345451179e+005,-2.20323096746107e+001,-1.84805184660725e+000

1.11579493308032e+005,-2.20323506208019e+001,-1.87384641975642e+000

1.13137084989847e+005,-2.20323927177588e+001,-1.90000093293486e+000

1.14716419841265e+005,-2.20324359978115e+001,-1.92652040482722e+000

1.16317801385624e+005,-2.20324804941980e+001,-1.95340992392579e+000

1.17941537383287e+005,-2.20325262410895e+001,-1.98067464949547e+000

1.19587939890794e+005,-2.20325732736162e+001,-2.00831981254976e+000

1.21257325320831e+005,-2.20326216278946e+001,-2.03635071684199e+000

1.22950014503040e+005,-2.20326713410550e+001,-2.06477273986731e+000

1.24666332745679e+005,-2.20327224512699e+001,-2.09359133387990e+000

1.26406609898139e+005,-2.20327749977832e+001,-2.12281202692492e+000

1.28171180414339e+005,-2.20328290209403e+001,-2.15244042388122e+000

1.29960383416997e+005,-2.20328845622187e+001,-2.18248220752007e+000

1.31774562762811e+005,-2.20329416642602e+001,-2.21294313957864e+000

1.33614067108538e+005,-2.20330003709030e+001,-2.24382906184592e+000

1.35479249978003e+005,-2.20330607272155e+001,-2.27514589726465e+000

1.37370469830040e+005,-2.20331227795309e+001,-2.30689965104712e+000

1.39288090127379e+005,-2.20331865754821e+001,-2.33909641180653e+000

1.41232479406504e+005,-2.20332521640384e+001,-2.37174235270315e+000

1.43204011348474e+005,-2.20333195955432e+001,-2.40484373260490e+000

1.45203064850745e+005,-2.20333889217520e+001,-2.43840689726475e+000

1.47230024099979e+005,-2.20334601958721e+001,-2.47243828051251e+000

1.49285278645888e+005,-2.20335334726034e+001,-2.50694440546328e+000

1.51369223476094e+005,-2.20336088081798e+001,-2.54193188574120e+000

1.53482259092041e+005,-2.20336862604123e+001,-2.57740742671984e+000

1.55624791585964e+005,-2.20337658887335e+001,-2.61337782677826e+000

1.57797232718936e+005,-2.20338477542422e+001,-2.64984997857462e+000

1.59999999999999e+005,-2.20339319197506e+001,-2.68683087033495e+000

1.62233516766403e+005,-2.20340184498321e+001,-2.72432758716100e+000

1.64498212264969e+005,-2.20341074108704e+001,-2.76234731235229e+000

1.66794521734578e+005,-2.20341988711099e+001,-2.80089732874885e+000

1.69122886489819e+005,-2.20342929007085e+001,-2.83998502008788e+000

1.71483754005805e+005,-2.20343895717902e+001,-2.87961787238092e+000

1.73877578004168e+005,-2.20344889585004e+001,-2.91980347530726e+000

1.76304818540256e+005,-2.20345911370625e+001,-2.96054952362561e+000

1.78765942091554e+005,-2.20346961858358e+001,-3.00186381860477e+000

1.81261421647326e+005,-2.20348041853750e+001,-3.04375426947167e+000

1.83791736799524e+005,-2.20349152184918e+001,-3.08622889487860e+000

1.86357373834951e+005,-2.20350293703176e+001,-3.12929582438939e+000

1.88958825828723e+005,-2.20351467283688e+001,-3.17296329998355e+000

1.91596592739027e+005,-2.20352673826124e+001,-3.21723967758128e+000

1.94271181503206e+005,-2.20353914255354e+001,-3.26213342858620e+000

1.96983106135185e+005,-2.20355189522142e+001,-3.30765314144880e+000

1.99732887824256e+005,-2.20356500603876e+001,-3.35380752324877e+000

2.02521055035243e+005,-2.20357848505304e+001,-3.40060540129784e+000

2.05348143610063e+005,-2.20359234259301e+001,-3.44805572476307e+000

2.08214696870707e+005,-2.20360658927649e+001,-3.49616756630873e+000

2.11121265723661e+005,-2.20362123601846e+001,-3.54495012376127e+000

2.14068408765776e+005,-2.20363629403930e+001,-3.59441272179253e+000

2.17056692391625e+005,-2.20365177487334e+001,-3.64456481362570e+000

2.20086690902357e+005,-2.20366769037755e+001,-3.69541598276077e+000

2.23158986616063e+005,-2.20368405274056e+001,-3.74697594472241e+000

2.26274169979693e+005,-2.20370087449184e+001,-3.79925454882859e+000

2.29432839682530e+005,-2.20371816851126e+001,-3.85226177998074e+000

2.32635602771247e+005,-2.20373594803874e+001,-3.90600776047620e+000

2.35883074766574e+005,-2.20375422668431e+001,-3.96050275184224e+000

2.39175879781588e+005,-2.20377301843839e+001,-4.01575715669146e+000

2.42514650641661e+005,-2.20379233768235e+001,-4.07178152060070e+000

2.45900029006080e+005,-2.20381219919939e+001,-4.12858653401157e+000

2.49332665491357e+005,-2.20383261818564e+001,-4.18618303415349e+000

2.52813219796278e+005,-2.20385361026166e+001,-4.24458200698993e+000

2.56342360828676e+005,-2.20387519148421e+001,-4.30379458918643e+000

2.59920766833993e+005,-2.20389737835836e+001,-4.36383207010324e+000

2.63549125525621e+005,-2.20392018784985e+001,-4.42470589380939e+000

2.67228134217075e+005,-2.20394363739795e+001,-4.48642766112048e+000

2.70958499956006e+005,-2.20396774492848e+001,-4.54900913166095e+000

2.74740939660078e+005,-2.20399252886737e+001,-4.61246222594801e+000

2.78576180254757e+005,-2.20401800815440e+001,-4.67679902750037e+000

2.82464958813007e+005,-2.20404420225751e+001,-4.74203178497031e+000

2.86408022696948e+005,-2.20407113118732e+001,-4.80817291429928e+000

2.90406129701488e+005,-2.20409881551220e+001,-4.87523500089748e+000

2.94460048199957e+005,-2.20412727637361e+001,-4.94323080184749e+000

2.98570557291775e+005,-2.20415653550195e+001,-5.01217324813157e+000

3.02738446952187e+005,-2.20418661523280e+001,-5.08207544688341e+000

3.06964518184081e+005,-2.20421753852364e+001,-5.15295068366361e+000

3.11249583171928e+005,-2.20424932897095e+001,-5.22481242475904e+000

3.15594465437872e+005,-2.20428201082781e+001,-5.29767431950716e+000

3.19999999999997e+005,-2.20431560902202e+001,-5.37155020264329e+000

3.24467033532806e+005,-2.20435014917461e+001,-5.44645409667321e+000

3.28996424529938e+005,-2.20438565761896e+001,-5.52240021426850e+000

3.33589043469155e+005,-2.20442216142030e+001,-5.59940296068786e+000

3.38245772979638e+005,-2.20445968839589e+001,-5.67747693621985e+000

3.42967508011610e+005,-2.20449826713558e+001,-5.75663693865220e+000

3.47755156008335e+005,-2.20453792702305e+001,-5.83689796576315e+000

3.52609637080511e+005,-2.20457869825755e+001,-5.91827521783727e+000

3.57531884183106e+005,-2.20462061187622e+001,-6.00078410020467e+000

3.62522843294651e+005,-2.20466369977702e+001,-6.08444022580445e+000

3.67583473599047e+005,-2.20470799474230e+001,-6.16925941776983e+000

3.72714747669902e+005,-2.20475353046292e+001,-6.25525771203830e+000

3.77917651657445e+005,-2.20480034156306e+001,-6.34245135998372e+000

3.83193185478053e+005,-2.20484846362568e+001,-6.43085683107063e+000

3.88542363006410e+005,-2.20489793321867e+001,-6.52049081553272e+000

3.93966212270369e+005,-2.20494878792163e+001,-6.61137022707140e+000

3.99465775648511e+005,-2.20500106635341e+001,-6.70351220557789e+000

4.05042110070485e+005,-2.20505480820034e+001,-6.79693411987589e+000

4.10696287220124e+005,-2.20511005424523e+001,-6.89165357048560e+000

4.16429393741414e+005,-2.20516684639711e+001,-6.98768839240882e+000

4.22242531447321e+005,-2.20522522772172e+001,-7.08505665793395e+000

4.28136817531551e+005,-2.20528524247283e+001,-7.18377667946149e+000

4.34113384783250e+005,-2.20534693612435e+001,-7.28386701234763e+000

4.40173381804713e+005,-2.20541035540331e+001,-7.38534645776808e+000

4.46317973232124e+005,-2.20547554832363e+001,-7.48823406559929e+000

4.52548339959385e+005,-2.20554256422082e+001,-7.59254913731780e+000

4.58865679365059e+005,-2.20561145378749e+001,-7.69831122891590e+000

4.65271205542494e+005,-2.20568226910989e+001,-7.80554015383413e+000

4.71766149533147e+005,-2.20575506370526e+001,-7.91425598590902e+000

4.78351759563174e+005,-2.20582989256021e+001,-8.02447906233591e+000

4.85029301283321e+005,-2.20590681217006e+001,-8.13622998664468e+000

4.91800058012158e+005,-2.20598588057912e+001,-8.24952963168944e+000

4.98665330982714e+005,-2.20606715742210e+001,-8.36439914265011e+000

5.05626439592555e+005,-2.20615070396643e+001,-8.48085994004421e+000

5.12684721657352e+005,-2.20623658315573e+001,-8.59893372274947e+000

5.19841533667984e+005,-2.20632485965433e+001,-8.71864247103484e+000

5.27098251051240e+005,-2.20641559989292e+001,-8.84000844959909e+000

5.34456268434150e+005,-2.20650887211528e+001,-8.96305421061589e+000

5.41916999912011e+005,-2.20660474642625e+001,-9.08780259678369e+000

