Freq.,VOut,OutRef

1.00000000000000e+004,-1.71943392662080e+001,-2.25152160851973e-001

1.01395947979003e+004,-1.71943396412811e+001,-2.28295164552670e-001

1.02811382665607e+004,-1.71943400268990e+001,-2.31482042807516e-001

1.04246576084112e+004,-1.71943404233578e+001,-2.34713408078514e-001

1.05701804056138e+004,-1.71943408309628e+001,-2.37989881372399e-001

1.07177346253629e+004,-1.71943412500270e+001,-2.41312092368943e-001

1.08673486252606e+004,-1.71943416808725e+001,-2.44680679535817e-001

1.10190511587661e+004,-1.71943421238308e+001,-2.48096290251818e-001

1.11728713807222e+004,-1.71943425792423e+001,-2.51559580935016e-001

1.13288388529580e+004,-1.71943430474570e+001,-2.55071217165010e-001

1.14869835499703e+004,-1.71943435288350e+001,-2.58631873812185e-001

1.16473358646846e+004,-1.71943440237464e+001,-2.62242235167012e-001

1.18099266142953e+004,-1.71943445325715e+001,-2.65902995074342e-001

1.19747870461893e+004,-1.71943450557016e+001,-2.69614857060734e-001

1.21419488439505e+004,-1.71943455935387e+001,-2.73378534476293e-001

1.23114441334492e+004,-1.71943461464964e+001,-2.77194750627755e-001

1.24833054890161e+004,-1.71943467149998e+001,-2.81064238917270e-001

1.26575659397028e+004,-1.71943472994859e+001,-2.84987742986165e-001

1.28342589756290e+004,-1.71943479004041e+001,-2.88966016854118e-001

1.30134185544193e+004,-1.71943485182162e+001,-2.92999825069098e-001

1.31950791077289e+004,-1.71943491533973e+001,-2.97089942848537e-001

1.33792755478611e+004,-1.71943498064357e+001,-3.01237156231898e-001

1.35660432744767e+004,-1.71943504778333e+001,-3.05442262230810e-001

1.37554181813974e+004,-1.71943511681065e+001,-3.09706068981749e-001

1.39474366635040e+004,-1.71943518777856e+001,-3.14029395903900e-001

1.41421356237309e+004,-1.71943526074164e+001,-3.18413073851828e-001

1.43395524801583e+004,-1.71943533575597e+001,-3.22857945278510e-001

1.45397251732031e+004,-1.71943541287923e+001,-3.27364864397113e-001

1.47426921729110e+004,-1.71943549217070e+001,-3.31934697344091e-001

1.49484924863494e+004,-1.71943557369134e+001,-3.36568322346242e-001

1.51571656651040e+004,-1.71943565750381e+001,-3.41266629888567e-001

1.53687518128801e+004,-1.71943574367257e+001,-3.46030522885964e-001

1.55832915932100e+004,-1.71943583226381e+001,-3.50860916858747e-001

1.58008262372675e+004,-1.71943592334569e+001,-3.55758740103110e-001

1.60213975517924e+004,-1.71943601698820e+001,-3.60724933875631e-001

1.62450479271247e+004,-1.71943611326333e+001,-3.65760452571014e-001

1.64718203453514e+004,-1.71943621224510e+001,-3.70866263904549e-001

1.67017583885674e+004,-1.71943631400959e+001,-3.76043349100361e-001

1.69349062472505e+004,-1.71943641863505e+001,-3.81292703078497e-001

1.71713087287550e+004,-1.71943652620189e+001,-3.86615334647540e-001

1.74110112659224e+004,-1.71943663679282e+001,-3.92012266695019e-001

1.76540599258131e+004,-1.71943675049284e+001,-3.97484536389365e-001

1.79005014185594e+004,-1.71943686738937e+001,-4.03033195373465e-001

1.81503831063432e+004,-1.71943698757226e+001,-4.08659309970529e-001

1.84037530124975e+004,-1.71943711113392e+001,-4.14363961387033e-001

1.86606598307361e+004,-1.71943723816933e+001,-4.20148245922138e-001

1.89211529345119e+004,-1.71943736877613e+001,-4.26013275177142e-001

1.91852823865052e+004,-1.71943750305474e+001,-4.31960176268121e-001

1.94530989482457e+004,-1.71943764110839e+001,-4.37990092044046e-001

1.97246540898671e+004,-1.71943778304319e+001,-4.44104181306585e-001

1.99999999999999e+004,-1.71943792896827e+001,-4.50303619030698e-001

2.02791895958005e+004,-1.71943807899579e+001,-4.56589596592699e-001

2.05622765331213e+004,-1.71943823324111e+001,-4.62963321996925e-001

2.08493152168224e+004,-1.71943839182277e+001,-4.69426020110411e-001

2.11403608112276e+004,-1.71943855486270e+001,-4.75978932894854e-001

2.14354692507258e+004,-1.71943872248623e+001,-4.82623319647779e-001

2.17346972505211e+004,-1.71943889482221e+001,-4.89360457244247e-001

2.20381023175322e+004,-1.71943907200313e+001,-4.96191640380630e-001

2.23457427614443e+004,-1.71943925416519e+001,-5.03118181824268e-001

2.26576777059159e+004,-1.71943944144842e+001,-5.10141412665815e-001

2.29739670999406e+004,-1.71943963399681e+001,-5.17262682574279e-001

2.32946717293690e+004,-1.71943983195835e+001,-5.24483360057519e-001

2.36198532285905e+004,-1.71944003548523e+001,-5.31804832723155e-001

2.39495740923785e+004,-1.71944024473392e+001,-5.39228507546290e-001

2.42838976879009e+004,-1.71944045986525e+001,-5.46755811140027e-001

2.46228882668982e+004,-1.71944068104463e+001,-5.54388190028478e-001

2.49666109780322e+004,-1.71944090844204e+001,-5.62127110926077e-001

2.53151318794055e+004,-1.71944114223232e+001,-5.69974061016939e-001

2.56685179512580e+004,-1.71944138259519e+001,-5.77930548242875e-001

2.60268371088386e+004,-1.71944162971539e+001,-5.85998101591623e-001

2.63901582154578e+004,-1.71944188378292e+001,-5.94178271390517e-001

2.67585510957221e+004,-1.71944214499306e+001,-6.02472629605472e-001

2.71320865489533e+004,-1.71944241354662e+001,-6.10882770140757e-001

2.75108363627948e+004,-1.71944268965004e+001,-6.19410309146302e-001

2.78948733270080e+004,-1.71944297351556e+001,-6.28056885329254e-001

2.82842712474618e+004,-1.71944326536139e+001,-6.36824160265724e-001

2.86791049603164e+004,-1.71944356541187e+001,-6.45713818722242e-001

2.90794503464061e+004,-1.71944387389766e+001,-6.54727568978912e-001

2.94853843458219e+004,-1.71944419105588e+001,-6.63867143155770e-001

2.98969849726987e+004,-1.71944451713033e+001,-6.73134297548210e-001

3.03143313302078e+004,-1.71944485237168e+001,-6.82530812960616e-001

3.07375036257601e+004,-1.71944519703761e+001,-6.92058495052283e-001

3.11665831864199e+004,-1.71944555139307e+001,-7.01719174680294e-001

3.16016524745350e+004,-1.71944591571045e+001,-7.11514708253708e-001

3.20427951035848e+004,-1.71944629026980e+001,-7.21446978088060e-001

3.24900958542493e+004,-1.71944667535903e+001,-7.31517892768862e-001

3.29436406907028e+004,-1.71944707127416e+001,-7.41729387515440e-001

3.34035167771346e+004,-1.71944747831952e+001,-7.52083424554605e-001

3.38698124945009e+004,-1.71944789680799e+001,-7.62581993496699e-001

3.43426174575100e+004,-1.71944832706126e+001,-7.73227111715870e-001

3.48220225318448e+004,-1.71944876941005e+001,-7.84020824739743e-001

3.53081198516260e+004,-1.71944922419439e+001,-7.94965206640614e-001

3.58010028371187e+004,-1.71944969176384e+001,-8.06062360433858e-001

3.63007662126863e+004,-1.71945017247783e+001,-8.17314418481381e-001

3.68075060249948e+004,-1.71945066670584e+001,-8.28723542901073e-001

3.73213196614721e+004,-1.71945117482778e+001,-8.40291925981509e-001

3.78423058690237e+004,-1.71945169723421e+001,-8.52021790602842e-001

3.83705647730104e+004,-1.71945223432668e+001,-8.63915390662994e-001

3.89061978964912e+004,-1.71945278651803e+001,-8.75975011511090e-001

3.94493081797342e+004,-1.71945335423270e+001,-8.88202970384529e-001

3.99999999999998e+004,-1.71945393790705e+001,-9.00601616854433e-001

4.05583791916010e+004,-1.71945453798972e+001,-9.13173333276360e-001

4.11245530662425e+004,-1.71945515494196e+001,-9.25920535247676e-001

4.16986304336447e+004,-1.71945578923796e+001,-9.38845672069416e-001

4.22807216224550e+004,-1.71945644136527e+001,-9.51951227218404e-001

4.28709385014515e+004,-1.71945711182514e+001,-9.65239718821798e-001

4.34693945010421e+004,-1.71945780113287e+001,-9.78713700141006e-001

4.40762046350642e+004,-1.71945850981828e+001,-9.92375760061263e-001

4.46914855228886e+004,-1.71945923842608e+001,-1.00622852358713e+000

4.53153554118317e+004,-1.71945998751627e+001,-1.02027465234817e+000

4.59479341998812e+004,-1.71946075766461e+001,-1.03451684510664e+000

4.65893434587380e+004,-1.71946154946302e+001,-1.04895783827650e+000

4.72397064571810e+004,-1.71946236352007e+001,-1.06360040644804e+000

4.78991481847569e+004,-1.71946320046144e+001,-1.07844736291987e+000

4.85677953758016e+004,-1.71946406093038e+001,-1.09350156023728e+000

4.92457765337964e+004,-1.71946494558821e+001,-1.10876589074068e+000

4.99332219560642e+004,-1.71946585511487e+001,-1.12424328711819e+000

5.06302637588109e+004,-1.71946679020937e+001,-1.13993672296910e+000

5.13370359025159e+004,-1.71946775159039e+001,-1.15584921337355e+000

5.20536742176771e+004,-1.71946873999680e+001,-1.17198381546937e+000

5.27803164309155e+004,-1.71946975618822e+001,-1.18834362903974e+000

5.35171021914442e+004,-1.71947080094564e+001,-1.20493179710461e+000

5.42641730979066e+004,-1.71947187507198e+001,-1.22175150652574e+000

5.50216727255895e+004,-1.71947297939274e+001,-1.23880598861515e+000

5.57897466540159e+004,-1.71947411475660e+001,-1.25609851975392e+000

5.65685424949235e+004,-1.71947528203610e+001,-1.27363242202191e+000

5.73582099206328e+004,-1.71947648212829e+001,-1.29141106383191e+000

5.81589006928121e+004,-1.71947771595544e+001,-1.30943786057586e+000

5.89707686916437e+004,-1.71947898446572e+001,-1.32771627527772e+000

5.97939699453972e+004,-1.71948028863395e+001,-1.34624981925809e+000

6.06286626604156e+004,-1.71948162946235e+001,-1.36504205280469e+000

6.14750072515201e+004,-1.71948300798129e+001,-1.38409658585547e+000

6.23331663728396e+004,-1.71948442525009e+001,-1.40341707868851e+000

6.32033049490698e+004,-1.71948588235784e+001,-1.42300724262266e+000

6.40855902071694e+004,-1.71948738042424e+001,-1.44287084072856e+000

6.49801917084985e+004,-1.71948892060042e+001,-1.46301168854734e+000

6.58872813814055e+004,-1.71949050406988e+001,-1.48343365482161e+000

6.68070335542691e+004,-1.71949213204937e+001,-1.50414066223508e+000

6.77396249890018e+004,-1.71949380578981e+001,-1.52513668816277e+000

6.86852349150199e+004,-1.71949552657727e+001,-1.54642576543141e+000

6.96440450636895e+004,-1.71949729573396e+001,-1.56801198309143e+000

7.06162397032520e+004,-1.71949911461923e+001,-1.58989948719767e+000

7.16020056742374e+004,-1.71950098463060e+001,-1.61209248160258e+000

7.26015324253724e+004,-1.71950290720489e+001,-1.63459522875905e+000

7.36150120499896e+004,-1.71950488381924e+001,-1.65741205053615e+000

7.46426393229441e+004,-1.71950691599231e+001,-1.68054732904307e+000

7.56846117380472e+004,-1.71950900528542e+001,-1.70400550746790e+000

7.67411295460207e+004,-1.71951115330374e+001,-1.72779109092559e+000

7.78123957929823e+004,-1.71951336169752e+001,-1.75190864731750e+000

7.88986163594682e+004,-1.71951563216339e+001,-1.77636280820526e+000

7.99999999999995e+004,-1.71951796644560e+001,-1.80115826969343e+000

8.11167583832018e+004,-1.71952036633742e+001,-1.82629979332658e+000

8.22491061324848e+004,-1.71952283368247e+001,-1.85179220699748e+000

8.33972608672892e+004,-1.71952537037616e+001,-1.87764040586864e+000

8.45614432449099e+004,-1.71952797836712e+001,-1.90384935330546e+000

8.57418770029029e+004,-1.71953065965872e+001,-1.93042408182290e+000

8.69387890020841e+004,-1.71953341631057e+001,-1.95736969404615e+000

8.81524092701283e+004,-1.71953625044015e+001,-1.98469136368105e+000

8.93829710457770e+004,-1.71953916422436e+001,-2.01239433650220e+000

9.06307108236633e+004,-1.71954215990128e+001,-2.04048393135085e+000

9.18958683997622e+004,-1.71954523977179e+001,-2.06896554114982e+000

9.31786869174758e+004,-1.71954840620139e+001,-2.09784463392823e+000

9.44794129143618e+004,-1.71955166162200e+001,-2.12712675386460e+000

9.57982963695136e+004,-1.71955500853383e+001,-2.15681752234100e+000

9.71355907516031e+004,-1.71955844950727e+001,-2.18692263901333e+000

9.84915530675926e+004,-1.71956198718487e+001,-2.21744788289476e+000

9.98664439121282e+004,-1.71956562428338e+001,-2.24839911345552e+000

1.01260527517622e+005,-1.71956936359580e+001,-2.27978227173653e+000

1.02674071805032e+005,-1.71957320799355e+001,-2.31160338147907e+000

1.04107348435354e+005,-1.71957716042864e+001,-2.34386855026829e+000

1.05560632861831e+005,-1.71958122393594e+001,-2.37658397069455e+000

1.07034204382888e+005,-1.71958540163549e+001,-2.40975592152838e+000

1.08528346195813e+005,-1.71958969673491e+001,-2.44339076891231e+000

1.10043345451179e+005,-1.71959411253185e+001,-2.47749496756984e+000

1.11579493308032e+005,-1.71959865241649e+001,-2.51207506202796e+000

1.13137084989847e+005,-1.71960331987413e+001,-2.54713768785988e+000

1.14716419841265e+005,-1.71960811848790e+001,-2.58268957294187e+000

1.16317801385624e+005,-1.71961305194147e+001,-2.61873753872738e+000

1.17941537383287e+005,-1.71961812402181e+001,-2.65528850154055e+000

1.19587939890794e+005,-1.71962333862222e+001,-2.69234947388345e+000

1.21257325320831e+005,-1.71962869974515e+001,-2.72992756576516e+000

1.22950014503040e+005,-1.71963421150536e+001,-2.76802998604477e+000

1.24666332745679e+005,-1.71963987813304e+001,-2.80666404379531e+000

1.26406609898139e+005,-1.71964570397703e+001,-2.84583714968461e+000

1.28171180414339e+005,-1.71965169350813e+001,-2.88555681737566e+000

1.29960383416997e+005,-1.71965785132252e+001,-2.92583066494374e+000

1.31774562762811e+005,-1.71966418214530e+001,-2.96666641631533e+000

1.33614067108538e+005,-1.71967069083405e+001,-3.00807190272373e+000

1.35479249978003e+005,-1.71967738238256e+001,-3.05005506418635e+000

1.37370469830040e+005,-1.71968426192462e+001,-3.09262395099917e+000

1.39288090127379e+005,-1.71969133473796e+001,-3.13578672525357e+000

1.41232479406504e+005,-1.71969860624825e+001,-3.17955166237203e+000

1.43204011348474e+005,-1.71970608203327e+001,-3.22392715266344e+000

1.45203064850745e+005,-1.71971376782710e+001,-3.26892170290207e+000

1.47230024099979e+005,-1.71972166952456e+001,-3.31454393792308e+000

1.49285278645888e+005,-1.71972979318562e+001,-3.36080260224314e+000

1.51369223476094e+005,-1.71973814504010e+001,-3.40770656170001e+000

1.53482259092041e+005,-1.71974673149235e+001,-3.45526480511463e+000

1.55624791585964e+005,-1.71975555912613e+001,-3.50348644597494e+000

1.57797232718936e+005,-1.71976463470964e+001,-3.55238072414175e+000

1.59999999999999e+005,-1.71977396520068e+001,-3.60195700757664e+000

1.62233516766403e+005,-1.71978355775187e+001,-3.65222479409351e+000

1.64498212264969e+005,-1.71979341971619e+001,-3.70319371313176e+000

1.66794521734578e+005,-1.71980355865246e+001,-3.75487352755368e+000

1.69122886489819e+005,-1.71981398233116e+001,-3.80727413546388e+000

1.71483754005805e+005,-1.71982469874029e+001,-3.86040557205375e+000

1.73877578004168e+005,-1.71983571609146e+001,-3.91427801146893e+000

1.76304818540256e+005,-1.71984704282608e+001,-3.96890176870136e+000

1.78765942091554e+005,-1.71985868762182e+001,-4.02428730150534e+000

1.81261421647326e+005,-1.71987065939911e+001,-4.08044521233865e+000

1.83791736799524e+005,-1.71988296732800e+001,-4.13738625032788e+000

1.86357373834951e+005,-1.71989562083501e+001,-4.19512131325972e+000

1.88958825828723e+005,-1.71990862961035e+001,-4.25366144959712e+000

1.91596592739027e+005,-1.71992200361517e+001,-4.31301786052225e+000

1.94271181503206e+005,-1.71993575308918e+001,-4.37320190200251e+000

1.96983106135185e+005,-1.71994988855835e+001,-4.43422508688650e+000

1.99732887824256e+005,-1.71996442084286e+001,-4.49609908702387e+000

2.02521055035243e+005,-1.71997936106531e+001,-4.55883573541189e+000

2.05348143610063e+005,-1.71999472065907e+001,-4.62244702837100e+000

2.08214696870707e+005,-1.72001051137696e+001,-4.68694512774483e+000

2.11121265723661e+005,-1.72002674530008e+001,-4.75234236312962e+000

2.14068408765776e+005,-1.72004343484693e+001,-4.81865123413070e+000

2.17056692391625e+005,-1.72006059278279e+001,-4.88588441264653e+000

2.20086690902357e+005,-1.72007823222929e+001,-4.95405474518111e+000

2.23158986616063e+005,-1.72009636667434e+001,-5.02317525518488e+000

2.26274169979693e+005,-1.72011500998221e+001,-5.09325914542476e+000

2.29432839682530e+005,-1.72013417640401e+001,-5.16431980038170e+000

2.32635602771247e+005,-1.72015388058840e+001,-5.23637078867862e+000

2.35883074766574e+005,-1.72017413759251e+001,-5.30942586553683e+000

2.39175879781588e+005,-1.72019496289335e+001,-5.38349897526212e+000

2.42514650641661e+005,-1.72021637239933e+001,-5.45860425376147e+000

2.45900029006080e+005,-1.72023838246220e+001,-5.53475603108823e+000

2.49332665491357e+005,-1.72026100988933e+001,-5.61196883401775e+000

2.52813219796278e+005,-1.72028427195622e+001,-5.69025738865536e+000

2.56342360828676e+005,-1.72030818641949e+001,-5.76963662307165e+000

2.59920766833993e+005,-1.72033277153006e+001,-5.85012166997050e+000

2.63549125525621e+005,-1.72035804604686e+001,-5.93172786938843e+000

2.67228134217075e+005,-1.72038402925074e+001,-6.01447077142293e+000

2.70958499956006e+005,-1.72041074095889e+001,-6.09836613899389e+000

2.74740939660078e+005,-1.72043820153957e+001,-6.18342995063595e+000

2.78576180254757e+005,-1.72046643192728e+001,-6.26967840332117e+000

2.82464958813007e+005,-1.72049545363826e+001,-6.35712791531536e+000

2.86408022696948e+005,-1.72052528878655e+001,-6.44579512906461e+000

2.90406129701488e+005,-1.72055596010031e+001,-6.53569691411419e+000

2.94460048199957e+005,-1.72058749093869e+001,-6.62685037005909e+000

2.98570557291775e+005,-1.72061990530914e+001,-6.71927282952795e+000

3.02738446952187e+005,-1.72065322788512e+001,-6.81298186119689e+000

3.06964518184081e+005,-1.72068748402432e+001,-6.90799527283710e+000

3.11249583171928e+005,-1.72072269978741e+001,-7.00433111439472e+000

3.15594465437872e+005,-1.72075890195718e+001,-7.10200768110175e+000

3.19999999999997e+005,-1.72079611805829e+001,-7.20104351662039e+000

3.24467033532806e+005,-1.72083437637746e+001,-7.30145741621926e+000

3.28996424529938e+005,-1.72087370598429e+001,-7.40326842998127e+000

3.33589043469155e+005,-1.72091413675249e+001,-7.50649586604452e+000

3.38245772979638e+005,-1.72095569938180e+001,-7.61115929387514e+000

3.42967508011610e+005,-1.72099842542043e+001,-7.71727854757139e+000

3.47755156008335e+005,-1.72104234728806e+001,-7.82487372920039e+000

3.52609637080511e+005,-1.72108749829947e+001,-7.93396521216711e+000

3.57531884183106e+005,-1.72113391268882e+001,-8.04457364461292e+000

3.62522843294651e+005,-1.72118162563447e+001,-8.15671995284866e+000

3.67583473599047e+005,-1.72123067328451e+001,-8.27042534481596e+000

3.72714747669902e+005,-1.72128109278299e+001,-8.38571131358144e+000

3.77917651657445e+005,-1.72133292229670e+001,-8.50259964086084e+000

3.83193185478053e+005,-1.72138620104273e+001,-8.62111240057384e+000

3.88542363006410e+005,-1.72144096931676e+001,-8.74127196242869e+000

3.93966212270369e+005,-1.72149726852197e+001,-8.86310099553714e+000

3.99465775648511e+005,-1.72155514119880e+001,-8.98662247205766e+000

4.05042110070485e+005,-1.72161463105537e+001,-9.11185967086869e+000

4.10696287220124e+005,-1.72167578299876e+001,-9.23883618126964e+000

4.16429393741414e+005,-1.72173864316700e+001,-9.36757590670977e+000

4.22242531447321e+005,-1.72180325896193e+001,-9.49810306854445e+000

4.28136817531551e+005,-1.72186967908282e+001,-9.63044220981851e+000

4.34113384783250e+005,-1.72193795356092e+001,-9.76461819907518e+000

4.40173381804713e+005,-1.72200813379475e+001,-9.90065623419053e+000

4.46317973232124e+005,-1.72208027258641e+001,-1.00385818462327e+001

4.52548339959385e+005,-1.72215442417865e+001,-1.01784209033446e+001

4.58865679365059e+005,-1.72223064429292e+001,-1.03201996146503e+001

4.65271205542494e+005,-1.72230899016840e+001,-1.04639445341827e+001

4.71766149533147e+005,-1.72238952060184e+001,-1.06096825648328e+001

4.78351759563174e+005,-1.72247229598856e+001,-1.07574409623184e+001

4.85029301283321e+005,-1.72255737836425e+001,-1.09072473391732e+001

4.91800058012158e+005,-1.72264483144789e+001,-1.10591296687521e+001

4.98665330982714e+005,-1.72273472068573e+001,-1.12131162892540e+001

5.05626439592555e+005,-1.72282711329617e+001,-1.13692359077601e+001

5.12684721657352e+005,-1.72292207831585e+001,-1.15275176042852e+001

5.19841533667984e+005,-1.72301968664676e+001,-1.16879908358429e+001

5.27098251051240e+005,-1.72312001110445e+001,-1.18506854405209e+001

5.34456268434150e+005,-1.72322312646738e+001,-1.20156316415653e+001

5.41916999912011e+005,-1.72332910952742e+001,-1.21828600514740e+001

