Freq.,VOut,OutRef

1.00000000000000e+004,-2.72652234044992e+001,-2.28890982566143e-001

1.01395947979003e+004,-2.72652241349105e+001,-2.32086174237985e-001

1.02811382665607e+004,-2.72652248858564e+001,-2.35325968809803e-001

1.04246576084112e+004,-2.72652256579141e+001,-2.38610988902637e-001

1.05701804056138e+004,-2.72652264516773e+001,-2.41941865826017e-001

1.07177346253629e+004,-2.72652272677560e+001,-2.45319239704406e-001

1.08673486252606e+004,-2.72652281067776e+001,-2.48743759595209e-001

1.10190511587661e+004,-2.72652289693873e+001,-2.52216083616654e-001

1.11728713807222e+004,-2.72652298562480e+001,-2.55736879073135e-001

1.13288388529580e+004,-2.72652307680416e+001,-2.59306822583612e-001

1.14869835499703e+004,-2.72652317054690e+001,-2.62926600212031e-001

1.16473358646846e+004,-2.72652326692510e+001,-2.66596907597019e-001

1.18099266142953e+004,-2.72652336601283e+001,-2.70318450089949e-001

1.19747870461893e+004,-2.72652346788627e+001,-2.74091942885649e-001

1.21419488439505e+004,-2.72652357262375e+001,-2.77918111160813e-001

1.23114441334492e+004,-2.72652368030578e+001,-2.81797690217874e-001

1.24833054890161e+004,-2.72652379101513e+001,-2.85731425619358e-001

1.26575659397028e+004,-2.72652390483692e+001,-2.89720073337062e-001

1.28342589756290e+004,-2.72652402185865e+001,-2.93764399892253e-001

1.30134185544193e+004,-2.72652414217028e+001,-2.97865182507626e-001

1.31950791077289e+004,-2.72652426586429e+001,-3.02023209253222e-001

1.33792755478611e+004,-2.72652439303579e+001,-3.06239279198739e-001

1.35660432744767e+004,-2.72652452378253e+001,-3.10514202567473e-001

1.37554181813974e+004,-2.72652465820503e+001,-3.14848800893654e-001

1.39474366635040e+004,-2.72652479640661e+001,-3.19243907175541e-001

1.41421356237309e+004,-2.72652493849354e+001,-3.23700366039536e-001

1.43395524801583e+004,-2.72652508457502e+001,-3.28219033901868e-001

1.45397251732031e+004,-2.72652523476337e+001,-3.32800779130615e-001

1.47426921729110e+004,-2.72652538917404e+001,-3.37446482216649e-001

1.49484924863494e+004,-2.72652554792574e+001,-3.42157035938003e-001

1.51571656651040e+004,-2.72652571114049e+001,-3.46933345535996e-001

1.53687518128801e+004,-2.72652587894379e+001,-3.51776328884704e-001

1.55832915932100e+004,-2.72652605146462e+001,-3.56686916671803e-001

1.58008262372675e+004,-2.72652622883560e+001,-3.61666052573238e-001

1.60213975517924e+004,-2.72652641119309e+001,-3.66714693436682e-001

1.62450479271247e+004,-2.72652659867728e+001,-3.71833809464578e-001

1.64718203453514e+004,-2.72652679143229e+001,-3.77024384402017e-001

1.67017583885674e+004,-2.72652698960631e+001,-3.82287415722562e-001

1.69349062472505e+004,-2.72652719335167e+001,-3.87623914823253e-001

1.71713087287550e+004,-2.72652740282500e+001,-3.93034907216789e-001

1.74110112659224e+004,-2.72652761818734e+001,-3.98521432727977e-001

1.76540599258131e+004,-2.72652783960423e+001,-4.04084545696668e-001

1.79005014185594e+004,-2.72652806724591e+001,-4.09725315174867e-001

1.81503831063432e+004,-2.72652830128734e+001,-4.15444825138278e-001

1.84037530124975e+004,-2.72652854190847e+001,-4.21244174689011e-001

1.86606598307361e+004,-2.72652878929424e+001,-4.27124478270794e-001

1.89211529345119e+004,-2.72652904363485e+001,-4.33086865879534e-001

1.91852823865052e+004,-2.72652930512581e+001,-4.39132483283100e-001

1.94530989482457e+004,-2.72652957396813e+001,-4.45262492239580e-001

1.97246540898671e+004,-2.72652985036849e+001,-4.51478070720830e-001

1.99999999999999e+004,-2.72653013453935e+001,-4.57780413139710e-001

2.02791895958005e+004,-2.72653042669917e+001,-4.64170730577180e-001

2.05622765331213e+004,-2.72653072707254e+001,-4.70650251016855e-001

2.08493152168224e+004,-2.72653103589036e+001,-4.77220219579470e-001

2.11403608112276e+004,-2.72653135339003e+001,-4.83881898763663e-001

2.14354692507258e+004,-2.72653167981562e+001,-4.90636568685874e-001

2.17346972505211e+004,-2.72653201541805e+001,-4.97485527327950e-001

2.20381023175322e+004,-2.72653236045531e+001,-5.04430090786335e-001

2.23457427614443e+004,-2.72653271519264e+001,-5.11471593522438e-001

2.26576777059159e+004,-2.72653307990271e+001,-5.18611388622935e-001

2.29739670999406e+004,-2.72653345486590e+001,-5.25850848054987e-001

2.32946717293690e+004,-2.72653384037044e+001,-5.33191362932534e-001

2.36198532285905e+004,-2.72653423671267e+001,-5.40634343782264e-001

2.39495740923785e+004,-2.72653464419727e+001,-5.48181220814783e-001

2.42838976879009e+004,-2.72653506313746e+001,-5.55833444198603e-001

2.46228882668982e+004,-2.72653549385529e+001,-5.63592484339484e-001

2.49666109780322e+004,-2.72653593668184e+001,-5.71459832160191e-001

2.53151318794055e+004,-2.72653639195754e+001,-5.79436999389418e-001

2.56685179512580e+004,-2.72653686003232e+001,-5.87525518851278e-001

2.60268371088386e+004,-2.72653734126602e+001,-5.95726944756537e-001

2.63901582154578e+004,-2.72653783602854e+001,-6.04042853006188e-001

2.67585510957221e+004,-2.72653834470020e+001,-6.12474841488878e-001

2.71320865489533e+004,-2.72653886767203e+001,-6.21024530389252e-001

2.75108363627948e+004,-2.72653940534601e+001,-6.29693562500362e-001

2.78948733270080e+004,-2.72653995813544e+001,-6.38483603536565e-001

2.82842712474618e+004,-2.72654052646525e+001,-6.47396342453323e-001

2.86791049603164e+004,-2.72654111077229e+001,-6.56433491772867e-001

2.90794503464061e+004,-2.72654171150572e+001,-6.65596787910769e-001

2.94853843458219e+004,-2.72654232912729e+001,-6.74887991510808e-001

2.98969849726987e+004,-2.72654296411175e+001,-6.84308887780580e-001

3.03143313302078e+004,-2.72654361694720e+001,-6.93861286834922e-001

3.07375036257601e+004,-2.72654428813543e+001,-7.03547024044269e-001

3.11665831864199e+004,-2.72654497819238e+001,-7.13367960384167e-001

3.16016524745350e+004,-2.72654568764845e+001,-7.23325982794112e-001

3.20427951035848e+004,-2.72654641704898e+001,-7.33423004537988e-001

3.24900958542493e+004,-2.72654716695461e+001,-7.43660965571422e-001

3.29436406907028e+004,-2.72654793794175e+001,-7.54041832914859e-001

3.34035167771346e+004,-2.72654873060303e+001,-7.64567601027762e-001

3.38698124945009e+004,-2.72654954554771e+001,-7.75240292193737e-001

3.43426174575100e+004,-2.72655038340218e+001,-7.86061956907510e-001

3.48220225318448e+004,-2.72655124481046e+001,-7.97034674265739e-001

3.53081198516260e+004,-2.72655213043463e+001,-8.08160552369365e-001

3.58010028371187e+004,-2.72655304095541e+001,-8.19441728723196e-001

3.63007662126863e+004,-2.72655397707266e+001,-8.30880370649043e-001

3.68075060249948e+004,-2.72655493950586e+001,-8.42478675699668e-001

3.73213196614721e+004,-2.72655592899478e+001,-8.54238872078679e-001

3.78423058690237e+004,-2.72655694629992e+001,-8.66163219069526e-001

3.83705647730104e+004,-2.72655799220319e+001,-8.78254007465469e-001

3.89061978964912e+004,-2.72655906750848e+001,-8.90513560011577e-001

3.94493081797342e+004,-2.72656017304225e+001,-9.02944231846624e-001

3.99999999999998e+004,-2.72656130965420e+001,-9.15548410956459e-001

4.05583791916010e+004,-2.72656247821789e+001,-9.28328518629544e-001

4.11245530662425e+004,-2.72656367963148e+001,-9.41287009920518e-001

4.16986304336447e+004,-2.72656491481832e+001,-9.54426374121190e-001

4.22807216224550e+004,-2.72656618472773e+001,-9.67749135236821e-001

4.28709385014515e+004,-2.72656749033572e+001,-9.81257852467814e-001

4.34693945010421e+004,-2.72656883264569e+001,-9.94955120701822e-001

4.40762046350642e+004,-2.72657021268931e+001,-1.00884357100692e+000

4.46914855228886e+004,-2.72657163152717e+001,-1.02292587113886e+000

4.53153554118317e+004,-2.72657309024969e+001,-1.03720472604844e+000

4.59479341998812e+004,-2.72657458997795e+001,-1.05168287839979e+000

4.65893434587380e+004,-2.72657613186451e+001,-1.06636310909509e+000

4.72397064571810e+004,-2.72657771709433e+001,-1.08124823780563e+000

4.78991481847569e+004,-2.72657934688566e+001,-1.09634112351237e+000

4.85677953758016e+004,-2.72658102249101e+001,-1.11164466505001e+000

4.92457765337964e+004,-2.72658274519803e+001,-1.12716180166415e+000

4.99332219560642e+004,-2.72658451633062e+001,-1.14289551356923e+000

5.06302637588109e+004,-2.72658633724983e+001,-1.15884882252155e+000

5.13370359025159e+004,-2.72658820935497e+001,-1.17502479239414e+000

5.20536742176771e+004,-2.72659013408467e+001,-1.19142652976324e+000

5.27803164309155e+004,-2.72659211291800e+001,-1.20805718450021e+000

5.35171021914442e+004,-2.72659414737554e+001,-1.22491995037449e+000

5.42641730979066e+004,-2.72659623902065e+001,-1.24201806566206e+000

5.50216727255895e+004,-2.72659838946056e+001,-1.25935481376464e+000

5.57897466540159e+004,-2.72660060034771e+001,-1.27693352383476e+000

5.65685424949235e+004,-2.72660287338093e+001,-1.29475757141215e+000

5.73582099206328e+004,-2.72660521030679e+001,-1.31283037906719e+000

5.81589006928121e+004,-2.72660761292093e+001,-1.33115541705371e+000

5.89707686916437e+004,-2.72661008306943e+001,-1.34973620396980e+000

5.97939699453972e+004,-2.72661262265025e+001,-1.36857630743015e+000

6.06286626604156e+004,-2.72661523361464e+001,-1.38767934474493e+000

6.14750072515201e+004,-2.72661791796869e+001,-1.40704898360855e+000

6.23331663728396e+004,-2.72662067777483e+001,-1.42668894279906e+000

6.32033049490698e+004,-2.72662351515344e+001,-1.44660299288643e+000

6.40855902071694e+004,-2.72662643228445e+001,-1.46679495694989e+000

6.49801917084985e+004,-2.72662943140902e+001,-1.48726871130602e+000

6.58872813814055e+004,-2.72663251483126e+001,-1.50802818624596e+000

6.68070335542691e+004,-2.72663568492003e+001,-1.52907736678334e+000

6.77396249890018e+004,-2.72663894411070e+001,-1.55042029341200e+000

6.86852349150199e+004,-2.72664229490702e+001,-1.57206106287470e+000

6.96440450636895e+004,-2.72664573988309e+001,-1.59400382894111e+000

7.06162397032520e+004,-2.72664928168532e+001,-1.61625280319636e+000

7.16020056742374e+004,-2.72665292303439e+001,-1.63881225584367e+000

7.26015324253724e+004,-2.72665666672744e+001,-1.66168651651141e+000

7.36150120499896e+004,-2.72666051564013e+001,-1.68487997507833e+000

7.46426393229441e+004,-2.72666447272889e+001,-1.70839708250423e+000

7.56846117380472e+004,-2.72666854103315e+001,-1.73224235167551e+000

7.67411295460207e+004,-2.72667272367771e+001,-1.75642035826031e+000

7.78123957929823e+004,-2.72667702387509e+001,-1.78093574157564e+000

7.88986163594682e+004,-2.72668144492804e+001,-1.80579320546672e+000

7.99999999999995e+004,-2.72668599023200e+001,-1.83099751919790e+000

8.11167583832018e+004,-2.72669066327779e+001,-1.85655351835434e+000

8.22491061324848e+004,-2.72669546765420e+001,-1.88246610575909e+000

8.33972608672892e+004,-2.72670040705077e+001,-1.90874025239872e+000

8.45614432449099e+004,-2.72670548526064e+001,-1.93538099836400e+000

8.57418770029029e+004,-2.72671070618342e+001,-1.96239345380113e+000

8.69387890020841e+004,-2.72671607382817e+001,-1.98978279987865e+000

8.81524092701283e+004,-2.72672159231650e+001,-2.01755428976450e+000

8.93829710457770e+004,-2.72672726588569e+001,-2.04571324961745e+000

9.06307108236633e+004,-2.72673309889196e+001,-2.07426507959166e+000

9.18958683997622e+004,-2.72673909581378e+001,-2.10321525485407e+000

9.31786869174758e+004,-2.72674526125531e+001,-2.13256932661703e+000

9.44794129143618e+004,-2.72675159994991e+001,-2.16233292318202e+000

9.57982963695136e+004,-2.72675811676378e+001,-2.19251175099950e+000

9.71355907516031e+004,-2.72676481669963e+001,-2.22311159574286e+000

9.84915530675926e+004,-2.72677170490056e+001,-2.25413832339367e+000

9.98664439121282e+004,-2.72677878665398e+001,-2.28559788134558e+000

1.01260527517622e+005,-2.72678606739560e+001,-2.31749629951976e+000

1.02674071805032e+005,-2.72679355271367e+001,-2.34983969149534e+000

1.04107348435354e+005,-2.72680124835316e+001,-2.38263425565686e+000

1.05560632861831e+005,-2.72680916022020e+001,-2.41588627635398e+000

1.07034204382888e+005,-2.72681729438658e+001,-2.44960212507817e+000

1.08528346195813e+005,-2.72682565709437e+001,-2.48378826165513e+000

1.10043345451179e+005,-2.72683425476071e+001,-2.51845123545095e+000

1.11579493308032e+005,-2.72684309398268e+001,-2.55359768659554e+000

1.13137084989847e+005,-2.72685218154234e+001,-2.58923434722219e+000

1.14716419841265e+005,-2.72686152441194e+001,-2.62536804272213e+000

1.16317801385624e+005,-2.72687112975916e+001,-2.66200569301560e+000

1.17941537383287e+005,-2.72688100495266e+001,-2.69915431384021e+000

1.19587939890794e+005,-2.72689115756763e+001,-2.73682101805585e+000

1.21257325320831e+005,-2.72690159539161e+001,-2.77501301696448e+000

1.22950014503040e+005,-2.72691232643037e+001,-2.81373762165021e+000

1.24666332745679e+005,-2.72692335891408e+001,-2.85300224433317e+000

1.26406609898139e+005,-2.72693470130352e+001,-2.89281439974327e+000

1.28171180414339e+005,-2.72694636229652e+001,-2.93318170651039e+000

1.29960383416997e+005,-2.72695835083462e+001,-2.97411188857210e+000

1.31774562762811e+005,-2.72697067610986e+001,-3.01561277659916e+000

1.33614067108538e+005,-2.72698334757173e+001,-3.05769230944033e+000

1.35479249978003e+005,-2.72699637493441e+001,-3.10035853558356e+000

1.37370469830040e+005,-2.72700976818413e+001,-3.14361961463715e+000

1.39288090127379e+005,-2.72702353758675e+001,-3.18748381882819e+000

1.41232479406504e+005,-2.72703769369559e+001,-3.23195953452114e+000

1.43204011348474e+005,-2.72705224735940e+001,-3.27705526375320e+000

1.45203064850745e+005,-2.72706720973063e+001,-3.32277962579136e+000

1.47230024099979e+005,-2.72708259227389e+001,-3.36914135870657e+000

1.49285278645888e+005,-2.72709840677462e+001,-3.41614932096817e+000

1.51369223476094e+005,-2.72711466534807e+001,-3.46381249305818e+000

1.53482259092041e+005,-2.72713138044844e+001,-3.51213997910418e+000

1.55624791585964e+005,-2.72714856487835e+001,-3.56114100853344e+000

1.57797232718936e+005,-2.72716623179852e+001,-3.61082493774604e+000

1.59999999999999e+005,-2.72718439473773e+001,-3.66120125180877e+000

1.62233516766403e+005,-2.72720306760308e+001,-3.71227956616895e+000

1.64498212264969e+005,-2.72722226469048e+001,-3.76406962838922e+000

1.66794521734578e+005,-2.72724200069549e+001,-3.81658131990197e+000

1.69122886489819e+005,-2.72726229072440e+001,-3.86982465778584e+000

1.71483754005805e+005,-2.72728315030565e+001,-3.92380979656201e+000

1.73877578004168e+005,-2.72730459540156e+001,-3.97854703001216e+000

1.76304818540256e+005,-2.72732664242037e+001,-4.03404679301714e+000

1.78765942091554e+005,-2.72734930822859e+001,-4.09031966341741e+000

1.81261421647326e+005,-2.72737261016379e+001,-4.14737636389353e+000

1.83791736799524e+005,-2.72739656604755e+001,-4.20522776387045e+000

1.86357373834951e+005,-2.72742119419898e+001,-4.26388488144115e+000

1.88958825828723e+005,-2.72744651344846e+001,-4.32335888531295e+000

1.91596592739027e+005,-2.72747254315178e+001,-4.38366109677542e+000

1.94271181503206e+005,-2.72749930320473e+001,-4.44480299169038e+000

1.96983106135185e+005,-2.72752681405802e+001,-4.50679620250268e+000

1.99732887824256e+005,-2.72755509673265e+001,-4.56965252027506e+000

2.02521055035243e+005,-2.72758417283564e+001,-4.63338389674247e+000

2.05348143610063e+005,-2.72761406457626e+001,-4.69800244639092e+000

2.08214696870707e+005,-2.72764479478266e+001,-4.76352044855607e+000

2.11121265723661e+005,-2.72767638691894e+001,-4.82995034954572e+000

2.14068408765776e+005,-2.72770886510271e+001,-4.89730476478368e+000

2.17056692391625e+005,-2.72774225412313e+001,-4.96559648097537e+000

2.20086690902357e+005,-2.72777657945938e+001,-5.03483845829686e+000

2.23158986616063e+005,-2.72781186729971e+001,-5.10504383260401e+000

2.26274169979693e+005,-2.72784814456094e+001,-5.17622591766587e+000

2.29432839682530e+005,-2.72788543890851e+001,-5.24839820741749e+000

2.32635602771247e+005,-2.72792377877709e+001,-5.32157437823759e+000

2.35883074766574e+005,-2.72796319339168e+001,-5.39576829124520e+000

2.39175879781588e+005,-2.72800371278936e+001,-5.47099399461997e+000

2.42514650641661e+005,-2.72804536784154e+001,-5.54726572594326e+000

2.45900029006080e+005,-2.72808819027687e+001,-5.62459791456079e+000

2.49332665491357e+005,-2.72813221270474e+001,-5.70300518396628e+000

2.52813219796278e+005,-2.72817746863936e+001,-5.78250235420698e+000

2.56342360828676e+005,-2.72822399252458e+001,-5.86310444430894e+000

2.59920766833993e+005,-2.72827181975928e+001,-5.94482667472440e+000

2.63549125525621e+005,-2.72832098672348e+001,-6.02768446979782e+000

2.67228134217075e+005,-2.72837153080510e+001,-6.11169346025379e+000

2.70958499956006e+005,-2.72842349042751e+001,-6.19686948570335e+000

2.74740939660078e+005,-2.72847690507769e+001,-6.28322859717095e+000

2.78576180254757e+005,-2.72853181533527e+001,-6.37078705963954e+000

2.82464958813007e+005,-2.72858826290217e+001,-6.45956135461543e+000

2.86408022696948e+005,-2.72864629063319e+001,-6.54956818271026e+000

2.90406129701488e+005,-2.72870594256725e+001,-6.64082446624257e+000

2.94460048199957e+005,-2.72876726395958e+001,-6.73334735185431e+000

2.98570557291775e+005,-2.72883030131462e+001,-6.82715421314720e+000

3.02738446952187e+005,-2.72889510241989e+001,-6.92226265333287e+000

3.06964518184081e+005,-2.72896171638067e+001,-7.01869050789979e+000

3.11249583171928e+005,-2.72903019365558e+001,-7.11645584729589e+000

3.15594465437872e+005,-2.72910058609313e+001,-7.21557697962385e+000

3.19999999999997e+005,-2.72917294696914e+001,-7.31607245335216e+000

3.24467033532806e+005,-2.72924733102521e+001,-7.41796106003752e+000

3.28996424529938e+005,-2.72932379450808e+001,-7.52126183705974e+000

3.33589043469155e+005,-2.72940239521006e+001,-7.62599407036835e+000

3.38245772979638e+005,-2.72948319251046e+001,-7.73217729723897e+000

3.42967508011610e+005,-2.72956624741813e+001,-7.83983130903929e+000

3.47755156008335e+005,-2.72965162261496e+001,-7.94897615400326e+000

3.52609637080511e+005,-2.72973938250061e+001,-8.05963214001268e+000

3.57531884183106e+005,-2.72982959323827e+001,-8.17181983738464e+000

3.62522843294651e+005,-2.72992232280163e+001,-8.28556008166396e+000

3.67583473599047e+005,-2.73001764102298e+001,-8.40087397641931e+000

3.72714747669902e+005,-2.73011561964253e+001,-8.51778289604146e+000

3.77917651657445e+005,-2.73021633235893e+001,-8.63630848854256e+000

3.83193185478053e+005,-2.73031985488112e+001,-8.75647267835481e+000

3.88542363006410e+005,-2.73042626498129e+001,-8.87829766912659e+000

3.93966212270369e+005,-2.73053564254933e+001,-9.00180594651530e+000

3.99465775648511e+005,-2.73064806964848e+001,-9.12702028097460e+000

4.05042110070485e+005,-2.73076363057238e+001,-9.25396373053384e+000

4.10696287220124e+005,-2.73088241190348e+001,-9.38265964356895e+000

4.16429393741414e+005,-2.73100450257284e+001,-9.51313166156178e+000

4.22242531447321e+005,-2.73112999392148e+001,-9.64540372184640e+000

4.28136817531551e+005,-2.73125897976297e+001,-9.77950006033976e+000

4.34113384783250e+005,-2.73139155644775e+001,-9.91544521425501e+000

4.40173381804713e+005,-2.73152782292874e+001,-1.00532640247944e+001

4.46317973232124e+005,-2.73166788082868e+001,-1.01929816398201e+001

4.52548339959385e+005,-2.73181183450889e+001,-1.03346235165002e+001

4.58865679365059e+005,-2.73195979113973e+001,-1.04782154239256e+001

4.65271205542494e+005,-2.73211186077259e+001,-1.06237834456983e+001

4.71766149533147e+005,-2.73226815641358e+001,-1.07713539824846e+001

4.78351759563174e+005,-2.73242879409891e+001,-1.09209537545323e+001

4.85029301283321e+005,-2.73259389297186e+001,-1.10726098041492e+001

4.91800058012158e+005,-2.73276357536162e+001,-1.12263494981365e+001

4.98665330982714e+005,-2.73293796686377e+001,-1.13822005301775e+001

5.05626439592555e+005,-2.73311719642254e+001,-1.15401909231760e+001

5.12684721657352e+005,-2.73330139641495e+001,-1.17003490315400e+001

5.19841533667984e+005,-2.73349070273663e+001,-1.18627035434087e+001

5.27098251051240e+005,-2.73368525488960e+001,-1.20272834828179e+001

5.34456268434150e+005,-2.73388519607185e+001,-1.21941182117992e+001

5.41916999912011e+005,-2.73409067326884e+001,-1.23632374324088e+001

