Freq.,VOut,OutRef

1.00000000000000e+004,-2.60348441186421e+001,-4.88437704643792e-001

1.01395947979003e+004,-2.60348473754586e+001,-4.95255970943150e-001

1.02811382665607e+004,-2.60348507238345e+001,-5.02169413721436e-001

1.04246576084112e+004,-2.60348541663436e+001,-5.09179361467769e-001

1.05701804056138e+004,-2.60348577056323e+001,-5.16287161208789e-001

1.07177346253629e+004,-2.60348613444212e+001,-5.23494178770684e-001

1.08673486252606e+004,-2.60348650855074e+001,-5.30801799039922e-001

1.10190511587661e+004,-2.60348689317671e+001,-5.38211426227958e-001

1.11728713807222e+004,-2.60348728861565e+001,-5.45724484144412e-001

1.13288388529580e+004,-2.60348769517155e+001,-5.53342416465978e-001

1.14869835499703e+004,-2.60348811315694e+001,-5.61066687015584e-001

1.16473358646846e+004,-2.60348854289313e+001,-5.68898780044008e-001

1.18099266142953e+004,-2.60348898471044e+001,-5.76840200513616e-001

1.19747870461893e+004,-2.60348943894851e+001,-5.84892474386733e-001

1.21419488439505e+004,-2.60348990595650e+001,-5.93057148920583e-001

1.23114441334492e+004,-2.60349038609340e+001,-6.01335792961690e-001

1.24833054890161e+004,-2.60349087972829e+001,-6.09729997248735e-001

1.26575659397028e+004,-2.60349138724063e+001,-6.18241374716467e-001

1.28342589756290e+004,-2.60349190902052e+001,-6.26871560806249e-001

1.30134185544193e+004,-2.60349244546906e+001,-6.35622213779209e-001

1.31950791077289e+004,-2.60349299699859e+001,-6.44495015034674e-001

1.33792755478611e+004,-2.60349356403307e+001,-6.53491669432572e-001

1.35660432744767e+004,-2.60349414700837e+001,-6.62613905619544e-001

1.37554181813974e+004,-2.60349474637259e+001,-6.71863476363044e-001

1.39474366635040e+004,-2.60349536258647e+001,-6.81242158884658e-001

1.41421356237309e+004,-2.60349599612366e+001,-6.90751755202889e-001

1.43395524801583e+004,-2.60349664747113e+001,-7.00394092477623e-001

1.45397251732031e+004,-2.60349731712956e+001,-7.10171023361309e-001

1.47426921729110e+004,-2.60349800561368e+001,-7.20084426354135e-001

1.49484924863494e+004,-2.60349871345271e+001,-7.30136206163250e-001

1.51571656651040e+004,-2.60349944119071e+001,-7.40328294070223e-001

1.53687518128801e+004,-2.60350018938707e+001,-7.50662648297763e-001

1.55832915932100e+004,-2.60350095861689e+001,-7.61141254388923e-001

1.58008262372675e+004,-2.60350174947142e+001,-7.71766125585294e-001

1.60213975517924e+004,-2.60350256255856e+001,-7.82539303213473e-001

1.62450479271247e+004,-2.60350339850325e+001,-7.93462857077169e-001

1.64718203453514e+004,-2.60350425794805e+001,-8.04538885852244e-001

1.67017583885674e+004,-2.60350514155353e+001,-8.15769517490585e-001

1.69349062472505e+004,-2.60350604999885e+001,-8.27156909627302e-001

1.71713087287550e+004,-2.60350698398227e+001,-8.38703249992806e-001

1.74110112659224e+004,-2.60350794422165e+001,-8.50410756834587e-001

1.76540599258131e+004,-2.60350893145505e+001,-8.62281679340146e-001

1.79005014185594e+004,-2.60350994644126e+001,-8.74318298067759e-001

1.81503831063432e+004,-2.60351098996038e+001,-8.86522925385557e-001

1.84037530124975e+004,-2.60351206281447e+001,-8.98897905911659e-001

1.86606598307361e+004,-2.60351316582811e+001,-9.11445616964708e-001

1.89211529345119e+004,-2.60351429984906e+001,-9.24168469018399e-001

1.91852823865052e+004,-2.60351546574891e+001,-9.37068906164073e-001

1.94530989482457e+004,-2.60351666442373e+001,-9.50149406577535e-001

1.97246540898671e+004,-2.60351789679477e+001,-9.63412482994131e-001

1.99999999999999e+004,-2.60351916380922e+001,-9.76860683188322e-001

2.02791895958005e+004,-2.60352046644081e+001,-9.90496590463961e-001

2.05622765331213e+004,-2.60352180569071e+001,-1.00432282414609e+000

2.08493152168224e+004,-2.60352318258818e+001,-1.01834204008293e+000

2.11403608112276e+004,-2.60352459819140e+001,-1.03255693115511e+000

2.14354692507258e+004,-2.60352605358833e+001,-1.04697022778837e+000

2.17346972505211e+004,-2.60352754989747e+001,-1.06158469847845e+000

2.20381023175322e+004,-2.60352908826874e+001,-1.07640315031869e+000

2.23457427614443e+004,-2.60353066988442e+001,-1.09142842953756e+000

2.26576777059159e+004,-2.60353229595997e+001,-1.10666342204273e+000

2.29739670999406e+004,-2.60353396774501e+001,-1.12211105397261e+000

2.32946717293690e+004,-2.60353568652430e+001,-1.13777429225582e+000

2.36198532285905e+004,-2.60353745361867e+001,-1.15365614517770e+000

2.39495740923785e+004,-2.60353927038609e+001,-1.16975966295532e+000

2.42838976879009e+004,-2.60354113822268e+001,-1.18608793832097e+000

2.46228882668982e+004,-2.60354305856377e+001,-1.20264410711137e+000

2.49666109780322e+004,-2.60354503288503e+001,-1.21943134886809e+000

2.53151318794055e+004,-2.60354706270361e+001,-1.23645288744323e+000

2.56685179512580e+004,-2.60354914957926e+001,-1.25371199161586e+000

2.60268371088386e+004,-2.60355129511558e+001,-1.27121197571568e+000

2.63901582154578e+004,-2.60355350096120e+001,-1.28895620025501e+000

2.67585510957221e+004,-2.60355576881107e+001,-1.30694807257089e+000

2.71320865489533e+004,-2.60355810040779e+001,-1.32519104747373e+000

2.75108363627948e+004,-2.60356049754288e+001,-1.34368862790777e+000

2.78948733270080e+004,-2.60356296205821e+001,-1.36244436561755e+000

2.82842712474618e+004,-2.60356549584739e+001,-1.38146186182553e+000

2.86791049603164e+004,-2.60356810085722e+001,-1.40074476791913e+000

2.90794503464061e+004,-2.60357077908920e+001,-1.42029678614532e+000

2.94853843458219e+004,-2.60357353260106e+001,-1.44012167031562e+000

2.98969849726987e+004,-2.60357636350831e+001,-1.46022322652312e+000

3.03143313302078e+004,-2.60357927398589e+001,-1.48060531386496e+000

3.07375036257601e+004,-2.60358226626986e+001,-1.50127184517765e+000

3.11665831864199e+004,-2.60358534265906e+001,-1.52222678778188e+000

3.16016524745350e+004,-2.60358850551690e+001,-1.54347416423687e+000

3.20427951035848e+004,-2.60359175727320e+001,-1.56501805310581e+000

3.24900958542493e+004,-2.60359510042598e+001,-1.58686258973132e+000

3.29436406907028e+004,-2.60359853754346e+001,-1.60901196702053e+000

3.34035167771346e+004,-2.60360207126598e+001,-1.63147043624320e+000

3.38698124945009e+004,-2.60360570430800e+001,-1.65424230783856e+000

3.43426174575100e+004,-2.60360943946026e+001,-1.67733195223327e+000

3.48220225318448e+004,-2.60361327959183e+001,-1.70074380067188e+000

3.53081198516260e+004,-2.60361722765237e+001,-1.72448234605790e+000

3.58010028371187e+004,-2.60362128667436e+001,-1.74855214380508e+000

3.63007662126863e+004,-2.60362545977544e+001,-1.77295781270172e+000

3.68075060249948e+004,-2.60362975016078e+001,-1.79770403578645e+000

3.73213196614721e+004,-2.60363416112554e+001,-1.82279556123487e+000

3.78423058690237e+004,-2.60363869605741e+001,-1.84823720325973e+000

3.83705647730104e+004,-2.60364335843918e+001,-1.87403384302147e+000

3.89061978964912e+004,-2.60364815185144e+001,-1.90019042955227e+000

3.94493081797342e+004,-2.60365307997528e+001,-1.92671198069262e+000

3.99999999999998e+004,-2.60365814659512e+001,-1.95360358403943e+000

4.05583791916010e+004,-2.60366335560163e+001,-1.98087039790770e+000

4.11245530662425e+004,-2.60366871099470e+001,-2.00851765230502e+000

4.16986304336447e+004,-2.60367421688646e+001,-2.03655064991946e+000

4.22807216224550e+004,-2.60367987750449e+001,-2.06497476711854e+000

4.28709385014515e+004,-2.60368569719501e+001,-2.09379545496580e+000

4.34693945010421e+004,-2.60369168042620e+001,-2.12301824024597e+000

4.40762046350642e+004,-2.60369783179167e+001,-2.15264872650815e+000

4.46914855228886e+004,-2.60370415601390e+001,-2.18269259511960e+000

4.53153554118317e+004,-2.60371065794790e+001,-2.21315560633563e+000

4.59479341998812e+004,-2.60371734258492e+001,-2.24404360038245e+000

4.65893434587380e+004,-2.60372421505623e+001,-2.27536249855611e+000

4.72397064571810e+004,-2.60373128063709e+001,-2.30711830433296e+000

4.78991481847569e+004,-2.60373854475073e+001,-2.33931710449831e+000

4.85677953758016e+004,-2.60374601297252e+001,-2.37196507028783e+000

4.92457765337964e+004,-2.60375369103426e+001,-2.40506845854328e+000

4.99332219560642e+004,-2.60376158482846e+001,-2.43863361288692e+000

5.06302637588109e+004,-2.60376970041296e+001,-2.47266696490685e+000

5.13370359025159e+004,-2.60377804401546e+001,-2.50717503536156e+000

5.20536742176771e+004,-2.60378662203833e+001,-2.54216443539797e+000

5.27803164309155e+004,-2.60379544106346e+001,-2.57764186778669e+000

5.35171021914442e+004,-2.60380450785729e+001,-2.61361412817278e+000

5.42641730979066e+004,-2.60381382937600e+001,-2.65008810634229e+000

5.50216727255895e+004,-2.60382341277075e+001,-2.68707078750728e+000

5.57897466540159e+004,-2.60383326539322e+001,-2.72456925360396e+000

5.65685424949235e+004,-2.60384339480113e+001,-2.76259068461175e+000

5.73582099206328e+004,-2.60385380876404e+001,-2.80114235988571e+000

5.81589006928121e+004,-2.60386451526926e+001,-2.84023165950889e+000

5.89707686916437e+004,-2.60387552252796e+001,-2.87986606566002e+000

5.97939699453972e+004,-2.60388683898136e+001,-2.92005316399941e+000

6.06286626604156e+004,-2.60389847330722e+001,-2.96080064507337e+000

6.14750072515201e+004,-2.60391043442642e+001,-3.00211630573544e+000

6.23331663728396e+004,-2.60392273150972e+001,-3.04400805058540e+000

6.32033049490698e+004,-2.60393537398476e+001,-3.08648389342823e+000

6.40855902071694e+004,-2.60394837154327e+001,-3.12955195874907e+000

6.49801917084985e+004,-2.60396173414833e+001,-3.17322048320935e+000

6.58872813814055e+004,-2.60397547204204e+001,-3.21749781715935e+000

6.68070335542691e+004,-2.60398959575326e+001,-3.26239242617077e+000

6.77396249890018e+004,-2.60400411610561e+001,-3.30791289258845e+000

6.86852349150199e+004,-2.60401904422566e+001,-3.35406791710185e+000

6.96440450636895e+004,-2.60403439155141e+001,-3.40086632033362e+000

7.06162397032520e+004,-2.60405016984096e+001,-3.44831704445146e+000

7.16020056742374e+004,-2.60406639118141e+001,-3.49642915479609e+000

7.26015324253724e+004,-2.60408306799802e+001,-3.54521184153131e+000

7.36150120499896e+004,-2.60410021306363e+001,-3.59467442131424e+000

7.46426393229441e+004,-2.60411783950836e+001,-3.64482633898388e+000

7.56846117380472e+004,-2.60413596082949e+001,-3.69567716927236e+000

7.67411295460207e+004,-2.60415459090173e+001,-3.74723661853544e+000

7.78123957929823e+004,-2.60417374398767e+001,-3.79951452650366e+000

7.88986163594682e+004,-2.60419343474859e+001,-3.85252086805502e+000

7.99999999999995e+004,-2.60421367825554e+001,-3.90626575500785e+000

8.11167583832018e+004,-2.60423449000070e+001,-3.96075943793564e+000

8.22491061324848e+004,-2.60425588590907e+001,-4.01601230800208e+000

8.33972608672892e+004,-2.60427788235054e+001,-4.07203489881848e+000

8.45614432449099e+004,-2.60430049615217e+001,-4.12883788832199e+000

8.57418770029029e+004,-2.60432374461088e+001,-4.18643210067605e+000

8.69387890020841e+004,-2.60434764550653e+001,-4.24482850819107e+000

8.81524092701283e+004,-2.60437221711525e+001,-4.30403823326945e+000

8.93829710457770e+004,-2.60439747822322e+001,-4.36407255037007e+000

9.06307108236633e+004,-2.60442344814075e+001,-4.42494288799599e+000

9.18958683997622e+004,-2.60445014671687e+001,-4.48666083070410e+000

9.31786869174758e+004,-2.60447759435417e+001,-4.54923812113648e+000

9.44794129143618e+004,-2.60450581202411e+001,-4.61268666207488e+000

9.57982963695136e+004,-2.60453482128280e+001,-4.67701851851641e+000

9.71355907516031e+004,-2.60456464428711e+001,-4.74224591977177e+000

9.84915530675926e+004,-2.60459530381125e+001,-4.80838126158712e+000

9.98664439121282e+004,-2.60462682326385e+001,-4.87543710828602e+000

1.01260527517622e+005,-2.60465922670546e+001,-4.94342619493567e+000

1.02674071805032e+005,-2.60469253886650e+001,-5.01236142953485e+000

1.04107348435354e+005,-2.60472678516572e+001,-5.08225589522408e+000

1.05560632861831e+005,-2.60476199172920e+001,-5.15312285251809e+000

1.07034204382888e+005,-2.60479818540977e+001,-5.22497574156126e+000

1.08528346195813e+005,-2.60483539380704e+001,-5.29782818440451e+000

1.10043345451179e+005,-2.60487364528794e+001,-5.37169398730471e+000

1.11579493308032e+005,-2.60491296900774e+001,-5.44658714304625e+000

1.13137084989847e+005,-2.60495339493178e+001,-5.52252183328443e+000

1.14716419841265e+005,-2.60499495385764e+001,-5.59951243091076e+000

1.16317801385624e+005,-2.60503767743800e+001,-5.67757350244032e+000

1.17941537383287e+005,-2.60508159820403e+001,-5.75671981042001e+000

1.19587939890794e+005,-2.60512674958948e+001,-5.83696631585884e+000

1.21257325320831e+005,-2.60517316595536e+001,-5.91832818067911e+000

1.22950014503040e+005,-2.60522088261530e+001,-6.00082077018859e+000

1.24666332745679e+005,-2.60526993586155e+001,-6.08445965557327e+000

1.26406609898139e+005,-2.60532036299174e+001,-6.16926061641066e+000

1.28171180414339e+005,-2.60537220233625e+001,-6.25523964320366e+000

1.29960383416997e+005,-2.60542549328637e+001,-6.34241293993330e+000

1.31774562762811e+005,-2.60548027632320e+001,-6.43079692663151e+000

1.33614067108538e+005,-2.60553659304725e+001,-6.52040824197353e+000

1.35479249978003e+005,-2.60559448620892e+001,-6.61126374588748e+000

1.37370469830040e+005,-2.60565399973965e+001,-6.70338052218358e+000

1.39288090127379e+005,-2.60571517878400e+001,-6.79677588120005e+000

1.41232479406504e+005,-2.60577806973249e+001,-6.89146736246714e+000

1.43204011348474e+005,-2.60584272025534e+001,-6.98747273738696e+000

1.45203064850745e+005,-2.60590917933703e+001,-7.08481001192964e+000

1.47230024099979e+005,-2.60597749731181e+001,-7.18349742934505e+000

1.49285278645888e+005,-2.60604772590013e+001,-7.28355347288924e+000

1.51369223476094e+005,-2.60611991824594e+001,-7.38499686856466e+000

1.53482259092041e+005,-2.60619412895501e+001,-7.48784658787371e+000

1.55624791585964e+005,-2.60627041413422e+001,-7.59212185058482e+000

1.57797232718936e+005,-2.60634883143182e+001,-7.69784212750983e+000

1.59999999999999e+005,-2.60642944007878e+001,-7.80502714329253e+000

1.62233516766403e+005,-2.60651230093111e+001,-7.91369687920616e+000

1.64498212264969e+005,-2.60659747651331e+001,-8.02387157596007e+000

1.66794521734578e+005,-2.60668503106290e+001,-8.13557173651404e+000

1.69122886489819e+005,-2.60677503057604e+001,-8.24881812889823e+000

1.71483754005805e+005,-2.60686754285435e+001,-8.36363178903934e+000

1.73877578004168e+005,-2.60696263755286e+001,-8.48003402359015e+000

1.76304818540256e+005,-2.60706038622912e+001,-8.59804641276163e+000

1.78765942091554e+005,-2.60716086239362e+001,-8.71769081315684e+000

1.81261421647326e+005,-2.60726414156138e+001,-8.83898936060331e+000

1.83791736799524e+005,-2.60737030130478e+001,-8.96196447298522e+000

1.86357373834951e+005,-2.60747942130784e+001,-9.08663885307056e+000

1.88958825828723e+005,-2.60759158342157e+001,-9.21303549133441e+000

1.91596592739027e+005,-2.60770687172091e+001,-9.34117766877437e+000

1.94271181503206e+005,-2.60782537256292e+001,-9.47108895971691e+000

1.96983106135185e+005,-2.60794717464634e+001,-9.60279323461426e+000

1.99732887824256e+005,-2.60807236907266e+001,-9.73631466282693e+000

2.02521055035243e+005,-2.60820104940859e+001,-9.87167771539164e+000

2.05348143610063e+005,-2.60833331175001e+001,-1.00089071677722e+001

2.08214696870707e+005,-2.60846925478746e+001,-1.01480281025904e+001

2.11121265723661e+005,-2.60860897987309e+001,-1.02890659123347e+001

2.14068408765776e+005,-2.60875259108925e+001,-1.04320463020445e+001

2.17056692391625e+005,-2.60890019531857e+001,-1.05769952919665e+001

2.20086690902357e+005,-2.60905190231574e+001,-1.07239392201813e+001

2.23158986616063e+005,-2.60920782478090e+001,-1.08729047451963e+001

2.26274169979693e+005,-2.60936807843461e+001,-1.10239188485030e+001

2.29432839682530e+005,-2.60953278209463e+001,-1.11770088370940e+001

2.32635602771247e+005,-2.60970205775430e+001,-1.13322023459384e+001

2.35883074766574e+005,-2.60987603066273e+001,-1.14895273404104e+001

2.39175879781588e+005,-2.61005482940673e+001,-1.16490121186681e+001

2.42514650641661e+005,-2.61023858599447e+001,-1.18106853139788e+001

2.45900029006080e+005,-2.61042743594101e+001,-1.19745758969875e+001

2.49332665491357e+005,-2.61062151835564e+001,-1.21407131779237e+001

2.52813219796278e+005,-2.61082097603103e+001,-1.23091268087427e+001

2.56342360828676e+005,-2.61102595553426e+001,-1.24798467851970e+001

2.59920766833993e+005,-2.61123660729979e+001,-1.26529034488333e+001

2.63549125525621e+005,-2.61145308572423e+001,-1.28283274889115e+001

2.67228134217075e+005,-2.61167554926314e+001,-1.30061499442377e+001

2.70958499956006e+005,-2.61190416052966e+001,-1.31864022049114e+001

2.74740939660078e+005,-2.61213908639517e+001,-1.33691160139762e+001

2.78576180254757e+005,-2.61238049809183e+001,-1.35543234689724e+001

2.82464958813007e+005,-2.61262857131721e+001,-1.37420570233849e+001

2.86408022696948e+005,-2.61288348634073e+001,-1.39323494879801e+001

2.90406129701488e+005,-2.61314542811225e+001,-1.41252340320268e+001

2.94460048199957e+005,-2.61341458637256e+001,-1.43207441843947e+001

2.98570557291775e+005,-2.61369115576583e+001,-1.45189138345232e+001

3.02738446952187e+005,-2.61397533595413e+001,-1.47197772332570e+001

3.06964518184081e+005,-2.61426733173394e+001,-1.49233689935373e+001

3.11249583171928e+005,-2.61456735315450e+001,-1.51297240909471e+001

3.15594465437872e+005,-2.61487561563833e+001,-1.53388778640982e+001

3.19999999999997e+005,-2.61519234010356e+001,-1.55508660148569e+001

3.24467033532806e+005,-2.61551775308825e+001,-1.57657246083988e+001

3.28996424529938e+005,-2.61585208687664e+001,-1.59834900730850e+001

3.33589043469155e+005,-2.61619557962733e+001,-1.62041992001537e+001

3.38245772979638e+005,-2.61654847550324e+001,-1.64278891432162e+001

3.42967508011610e+005,-2.61691102480349e+001,-1.66545974175521e+001

3.47755156008335e+005,-2.61728348409704e+001,-1.68843618991936e+001

3.52609637080511e+005,-2.61766611635814e+001,-1.71172208237898e+001

3.57531884183106e+005,-2.61805919110343e+001,-1.73532127852442e+001

3.62522843294651e+005,-2.61846298453076e+001,-1.75923767341145e+001

3.67583473599047e+005,-2.61887777965956e+001,-1.78347519757668e+001

3.72714747669902e+005,-2.61930386647279e+001,-1.80803781682737e+001

3.77917651657445e+005,-2.61974154206037e+001,-1.83292953200482e+001

3.83193185478053e+005,-2.62019111076395e+001,-1.85815437872029e+001

3.88542363006410e+005,-2.62065288432304e+001,-1.88371642706247e+001

3.93966212270369e+005,-2.62112718202235e+001,-1.90961978127556e+001

3.99465775648511e+005,-2.62161433084024e+001,-1.93586857940689e+001

4.05042110070485e+005,-2.62211466559818e+001,-1.96246699292319e+001

4.10696287220124e+005,-2.62262852911112e+001,-1.98941922629432e+001

4.16429393741414e+005,-2.62315627233864e+001,-2.01672951654352e+001

4.22242531447321e+005,-2.62369825453677e+001,-2.04440213276325e+001

4.28136817531551e+005,-2.62425484341023e+001,-2.07244137559531e+001

4.34113384783250e+005,-2.62482641526513e+001,-2.10085157667450e+001

4.40173381804713e+005,-2.62541335516180e+001,-2.12963709803458e+001

4.46317973232124e+005,-2.62601605706764e+001,-2.15880233147555e+001

4.52548339959385e+005,-2.62663492400982e+001,-2.18835169789125e+001

4.58865679365059e+005,-2.62727036822767e+001,-2.21828964655623e+001

4.65271205542494e+005,-2.62792281132445e+001,-2.24862065437087e+001

4.71766149533147e+005,-2.62859268441836e+001,-2.27934922506372e+001

4.78351759563174e+005,-2.62928042829259e+001,-2.31047988835028e+001

4.85029301283321e+005,-2.62998649354406e+001,-2.34201719904694e+001

4.91800058012158e+005,-2.63071134073078e+001,-2.37396573613939e+001

4.98665330982714e+005,-2.63145544051731e+001,-2.40633010180461e+001

5.05626439592555e+005,-2.63221927381830e+001,-2.43911492038536e+001

5.12684721657352e+005,-2.63300333193961e+001,-2.47232483731667e+001

5.19841533667984e+005,-2.63380811671691e+001,-2.50596451800320e+001

5.27098251051240e+005,-2.63463414065118e+001,-2.54003864664702e+001

5.34456268434150e+005,-2.63548192704105e+001,-2.57455192502504e+001

5.41916999912011e+005,-2.63635201011144e+001,-2.60950907121546e+001

