Freq.,VOut,OutRef

1.00000000000000e+004,-2.11074030956481e+000,-3.88121042299515e-002

1.01395947979003e+004,-2.11074030132524e+000,-3.93539010324966e-002

1.02811382665607e+004,-2.11074029285400e+000,-3.99032610373745e-002

1.04246576084112e+004,-2.11074028414453e+000,-4.04602898234866e-002

1.05701804056138e+004,-2.11074027519026e+000,-4.10250944420960e-002

1.07177346253629e+004,-2.11074026598445e+000,-4.15977834388256e-002

1.08673486252606e+004,-2.11074025651939e+000,-4.21784668799547e-002

1.10190511587661e+004,-2.11074024678861e+000,-4.27672563583563e-002

1.11728713807222e+004,-2.11074023678405e+000,-4.33642650338460e-002

1.13288388529580e+004,-2.11074022649832e+000,-4.39696076402153e-002

1.14869835499703e+004,-2.11074021592353e+000,-4.45834005149051e-002

1.16473358646846e+004,-2.11074020505121e+000,-4.52057616213094e-002

1.18099266142953e+004,-2.11074019387349e+000,-4.58368105645930e-002

1.19747870461893e+004,-2.11074018238130e+000,-4.64766686256586e-002

1.21419488439505e+004,-2.11074017056592e+000,-4.71254587740376e-002

1.23114441334492e+004,-2.11074015841865e+000,-4.77833056949158e-002

1.24833054890161e+004,-2.11074014592972e+000,-4.84503358189692e-002

1.26575659397028e+004,-2.11074013308968e+000,-4.91266773379261e-002

1.28342589756290e+004,-2.11074011988872e+000,-4.98124602338835e-002

1.30134185544193e+004,-2.11074010631661e+000,-5.05078163039743e-002

1.31950791077289e+004,-2.11074009236309e+000,-5.12128791836283e-002

1.33792755478611e+004,-2.11074007801697e+000,-5.19277843779882e-002

1.35660432744767e+004,-2.11074006326784e+000,-5.26526692768291e-002

1.37554181813974e+004,-2.11074004810367e+000,-5.33876731958381e-002

1.39474366635040e+004,-2.11074003251360e+000,-5.41329373865858e-002

1.41421356237309e+004,-2.11074001648499e+000,-5.48886050810701e-002

1.43395524801583e+004,-2.11074000000565e+000,-5.56548215066565e-002

1.45397251732031e+004,-2.11073998306328e+000,-5.64317339150787e-002

1.47426921729110e+004,-2.11073996564448e+000,-5.72194916195325e-002

1.49484924863494e+004,-2.11073994773582e+000,-5.80182460152181e-002

1.51571656651040e+004,-2.11073992932383e+000,-5.88281506082312e-002

1.53687518128801e+004,-2.11073991039442e+000,-5.96493610492866e-002

1.55832915932100e+004,-2.11073989093245e+000,-6.04820351658565e-002

1.58008262372675e+004,-2.11073987092360e+000,-6.13263329809743e-002

1.60213975517924e+004,-2.11073985035212e+000,-6.21824167580587e-002

1.62450479271247e+004,-2.11073982920215e+000,-6.30504510232932e-002

1.64718203453514e+004,-2.11073980745789e+000,-6.39306025964369e-002

1.67017583885674e+004,-2.11073978510215e+000,-6.48230406319892e-002

1.69349062472505e+004,-2.11073976211787e+000,-6.57279366418098e-002

1.71713087287550e+004,-2.11073973848754e+000,-6.66454645322112e-002

1.74110112659224e+004,-2.11073971419264e+000,-6.75758006396722e-002

1.76540599258131e+004,-2.11073968921497e+000,-6.85191237575327e-002

1.79005014185594e+004,-2.11073966353480e+000,-6.94756151812526e-002

1.81503831063432e+004,-2.11073963713275e+000,-7.04454587312451e-002

1.84037530124975e+004,-2.11073960998873e+000,-7.14288407954070e-002

1.86606598307361e+004,-2.11073958208137e+000,-7.24259503674805e-002

1.89211529345119e+004,-2.11073955338936e+000,-7.34369790757150e-002

1.91852823865052e+004,-2.11073952389070e+000,-7.44621212237926e-002

1.94530989482457e+004,-2.11073949356293e+000,-7.55015738266786e-002

1.97246540898671e+004,-2.11073946238237e+000,-7.65555366537756e-002

1.99999999999999e+004,-2.11073943032527e+000,-7.76242122587386e-002

2.02791895958005e+004,-2.11073939736678e+000,-7.87078060261158e-002

2.05622765331213e+004,-2.11073936348189e+000,-7.98065262036049e-002

2.08493152168224e+004,-2.11073932864427e+000,-8.09205839503915e-002

2.11403608112276e+004,-2.11073929282731e+000,-8.20501933699377e-002

2.14354692507258e+004,-2.11073925600329e+000,-8.31955715569079e-002

2.17346972505211e+004,-2.11073921814411e+000,-8.43569386341669e-002

2.20381023175322e+004,-2.11073917922046e+000,-8.55345177998281e-002

2.23457427614443e+004,-2.11073913920255e+000,-8.67285353655631e-002

2.26576777059159e+004,-2.11073909805958e+000,-8.79392208039478e-002

2.29739670999406e+004,-2.11073905576002e+000,-8.91668067888606e-002

2.32946717293690e+004,-2.11073901227114e+000,-9.04115292454956e-002

2.36198532285905e+004,-2.11073896755970e+000,-9.16736273888388e-002

2.39495740923785e+004,-2.11073892159124e+000,-9.29533437751893e-002

2.42838976879009e+004,-2.11073887433049e+000,-9.42509243466216e-002

2.46228882668982e+004,-2.11073882574084e+000,-9.55666184796228e-002

2.49666109780322e+004,-2.11073877578538e+000,-9.69006790278615e-002

2.53151318794055e+004,-2.11073872442533e+000,-9.82533623796835e-002

2.56685179512580e+004,-2.11073867162157e+000,-9.96249284980193e-002

2.60268371088386e+004,-2.11073861733315e+000,-1.01015640979265e-001

2.63901582154578e+004,-2.11073856151848e+000,-1.02425767096045e-001

2.67585510957221e+004,-2.11073850413459e+000,-1.03855577853958e-001

2.71320865489533e+004,-2.11073844513741e+000,-1.05305348040144e-001

2.75108363627948e+004,-2.11073838448164e+000,-1.06775356278643e-001

2.78948733270080e+004,-2.11073832212063e+000,-1.08265885082443e-001

2.82842712474618e+004,-2.11073825800651e+000,-1.09777220908397e-001

2.86791049603164e+004,-2.11073819208967e+000,-1.11309654214263e-001

2.90794503464061e+004,-2.11073812431984e+000,-1.12863479508140e-001

2.94853843458219e+004,-2.11073805464466e+000,-1.14438995413367e-001

2.98969849726987e+004,-2.11073798301068e+000,-1.16036504719746e-001

3.03143313302078e+004,-2.11073790936276e+000,-1.17656314444836e-001

3.07375036257601e+004,-2.11073783364443e+000,-1.19298735890691e-001

3.11665831864199e+004,-2.11073775579724e+000,-1.20964084707927e-001

3.16016524745350e+004,-2.11073767576155e+000,-1.22652680949924e-001

3.20427951035848e+004,-2.11073759347569e+000,-1.24364849140958e-001

3.24900958542493e+004,-2.11073750887646e+000,-1.26100918333101e-001

3.29436406907028e+004,-2.11073742189886e+000,-1.27861222173075e-001

3.34035167771346e+004,-2.11073733247611e+000,-1.29646098964623e-001

3.38698124945009e+004,-2.11073724053918e+000,-1.31455891736086e-001

3.43426174575100e+004,-2.11073714601770e+000,-1.33290948300775e-001

3.48220225318448e+004,-2.11073704883867e+000,-1.35151621331523e-001

3.53081198516260e+004,-2.11073694892766e+000,-1.37038268420351e-001

3.58010028371187e+004,-2.11073684620786e+000,-1.38951252152894e-001

3.63007662126863e+004,-2.11073674060019e+000,-1.40890940177211e-001

3.68075060249948e+004,-2.11073663202339e+000,-1.42857705272958e-001

3.73213196614721e+004,-2.11073652039420e+000,-1.44851925422305e-001

3.78423058690237e+004,-2.11073640562656e+000,-1.46873983886584e-001

3.83705647730104e+004,-2.11073628763254e+000,-1.48924269273911e-001

3.89061978964912e+004,-2.11073616632109e+000,-1.51003175621351e-001

3.94493081797342e+004,-2.11073604159920e+000,-1.53111102462574e-001

3.99999999999998e+004,-2.11073591337093e+000,-1.55248454911110e-001

4.05583791916010e+004,-2.11073578153772e+000,-1.57415643734684e-001

4.11245530662425e+004,-2.11073564599806e+000,-1.59613085436730e-001

4.16986304336447e+004,-2.11073550664794e+000,-1.61841202332508e-001

4.22807216224550e+004,-2.11073536338026e+000,-1.64100422633733e-001

4.28709385014515e+004,-2.11073521608460e+000,-1.66391180532042e-001

4.34693945010421e+004,-2.11073506464804e+000,-1.68713916275767e-001

4.40762046350642e+004,-2.11073490895403e+000,-1.71069076262569e-001

4.46914855228886e+004,-2.11073474888288e+000,-1.73457113120702e-001

4.53153554118317e+004,-2.11073458431147e+000,-1.75878485797103e-001

4.59479341998812e+004,-2.11073441511336e+000,-1.78333659644730e-001

4.65893434587380e+004,-2.11073424115837e+000,-1.80823106513920e-001

4.72397064571810e+004,-2.11073406231304e+000,-1.83347304839634e-001

4.78991481847569e+004,-2.11073387843964e+000,-1.85906739738809e-001

4.85677953758016e+004,-2.11073368939680e+000,-1.88501903098848e-001

4.92457765337964e+004,-2.11073349503929e+000,-1.91133293673480e-001

4.99332219560642e+004,-2.11073329521774e+000,-1.93801417179002e-001

5.06302637588109e+004,-2.11073308977828e+000,-1.96506786393420e-001

5.13370359025159e+004,-2.11073287856334e+000,-1.99249921248927e-001

5.20536742176771e+004,-2.11073266141037e+000,-2.02031348939423e-001

5.27803164309155e+004,-2.11073243815231e+000,-2.04851604018067e-001

5.35171021914442e+004,-2.11073220861762e+000,-2.07711228498606e-001

5.42641730979066e+004,-2.11073197262996e+000,-2.10610771961562e-001

5.50216727255895e+004,-2.11073173000782e+000,-2.13550791660120e-001

5.57897466540159e+004,-2.11073148056468e+000,-2.16531852626815e-001

5.65685424949235e+004,-2.11073122410871e+000,-2.19554527781796e-001

5.73582099206328e+004,-2.11073096044287e+000,-2.22619398042297e-001

5.81589006928121e+004,-2.11073068936443e+000,-2.25727052436002e-001

5.89707686916437e+004,-2.11073041066478e+000,-2.28878088214307e-001

5.97939699453972e+004,-2.11073012413010e+000,-2.32073110962006e-001

6.06286626604156e+004,-2.11072982953970e+000,-2.35312734723526e-001

6.14750072515201e+004,-2.11072952666745e+000,-2.38597582110378e-001

6.23331663728396e+004,-2.11072921528027e+000,-2.41928284429252e-001

6.32033049490698e+004,-2.11072889513885e+000,-2.45305481797824e-001

6.40855902071694e+004,-2.11072856599708e+000,-2.48729823270650e-001

6.49801917084985e+004,-2.11072822760195e+000,-2.52201966962434e-001

6.58872813814055e+004,-2.11072787969334e+000,-2.55722580175321e-001

6.68070335542691e+004,-2.11072752200367e+000,-2.59292339528105e-001

6.77396249890018e+004,-2.11072715425807e+000,-2.62911931083539e-001

6.86852349150199e+004,-2.11072677617386e+000,-2.66582050482458e-001

6.96440450636895e+004,-2.11072638746038e+000,-2.70303403076763e-001

7.06162397032520e+004,-2.11072598781856e+000,-2.74076704066990e-001

7.16020056742374e+004,-2.11072557694159e+000,-2.77902678633733e-001

7.26015324253724e+004,-2.11072515451322e+000,-2.81782062085979e-001

7.36150120499896e+004,-2.11072472020894e+000,-2.85715599994290e-001

7.46426393229441e+004,-2.11072427369481e+000,-2.89704048338686e-001

7.56846117380472e+004,-2.11072381462758e+000,-2.93748173652714e-001

7.67411295460207e+004,-2.11072334265429e+000,-2.97848753171506e-001

7.78123957929823e+004,-2.11072285741216e+000,-3.02006574979493e-001

7.88986163594682e+004,-2.11072235852813e+000,-3.06222438163399e-001

7.99999999999995e+004,-2.11072184561875e+000,-3.10497152964957e-001

8.11167583832018e+004,-2.11072131828963e+000,-3.14831540938043e-001

8.22491061324848e+004,-2.11072077613546e+000,-3.19226435104901e-001

8.33972608672892e+004,-2.11072021873938e+000,-3.23682680117232e-001

8.45614432449099e+004,-2.11071964567297e+000,-3.28201132418032e-001

8.57418770029029e+004,-2.11071905649562e+000,-3.32782660407288e-001

8.69387890020841e+004,-2.11071845075447e+000,-3.37428144607081e-001

8.81524092701283e+004,-2.11071782798375e+000,-3.42138477833178e-001

8.93829710457770e+004,-2.11071718770482e+000,-3.46914565364324e-001

9.06307108236633e+004,-2.11071652942535e+000,-3.51757325118159e-001

9.18958683997622e+004,-2.11071585263950e+000,-3.56667687825610e-001

9.31786869174758e+004,-2.11071515682672e+000,-3.61646597213290e-001

9.44794129143618e+004,-2.11071444145232e+000,-3.66695010180499e-001

9.57982963695136e+004,-2.11071370596633e+000,-3.71813896986256e-001

9.71355907516031e+004,-2.11071294980322e+000,-3.77004241435780e-001

9.84915530675926e+004,-2.11071217238189e+000,-3.82267041067241e-001

9.98664439121282e+004,-2.11071137310452e+000,-3.87603307346620e-001

1.01260527517622e+005,-2.11071055135674e+000,-3.93014065859618e-001

1.02674071805032e+005,-2.11070970650681e+000,-3.98500356510555e-001

1.04107348435354e+005,-2.11070883790545e+000,-4.04063233719875e-001

1.05560632861831e+005,-2.11070794488467e+000,-4.09703766631491e-001

1.07034204382888e+005,-2.11070702675818e+000,-4.15423039312836e-001

1.08528346195813e+005,-2.11070608282005e+000,-4.21222150967343e-001

1.10043345451179e+005,-2.11070511234466e+000,-4.27102216143761e-001

1.11579493308032e+005,-2.11070411458614e+000,-4.33064364950474e-001

1.13137084989847e+005,-2.11070308877725e+000,-4.39109743274761e-001

1.14716419841265e+005,-2.11070203412959e+000,-4.45239513000179e-001

1.16317801385624e+005,-2.11070094983223e+000,-4.51454852232740e-001

1.17941537383287e+005,-2.11069983505192e+000,-4.57756955524155e-001

1.19587939890794e+005,-2.11069868893144e+000,-4.64147034105811e-001

1.21257325320831e+005,-2.11069751058992e+000,-4.70626316117225e-001

1.22950014503040e+005,-2.11069629912150e+000,-4.77196046845953e-001

1.24666332745679e+005,-2.11069505359476e+000,-4.83857488964991e-001

1.26406609898139e+005,-2.11069377305234e+000,-4.90611922775311e-001

1.28171180414339e+005,-2.11069245650999e+000,-4.97460646452325e-001

1.29960383416997e+005,-2.11069110295543e+000,-5.04404976297792e-001

1.31774562762811e+005,-2.11068971134830e+000,-5.11446246989222e-001

1.33614067108538e+005,-2.11068828061887e+000,-5.18585811839091e-001

1.35479249978003e+005,-2.11068680966724e+000,-5.25825043053772e-001

1.37370469830040e+005,-2.11068529736279e+000,-5.33165331998492e-001

1.39288090127379e+005,-2.11068374254286e+000,-5.40608089464580e-001

1.41232479406504e+005,-2.11068214401224e+000,-5.48154745940504e-001

1.43204011348474e+005,-2.11068050054232e+000,-5.55806751885666e-001

1.45203064850745e+005,-2.11067881086968e+000,-5.63565578012389e-001

1.47230024099979e+005,-2.11067707369532e+000,-5.71432715567012e-001

1.49285278645888e+005,-2.11067528768408e+000,-5.79409676615501e-001

1.51369223476094e+005,-2.11067345146288e+000,-5.87497994337069e-001

1.53482259092041e+005,-2.11067156362042e+000,-5.95699223316206e-001

1.55624791585964e+005,-2.11066962270536e+000,-6.04014939844068e-001

1.57797232718936e+005,-2.11066762722585e+000,-6.12446742219836e-001

1.59999999999999e+005,-2.11066557564789e+000,-6.20996251059676e-001

1.62233516766403e+005,-2.11066346639461e+000,-6.29665109606699e-001

1.64498212264969e+005,-2.11066129784459e+000,-6.38454984048667e-001

1.66794521734578e+005,-2.11065906833084e+000,-6.47367563838382e-001

1.69122886489819e+005,-2.11065677613965e+000,-6.56404562017398e-001

1.71483754005805e+005,-2.11065441950909e+000,-6.65567715546347e-001

1.73877578004168e+005,-2.11065199662764e+000,-6.74858785639743e-001

1.76304818540256e+005,-2.11064950563299e+000,-6.84279558102994e-001

1.78765942091554e+005,-2.11064694461029e+000,-6.93831843678619e-001

1.81261421647326e+005,-2.11064431159106e+000,-7.03517478392006e-001

1.83791736799524e+005,-2.11064160455128e+000,-7.13338323906695e-001

1.86357373834951e+005,-2.11063882141038e+000,-7.23296267879821e-001

1.88958825828723e+005,-2.11063596002894e+000,-7.33393224329332e-001

1.91596592739027e+005,-2.11063301820754e+000,-7.43631133999296e-001

1.94271181503206e+005,-2.11062999368505e+000,-7.54011964733301e-001

1.96983106135185e+005,-2.11062688413672e+000,-7.64537711854832e-001

1.99732887824256e+005,-2.11062368717230e+000,-7.75210398550749e-001

2.02521055035243e+005,-2.11062040033465e+000,-7.86032076258785e-001

2.05348143610063e+005,-2.11061702109722e+000,-7.97004825065666e-001

2.08214696870707e+005,-2.11061354686283e+000,-8.08130754104033e-001

2.11121265723661e+005,-2.11060997496094e+000,-8.19412001960993e-001

2.14068408765776e+005,-2.11060630264627e+000,-8.30850737087894e-001

2.17056692391625e+005,-2.11060252709609e+000,-8.42449158219445e-001

2.20086690902357e+005,-2.11059864540860e+000,-8.54209494794655e-001

2.23158986616063e+005,-2.11059465460022e+000,-8.66134007389098e-001

2.26274169979693e+005,-2.11059055160369e+000,-8.78224988146711e-001

2.29432839682530e+005,-2.11058633326540e+000,-8.90484761223817e-001

2.32635602771247e+005,-2.11058199634320e+000,-9.02915683234974e-001

2.35883074766574e+005,-2.11057753750390e+000,-9.15520143707076e-001

2.39175879781588e+005,-2.11057295332037e+000,-9.28300565540255e-001

2.42514650641661e+005,-2.11056824026935e+000,-9.41259405473372e-001

2.45900029006080e+005,-2.11056339472868e+000,-9.54399154556847e-001

2.49332665491357e+005,-2.11055841297407e+000,-9.67722338634277e-001

2.52813219796278e+005,-2.11055329117688e+000,-9.81231518826640e-001

2.56342360828676e+005,-2.11054802540073e+000,-9.94929292026820e-001

2.59920766833993e+005,-2.11054261159862e+000,-1.00881829139968e+000

2.63549125525621e+005,-2.11053704560986e+000,-1.02290118688894e+000

2.67228134217075e+005,-2.11053132315679e+000,-1.03718068573174e+000

2.70958499956006e+005,-2.11052543984154e+000,-1.05165953298041e+000

2.74740939660078e+005,-2.11051939114278e+000,-1.06634051203031e+000

2.78576180254757e+005,-2.11051317241192e+000,-1.08122644515760e+000

2.82464958813007e+005,-2.11050677886992e+000,-1.09632019406167e+000

2.86408022696948e+005,-2.11050020560335e+000,-1.11162466041790e+000

2.90406129701488e+005,-2.11049344756075e+000,-1.12714278643568e+000

2.94460048199957e+005,-2.11048649954862e+000,-1.14287755542670e+000

2.98570557291775e+005,-2.11047935622772e+000,-1.15883199237835e+000

3.02738446952187e+005,-2.11047201210868e+000,-1.17500916453790e+000

3.06964518184081e+005,-2.11046446154783e+000,-1.19141218200439e+000

3.11249583171928e+005,-2.11045669874303e+000,-1.20804419832652e+000

3.15594465437872e+005,-2.11044871772902e+000,-1.22490841111269e+000

3.19999999999997e+005,-2.11044051237299e+000,-1.24200806264592e+000

3.24467033532806e+005,-2.11043207636989e+000,-1.25934644050953e+000

3.28996424529938e+005,-2.11042340323733e+000,-1.27692687822237e+000

3.33589043469155e+005,-2.11041448631097e+000,-1.29475275588032e+000

3.38245772979638e+005,-2.11040531873922e+000,-1.31282750080846e+000

3.42967508011610e+005,-2.11039589347792e+000,-1.33115458822380e+000

3.47755156008335e+005,-2.11038620328503e+000,-1.34973754190416e+000

3.52609637080511e+005,-2.11037624071510e+000,-1.36857993486900e+000

3.57531884183106e+005,-2.11036599811352e+000,-1.38768539006806e+000

3.62522843294651e+005,-2.11035546761060e+000,-1.40705758108241e+000

3.67583473599047e+005,-2.11034464111560e+000,-1.42670023283175e+000

3.72714747669902e+005,-2.11033351031055e+000,-1.44661712229424e+000

3.77917651657445e+005,-2.11032206664373e+000,-1.46681207923652e+000

3.83193185478053e+005,-2.11031030132330e+000,-1.48728898695198e+000

3.88542363006410e+005,-2.11029820531038e+000,-1.50805178301179e+000

3.93966212270369e+005,-2.11028576931233e+000,-1.52910446002444e+000

3.99465775648511e+005,-2.11027298377539e+000,-1.55045106640864e+000

4.05042110070485e+005,-2.11025983887752e+000,-1.57209570717393e+000

4.10696287220124e+005,-2.11024632452079e+000,-1.59404254471521e+000

4.16429393741414e+005,-2.11023243032372e+000,-1.61629579961612e+000

4.22242531447321e+005,-2.11021814561320e+000,-1.63885975146623e+000

4.28136817531551e+005,-2.11020345941653e+000,-1.66173873968692e+000

4.34113384783250e+005,-2.11018836045259e+000,-1.68493716437244e+000

4.40173381804713e+005,-2.11017283712378e+000,-1.70845948713874e+000

4.46317973232124e+005,-2.11015687750658e+000,-1.73231023198838e+000

4.52548339959385e+005,-2.11014046934291e+000,-1.75649398618431e+000

4.58865679365059e+005,-2.11012360003026e+000,-1.78101540113909e+000

4.65271205542494e+005,-2.11010625661240e+000,-1.80587919331375e+000

4.71766149533147e+005,-2.11008842576928e+000,-1.83109014513206e+000

4.78351759563174e+005,-2.11007009380693e+000,-1.85665310590531e+000

4.85029301283321e+005,-2.11005124664683e+000,-1.88257299277274e+000

4.91800058012158e+005,-2.11003186981537e+000,-1.90885479165284e+000

4.98665330982714e+005,-2.11001194843243e+000,-1.93550355821047e+000

5.05626439592555e+005,-2.10999146720040e+000,-1.96252441883566e+000

5.12684721657352e+005,-2.10997041039214e+000,-1.98992257163817e+000

5.19841533667984e+005,-2.10994876183910e+000,-2.01770328745459e+000

5.27098251051240e+005,-2.10992650491884e+000,-2.04587191087135e+000

5.34456268434150e+005,-2.10990362254253e+000,-2.07443386126066e+000

5.41916999912011e+005,-2.10988009714158e+000,-2.10339463383285e+000

