Freq.,VOut,OutRef

1.00000000000000e+004,-3.98464189242845e+001,-2.82509682978805e-001

1.01395947979003e+004,-3.98464201072825e+001,-2.86453356333217e-001

1.02811382665607e+004,-3.98464213235389e+001,-2.90452080685072e-001

1.04246576084112e+004,-3.98464225739887e+001,-2.94506624491023e-001

1.05701804056138e+004,-3.98464238595930e+001,-2.98617766933874e-001

1.07177346253629e+004,-3.98464251813402e+001,-3.02786298072402e-001

1.08673486252606e+004,-3.98464265402465e+001,-3.07013018990817e-001

1.10190511587661e+004,-3.98464279373564e+001,-3.11298741959061e-001

1.11728713807222e+004,-3.98464293737440e+001,-3.15644290580145e-001

1.13288388529580e+004,-3.98464308505136e+001,-3.20050499955332e-001

1.14869835499703e+004,-3.98464323688003e+001,-3.24518216841695e-001

1.16473358646846e+004,-3.98464339297715e+001,-3.29048299813879e-001

1.18099266142953e+004,-3.98464355346270e+001,-3.33641619431668e-001

1.19747870461893e+004,-3.98464371846006e+001,-3.38299058405361e-001

1.21419488439505e+004,-3.98464388809606e+001,-3.43021511765418e-001

1.23114441334492e+004,-3.98464406250113e+001,-3.47809887034126e-001

1.24833054890161e+004,-3.98464424180934e+001,-3.52665104400839e-001

1.26575659397028e+004,-3.98464442615850e+001,-3.57588096899955e-001

1.28342589756290e+004,-3.98464461569037e+001,-3.62579810585816e-001

1.30134185544193e+004,-3.98464481055063e+001,-3.67641204718274e-001

1.31950791077289e+004,-3.98464501088907e+001,-3.72773251946466e-001

1.33792755478611e+004,-3.98464521685971e+001,-3.77976938494249e-001

1.35660432744767e+004,-3.98464542862089e+001,-3.83253264350072e-001

1.37554181813974e+004,-3.98464564633539e+001,-3.88603243458713e-001

1.39474366635040e+004,-3.98464587017058e+001,-3.94027903917580e-001

1.41421356237309e+004,-3.98464610029854e+001,-3.99528288172801e-001

1.43395524801583e+004,-3.98464633689616e+001,-4.05105453218860e-001

1.45397251732031e+004,-3.98464658014533e+001,-4.10760470803777e-001

1.47426921729110e+004,-3.98464683023304e+001,-4.16494427632259e-001

1.49484924863494e+004,-3.98464708735155e+001,-4.22308425576316e-001

1.51571656651040e+004,-3.98464735169850e+001,-4.28203581885912e-001

1.53687518128801e+004,-3.98464762347712e+001,-4.34181029402746e-001

1.55832915932100e+004,-3.98464790289632e+001,-4.40241916781396e-001

1.58008262372675e+004,-3.98464819017091e+001,-4.46387408704557e-001

1.60213975517924e+004,-3.98464848552170e+001,-4.52618686111277e-001

1.62450479271247e+004,-3.98464878917576e+001,-4.58936946420194e-001

1.64718203453514e+004,-3.98464910136652e+001,-4.65343403761618e-001

1.67017583885674e+004,-3.98464942233393e+001,-4.71839289211124e-001

1.69349062472505e+004,-3.98464975232477e+001,-4.78425851022071e-001

1.71713087287550e+004,-3.98465009159269e+001,-4.85104354870959e-001

1.74110112659224e+004,-3.98465044039849e+001,-4.91876084095171e-001

1.76540599258131e+004,-3.98465079901030e+001,-4.98742339943163e-001

1.79005014185594e+004,-3.98465116770379e+001,-5.05704441821454e-001

1.81503831063432e+004,-3.98465154676239e+001,-5.12763727549038e-001

1.84037530124975e+004,-3.98465193647749e+001,-5.19921553614456e-001

1.86606598307361e+004,-3.98465233714866e+001,-5.27179295436289e-001

1.89211529345119e+004,-3.98465274908389e+001,-5.34538347626463e-001

1.91852823865052e+004,-3.98465317259984e+001,-5.42000124257966e-001

1.94530989482457e+004,-3.98465360802209e+001,-5.49566059136144e-001

1.97246540898671e+004,-3.98465405568533e+001,-5.57237606074357e-001

1.99999999999999e+004,-3.98465451593367e+001,-5.65016239173950e-001

2.02791895958005e+004,-3.98465498912093e+001,-5.72903453103537e-001

2.05622765331213e+004,-3.98465547561083e+001,-5.80900763390013e-001

2.08493152168224e+004,-3.98465597577733e+001,-5.89009706707348e-001

2.11403608112276e+004,-3.98465649000491e+001,-5.97231841170537e-001

2.14354692507258e+004,-3.98465701868885e+001,-6.05568746636579e-001

2.17346972505211e+004,-3.98465756223555e+001,-6.14022025005732e-001

2.20381023175322e+004,-3.98465812106281e+001,-6.22593300530991e-001

2.23457427614443e+004,-3.98465869560020e+001,-6.31284220126501e-001

2.26576777059159e+004,-3.98465928628936e+001,-6.40096453686638e-001

2.29739670999406e+004,-3.98465989358433e+001,-6.49031694404587e-001

2.32946717293690e+004,-3.98466051795192e+001,-6.58091659097068e-001

2.36198532285905e+004,-3.98466115987208e+001,-6.67278088534911e-001

2.39495740923785e+004,-3.98466181983821e+001,-6.76592747774956e-001

2.42838976879009e+004,-3.98466249835762e+001,-6.86037426500232e-001

2.46228882668982e+004,-3.98466319595185e+001,-6.95613939362147e-001

2.49666109780322e+004,-3.98466391315714e+001,-7.05324126327744e-001

2.53151318794055e+004,-3.98466465052474e+001,-7.15169853035684e-001

2.56685179512580e+004,-3.98466540862144e+001,-7.25153011149759e-001

2.60268371088386e+004,-3.98466618802996e+001,-7.35275518724586e-001

2.63901582154578e+004,-3.98466698934938e+001,-7.45539320570735e-001

2.67585510957221e+004,-3.98466781319564e+001,-7.55946388630134e-001

2.71320865489533e+004,-3.98466866020197e+001,-7.66498722352774e-001

2.75108363627948e+004,-3.98466953101940e+001,-7.77198349078932e-001

2.78948733270080e+004,-3.98467042631729e+001,-7.88047324429478e-001

2.82842712474618e+004,-3.98467134678377e+001,-7.99047732698226e-001

2.86791049603164e+004,-3.98467229312633e+001,-8.10201687252676e-001

2.90794503464061e+004,-3.98467326607237e+001,-8.21511330936974e-001

2.94853843458219e+004,-3.98467426636968e+001,-8.32978836485296e-001

2.98969849726987e+004,-3.98467529478712e+001,-8.44606406934994e-001

3.03143313302078e+004,-3.98467635211513e+001,-8.56396276049932e-001

3.07375036257601e+004,-3.98467743916637e+001,-8.68350708748957e-001

3.11665831864199e+004,-3.98467855677634e+001,-8.80472001537753e-001

3.16016524745350e+004,-3.98467970580404e+001,-8.92762482950706e-001

3.20427951035848e+004,-3.98468088713257e+001,-9.05224513995429e-001

3.24900958542493e+004,-3.98468210166989e+001,-9.17860488604374e-001

3.29436406907028e+004,-3.98468335034947e+001,-9.30672834094040e-001

3.34035167771346e+004,-3.98468463413098e+001,-9.43664011629054e-001

3.38698124945009e+004,-3.98468595400112e+001,-9.56836516693386e-001

3.43426174575100e+004,-3.98468731097426e+001,-9.70192879567190e-001

3.48220225318448e+004,-3.98468870609331e+001,-9.83735665811776e-001

3.53081198516260e+004,-3.98469014043048e+001,-9.97467476760306e-001

3.58010028371187e+004,-3.98469161508812e+001,-1.01139095001379e+000

3.63007662126863e+004,-3.98469313119955e+001,-1.02550875994832e+000

3.68075060249948e+004,-3.98469468992992e+001,-1.03982361822372e+000

3.73213196614721e+004,-3.98469629247717e+001,-1.05433827430352e+000

3.78423058690237e+004,-3.98469794007285e+001,-1.06905551598000e+000

3.83705647730104e+004,-3.98469963398316e+001,-1.08397816990739e+000

3.89061978964912e+004,-3.98470137550986e+001,-1.09910910214156e+000

3.94493081797342e+004,-3.98470316599127e+001,-1.11445121868892e+000

3.99999999999998e+004,-3.98470500680336e+001,-1.13000746605919e+000

4.05583791916010e+004,-3.98470689936074e+001,-1.14578083183046e+000

4.11245530662425e+004,-3.98470884511776e+001,-1.16177434521878e+000

4.16986304336447e+004,-3.98471084556965e+001,-1.17799107765644e+000

4.22807216224550e+004,-3.98471290225366e+001,-1.19443414337842e+000

4.28709385014515e+004,-3.98471501675019e+001,-1.21110670001836e+000

4.34693945010421e+004,-3.98471719068409e+001,-1.22801194920792e+000

4.40762046350642e+004,-3.98471942572586e+001,-1.24515313719027e+000

4.46914855228886e+004,-3.98472172359290e+001,-1.26253355543872e+000

4.53153554118317e+004,-3.98472408605089e+001,-1.28015654128381e+000

4.59479341998812e+004,-3.98472651491511e+001,-1.29802547855087e+000

4.65893434587380e+004,-3.98472901205182e+001,-1.31614379820388e+000

4.72397064571810e+004,-3.98473157937975e+001,-1.33451497899919e+000

4.78991481847569e+004,-3.98473421887151e+001,-1.35314254815007e+000

4.85677953758016e+004,-3.98473693255511e+001,-1.37203008199733e+000

4.92457765337964e+004,-3.98473972251557e+001,-1.39118120669034e+000

4.99332219560642e+004,-3.98474259089643e+001,-1.41059959887845e+000

5.06302637588109e+004,-3.98474553990150e+001,-1.43028898640961e+000

5.13370359025159e+004,-3.98474857179645e+001,-1.45025314904075e+000

5.20536742176771e+004,-3.98475168891062e+001,-1.47049591915677e+000

5.27803164309155e+004,-3.98475489363876e+001,-1.49102118249851e+000

5.35171021914442e+004,-3.98475818844290e+001,-1.51183287890270e+000

5.42641730979066e+004,-3.98476157585421e+001,-1.53293500305097e+000

5.50216727255895e+004,-3.98476505847496e+001,-1.55433160522719e+000

5.57897466540159e+004,-3.98476863898049e+001,-1.57602679208930e+000

5.65685424949235e+004,-3.98477232012131e+001,-1.59802472744704e+000

5.73582099206328e+004,-3.98477610472514e+001,-1.62032963305330e+000

5.81589006928121e+004,-3.98477999569914e+001,-1.64294578940604e+000

5.89707686916437e+004,-3.98478399603209e+001,-1.66587753655855e+000

5.97939699453972e+004,-3.98478810879671e+001,-1.68912927494398e+000

6.06286626604156e+004,-3.98479233715201e+001,-1.71270546620888e+000

6.14750072515201e+004,-3.98479668434570e+001,-1.73661063405837e+000

6.23331663728396e+004,-3.98480115371667e+001,-1.76084936511342e+000

6.32033049490698e+004,-3.98480574869758e+001,-1.78542630977914e+000

6.40855902071694e+004,-3.98481047281746e+001,-1.81034618312478e+000

6.49801917084985e+004,-3.98481532970441e+001,-1.83561376577562e+000

6.58872813814055e+004,-3.98482032308840e+001,-1.86123390481714e+000

6.68070335542691e+004,-3.98482545680412e+001,-1.88721151471104e+000

6.77396249890018e+004,-3.98483073479389e+001,-1.91355157822301e+000

6.86852349150199e+004,-3.98483616111072e+001,-1.94025914736495e+000

6.96440450636895e+004,-3.98484173992138e+001,-1.96733934434664e+000

7.06162397032520e+004,-3.98484747550957e+001,-1.99479736254396e+000

7.16020056742374e+004,-3.98485337227928e+001,-2.02263846747553e+000

7.26015324253724e+004,-3.98485943475806e+001,-2.05086799779687e+000

7.36150120499896e+004,-3.98486566760055e+001,-2.07949136630499e+000

7.46426393229441e+004,-3.98487207559199e+001,-2.10851406095698e+000

7.56846117380472e+004,-3.98487866365193e+001,-2.13794164590250e+000

7.67411295460207e+004,-3.98488543683797e+001,-2.16777976252965e+000

7.78123957929823e+004,-3.98489240034960e+001,-2.19803413052493e+000

7.88986163594682e+004,-3.98489955953222e+001,-2.22871054894669e+000

7.99999999999995e+004,-3.98490691988119e+001,-2.25981489731349e+000

8.11167583832018e+004,-3.98491448704605e+001,-2.29135313670640e+000

8.22491061324848e+004,-3.98492226683480e+001,-2.32333131088574e+000

8.33972608672892e+004,-3.98493026521841e+001,-2.35575554742203e+000

8.45614432449099e+004,-3.98493848833530e+001,-2.38863205884397e+000

8.57418770029029e+004,-3.98494694249606e+001,-2.42196714379832e+000

8.69387890020841e+004,-3.98495563418827e+001,-2.45576718822641e+000

8.81524092701283e+004,-3.98496457008147e+001,-2.49003866655702e+000

8.93829710457770e+004,-3.98497375703221e+001,-2.52478814291305e+000

9.06307108236633e+004,-3.98498320208927e+001,-2.56002227233491e+000

9.18958683997622e+004,-3.98499291249912e+001,-2.59574780201898e+000

9.31786869174758e+004,-3.98500289571135e+001,-2.63197157257304e+000

9.44794129143618e+004,-3.98501315938441e+001,-2.66870051928700e+000

9.57982963695136e+004,-3.98502371139143e+001,-2.70594167342027e+000

9.71355907516031e+004,-3.98503455982619e+001,-2.74370216350642e+000

9.84915530675926e+004,-3.98504571300934e+001,-2.78198921667318e+000

9.98664439121282e+004,-3.98505717949470e+001,-2.82081015998018e+000

1.01260527517622e+005,-3.98506896807579e+001,-2.86017242177350e+000

1.02674071805032e+005,-3.98508108779250e+001,-2.90008353305755e+000

1.04107348435354e+005,-3.98509354793801e+001,-2.94055112888397e+000

1.05560632861831e+005,-3.98510635806583e+001,-2.98158294975853e+000

1.07034204382888e+005,-3.98511952799706e+001,-3.02318684306576e+000

1.08528346195813e+005,-3.98513306782790e+001,-3.06537076451041e+000

1.10043345451179e+005,-3.98514698793725e+001,-3.10814277957880e+000

1.11579493308032e+005,-3.98516129899469e+001,-3.15151106501619e+000

1.13137084989847e+005,-3.98517601196851e+001,-3.19548391032441e+000

1.14716419841265e+005,-3.98519113813407e+001,-3.24006971927692e+000

1.16317801385624e+005,-3.98520668908236e+001,-3.28527701145345e+000

1.17941537383287e+005,-3.98522267672879e+001,-3.33111442379144e+000

1.19587939890794e+005,-3.98523911332222e+001,-3.37759071215953e+000

1.21257325320831e+005,-3.98525601145426e+001,-3.42471475294789e+000

1.22950014503040e+005,-3.98527338406883e+001,-3.47249554467843e+000

1.24666332745679e+005,-3.98529124447191e+001,-3.52094220963465e+000

1.26406609898139e+005,-3.98530960634170e+001,-3.57006399551105e+000

1.28171180414339e+005,-3.98532848373890e+001,-3.61987027708201e+000

1.29960383416997e+005,-3.98534789111738e+001,-3.67037055789157e+000

1.31774562762811e+005,-3.98536784333513e+001,-3.72157447196100e+000

1.33614067108538e+005,-3.98538835566547e+001,-3.77349178551873e+000

1.35479249978003e+005,-3.98540944380858e+001,-3.82613239874995e+000

1.37370469830040e+005,-3.98543112390341e+001,-3.87950634756531e+000

1.39288090127379e+005,-3.98545341253979e+001,-3.93362380539194e+000

1.41232479406504e+005,-3.98547632677102e+001,-3.98849508498372e+000

1.43204011348474e+005,-3.98549988412667e+001,-4.04413064025321e+000

1.45203064850745e+005,-3.98552410262585e+001,-4.10054106812348e+000

1.47230024099979e+005,-3.98554900079072e+001,-4.15773711040188e+000

1.49285278645888e+005,-3.98557459766049e+001,-4.21572965567323e+000

1.51369223476094e+005,-3.98560091280572e+001,-4.27452974121618e+000

1.53482259092041e+005,-3.98562796634303e+001,-4.33414855493838e+000

1.55624791585964e+005,-3.98565577895025e+001,-4.39459743733511e+000

1.57797232718936e+005,-3.98568437188190e+001,-4.45588788346710e+000

1.59999999999999e+005,-3.98571376698519e+001,-4.51803154496105e+000

1.62233516766403e+005,-3.98574398671637e+001,-4.58104023203124e+000

1.64498212264969e+005,-3.98577505415759e+001,-4.64492591552113e+000

1.66794521734578e+005,-3.98580699303415e+001,-4.70970072896909e+000

1.69122886489819e+005,-3.98583982773230e+001,-4.77537697069208e+000

1.71483754005805e+005,-3.98587358331745e+001,-4.84196710589326e+000

1.73877578004168e+005,-3.98590828555288e+001,-4.90948376879052e+000

1.76304818540256e+005,-3.98594396091903e+001,-4.97793976476463e+000

1.78765942091554e+005,-3.98598063663321e+001,-5.04734807253068e+000

1.81261421647326e+005,-3.98601834066991e+001,-5.11772184632956e+000

1.83791736799524e+005,-3.98605710178160e+001,-5.18907441814093e+000

1.86357373834951e+005,-3.98609694952018e+001,-5.26141929991661e+000

1.88958825828723e+005,-3.98613791425889e+001,-5.33477018583579e+000

1.91596592739027e+005,-3.98618002721491e+001,-5.40914095458033e+000

1.94271181503206e+005,-3.98622332047247e+001,-5.48454567163012e+000

1.96983106135185e+005,-3.98626782700671e+001,-5.56099859158085e+000

1.99732887824256e+005,-3.98631358070800e+001,-5.63851416047925e+000

2.02521055035243e+005,-3.98636061640709e+001,-5.71710701818046e+000

2.05348143610063e+005,-3.98640896990077e+001,-5.79679200072462e+000

2.08214696870707e+005,-3.98645867797835e+001,-5.87758414273233e+000

2.11121265723661e+005,-3.98650977844873e+001,-5.95949867982016e+000

2.14068408765776e+005,-3.98656231016827e+001,-6.04255105103464e+000

2.17056692391625e+005,-3.98661631306933e+001,-6.12675690130483e+000

2.20086690902357e+005,-3.98667182818961e+001,-6.21213208391331e+000

2.23158986616063e+005,-3.98672889770227e+001,-6.29869266298508e+000

2.26274169979693e+005,-3.98678756494677e+001,-6.38645491599296e+000

2.29432839682530e+005,-3.98684787446062e+001,-6.47543533628111e+000

2.32635602771247e+005,-3.98690987201187e+001,-6.56565063560445e+000

2.35883074766574e+005,-3.98697360463252e+001,-6.65711774668374e+000

2.39175879781588e+005,-3.98703912065273e+001,-6.74985382577636e+000

2.42514650641661e+005,-3.98710646973601e+001,-6.84387625526128e+000

2.45900029006080e+005,-3.98717570291524e+001,-6.93920264623915e+000

2.49332665491357e+005,-3.98724687262967e+001,-7.03585084114446e+000

2.52813219796278e+005,-3.98732003276283e+001,-7.13383891637135e+000

2.56342360828676e+005,-3.98739523868150e+001,-7.23318518491078e+000

2.59920766833993e+005,-3.98747254727559e+001,-7.33390819899898e+000

2.63549125525621e+005,-3.98755201699909e+001,-7.43602675277600e+000

2.67228134217075e+005,-3.98763370791203e+001,-7.53955988495339e+000

2.70958499956006e+005,-3.98771768172361e+001,-7.64452688149039e+000

2.74740939660078e+005,-3.98780400183628e+001,-7.75094727827704e+000

2.78576180254757e+005,-3.98789273339101e+001,-7.85884086382378e+000

2.82464958813007e+005,-3.98798394331374e+001,-7.96822768195601e+000

2.86408022696948e+005,-3.98807770036295e+001,-8.07912803451158e+000

2.90406129701488e+005,-3.98817407517837e+001,-8.19156248404249e+000

2.94460048199957e+005,-3.98827314033104e+001,-8.30555185651579e+000

2.98570557291775e+005,-3.98837497037453e+001,-8.42111724401560e+000

3.02738446952187e+005,-3.98847964189738e+001,-8.53828000744299e+000

3.06964518184081e+005,-3.98858723357700e+001,-8.65706177921179e+000

3.11249583171928e+005,-3.98869782623469e+001,-8.77748446594102e+000

3.15594465437872e+005,-3.98881150289218e+001,-8.89957025113882e+000

3.19999999999997e+005,-3.98892834882945e+001,-9.02334159787926e+000

3.24467033532806e+005,-3.98904845164400e+001,-9.14882125146817e+000

3.28996424529938e+005,-3.98917190131149e+001,-9.27603224209652e+000

3.33589043469155e+005,-3.98929879024797e+001,-9.40499788747951e+000

3.38245772979638e+005,-3.98942921337343e+001,-9.53574179547937e+000

3.42967508011610e+005,-3.98956326817696e+001,-9.66828786670833e+000

3.47755156008335e+005,-3.98970105478350e+001,-9.80266029711178e+000

3.52609637080511e+005,-3.98984267602201e+001,-9.93888358052602e+000

3.57531884183106e+005,-3.98998823749539e+001,-1.00769825112111e+001

3.62522843294651e+005,-3.99013784765194e+001,-1.02169821863538e+001

3.67583473599047e+005,-3.99029161785848e+001,-1.03589080085392e+001

3.72714747669902e+005,-3.99044966247521e+001,-1.05027856881871e+001

3.77917651657445e+005,-3.99061209893218e+001,-1.06486412459511e+001

3.83193185478053e+005,-3.99077904780758e+001,-1.07965010150764e+001

3.88542363006410e+005,-3.99095063290774e+001,-1.09463916437130e+001

3.93966212270369e+005,-3.99112698134895e+001,-1.10983400971815e+001

3.99465775648511e+005,-3.99130822364108e+001,-1.12523736601877e+001

4.05042110070485e+005,-3.99149449377301e+001,-1.14085199389816e+001

4.10696287220124e+005,-3.99168592929998e+001,-1.15668068634576e+001

4.16429393741414e+005,-3.99188267143276e+001,-1.17272626891921e+001

4.22242531447321e+005,-3.99208486512879e+001,-1.18899159994132e+001

4.28136817531551e+005,-3.99229265918520e+001,-1.20547957068997e+001

4.34113384783250e+005,-3.99250620633384e+001,-1.22219310558032e+001

4.40173381804713e+005,-3.99272566333821e+001,-1.23913516233907e+001

4.46317973232124e+005,-3.99295119109244e+001,-1.25630873217005e+001

4.52548339959385e+005,-3.99318295472227e+001,-1.27371683991082e+001

4.58865679365059e+005,-3.99342112368803e+001,-1.29136254417974e+001

4.65271205542494e+005,-3.99366587188966e+001,-1.30924893751285e+001

4.71766149533147e+005,-3.99391737777385e+001,-1.32737914649018e+001

4.78351759563174e+005,-3.99417582444316e+001,-1.34575633185077e+001

4.85029301283321e+005,-3.99444139976725e+001,-1.36438368859590e+001

4.91800058012158e+005,-3.99471429649621e+001,-1.38326444607990e+001

4.98665330982714e+005,-3.99499471237596e+001,-1.40240186808794e+001

5.05626439592555e+005,-3.99528285026572e+001,-1.42179925289998e+001

5.12684721657352e+005,-3.99557891825763e+001,-1.44145993334051e+001

5.19841533667984e+005,-3.99588312979840e+001,-1.46138727681314e+001

5.27098251051240e+005,-3.99619570381307e+001,-1.48158468531947e+001

5.34456268434150e+005,-3.99651686483085e+001,-1.50205559546141e+001

5.41916999912011e+005,-3.99684684311300e+001,-1.52280347842626e+001

