Freq.,VOut,OutRef

1.00000000000000e+004,-2.47052468421635e+001,-2.70516714065140e-001

1.01395947979003e+004,-2.47052478111517e+001,-2.74292975185550e-001

1.02811382665607e+004,-2.47052488073817e+001,-2.78121950458123e-001

1.04246576084112e+004,-2.47052498316193e+001,-2.82004375726244e-001

1.05701804056138e+004,-2.47052508846518e+001,-2.85940997101494e-001

1.07177346253629e+004,-2.47052519672890e+001,-2.89932571110591e-001

1.08673486252606e+004,-2.47052530803629e+001,-2.93979864840856e-001

1.10190511587661e+004,-2.47052542247294e+001,-2.98083656085164e-001

1.11728713807222e+004,-2.47052554012680e+001,-3.02244733495036e-001

1.13288388529580e+004,-2.47052566108834e+001,-3.06463896728685e-001

1.14869835499703e+004,-2.47052578545053e+001,-3.10741956606018e-001

1.16473358646846e+004,-2.47052591330899e+001,-3.15079735264783e-001

1.18099266142953e+004,-2.47052604476200e+001,-3.19478066318036e-001

1.19747870461893e+004,-2.47052617991063e+001,-3.23937795013652e-001

1.21419488439505e+004,-2.47052631885876e+001,-3.28459778399430e-001

1.23114441334492e+004,-2.47052646171321e+001,-3.33044885482948e-001

1.24833054890161e+004,-2.47052660858379e+001,-3.37693997403952e-001

1.26575659397028e+004,-2.47052675958344e+001,-3.42408007598236e-001

1.28342589756290e+004,-2.47052691482820e+001,-3.47187821974322e-001

1.30134185544193e+004,-2.47052707443743e+001,-3.52034359083855e-001

1.31950791077289e+004,-2.47052723853385e+001,-3.56948550298878e-001

1.33792755478611e+004,-2.47052740724357e+001,-3.61931339993128e-001

1.35660432744767e+004,-2.47052758069630e+001,-3.66983685718796e-001

1.37554181813974e+004,-2.47052775902540e+001,-3.72106558394181e-001

1.39474366635040e+004,-2.47052794236794e+001,-3.77300942489937e-001

1.41421356237309e+004,-2.47052813086486e+001,-3.82567836217010e-001

1.43395524801583e+004,-2.47052832466108e+001,-3.87908251717117e-001

1.45397251732031e+004,-2.47052852390556e+001,-3.93323215260503e-001

1.47426921729110e+004,-2.47052872875148e+001,-3.98813767440112e-001

1.49484924863494e+004,-2.47052893935632e+001,-4.04380963373116e-001

1.51571656651040e+004,-2.47052915588196e+001,-4.10025872903042e-001

1.53687518128801e+004,-2.47052937849487e+001,-4.15749580804479e-001

1.55832915932100e+004,-2.47052960736617e+001,-4.21553186992541e-001

1.58008262372675e+004,-2.47052984267180e+001,-4.27437806734363e-001

1.60213975517924e+004,-2.47053008459265e+001,-4.33404570861075e-001

1.62450479271247e+004,-2.47053033331469e+001,-4.39454625987084e-001

1.64718203453514e+004,-2.47053058902913e+001,-4.45589134730657e-001

1.67017583885674e+004,-2.47053085193253e+001,-4.51809275934189e-001

1.69349062472505e+004,-2.47053112222701e+001,-4.58116244894097e-001

1.71713087287550e+004,-2.47053140012034e+001,-4.64511253587692e-001

1.74110112659224e+004,-2.47053168582614e+001,-4.70995530908041e-001

1.76540599258131e+004,-2.47053197956404e+001,-4.77570322898142e-001

1.79005014185594e+004,-2.47053228155985e+001,-4.84236892990004e-001

1.81503831063432e+004,-2.47053259204571e+001,-4.90996522250032e-001

1.84037530124975e+004,-2.47053291126032e+001,-4.97850509620941e-001

1.86606598307361e+004,-2.47053323944905e+001,-5.04800172174366e-001

1.89211529345119e+004,-2.47053357686417e+001,-5.11846845362635e-001

1.91852823865052e+004,-2.47053392376508e+001,-5.18991883274340e-001

1.94530989482457e+004,-2.47053428041844e+001,-5.26236658895285e-001

1.97246540898671e+004,-2.47053464709840e+001,-5.33582564372158e-001

1.99999999999999e+004,-2.47053502408685e+001,-5.41031011278179e-001

2.02791895958005e+004,-2.47053541167358e+001,-5.48583430886664e-001

2.05622765331213e+004,-2.47053581015653e+001,-5.56241274442912e-001

2.08493152168224e+004,-2.47053621984200e+001,-5.64006013445256e-001

2.11403608112276e+004,-2.47053664104493e+001,-5.71879139926005e-001

2.14354692507258e+004,-2.47053707408910e+001,-5.79862166737345e-001

2.17346972505211e+004,-2.47053751930738e+001,-5.87956627843614e-001

2.20381023175322e+004,-2.47053797704202e+001,-5.96164078613559e-001

2.23457427614443e+004,-2.47053844764488e+001,-6.04486096120121e-001

2.26576777059159e+004,-2.47053893147769e+001,-6.12924279443300e-001

2.29739670999406e+004,-2.47053942891239e+001,-6.21480249975118e-001

2.32946717293690e+004,-2.47053994033133e+001,-6.30155651733553e-001

2.36198532285905e+004,-2.47054046612764e+001,-6.38952151675117e-001

2.39495740923785e+004,-2.47054100670549e+001,-6.47871440016534e-001

2.42838976879009e+004,-2.47054156248042e+001,-6.56915230557749e-001

2.46228882668982e+004,-2.47054213387962e+001,-6.66085261012412e-001

2.49666109780322e+004,-2.47054272134233e+001,-6.75383293339717e-001

2.53151318794055e+004,-2.47054332532010e+001,-6.84811114082255e-001

2.56685179512580e+004,-2.47054394627719e+001,-6.94370534710164e-001

2.60268371088386e+004,-2.47054458469093e+001,-7.04063391966736e-001

2.63901582154578e+004,-2.47054524105202e+001,-7.13891548222311e-001

2.67585510957221e+004,-2.47054591586499e+001,-7.23856891830482e-001

2.71320865489533e+004,-2.47054660964853e+001,-7.33961337489950e-001

2.75108363627948e+004,-2.47054732293592e+001,-7.44206826612813e-001

2.78948733270080e+004,-2.47054805627544e+001,-7.54595327695575e-001

2.82842712474618e+004,-2.47054881023076e+001,-7.65128836697297e-001

2.86791049603164e+004,-2.47054958538140e+001,-7.75809377421893e-001

2.90794503464061e+004,-2.47055038232317e+001,-7.86639001906613e-001

2.94853843458219e+004,-2.47055120166863e+001,-7.97619790814701e-001

2.98969849726987e+004,-2.47055204404755e+001,-8.08753853834192e-001

3.03143313302078e+004,-2.47055291010741e+001,-8.20043330083001e-001

3.07375036257601e+004,-2.47055380051388e+001,-8.31490388518765e-001

3.11665831864199e+004,-2.47055471595135e+001,-8.43097228352838e-001

3.16016524745350e+004,-2.47055565712342e+001,-8.54866079474324e-001

3.20427951035848e+004,-2.47055662475350e+001,-8.66799202875042e-001

3.24900958542493e+004,-2.47055761958530e+001,-8.78898891084012e-001

3.29436406907028e+004,-2.47055864238347e+001,-8.91167468605263e-001

3.34035167771346e+004,-2.47055969393411e+001,-9.03607292365624e-001

3.38698124945009e+004,-2.47056077504544e+001,-9.16220752162674e-001

3.43426174575100e+004,-2.47056188654836e+001,-9.29010271125859e-001

3.48220225318448e+004,-2.47056302929720e+001,-9.41978306176818e-001

3.53081198516260e+004,-2.47056420417020e+001,-9.55127348504177e-001

3.58010028371187e+004,-2.47056541207034e+001,-9.68459924036125e-001

3.63007662126863e+004,-2.47056665392598e+001,-9.81978593927049e-001

3.68075060249948e+004,-2.47056793069155e+001,-9.95685955045549e-001

3.73213196614721e+004,-2.47056924334831e+001,-1.00958464047382e+000

3.78423058690237e+004,-2.47057059290509e+001,-1.02367732000925e+000

3.83705647730104e+004,-2.47057198039908e+001,-1.03796670067627e+000

3.89061978964912e+004,-2.47057340689661e+001,-1.05245552724451e+000

3.94493081797342e+004,-2.47057487349397e+001,-1.06714658275314e+000

3.99999999999998e+004,-2.47057638131829e+001,-1.08204268904346e+000

4.05583791916010e+004,-2.47057793152831e+001,-1.09714670729900e+000

4.11245530662425e+004,-2.47057952531541e+001,-1.11246153859137e+000

4.16986304336447e+004,-2.47058116390438e+001,-1.12799012443694e+000

4.22807216224550e+004,-2.47058284855447e+001,-1.14373544735624e+000

4.28709385014515e+004,-2.47058458056029e+001,-1.15970053144697e+000

4.34693945010421e+004,-2.47058636125283e+001,-1.17588844296010e+000

4.40762046350642e+004,-2.47058819200049e+001,-1.19230229088590e+000

4.46914855228886e+004,-2.47059007421013e+001,-1.20894522754843e+000

4.53153554118317e+004,-2.47059200932809e+001,-1.22582044920755e+000

4.59479341998812e+004,-2.47059399884142e+001,-1.24293119666803e+000

4.65893434587380e+004,-2.47059604427889e+001,-1.26028075590033e+000

4.72397064571810e+004,-2.47059814721226e+001,-1.27787245866684e+000

4.78991481847569e+004,-2.47060030925741e+001,-1.29570968315790e+000

4.85677953758016e+004,-2.47060253207568e+001,-1.31379585463587e+000

4.92457765337964e+004,-2.47060481737502e+001,-1.33213444608944e+000

4.99332219560642e+004,-2.47060716691142e+001,-1.35072897889610e+000

5.06302637588109e+004,-2.47060958249015e+001,-1.36958302349302e+000

5.13370359025159e+004,-2.47061206596724e+001,-1.38870020005814e+000

5.20536742176771e+004,-2.47061461925084e+001,-1.40808417920067e+000

5.27803164309155e+004,-2.47061724430271e+001,-1.42773868265961e+000

5.35171021914442e+004,-2.47061994313970e+001,-1.44766748401462e+000

5.42641730979066e+004,-2.47062271783534e+001,-1.46787440940258e+000

5.50216727255895e+004,-2.47062557052139e+001,-1.48836333824797e+000

5.57897466540159e+004,-2.47062850338951e+001,-1.50913820400061e+000

5.65685424949235e+004,-2.47063151869289e+001,-1.53020299488519e+000

5.73582099206328e+004,-2.47063461874803e+001,-1.55156175465855e+000

5.81589006928121e+004,-2.47063780593650e+001,-1.57321858338092e+000

5.89707686916437e+004,-2.47064108270674e+001,-1.59517763819413e+000

5.97939699453972e+004,-2.47064445157595e+001,-1.61744313411376e+000

6.06286626604156e+004,-2.47064791513207e+001,-1.64001934482727e+000

6.14750072515201e+004,-2.47065147603567e+001,-1.66291060350937e+000

6.23331663728396e+004,-2.47065513702207e+001,-1.68612130364301e+000

6.32033049490698e+004,-2.47065890090339e+001,-1.70965589985384e+000

6.40855902071694e+004,-2.47066277057072e+001,-1.73351890875687e+000

6.49801917084985e+004,-2.47066674899635e+001,-1.75771490981247e+000

6.58872813814055e+004,-2.47067083923600e+001,-1.78224854619485e+000

6.68070335542691e+004,-2.47067504443123e+001,-1.80712452567328e+000

6.77396249890018e+004,-2.47067936781177e+001,-1.83234762150406e+000

6.86852349150199e+004,-2.47068381269807e+001,-1.85792267333458e+000

6.96440450636895e+004,-2.47068838250375e+001,-1.88385458812064e+000

7.06162397032520e+004,-2.47069308073834e+001,-1.91014834105406e+000

7.16020056742374e+004,-2.47069791100983e+001,-1.93680897650601e+000

7.26015324253724e+004,-2.47070287702753e+001,-1.96384160897919e+000

7.36150120499896e+004,-2.47070798260486e+001,-1.99125142407618e+000

7.46426393229441e+004,-2.47071323166230e+001,-2.01904367947894e+000

7.56846117380472e+004,-2.47071862823037e+001,-2.04722370594125e+000

7.67411295460207e+004,-2.47072417645269e+001,-2.07579690829676e+000

7.78123957929823e+004,-2.47072988058921e+001,-2.10476876647695e+000

7.88986163594682e+004,-2.47073574501943e+001,-2.13414483654571e+000

7.99999999999995e+004,-2.47074177424574e+001,-2.16393075174656e+000

8.11167583832018e+004,-2.47074797289689e+001,-2.19413222356376e+000

8.22491061324848e+004,-2.47075434573153e+001,-2.22475504279732e+000

8.33972608672892e+004,-2.47076089764179e+001,-2.25580508065397e+000

8.45614432449099e+004,-2.47076763365711e+001,-2.28728828984949e+000

8.57418770029029e+004,-2.47077455894802e+001,-2.31921070572908e+000

8.69387890020841e+004,-2.47078167883009e+001,-2.35157844740039e+000

8.81524092701283e+004,-2.47078899876804e+001,-2.38439771888194e+000

8.93829710457770e+004,-2.47079652437986e+001,-2.41767481026684e+000

9.06307108236633e+004,-2.47080426144113e+001,-2.45141609890264e+000

9.18958683997622e+004,-2.47081221588942e+001,-2.48562805058515e+000

9.31786869174758e+004,-2.47082039382883e+001,-2.52031722076905e+000

9.44794129143618e+004,-2.47082880153463e+001,-2.55549025579383e+000

9.57982963695136e+004,-2.47083744545808e+001,-2.59115389412674e+000

9.71355907516031e+004,-2.47084633223130e+001,-2.62731496761993e+000

9.84915530675926e+004,-2.47085546867240e+001,-2.66398040278630e+000

9.98664439121282e+004,-2.47086486179063e+001,-2.70115722209049e+000

1.01260527517622e+005,-2.47087451879173e+001,-2.73885254525721e+000

1.02674071805032e+005,-2.47088444708340e+001,-2.77707359059642e+000

1.04107348435354e+005,-2.47089465428102e+001,-2.81582767634470e+000

1.05560632861831e+005,-2.47090514821337e+001,-2.85512222202599e+000

1.07034204382888e+005,-2.47091593692863e+001,-2.89496474982783e+000

1.08528346195813e+005,-2.47092702870052e+001,-2.93536288599644e+000

1.10043345451179e+005,-2.47093843203456e+001,-2.97632436224823e+000

1.11579493308032e+005,-2.47095015567458e+001,-3.01785701720189e+000

1.13137084989847e+005,-2.47096220860934e+001,-3.05996879782599e+000

1.14716419841265e+005,-2.47097460007940e+001,-3.10266776090607e+000

1.16317801385624e+005,-2.47098733958413e+001,-3.14596207453129e+000

1.17941537383287e+005,-2.47100043688891e+001,-3.18986001959775e+000

1.19587939890794e+005,-2.47101390203259e+001,-3.23436999133210e+000

1.21257325320831e+005,-2.47102774533509e+001,-3.27950050083460e+000

1.22950014503040e+005,-2.47104197740522e+001,-3.32526017664013e+000

1.24666332745679e+005,-2.47105660914880e+001,-3.37165776629948e+000

1.26406609898139e+005,-2.47107165177685e+001,-3.41870213798069e+000

1.28171180414339e+005,-2.47108711681416e+001,-3.46640228208835e+000

1.29960383416997e+005,-2.47110301610797e+001,-3.51476731290556e+000

1.31774562762811e+005,-2.47111936183703e+001,-3.56380647025376e+000

1.33614067108538e+005,-2.47113616652074e+001,-3.61352912117381e+000

1.35479249978003e+005,-2.47115344302868e+001,-3.66394476162695e+000

1.37370469830040e+005,-2.47117120459036e+001,-3.71506301821821e+000

1.39288090127379e+005,-2.47118946480521e+001,-3.76689364993720e+000

1.41232479406504e+005,-2.47120823765284e+001,-3.81944654992328e+000

1.43204011348474e+005,-2.47122753750368e+001,-3.87273174724970e+000

1.45203064850745e+005,-2.47124737912978e+001,-3.92675940872986e+000

1.47230024099979e+005,-2.47126777771597e+001,-3.98153984074437e+000

1.49285278645888e+005,-2.47128874887136e+001,-4.03708349109018e+000

1.51369223476094e+005,-2.47131030864109e+001,-4.09340095085020e+000

1.53482259092041e+005,-2.47133247351842e+001,-4.15050295628666e+000

1.55624791585964e+005,-2.47135526045719e+001,-4.20840039075493e+000

1.57797232718936e+005,-2.47137868688458e+001,-4.26710428663885e+000

1.59999999999999e+005,-2.47140277071421e+001,-4.32662582730915e+000

1.62233516766403e+005,-2.47142753035964e+001,-4.38697634910486e+000

1.64498212264969e+005,-2.47145298474821e+001,-4.44816734333464e+000

1.66794521734578e+005,-2.47147915333526e+001,-4.51021045830278e+000

1.69122886489819e+005,-2.47150605611877e+001,-4.57311750135574e+000

1.71483754005805e+005,-2.47153371365430e+001,-4.63690044095349e+000

1.73877578004168e+005,-2.47156214707047e+001,-4.70157140876169e+000

1.76304818540256e+005,-2.47159137808477e+001,-4.76714270176630e+000

1.78765942091554e+005,-2.47162142901984e+001,-4.83362678441303e+000

1.81261421647326e+005,-2.47165232282012e+001,-4.90103629076714e+000

1.83791736799524e+005,-2.47168408306910e+001,-4.96938402669707e+000

1.86357373834951e+005,-2.47171673400686e+001,-5.03868297208153e+000

1.88958825828723e+005,-2.47175030054820e+001,-5.10894628303809e+000

1.91596592739027e+005,-2.47178480830123e+001,-5.18018729417493e+000

1.94271181503206e+005,-2.47182028358644e+001,-5.25241952086566e+000

1.96983106135185e+005,-2.47185675345633e+001,-5.32565666154677e+000

1.99732887824256e+005,-2.47189424571548e+001,-5.39991260003770e+000

2.02521055035243e+005,-2.47193278894130e+001,-5.47520140788275e+000

2.05348143610063e+005,-2.47197241250516e+001,-5.55153734671681e+000

2.08214696870707e+005,-2.47201314659425e+001,-5.62893487065226e+000

2.11121265723661e+005,-2.47205502223392e+001,-5.70740862868864e+000

2.14068408765776e+005,-2.47209807131066e+001,-5.78697346714451e+000

2.17056692391625e+005,-2.47214232659567e+001,-5.86764443211120e+000

2.20086690902357e+005,-2.47218782176908e+001,-5.94943677192781e+000

2.23158986616063e+005,-2.47223459144480e+001,-6.03236593967820e+000

2.26274169979693e+005,-2.47228267119601e+001,-6.11644759570950e+000

2.29432839682530e+005,-2.47233209758140e+001,-6.20169761017136e+000

2.32635602771247e+005,-2.47238290817200e+001,-6.28813206557555e+000

2.35883074766574e+005,-2.47243514157878e+001,-6.37576725937706e+000

2.39175879781588e+005,-2.47248883748096e+001,-6.46461970657453e+000

2.42514650641661e+005,-2.47254403665510e+001,-6.55470614233038e+000

2.45900029006080e+005,-2.47260078100490e+001,-6.64604352461072e+000

2.49332665491357e+005,-2.47265911359177e+001,-6.73864903684443e+000

2.52813219796278e+005,-2.47271907866629e+001,-6.83254009059973e+000

2.56342360828676e+005,-2.47278072170039e+001,-6.92773432827982e+000

2.59920766833993e+005,-2.47284408942044e+001,-7.02424962583490e+000

2.63549125525621e+005,-2.47290922984111e+001,-7.12210409549255e+000

2.67228134217075e+005,-2.47297619230023e+001,-7.22131608850220e+000

2.70958499956006e+005,-2.47304502749444e+001,-7.32190419789799e+000

2.74740939660078e+005,-2.47311578751580e+001,-7.42388726127374e+000

2.78576180254757e+005,-2.47318852588936e+001,-7.52728436357423e+000

2.82464958813007e+005,-2.47326329761165e+001,-7.63211483989868e+000

2.86408022696948e+005,-2.47334015919021e+001,-7.73839827831723e+000

2.90406129701488e+005,-2.47341916868405e+001,-7.84615452269949e+000

2.94460048199957e+005,-2.47350038574521e+001,-7.95540367555266e+000

2.98570557291775e+005,-2.47358387166133e+001,-8.06616610087082e+000

3.02738446952187e+005,-2.47366968939929e+001,-8.17846242699198e+000

3.06964518184081e+005,-2.47375790364999e+001,-8.29231354946304e+000

3.11249583171928e+005,-2.47384858087423e+001,-8.40774063391139e+000

3.15594465437872e+005,-2.47394178934967e+001,-8.52476511892122e+000

3.19999999999997e+005,-2.47403759921910e+001,-8.64340871891401e+000

3.24467033532806e+005,-2.47413608253974e+001,-8.76369342703209e+000

3.28996424529938e+005,-2.47423731333392e+001,-8.88564151802217e+000

3.33589043469155e+005,-2.47434136764088e+001,-9.00927555111950e+000

3.38245772979638e+005,-2.47444832356988e+001,-9.13461837292968e+000

3.42967508011610e+005,-2.47455826135463e+001,-9.26169312030621e+000

3.47755156008335e+005,-2.47467126340901e+001,-9.39052322322422e+000

3.52609637080511e+005,-2.47478741438415e+001,-9.52113240764491e+000

3.57531884183106e+005,-2.47490680122688e+001,-9.65354469837251e+000

3.62522843294651e+005,-2.47502951323955e+001,-9.78778442189956e+000

3.67583473599047e+005,-2.47515564214130e+001,-9.92387620923802e+000

3.72714747669902e+005,-2.47528528213082e+001,-1.00618449987366e+001

3.77917651657445e+005,-2.47541852995049e+001,-1.02017160388789e+001

3.83193185478053e+005,-2.47555548495209e+001,-1.03435148910618e+001

3.88542363006410e+005,-2.47569624916402e+001,-1.04872674323516e+001

3.93966212270369e+005,-2.47584092736007e+001,-1.06329998582137e+001

3.99465775648511e+005,-2.47598962712980e+001,-1.07807386852158e+001

4.05042110070485e+005,-2.47614245895042e+001,-1.09305107536989e+001

4.10696287220124e+005,-2.47629953626045e+001,-1.10823432304144e+001

4.16429393741414e+005,-2.47646097553492e+001,-1.12362636111253e+001

4.22242531447321e+005,-2.47662689636228e+001,-1.13922997231661e+001

4.28136817531551e+005,-2.47679742152302e+001,-1.15504797279593e+001

4.34113384783250e+005,-2.47697267707003e+001,-1.17108321234849e+001

4.40173381804713e+005,-2.47715279241065e+001,-1.18733857466997e+001

4.46317973232124e+005,-2.47733790039055e+001,-1.20381697759009e+001

4.52548339959385e+005,-2.47752813737939e+001,-1.22052137330322e+001

4.58865679365059e+005,-2.47772364335823e+001,-1.23745474859268e+001

4.65271205542494e+005,-2.47792456200889e+001,-1.25462012504841e+001

4.71766149533147e+005,-2.47813104080503e+001,-1.27202055927749e+001

4.78351759563174e+005,-2.47834323110519e+001,-1.28965914310709e+001

4.85029301283321e+005,-2.47856128824766e+001,-1.30753900377938e+001

4.91800058012158e+005,-2.47878537164730e+001,-1.32566330413791e+001

4.98665330982714e+005,-2.47901564489420e+001,-1.34403524280494e+001

5.05626439592555e+005,-2.47925227585433e+001,-1.36265805434925e+001

5.12684721657352e+005,-2.47949543677209e+001,-1.38153500944374e+001

5.19841533667984e+005,-2.47974530437482e+001,-1.40066941501253e+001

5.27098251051240e+005,-2.48000205997920e+001,-1.42006461436665e+001

5.34456268434150e+005,-2.48026588959973e+001,-1.43972398732802e+001

5.41916999912011e+005,-2.48053698405901e+001,-1.45965095034088e+001

