Freq.,VOut,OutRef

1.00000000000000e+004,-2.40232065130558e+001,-3.07465604946626e-001

1.01395947979003e+004,-2.40232077404034e+001,-3.11757648358193e-001

1.02811382665607e+004,-2.40232090022561e+001,-3.16109605762897e-001

1.04246576084112e+004,-2.40232102995839e+001,-3.20522313499024e-001

1.05701804056138e+004,-2.40232116333842e+001,-3.24996619579083e-001

1.07177346253629e+004,-2.40232130046824e+001,-3.29533383850730e-001

1.08673486252606e+004,-2.40232144145326e+001,-3.34133478165145e-001

1.10190511587661e+004,-2.40232158640186e+001,-3.38797786541204e-001

1.11728713807222e+004,-2.40232173542547e+001,-3.43527205337183e-001

1.13288388529580e+004,-2.40232188863866e+001,-3.48322643422311e-001

1.14869835499703e+004,-2.40232204615922e+001,-3.53185022351938e-001

1.16473358646846e+004,-2.40232220810821e+001,-3.58115276544385e-001

1.18099266142953e+004,-2.40232237461015e+001,-3.63114353459522e-001

1.19747870461893e+004,-2.40232254579304e+001,-3.68183213781108e-001

1.21419488439505e+004,-2.40232272178847e+001,-3.73322831603030e-001

1.23114441334492e+004,-2.40232290273175e+001,-3.78534194613250e-001

1.24833054890161e+004,-2.40232308876194e+001,-3.83818304287829e-001

1.26575659397028e+004,-2.40232328002209e+001,-3.89176176077748e-001

1.28342589756290e+004,-2.40232347665922e+001,-3.94608839608295e-001

1.30134185544193e+004,-2.40232367882447e+001,-4.00117338876183e-001

1.31950791077289e+004,-2.40232388667327e+001,-4.05702732448621e-001

1.33792755478611e+004,-2.40232410036541e+001,-4.11366093666262e-001

1.35660432744767e+004,-2.40232432006514e+001,-4.17108510851962e-001

1.37554181813974e+004,-2.40232454594138e+001,-4.22931087517402e-001

1.39474366635040e+004,-2.40232477816774e+001,-4.28834942576216e-001

1.41421356237309e+004,-2.40232501692275e+001,-4.34821210558947e-001

1.43395524801583e+004,-2.40232526238995e+001,-4.40891041828501e-001

1.45397251732031e+004,-2.40232551475805e+001,-4.47045602804719e-001

1.47426921729110e+004,-2.40232577422103e+001,-4.53286076186449e-001

1.49484924863494e+004,-2.40232604097836e+001,-4.59613661178091e-001

1.51571656651040e+004,-2.40232631523511e+001,-4.66029573721320e-001

1.53687518128801e+004,-2.40232659720209e+001,-4.72535046727590e-001

1.55832915932100e+004,-2.40232688709607e+001,-4.79131330314545e-001

1.58008262372675e+004,-2.40232718513989e+001,-4.85819692047623e-001

1.60213975517924e+004,-2.40232749156266e+001,-4.92601417182064e-001

1.62450479271247e+004,-2.40232780659995e+001,-4.99477808909260e-001

1.64718203453514e+004,-2.40232813049392e+001,-5.06450188609022e-001

1.67017583885674e+004,-2.40232846349355e+001,-5.13519896100453e-001

1.69349062472505e+004,-2.40232880585483e+001,-5.20688289901978e-001

1.71713087287550e+004,-2.40232915784094e+001,-5.27956747490423e-001

1.74110112659224e+004,-2.40232951972244e+001,-5.35326665565678e-001

1.76540599258131e+004,-2.40232989177754e+001,-5.42799460318095e-001

1.79005014185594e+004,-2.40233027429222e+001,-5.50376567703170e-001

1.81503831063432e+004,-2.40233066756052e+001,-5.58059443713406e-001

1.84037530124975e+004,-2.40233107188476e+001,-5.65849564660812e-001

1.86606598307361e+004,-2.40233148757573e+001,-5.73748427457660e-001

1.89211529345119e+004,-2.40233191495299e+001,-5.81757549906060e-001

1.91852823865052e+004,-2.40233235434505e+001,-5.89878470988614e-001

1.94530989482457e+004,-2.40233280608968e+001,-5.98112751162128e-001

1.97246540898671e+004,-2.40233327053413e+001,-6.06461972659703e-001

1.99999999999999e+004,-2.40233374803540e+001,-6.14927739792839e-001

2.02791895958005e+004,-2.40233423896056e+001,-6.23511679257926e-001

2.05622765331213e+004,-2.40233474368696e+001,-6.32215440452406e-001

2.08493152168224e+004,-2.40233526260260e+001,-6.41040695786699e-001

2.11403608112276e+004,-2.40233579610634e+001,-6.49989141007846e-001

2.14354692507258e+004,-2.40233634460829e+001,-6.59062495524412e-001

2.17346972505211e+004,-2.40233690853004e+001,-6.68262502736428e-001

2.20381023175322e+004,-2.40233748830509e+001,-6.77590930367445e-001

2.23457427614443e+004,-2.40233808437910e+001,-6.87049570807420e-001

2.26576777059159e+004,-2.40233869721024e+001,-6.96640241454454e-001

2.29739670999406e+004,-2.40233932726956e+001,-7.06364785063584e-001

2.32946717293690e+004,-2.40233997504140e+001,-7.16225070099121e-001

2.36198532285905e+004,-2.40234064102364e+001,-7.26222991095938e-001

2.39495740923785e+004,-2.40234132572821e+001,-7.36360469019186e-001

2.42838976879009e+004,-2.40234202968140e+001,-7.46639451636030e-001

2.46228882668982e+004,-2.40234275342431e+001,-7.57061913886365e-001

2.49666109780322e+004,-2.40234349751325e+001,-7.67629858262444e-001

2.53151318794055e+004,-2.40234426252014e+001,-7.78345315193890e-001

2.56685179512580e+004,-2.40234504903300e+001,-7.89210343435168e-001

2.60268371088386e+004,-2.40234585765638e+001,-8.00227030461485e-001

2.63901582154578e+004,-2.40234668901181e+001,-8.11397492868218e-001

2.67585510957221e+004,-2.40234754373828e+001,-8.22723876777422e-001

2.71320865489533e+004,-2.40234842249277e+001,-8.34208358246997e-001

2.75108363627948e+004,-2.40234932595070e+001,-8.45853143691587e-001

2.78948733270080e+004,-2.40235025480646e+001,-8.57660470301499e-001

2.82842712474618e+004,-2.40235120977401e+001,-8.69632606472367e-001

2.86791049603164e+004,-2.40235219158732e+001,-8.81771852242100e-001

2.90794503464061e+004,-2.40235320100103e+001,-8.94080539727593e-001

2.94853843458219e+004,-2.40235423879096e+001,-9.06561033574872e-001

2.98969849726987e+004,-2.40235530575474e+001,-9.19215731410676e-001

3.03143313302078e+004,-2.40235640271244e+001,-9.32047064300373e-001

3.07375036257601e+004,-2.40235753050714e+001,-9.45057497216368e-001

3.11665831864199e+004,-2.40235869000564e+001,-9.58249529506789e-001

3.16016524745350e+004,-2.40235988209911e+001,-9.71625695376427e-001

3.20427951035848e+004,-2.40236110770372e+001,-9.85188564372008e-001

3.24900958542493e+004,-2.40236236776144e+001,-9.98940741871257e-001

3.29436406907028e+004,-2.40236366324068e+001,-1.01288486958503e+000

3.34035167771346e+004,-2.40236499513708e+001,-1.02702362606006e+000

3.38698124945009e+004,-2.40236636447424e+001,-1.04135972719407e+000

3.43426174575100e+004,-2.40236777230456e+001,-1.05589592675233e+000

3.48220225318448e+004,-2.40236921970997e+001,-1.07063501689769e+000

3.53081198516260e+004,-2.40237070780284e+001,-1.08557982872180e+000

3.58010028371187e+004,-2.40237223772678e+001,-1.10073323278911e+000

3.63007662126863e+004,-2.40237381065754e+001,-1.11609813968363e+000

3.68075060249948e+004,-2.40237542780392e+001,-1.13167750056679e+000

3.73213196614721e+004,-2.40237709040867e+001,-1.14747430774063e+000

3.78423058690237e+004,-2.40237879974946e+001,-1.16349159522094e+000

3.83705647730104e+004,-2.40238055713989e+001,-1.17973243931613e+000

3.89061978964912e+004,-2.40238236393043e+001,-1.19619995921527e+000

3.94493081797342e+004,-2.40238422150952e+001,-1.21289731758445e+000

3.99999999999998e+004,-2.40238613130462e+001,-1.22982772117003e+000

4.05583791916010e+004,-2.40238809478327e+001,-1.24699442141198e+000

4.11245530662425e+004,-2.40239011345426e+001,-1.26440071506455e+000

4.16986304336447e+004,-2.40239218886878e+001,-1.28204994482505e+000

4.22807216224550e+004,-2.40239432262159e+001,-1.29994549997270e+000

4.28709385014515e+004,-2.40239651635225e+001,-1.31809081701488e+000

4.34693945010421e+004,-2.40239877174640e+001,-1.33648938034367e+000

4.40762046350642e+004,-2.40240109053702e+001,-1.35514472289906e+000

4.46914855228886e+004,-2.40240347450579e+001,-1.37406042684475e+000

4.53153554118317e+004,-2.40240592548444e+001,-1.39324012424928e+000

4.59479341998812e+004,-2.40240844535614e+001,-1.41268749778005e+000

4.65893434587380e+004,-2.40241103605699e+001,-1.43240628140403e+000

4.72397064571810e+004,-2.40241369957747e+001,-1.45240026110046e+000

4.78991481847569e+004,-2.40241643796395e+001,-1.47267327558134e+000

4.85677953758016e+004,-2.40241925332033e+001,-1.49322921702201e+000

4.92457765337964e+004,-2.40242214780955e+001,-1.51407203180433e+000

4.99332219560642e+004,-2.40242512365537e+001,-1.53520572126551e+000

5.06302637588109e+004,-2.40242818314394e+001,-1.55663434246152e+000

5.13370359025159e+004,-2.40243132862567e+001,-1.57836200893812e+000

5.20536742176771e+004,-2.40243456251698e+001,-1.60039289151284e+000

5.27803164309155e+004,-2.40243788730215e+001,-1.62273121906923e+000

5.35171021914442e+004,-2.40244130553522e+001,-1.64538127936081e+000

5.42641730979066e+004,-2.40244481984199e+001,-1.66834741982400e+000

5.50216727255895e+004,-2.40244843292196e+001,-1.69163404840629e+000

5.57897466540159e+004,-2.40245214755047e+001,-1.71524563440220e+000

5.65685424949235e+004,-2.40245596658079e+001,-1.73918670930212e+000

5.73582099206328e+004,-2.40245989294631e+001,-1.76346186765216e+000

5.81589006928121e+004,-2.40246392966278e+001,-1.78807576792592e+000

5.89707686916437e+004,-2.40246807983064e+001,-1.81303313340849e+000

5.97939699453972e+004,-2.40247234663739e+001,-1.83833875309084e+000

6.06286626604156e+004,-2.40247673336001e+001,-1.86399748257839e+000

6.14750072515201e+004,-2.40248124336750e+001,-1.89001424500974e+000

6.23331663728396e+004,-2.40248588012342e+001,-1.91639403199013e+000

6.32033049490698e+004,-2.40249064718860e+001,-1.94314190453555e+000

6.40855902071694e+004,-2.40249554822380e+001,-1.97026299403000e+000

6.49801917084985e+004,-2.40250058699256e+001,-1.99776250319669e+000

6.58872813814055e+004,-2.40250576736405e+001,-2.02564570708099e+000

6.68070335542691e+004,-2.40251109331608e+001,-2.05391795404625e+000

6.77396249890018e+004,-2.40251656893807e+001,-2.08258466678583e+000

6.86852349150199e+004,-2.40252219843421e+001,-2.11165134334478e+000

6.96440450636895e+004,-2.40252798612673e+001,-2.14112355815775e+000

7.06162397032520e+004,-2.40253393645910e+001,-2.17100696310062e+000

7.16020056742374e+004,-2.40254005399954e+001,-2.20130728855419e+000

7.26015324253724e+004,-2.40254634344442e+001,-2.23203034448510e+000

7.36150120499896e+004,-2.40255280962189e+001,-2.26318202153872e+000

7.46426393229441e+004,-2.40255945749559e+001,-2.29476829214704e+000

7.56846117380472e+004,-2.40256629216840e+001,-2.32679521165202e+000

7.67411295460207e+004,-2.40257331888639e+001,-2.35926891944318e+000

7.78123957929823e+004,-2.40258054304275e+001,-2.39219564011139e+000

7.88986163594682e+004,-2.40258797018201e+001,-2.42558168461508e+000

7.99999999999995e+004,-2.40259560600420e+001,-2.45943345146517e+000

8.11167583832018e+004,-2.40260345636919e+001,-2.49375742792427e+000

8.22491061324848e+004,-2.40261152730126e+001,-2.52856019121986e+000

8.33972608672892e+004,-2.40261982499359e+001,-2.56384840977707e+000

8.45614432449099e+004,-2.40262835581305e+001,-2.59962884446438e+000

8.57418770029029e+004,-2.40263712630503e+001,-2.63590834985677e+000

8.69387890020841e+004,-2.40264614319843e+001,-2.67269387551641e+000

8.81524092701283e+004,-2.40265541341084e+001,-2.70999246728732e+000

8.93829710457770e+004,-2.40266494405372e+001,-2.74781126861035e+000

9.06307108236633e+004,-2.40267474243792e+001,-2.78615752185166e+000

9.18958683997622e+004,-2.40268481607919e+001,-2.82503856965147e+000

9.31786869174758e+004,-2.40269517270392e+001,-2.86446185628832e+000

9.44794129143618e+004,-2.40270582025505e+001,-2.90443492906095e+000

9.57982963695136e+004,-2.40271676689805e+001,-2.94496543968944e+000

9.71355907516031e+004,-2.40272802102722e+001,-2.98606114573247e+000

9.84915530675926e+004,-2.40273959127204e+001,-3.02772991202371e+000

9.98664439121282e+004,-2.40275148650371e+001,-3.06997971212630e+000

1.01260527517622e+005,-2.40276371584194e+001,-3.11281862980595e+000

1.02674071805032e+005,-2.40277628866186e+001,-3.15625486052255e+000

1.04107348435354e+005,-2.40278921460116e+001,-3.20029671294045e+000

1.05560632861831e+005,-2.40280250356740e+001,-3.24495261045811e+000

1.07034204382888e+005,-2.40281616574555e+001,-3.29023109275716e+000

1.08528346195813e+005,-2.40283021160569e+001,-3.33614081736983e+000

1.10043345451179e+005,-2.40284465191104e+001,-3.38269056126698e+000

1.11579493308032e+005,-2.40285949772600e+001,-3.42988922246612e+000

1.13137084989847e+005,-2.40287476042468e+001,-3.47774582165741e+000

1.14716419841265e+005,-2.40289045169942e+001,-3.52626950385254e+000

1.16317801385624e+005,-2.40290658356970e+001,-3.57546954005122e+000

1.17941537383287e+005,-2.40292316839125e+001,-3.62535532893011e+000

1.19587939890794e+005,-2.40294021886538e+001,-3.67593639855092e+000

1.21257325320831e+005,-2.40295774804864e+001,-3.72722240809043e+000

1.22950014503040e+005,-2.40297576936263e+001,-3.77922314959036e+000

1.24666332745679e+005,-2.40299429660424e+001,-3.83194854972897e+000

1.26406609898139e+005,-2.40301334395600e+001,-3.88540867161379e+000

1.28171180414339e+005,-2.40303292599685e+001,-3.93961371659535e+000

1.29960383416997e+005,-2.40305305771312e+001,-3.99457402610349e+000

1.31774562762811e+005,-2.40307375450988e+001,-4.05030008350343e+000

1.33614067108538e+005,-2.40309503222251e+001,-4.10680251597562e+000

1.35479249978003e+005,-2.40311690712870e+001,-4.16409209641617e+000

1.37370469830040e+005,-2.40313939596069e+001,-4.22217974536027e+000

1.39288090127379e+005,-2.40316251591785e+001,-4.28107653292701e+000

1.41232479406504e+005,-2.40318628467967e+001,-4.34079368078688e+000

1.43204011348474e+005,-2.40321072041908e+001,-4.40134256415174e+000

1.45203064850745e+005,-2.40323584181603e+001,-4.46273471378679e+000

1.47230024099979e+005,-2.40326166807162e+001,-4.52498181804596e+000

1.49285278645888e+005,-2.40328821892247e+001,-4.58809572492931e+000

1.51369223476094e+005,-2.40331551465553e+001,-4.65208844416346e+000

1.53482259092041e+005,-2.40334357612333e+001,-4.71697214930449e+000

1.55624791585964e+005,-2.40337242475959e+001,-4.78275917986460e+000

1.57797232718936e+005,-2.40340208259526e+001,-4.84946204346057e+000

1.59999999999999e+005,-2.40343257227502e+001,-4.91709341798636e+000

1.62233516766403e+005,-2.40346391707423e+001,-4.98566615380732e+000

1.64498212264969e+005,-2.40349614091627e+001,-5.05519327597921e+000

1.66794521734578e+005,-2.40352926839048e+001,-5.12568798648838e+000

1.69122886489819e+005,-2.40356332477043e+001,-5.19716366651698e+000

1.71483754005805e+005,-2.40359833603282e+001,-5.26963387872868e+000

1.73877578004168e+005,-2.40363432887675e+001,-5.34311236958005e+000

1.76304818540256e+005,-2.40367133074368e+001,-5.41761307165326e+000

1.78765942091554e+005,-2.40370936983774e+001,-5.49315010601144e+000

1.81261421647326e+005,-2.40374847514675e+001,-5.56973778457794e+000

1.83791736799524e+005,-2.40378867646365e+001,-5.64739061253802e+000

1.86357373834951e+005,-2.40383000440868e+001,-5.72612329076166e+000

1.88958825828723e+005,-2.40387249045195e+001,-5.80595071825125e+000

1.91596592739027e+005,-2.40391616693677e+001,-5.88688799460965e+000

1.94271181503206e+005,-2.40396106710354e+001,-5.96895042253062e+000

1.96983106135185e+005,-2.40400722511429e+001,-6.05215351031263e+000

1.99732887824256e+005,-2.40405467607782e+001,-6.13651297439186e+000

2.02521055035243e+005,-2.40410345607558e+001,-6.22204474189941e+000

2.05348143610063e+005,-2.40415360218821e+001,-6.30876495323710e+000

2.08214696870707e+005,-2.40420515252275e+001,-6.39668996467663e+000

2.11121265723661e+005,-2.40425814624059e+001,-6.48583635097671e+000

2.14068408765776e+005,-2.40431262358615e+001,-6.57622090802292e+000

2.17056692391625e+005,-2.40436862591633e+001,-6.66786065548527e+000

2.20086690902357e+005,-2.40442619573072e+001,-6.76077283949701e+000

2.23158986616063e+005,-2.40448537670256e+001,-6.85497493535067e+000

2.26274169979693e+005,-2.40454621371059e+001,-6.95048465021390e+000

2.29432839682530e+005,-2.40460875287165e+001,-7.04731992586289e+000

2.32635602771247e+005,-2.40467304157415e+001,-7.14549894143278e+000

2.35883074766574e+005,-2.40473912851244e+001,-7.24504011618554e+000

2.39175879781588e+005,-2.40480706372203e+001,-7.34596211229373e+000

2.42514650641661e+005,-2.40487689861573e+001,-7.44828383763965e+000

2.45900029006080e+005,-2.40494868602071e+001,-7.55202444862940e+000

2.49332665491357e+005,-2.40502248021650e+001,-7.65720335302148e+000

2.52813219796278e+005,-2.40509833697402e+001,-7.76384021276760e+000

2.56342360828676e+005,-2.40517631359553e+001,-7.87195494686665e+000

2.59920766833993e+005,-2.40525646895561e+001,-7.98156773423014e+000

2.63549125525621e+005,-2.40533886354323e+001,-8.09269901655727e+000

2.67228134217075e+005,-2.40542355950483e+001,-8.20536950122057e+000

2.70958499956006e+005,-2.40551062068848e+001,-8.31960016415910e+000

2.74740939660078e+005,-2.40560011268917e+001,-8.43541225277963e+000

2.78576180254757e+005,-2.40569210289526e+001,-8.55282728886247e+000

2.82464958813007e+005,-2.40578666053598e+001,-8.67186707147411e+000

2.86408022696948e+005,-2.40588385673025e+001,-8.79255367988124e+000

2.90406129701488e+005,-2.40598376453659e+001,-8.91490947646846e+000

2.94460048199957e+005,-2.40608645900432e+001,-9.03895710965511e+000

2.98570557291775e+005,-2.40619201722599e+001,-9.16471951681207e+000

3.02738446952187e+005,-2.40630051839106e+001,-9.29221992717562e+000

3.06964518184081e+005,-2.40641204384098e+001,-9.42148186475672e+000

3.11249583171928e+005,-2.40652667712547e+001,-9.55252915124432e+000

3.15594465437872e+005,-2.40664450406027e+001,-9.68538590890045e+000

3.19999999999997e+005,-2.40676561278618e+001,-9.82007656344586e+000

3.24467033532806e+005,-2.40689009382956e+001,-9.95662584693230e+000

3.28996424529938e+005,-2.40701804016424e+001,-1.00950588006022e+001

3.33589043469155e+005,-2.40714954727493e+001,-1.02354007777299e+001

3.38245772979638e+005,-2.40728471322199e+001,-1.03776774464462e+001

3.42967508011610e+005,-2.40742363870789e+001,-1.05219147925395e+001

3.47755156008335e+005,-2.40756642714504e+001,-1.06681391222340e+001

3.52609637080511e+005,-2.40771318472527e+001,-1.08163770649411e+001

3.57531884183106e+005,-2.40786402049087e+001,-1.09666555759816e+001

3.62522843294651e+005,-2.40801904640723e+001,-1.11190019392747e+001

3.67583473599047e+005,-2.40817837743713e+001,-1.12734437699926e+001

3.72714747669902e+005,-2.40834213161668e+001,-1.14300090171751e+001

3.77917651657445e+005,-2.40851043013293e+001,-1.15887259663042e+001

3.83193185478053e+005,-2.40868339740318e+001,-1.17496232418312e+001

3.88542363006410e+005,-2.40886116115605e+001,-1.19127298096561e+001

3.93966212270369e+005,-2.40904385251430e+001,-1.20780749795541e+001

3.99465775648511e+005,-2.40923160607933e+001,-1.22456884075455e+001

4.05042110070485e+005,-2.40942456001759e+001,-1.24156000982042e+001

4.10696287220124e+005,-2.40962285614873e+001,-1.25878404069026e+001

4.16429393741414e+005,-2.40982664003560e+001,-1.27624400419871e+001

4.22242531447321e+005,-2.41003606107606e+001,-1.29394300668793e+001

4.28136817531551e+005,-2.41025127259670e+001,-1.31188419020994e+001

4.34113384783250e+005,-2.41047243194842e+001,-1.33007073272069e+001

4.40173381804713e+005,-2.41069970060390e+001,-1.34850584826524e+001

4.46317973232124e+005,-2.41093324425689e+001,-1.36719278715371e+001

4.52548339959385e+005,-2.41117323292359e+001,-1.38613483612723e+001

4.58865679365059e+005,-2.41141984104578e+001,-1.40533531851368e+001

4.65271205542494e+005,-2.41167324759592e+001,-1.42479759437228e+001

4.71766149533147e+005,-2.41193363618427e+001,-1.44452506062665e+001

4.78351759563174e+005,-2.41220119516778e+001,-1.46452115118575e+001

4.85029301283321e+005,-2.41247611776108e+001,-1.48478933705195e+001

4.91800058012158e+005,-2.41275860214926e+001,-1.50533312641570e+001

4.98665330982714e+005,-2.41304885160265e+001,-1.52615606473600e+001

5.05626439592555e+005,-2.41334707459349e+001,-1.54726173480622e+001

5.12684721657352e+005,-2.41365348491450e+001,-1.56865375680423e+001

5.19841533667984e+005,-2.41396830179935e+001,-1.59033578832645e+001

5.27098251051240e+005,-2.41429175004497e+001,-1.61231152440486e+001

5.34456268434150e+005,-2.41462406013572e+001,-1.63458469750631e+001

5.41916999912011e+005,-2.41496546836937e+001,-1.65715907751324e+001

