Freq.,VOut,OutRef

1.00000000000000e+004,-2.30172737564961e+001,-2.44543492132987e-001

1.01395947979003e+004,-2.30172745058650e+001,-2.47957184101938e-001

1.02811382665607e+004,-2.30172752763015e+001,-2.51418529096620e-001

1.04246576084112e+004,-2.30172760683976e+001,-2.54928192314506e-001

1.05701804056138e+004,-2.30172768827625e+001,-2.58486848237296e-001

1.07177346253629e+004,-2.30172777200222e+001,-2.62095180762005e-001

1.08673486252606e+004,-2.30172785808204e+001,-2.65753883331838e-001

1.10190511587661e+004,-2.30172794658186e+001,-2.69463659070343e-001

1.11728713807222e+004,-2.30172803756974e+001,-2.73225220913767e-001

1.13288388529580e+004,-2.30172813111560e+001,-2.77039291751584e-001

1.14869835499703e+004,-2.30172822729139e+001,-2.80906604562014e-001

1.16473358646846e+004,-2.30172832617103e+001,-2.84827902555431e-001

1.18099266142953e+004,-2.30172842783052e+001,-2.88803939316081e-001

1.19747870461893e+004,-2.30172853234804e+001,-2.92835478946773e-001

1.21419488439505e+004,-2.30172863980391e+001,-2.96923296216752e-001

1.23114441334492e+004,-2.30172875028076e+001,-3.01068176708051e-001

1.24833054890161e+004,-2.30172886386351e+001,-3.05270916968686e-001

1.26575659397028e+004,-2.30172898063946e+001,-3.09532324666334e-001

1.28342589756290e+004,-2.30172910069841e+001,-3.13853218740403e-001

1.30134185544193e+004,-2.30172922413264e+001,-3.18234429562015e-001

1.31950791077289e+004,-2.30172935103705e+001,-3.22676799091681e-001

1.33792755478611e+004,-2.30172948150919e+001,-3.27181181043864e-001

1.35660432744767e+004,-2.30172961564937e+001,-3.31748441047458e-001

1.37554181813974e+004,-2.30172975356068e+001,-3.36379456815115e-001

1.39474366635040e+004,-2.30172989534918e+001,-3.41075118308363e-001

1.41421356237309e+004,-2.30173004112385e+001,-3.45836327913038e-001

1.43395524801583e+004,-2.30173019099676e+001,-3.50664000608951e-001

1.45397251732031e+004,-2.30173034508310e+001,-3.55559064147795e-001

1.47426921729110e+004,-2.30173050350136e+001,-3.60522459228889e-001

1.49484924863494e+004,-2.30173066637331e+001,-3.65555139683781e-001

1.51571656651040e+004,-2.30173083382415e+001,-3.70658072655661e-001

1.53687518128801e+004,-2.30173100598260e+001,-3.75832238787208e-001

1.55832915932100e+004,-2.30173118298102e+001,-3.81078632408368e-001

1.58008262372675e+004,-2.30173136495548e+001,-3.86398261726684e-001

1.60213975517924e+004,-2.30173155204586e+001,-3.91792149022920e-001

1.62450479271247e+004,-2.30173174439599e+001,-3.97261330844857e-001

1.64718203453514e+004,-2.30173194215373e+001,-4.02806858209118e-001

1.67017583885674e+004,-2.30173214547110e+001,-4.08429796800005e-001

1.69349062472505e+004,-2.30173235450442e+001,-4.14131227176024e-001

1.71713087287550e+004,-2.30173256941436e+001,-4.19912244978505e-001

1.74110112659224e+004,-2.30173279036614e+001,-4.25773961138822e-001

1.76540599258131e+004,-2.30173301752961e+001,-4.31717502094511e-001

1.79005014185594e+004,-2.30173325107940e+001,-4.37744010004311e-001

1.81503831063432e+004,-2.30173349119503e+001,-4.43854642968238e-001

1.84037530124975e+004,-2.30173373806111e+001,-4.50050575248909e-001

1.86606598307361e+004,-2.30173399186741e+001,-4.56332997497982e-001

1.89211529345119e+004,-2.30173425280902e+001,-4.62703116984406e-001

1.91852823865052e+004,-2.30173452108654e+001,-4.69162157827220e-001

1.94530989482457e+004,-2.30173479690622e+001,-4.75711361227686e-001

1.97246540898671e+004,-2.30173508048006e+001,-4.82351985712184e-001

1.99999999999999e+004,-2.30173537202607e+001,-4.89085307369331e-001

2.02791895958005e+004,-2.30173567176837e+001,-4.95912620097473e-001

2.05622765331213e+004,-2.30173597993735e+001,-5.02835235853956e-001

2.08493152168224e+004,-2.30173629676994e+001,-5.09854484902702e-001

2.11403608112276e+004,-2.30173662250968e+001,-5.16971716075970e-001

2.14354692507258e+004,-2.30173695740696e+001,-5.24188297027756e-001

2.17346972505211e+004,-2.30173730171923e+001,-5.31505614499592e-001

2.20381023175322e+004,-2.30173765571117e+001,-5.38925074584152e-001

2.23457427614443e+004,-2.30173801965490e+001,-5.46448102998161e-001

2.26576777059159e+004,-2.30173839383018e+001,-5.54076145354253e-001

2.29739670999406e+004,-2.30173877852464e+001,-5.61810667439128e-001

2.32946717293690e+004,-2.30173917403400e+001,-5.69653155493005e-001

2.36198532285905e+004,-2.30173958066229e+001,-5.77605116498359e-001

2.39495740923785e+004,-2.30173999872208e+001,-5.85668078466098e-001

2.42838976879009e+004,-2.30174042853474e+001,-5.93843590730185e-001

2.46228882668982e+004,-2.30174087043065e+001,-6.02133224245698e-001

2.49666109780322e+004,-2.30174132474950e+001,-6.10538571887908e-001

2.53151318794055e+004,-2.30174179184054e+001,-6.19061248760015e-001

2.56685179512580e+004,-2.30174227206279e+001,-6.27702892502957e-001

2.60268371088386e+004,-2.30174276578541e+001,-6.36465163608621e-001

2.63901582154578e+004,-2.30174327338792e+001,-6.45349745738688e-001

2.67585510957221e+004,-2.30174379526048e+001,-6.54358346049866e-001

2.71320865489533e+004,-2.30174433180427e+001,-6.63492695516564e-001

2.75108363627948e+004,-2.30174488343170e+001,-6.72754549269050e-001

2.78948733270080e+004,-2.30174545056681e+001,-6.82145686923972e-001

2.82842712474618e+004,-2.30174603364552e+001,-6.91667912932090e-001

2.86791049603164e+004,-2.30174663311603e+001,-7.01323056918521e-001

2.90794503464061e+004,-2.30174724943915e+001,-7.11112974037270e-001

2.94853843458219e+004,-2.30174788308861e+001,-7.21039545326148e-001

2.98969849726987e+004,-2.30174853455146e+001,-7.31104678068035e-001

3.03143313302078e+004,-2.30174920432848e+001,-7.41310306154618e-001

3.07375036257601e+004,-2.30174989293448e+001,-7.51658390460145e-001

3.11665831864199e+004,-2.30175060089874e+001,-7.62150919215931e-001

3.16016524745350e+004,-2.30175132876546e+001,-7.72789908390056e-001

3.20427951035848e+004,-2.30175207709410e+001,-7.83577402076996e-001

3.24900958542493e+004,-2.30175284645985e+001,-7.94515472888382e-001

3.29436406907028e+004,-2.30175363745409e+001,-8.05606222348015e-001

3.34035167771346e+004,-2.30175445068478e+001,-8.16851781298703e-001

3.38698124945009e+004,-2.30175528677700e+001,-8.28254310307594e-001

3.43426174575100e+004,-2.30175614637340e+001,-8.39816000081090e-001

3.48220225318448e+004,-2.30175703013466e+001,-8.51539071885654e-001

3.53081198516260e+004,-2.30175793874007e+001,-8.63425777972565e-001

3.58010028371187e+004,-2.30175887288798e+001,-8.75478402009096e-001

3.63007662126863e+004,-2.30175983329640e+001,-8.87699259516619e-001

3.68075060249948e+004,-2.30176082070348e+001,-9.00090698315721e-001

3.73213196614721e+004,-2.30176183586814e+001,-9.12655098972427e-001

3.78423058690237e+004,-2.30176287957064e+001,-9.25394875257680e-001

3.83705647730104e+004,-2.30176395261315e+001,-9.38312474607316e-001

3.89061978964912e+004,-2.30176505582038e+001,-9.51410378592725e-001

3.94493081797342e+004,-2.30176619004024e+001,-9.64691103394173e-001

3.99999999999998e+004,-2.30176735614445e+001,-9.78157200283501e-001

4.05583791916010e+004,-2.30176855502923e+001,-9.91811256113331e-001

4.11245530662425e+004,-2.30176978761600e+001,-1.00565589381063e+000

4.16986304336447e+004,-2.30177105485206e+001,-1.01969377287973e+000

4.22807216224550e+004,-2.30177235771135e+001,-1.03392758991147e+000

4.28709385014515e+004,-2.30177369719515e+001,-1.04836007909882e+000

4.34693945010421e+004,-2.30177507433291e+001,-1.06299401276085e+000

4.40762046350642e+004,-2.30177649018300e+001,-1.07783220187204e+000

4.46914855228886e+004,-2.30177794583351e+001,-1.09287749660002e+000

4.53153554118317e+004,-2.30177944240313e+001,-1.10813278685223e+000

4.59479341998812e+004,-2.30178098104199e+001,-1.12360100282701e+000

4.65893434587380e+004,-2.30178256293251e+001,-1.13928511557517e+000

4.72397064571810e+004,-2.30178418929038e+001,-1.15518813756595e+000

4.78991481847569e+004,-2.30178586136539e+001,-1.17131312326643e+000

4.85677953758016e+004,-2.30178758044251e+001,-1.18766316972163e+000

4.92457765337964e+004,-2.30178934784279e+001,-1.20424141714918e+000

4.99332219560642e+004,-2.30179116492438e+001,-1.22105104953696e+000

5.06302637588109e+004,-2.30179303308361e+001,-1.23809529525430e+000

5.13370359025159e+004,-2.30179495375606e+001,-1.25537742766577e+000

5.20536742176771e+004,-2.30179692841761e+001,-1.27290076575826e+000

5.27803164309155e+004,-2.30179895858564e+001,-1.29066867477342e+000

5.35171021914442e+004,-2.30180104582013e+001,-1.30868456685203e+000

5.42641730979066e+004,-2.30180319172491e+001,-1.32695190168247e+000

5.50216727255895e+004,-2.30180539794888e+001,-1.34547418716384e+000

5.57897466540159e+004,-2.30180766618723e+001,-1.36425498007380e+000

5.65685424949235e+004,-2.30180999818279e+001,-1.38329788674733e+000

5.73582099206328e+004,-2.30181239572738e+001,-1.40260656376418e+000

5.81589006928121e+004,-2.30181486066311e+001,-1.42218471864690e+000

5.89707686916437e+004,-2.30181739488387e+001,-1.44203611056717e+000

5.97939699453972e+004,-2.30182000033675e+001,-1.46216455106280e+000

6.06286626604156e+004,-2.30182267902352e+001,-1.48257390476291e+000

6.14750072515201e+004,-2.30182543300219e+001,-1.50326809012595e+000

6.23331663728396e+004,-2.30182826438859e+001,-1.52425108018397e+000

6.32033049490698e+004,-2.30183117535795e+001,-1.54552690330111e+000

6.40855902071694e+004,-2.30183416814663e+001,-1.56709964393911e+000

6.49801917084985e+004,-2.30183724505379e+001,-1.58897344343509e+000

6.58872813814055e+004,-2.30184040844317e+001,-1.61115250078964e+000

6.68070335542691e+004,-2.30184366074489e+001,-1.63364107346552e+000

6.77396249890018e+004,-2.30184700445732e+001,-1.65644347819692e+000

6.86852349150199e+004,-2.30185044214902e+001,-1.67956409181006e+000

6.96440450636895e+004,-2.30185397646064e+001,-1.70300735205553e+000

7.06162397032520e+004,-2.30185761010703e+001,-1.72677775845089e+000

7.16020056742374e+004,-2.30186134587925e+001,-1.75087987313516e+000

7.26015324253724e+004,-2.30186518664676e+001,-1.77531832173476e+000

7.36150120499896e+004,-2.30186913535957e+001,-1.80009779424227e+000

7.46426393229441e+004,-2.30187319505053e+001,-1.82522304590515e+000

7.56846117380472e+004,-2.30187736883765e+001,-1.85069889812861e+000

7.67411295460207e+004,-2.30188165992649e+001,-1.87653023938857e+000

7.78123957929823e+004,-2.30188607161259e+001,-1.90272202615914e+000

7.88986163594682e+004,-2.30189060728405e+001,-1.92927928385040e+000

7.99999999999995e+004,-2.30189527042404e+001,-1.95620710776096e+000

8.11167583832018e+004,-2.30190006461356e+001,-1.98351066404181e+000

8.22491061324848e+004,-2.30190499353408e+001,-2.01119519067393e+000

8.33972608672892e+004,-2.30191006097047e+001,-2.03926599845857e+000

8.45614432449099e+004,-2.30191527081379e+001,-2.06772847202167e+000

8.57418770029029e+004,-2.30192062706434e+001,-2.09658807083060e+000

8.69387890020841e+004,-2.30192613383468e+001,-2.12585033022555e+000

8.81524092701283e+004,-2.30193179535281e+001,-2.15552086246379e+000

8.93829710457770e+004,-2.30193761596536e+001,-2.18560535777933e+000

9.06307108236633e+004,-2.30194360014096e+001,-2.21610958545475e+000

9.18958683997622e+004,-2.30194975247363e+001,-2.24703939490904e+000

9.31786869174758e+004,-2.30195607768628e+001,-2.27840071679945e+000

9.44794129143618e+004,-2.30196258063435e+001,-2.31019956413743e+000

9.57982963695136e+004,-2.30196926630951e+001,-2.34244203341997e+000

9.71355907516031e+004,-2.30197613984346e+001,-2.37513430577644e+000

9.84915530675926e+004,-2.30198320651187e+001,-2.40828264812884e+000

9.98664439121282e+004,-2.30199047173840e+001,-2.44189341436923e+000

1.01260527517622e+005,-2.30199794109884e+001,-2.47597304655223e+000

1.02674071805032e+005,-2.30200562032537e+001,-2.51052807610279e+000

1.04107348435354e+005,-2.30201351531094e+001,-2.54556512504000e+000

1.05560632861831e+005,-2.30202163211375e+001,-2.58109090721764e+000

1.07034204382888e+005,-2.30202997696191e+001,-2.61711222957986e+000

1.08528346195813e+005,-2.30203855625816e+001,-2.65363599343426e+000

1.10043345451179e+005,-2.30204737658473e+001,-2.69066919574158e+000

1.11579493308032e+005,-2.30205644470845e+001,-2.72821893042090e+000

1.13137084989847e+005,-2.30206576758579e+001,-2.76629238967471e+000

1.14716419841265e+005,-2.30207535236827e+001,-2.80489686532660e+000

1.16317801385624e+005,-2.30208520640783e+001,-2.84403975018206e+000

1.17941537383287e+005,-2.30209533726249e+001,-2.88372853940148e+000

1.19587939890794e+005,-2.30210575270207e+001,-2.92397083189451e+000

1.21257325320831e+005,-2.30211646071409e+001,-2.96477433173068e+000

1.22950014503040e+005,-2.30212746950993e+001,-3.00614684956850e+000

1.24666332745679e+005,-2.30213878753097e+001,-3.04809630410354e+000

1.26406609898139e+005,-2.30215042345511e+001,-3.09063072353338e+000

1.28171180414339e+005,-2.30216238620333e+001,-3.13375824704274e+000

1.29960383416997e+005,-2.30217468494643e+001,-3.17748712630802e+000

1.31774562762811e+005,-2.30218732911209e+001,-3.22182572701785e+000

1.33614067108538e+005,-2.30220032839197e+001,-3.26678253041630e+000

1.35479249978003e+005,-2.30221369274909e+001,-3.31236613486450e+000

1.37370469830040e+005,-2.30222743242539e+001,-3.35858525741987e+000

1.39288090127379e+005,-2.30224155794951e+001,-3.40544873543859e+000

1.41232479406504e+005,-2.30225608014481e+001,-3.45296552819460e+000

1.43204011348474e+005,-2.30227101013751e+001,-3.50114471852157e+000

1.45203064850745e+005,-2.30228635936519e+001,-3.54999551447339e+000

1.47230024099979e+005,-2.30230213958545e+001,-3.59952725100577e+000

1.49285278645888e+005,-2.30231836288478e+001,-3.64974939167882e+000

1.51369223476094e+005,-2.30233504168775e+001,-3.70067153037988e+000

1.53482259092041e+005,-2.30235218876642e+001,-3.75230339306780e+000

1.55624791585964e+005,-2.30236981724997e+001,-3.80465483953778e+000

1.57797232718936e+005,-2.30238794063468e+001,-3.85773586520883e+000

1.59999999999999e+005,-2.30240657279408e+001,-3.91155660293157e+000

1.62233516766403e+005,-2.30242572798948e+001,-3.96612732481735e+000

1.64498212264969e+005,-2.30244542088072e+001,-4.02145844409118e+000

1.66794521734578e+005,-2.30246566653723e+001,-4.07756051696421e+000

1.69122886489819e+005,-2.30248648044944e+001,-4.13444424452991e+000

1.71483754005805e+005,-2.30250787854040e+001,-4.19212047468220e+000

1.73877578004168e+005,-2.30252987717783e+001,-4.25060020405528e+000

1.76304818540256e+005,-2.30255249318646e+001,-4.30989457998661e+000

1.78765942091554e+005,-2.30257574386064e+001,-4.37001490250268e+000

1.81261421647326e+005,-2.30259964697741e+001,-4.43097262632701e+000

1.83791736799524e+005,-2.30262422080985e+001,-4.49277936291084e+000

1.86357373834951e+005,-2.30264948414079e+001,-4.55544688248811e+000

1.88958825828723e+005,-2.30267545627696e+001,-4.61898711615134e+000

1.91596592739027e+005,-2.30270215706343e+001,-4.68341215795320e+000

1.94271181503206e+005,-2.30272960689857e+001,-4.74873426702878e+000

1.96983106135185e+005,-2.30275782674924e+001,-4.81496586974311e+000

1.99732887824256e+005,-2.30278683816658e+001,-4.88211956186099e+000

2.02521055035243e+005,-2.30281666330209e+001,-4.95020811074086e+000

2.05348143610063e+005,-2.30284732492424e+001,-5.01924445755139e+000

2.08214696870707e+005,-2.30287884643541e+001,-5.08924171951233e+000

2.11121265723661e+005,-2.30291125188945e+001,-5.16021319215815e+000

2.14068408765776e+005,-2.30294456600958e+001,-5.23217235162601e+000

2.17056692391625e+005,-2.30297881420682e+001,-5.30513285696655e+000

2.20086690902357e+005,-2.30301402259892e+001,-5.37910855247835e+000

2.23158986616063e+005,-2.30305021802981e+001,-5.45411347006598e+000

2.26274169979693e+005,-2.30308742808954e+001,-5.53016183162132e+000

2.29432839682530e+005,-2.30312568113476e+001,-5.60726805142855e+000

2.32635602771247e+005,-2.30316500630979e+001,-5.68544673859145e+000

2.35883074766574e+005,-2.30320543356821e+001,-5.76471269948566e+000

2.39175879781588e+005,-2.30324699369502e+001,-5.84508094023154e+000

2.42514650641661e+005,-2.30328971832945e+001,-5.92656666919219e+000

2.45900029006080e+005,-2.30333363998831e+001,-6.00918529949275e+000

2.49332665491357e+005,-2.30337879208998e+001,-6.09295245156332e+000

2.52813219796278e+005,-2.30342520897908e+001,-6.17788395570306e+000

2.56342360828676e+005,-2.30347292595172e+001,-6.26399585466773e+000

2.59920766833993e+005,-2.30352197928148e+001,-6.35130440627786e+000

2.63549125525621e+005,-2.30357240624605e+001,-6.43982608604958e+000

2.67228134217075e+005,-2.30362424515457e+001,-6.52957758984640e+000

2.70958499956006e+005,-2.30367753537566e+001,-6.62057583655163e+000

2.74740939660078e+005,-2.30373231736629e+001,-6.71283797076212e+000

2.78576180254757e+005,-2.30378863270126e+001,-6.80638136550119e+000

2.82464958813007e+005,-2.30384652410357e+001,-6.90122362495280e+000

2.86408022696948e+005,-2.30390603547551e+001,-6.99738258721410e+000

2.90406129701488e+005,-2.30396721193060e+001,-7.09487632706674e+000

2.94460048199957e+005,-2.30403009982634e+001,-7.19372315876749e+000

2.98570557291775e+005,-2.30409474679782e+001,-7.29394163885550e+000

3.02738446952187e+005,-2.30416120179214e+001,-7.39555056897768e+000

3.06964518184081e+005,-2.30422951510384e+001,-7.49856899873015e+000

3.11249583171928e+005,-2.30429973841113e+001,-7.60301622851542e+000

3.15594465437872e+005,-2.30437192481307e+001,-7.70891181241537e+000

3.19999999999997e+005,-2.30444612886773e+001,-7.81627556107761e+000

3.24467033532806e+005,-2.30452240663132e+001,-7.92512754461651e+000

3.28996424529938e+005,-2.30460081569828e+001,-8.03548809552569e+000

3.33589043469155e+005,-2.30468141524240e+001,-8.14737781160274e+000

3.38245772979638e+005,-2.30476426605902e+001,-8.26081755888521e+000

3.42967508011610e+005,-2.30484943060821e+001,-8.37582847459557e+000

3.47755156008335e+005,-2.30493697305910e+001,-8.49243197009459e+000

3.52609637080511e+005,-2.30502695933531e+001,-8.61064973384325e+000

3.57531884183106e+005,-2.30511945716145e+001,-8.73050373436916e+000

3.62522843294651e+005,-2.30521453611087e+001,-8.85201622323989e+000

3.67583473599047e+005,-2.30531226765450e+001,-8.97520973803807e+000

3.72714747669902e+005,-2.30541272521094e+001,-9.10010710533935e+000

3.77917651657445e+005,-2.30551598419777e+001,-9.22673144369165e+000

3.83193185478053e+005,-2.30562212208411e+001,-9.35510616659180e+000

3.88542363006410e+005,-2.30573121844444e+001,-9.48525498546106e+000

3.93966212270369e+005,-2.30584335501372e+001,-9.61720191261558e+000

3.99465775648511e+005,-2.30595861574391e+001,-9.75097126423062e+000

4.05042110070485e+005,-2.30607708686168e+001,-9.88658766329678e+000

4.10696287220124e+005,-2.30619885692770e+001,-1.00240760425664e+001

4.16429393741414e+005,-2.30632401689716e+001,-1.01634616474867e+001

4.22242531447321e+005,-2.30645266018178e+001,-1.03047700391198e+001

4.28136817531551e+005,-2.30658488271332e+001,-1.04480270970453e+001

4.34113384783250e+005,-2.30672078300848e+001,-1.05932590222433e+001

4.40173381804713e+005,-2.30686046223535e+001,-1.07404923399570e+001

4.46317973232124e+005,-2.30700402428140e+001,-1.08897539025295e+001

4.52548339959385e+005,-2.30715157582297e+001,-1.10410708922148e+001

4.58865679365059e+005,-2.30730322639634e+001,-1.11944708239581e+001

4.65271205542494e+005,-2.30745908847050e+001,-1.13499815481443e+001

4.71766149533147e+005,-2.30761927752140e+001,-1.15076312533087e+001

4.78351759563174e+005,-2.30778391210790e+001,-1.16674484688109e+001

4.85029301283321e+005,-2.30795311394945e+001,-1.18294620674638e+001

4.91800058012158e+005,-2.30812700800535e+001,-1.19937012681184e+001

4.98665330982714e+005,-2.30830572255585e+001,-1.21601956381980e+001

5.05626439592555e+005,-2.30848938928482e+001,-1.23289750961785e+001

5.12684721657352e+005,-2.30867814336433e+001,-1.25000699140132e+001

5.19841533667984e+005,-2.30887212354093e+001,-1.26735107194932e+001

5.27098251051240e+005,-2.30907147222367e+001,-1.28493284985451e+001

5.34456268434150e+005,-2.30927633557406e+001,-1.30275545974566e+001

5.41916999912011e+005,-2.30948686359771e+001,-1.32082207250278e+001

