Freq.,VOut,OutRef

1.00000000000000e+004,-2.63503241108537e+001,-3.93971325252530e-001

1.01395947979003e+004,-2.63503262424177e+001,-3.99470923039383e-001

1.02811382665607e+004,-2.63503284339071e+001,-4.05047290781365e-001

1.04246576084112e+004,-2.63503306870067e+001,-4.10701500079184e-001

1.05701804056138e+004,-2.63503330034484e+001,-4.16434637491863e-001

1.07177346253629e+004,-2.63503353850131e+001,-4.22247804741376e-001

1.08673486252606e+004,-2.63503378335313e+001,-4.28142118928493e-001

1.10190511587661e+004,-2.63503403508855e+001,-4.34118712742342e-001

1.11728713807222e+004,-2.63503429390108e+001,-4.40178734682645e-001

1.13288388529580e+004,-2.63503455998968e+001,-4.46323349276023e-001

1.14869835499703e+004,-2.63503483355890e+001,-4.52553737303202e-001

1.16473358646846e+004,-2.63503511481903e+001,-4.58871096023974e-001

1.18099266142953e+004,-2.63503540398628e+001,-4.65276639407248e-001

1.19747870461893e+004,-2.63503570128296e+001,-4.71771598362996e-001

1.21419488439505e+004,-2.63503600693760e+001,-4.78357220981807e-001

1.23114441334492e+004,-2.63503632118515e+001,-4.85034772771049e-001

1.24833054890161e+004,-2.63503664426720e+001,-4.91805536899257e-001

1.26575659397028e+004,-2.63503697643209e+001,-4.98670814443865e-001

1.28342589756290e+004,-2.63503731793517e+001,-5.05631924637566e-001

1.30134185544193e+004,-2.63503766903896e+001,-5.12690205125187e-001

1.31950791077289e+004,-2.63503803001335e+001,-5.19847012218277e-001

1.33792755478611e+004,-2.63503840113583e+001,-5.27103721156003e-001

1.35660432744767e+004,-2.63503878269169e+001,-5.34461726369204e-001

1.37554181813974e+004,-2.63503917497424e+001,-5.41922441747864e-001

1.39474366635040e+004,-2.63503957828502e+001,-5.49487300913245e-001

1.41421356237309e+004,-2.63503999293405e+001,-5.57157757492063e-001

1.43395524801583e+004,-2.63504041924009e+001,-5.64935285395034e-001

1.45397251732031e+004,-2.63504085753083e+001,-5.72821379102143e-001

1.47426921729110e+004,-2.63504130814319e+001,-5.80817553946550e-001

1.49484924863494e+004,-2.63504177142355e+001,-5.88925346407194e-001

1.51571656651040e+004,-2.63504224772803e+001,-5.97146314403315e-001

1.53687518128801e+004,-2.63504273742276e+001,-6.05482037592443e-001

1.55832915932100e+004,-2.63504324088417e+001,-6.13934117675622e-001

1.58008262372675e+004,-2.63504375849926e+001,-6.22504178701348e-001

1.60213975517924e+004,-2.63504429066592e+001,-6.31193867380832e-001

1.62450479271247e+004,-2.63504483779321e+001,-6.40004853401431e-001

1.64718203453514e+004,-2.63504540030169e+001,-6.48938829748669e-001

1.67017583885674e+004,-2.63504597862377e+001,-6.57997513028177e-001

1.69349062472505e+004,-2.63504657320397e+001,-6.67182643799233e-001

1.71713087287550e+004,-2.63504718449933e+001,-6.76495986904773e-001

1.74110112659224e+004,-2.63504781297975e+001,-6.85939331811323e-001

1.76540599258131e+004,-2.63504845912830e+001,-6.95514492953555e-001

1.79005014185594e+004,-2.63504912344166e+001,-7.05223310079503e-001

1.81503831063432e+004,-2.63504980643046e+001,-7.15067648605433e-001

1.84037530124975e+004,-2.63505050861969e+001,-7.25049399972610e-001

1.86606598307361e+004,-2.63505123054908e+001,-7.35170482011302e-001

1.89211529345119e+004,-2.63505197277355e+001,-7.45432839306101e-001

1.91852823865052e+004,-2.63505273586361e+001,-7.55838443570720e-001

1.94530989482457e+004,-2.63505352040579e+001,-7.66389294025258e-001

1.97246540898671e+004,-2.63505432700314e+001,-7.77087417779140e-001

1.99999999999999e+004,-2.63505515627562e+001,-7.87934870221131e-001

2.02791895958005e+004,-2.63505600886065e+001,-7.98933735410890e-001

2.05622765331213e+004,-2.63505688541354e+001,-8.10086126480584e-001

2.08493152168224e+004,-2.63505778660803e+001,-8.21394186037525e-001

2.11403608112276e+004,-2.63505871313681e+001,-8.32860086577739e-001

2.14354692507258e+004,-2.63505966571200e+001,-8.44486030899736e-001

2.17346972505211e+004,-2.63506064506578e+001,-8.56274252527567e-001

2.20381023175322e+004,-2.63506165195087e+001,-8.68227016138094e-001

2.23457427614443e+004,-2.63506268714118e+001,-8.80346617995204e-001

2.26576777059159e+004,-2.63506375143235e+001,-8.92635386390009e-001

2.29739670999406e+004,-2.63506484564237e+001,-9.05095682086219e-001

2.32946717293690e+004,-2.63506597061225e+001,-9.17729898771669e-001

2.36198532285905e+004,-2.63506712720662e+001,-9.30540463518134e-001

2.39495740923785e+004,-2.63506831631440e+001,-9.43529837244462e-001

2.42838976879009e+004,-2.63506953884952e+001,-9.56700515188707e-001

2.46228882668982e+004,-2.63507079575155e+001,-9.70055027385175e-001

2.49666109780322e+004,-2.63507208798652e+001,-9.83595939149177e-001

2.53151318794055e+004,-2.63507341654756e+001,-9.97325851567191e-001

2.56685179512580e+004,-2.63507478245574e+001,-1.01124740199536e+000

2.60268371088386e+004,-2.63507618676081e+001,-1.02536326456319e+000

2.63901582154578e+004,-2.63507763054204e+001,-1.03967615068581e+000

2.67585510957221e+004,-2.63507911490898e+001,-1.05418880958366e+000

2.71320865489533e+004,-2.63508064100244e+001,-1.06890402880445e+000

2.75108363627948e+004,-2.63508220999520e+001,-1.08382463476128e+000

2.78948733270080e+004,-2.63508382309306e+001,-1.09895349326902e+000

2.82842712474618e+004,-2.63508548153568e+001,-1.11429351009421e+000

2.86791049603164e+004,-2.63508718659754e+001,-1.12984763150943e+000

2.90794503464061e+004,-2.63508893958897e+001,-1.14561884485685e+000

2.94853843458219e+004,-2.63509074185709e+001,-1.16161017911968e+000

2.98969849726987e+004,-2.63509259478687e+001,-1.17782470549965e+000

3.03143313302078e+004,-2.63509449980222e+001,-1.19426553800398e+000

3.07375036257601e+004,-2.63509645836702e+001,-1.21093583404037e+000

3.11665831864199e+004,-2.63509847198634e+001,-1.22783879501953e+000

3.16016524745350e+004,-2.63510054220747e+001,-1.24497766696781e+000

3.20427951035848e+004,-2.63510267062122e+001,-1.26235574114409e+000

3.24900958542493e+004,-2.63510485886308e+001,-1.27997635466987e+000

3.29436406907028e+004,-2.63510710861450e+001,-1.29784289116606e+000

3.34035167771346e+004,-2.63510942160415e+001,-1.31595878139725e+000

3.38698124945009e+004,-2.63511179960928e+001,-1.33432750392714e+000

3.43426174575100e+004,-2.63511424445707e+001,-1.35295258578090e+000

3.48220225318448e+004,-2.63511675802603e+001,-1.37183760311838e+000

3.53081198516260e+004,-2.63511934224744e+001,-1.39098618191540e+000

3.58010028371187e+004,-2.63512199910685e+001,-1.41040199865407e+000

3.63007662126863e+004,-2.63512473064555e+001,-1.43008878102480e+000

3.68075060249948e+004,-2.63512753896221e+001,-1.45005030863390e+000

3.73213196614721e+004,-2.63513042621443e+001,-1.47029041372607e+000

3.78423058690237e+004,-2.63513339462044e+001,-1.49081298191082e+000

3.83705647730104e+004,-2.63513644646073e+001,-1.51162195290499e+000

3.89061978964912e+004,-2.63513958407991e+001,-1.53272132127944e+000

3.94493081797342e+004,-2.63514280988839e+001,-1.55411513722154e+000

3.99999999999998e+004,-2.63514612636431e+001,-1.57580750730293e+000

4.05583791916010e+004,-2.63514953605540e+001,-1.59780259526154e+000

4.11245530662425e+004,-2.63515304158095e+001,-1.62010462279249e+000

4.16986304336447e+004,-2.63515664563379e+001,-1.64271787035050e+000

4.22807216224550e+004,-2.63516035098243e+001,-1.66564667796059e+000

4.28709385014515e+004,-2.63516416047305e+001,-1.68889544604618e+000

4.34693945010421e+004,-2.63516807703182e+001,-1.71246863625983e+000

4.40762046350642e+004,-2.63517210366705e+001,-1.73637077233191e+000

4.46914855228886e+004,-2.63517624347153e+001,-1.76060644092903e+000

4.53153554118317e+004,-2.63518049962489e+001,-1.78518029252157e+000

4.59479341998812e+004,-2.63518487539604e+001,-1.81009704226634e+000

4.65893434587380e+004,-2.63518937414569e+001,-1.83536147089921e+000

4.72397064571810e+004,-2.63519399932886e+001,-1.86097842564093e+000

4.78991481847569e+004,-2.63519875449763e+001,-1.88695282111349e+000

4.85677953758016e+004,-2.63520364330374e+001,-1.91328964027050e+000

4.92457765337964e+004,-2.63520866950150e+001,-1.93999393533918e+000

4.99332219560642e+004,-2.63521383695056e+001,-1.96707082877576e+000

5.06302637588109e+004,-2.63521914961896e+001,-1.99452551423296e+000

5.13370359025159e+004,-2.63522461158610e+001,-2.02236325753978e+000

5.20536742176771e+004,-2.63523022704585e+001,-2.05058939769738e+000

5.27803164309155e+004,-2.63523600030985e+001,-2.07920934788401e+000

5.35171021914442e+004,-2.63524193581069e+001,-2.10822859647690e+000

5.42641730979066e+004,-2.63524803810540e+001,-2.13765270808603e+000

5.50216727255895e+004,-2.63525431187888e+001,-2.16748732460251e+000

5.57897466540159e+004,-2.63526076194746e+001,-2.19773816626008e+000

5.65685424949235e+004,-2.63526739326268e+001,-2.22841103271070e+000

5.73582099206328e+004,-2.63527421091496e+001,-2.25951180411611e+000

5.81589006928121e+004,-2.63528122013755e+001,-2.29104644225153e+000

5.89707686916437e+004,-2.63528842631055e+001,-2.32302099162556e+000

5.97939699453972e+004,-2.63529583496495e+001,-2.35544158061352e+000

6.06286626604156e+004,-2.63530345178692e+001,-2.38831442260798e+000

6.14750072515201e+004,-2.63531128262211e+001,-2.42164581718162e+000

6.23331663728396e+004,-2.63531933348015e+001,-2.45544215126744e+000

6.32033049490698e+004,-2.63532761053921e+001,-2.48970990035335e+000

6.40855902071694e+004,-2.63533612015071e+001,-2.52445562969357e+000

6.49801917084985e+004,-2.63534486884420e+001,-2.55968599553382e+000

6.58872813814055e+004,-2.63535386333233e+001,-2.59540774635494e+000

6.68070335542691e+004,-2.63536311051592e+001,-2.63162772413094e+000

6.77396249890018e+004,-2.63537261748932e+001,-2.66835286560414e+000

6.86852349150199e+004,-2.63538239154571e+001,-2.70559020357638e+000

6.96440450636895e+004,-2.63539244018276e+001,-2.74334686821779e+000

7.06162397032520e+004,-2.63540277110827e+001,-2.78163008839100e+000

7.16020056742374e+004,-2.63541339224608e+001,-2.82044719299425e+000

7.26015324253724e+004,-2.63542431174207e+001,-2.85980561231971e+000

7.36150120499896e+004,-2.63543553797045e+001,-2.89971287943072e+000

7.46426393229441e+004,-2.63544707953999e+001,-2.94017663155685e+000

7.56846117380472e+004,-2.63545894530071e+001,-2.98120461150472e+000

7.67411295460207e+004,-2.63547114435055e+001,-3.02280466908859e+000

7.78123957929823e+004,-2.63548368604230e+001,-3.06498476257883e+000

7.88986163594682e+004,-2.63549657999068e+001,-3.10775296016798e+000

7.99999999999995e+004,-2.63550983607972e+001,-3.15111744145600e+000

8.11167583832018e+004,-2.63552346447021e+001,-3.19508649895294e+000

8.22491061324848e+004,-2.63553747560744e+001,-3.23966853960282e+000

8.33972608672892e+004,-2.63555188022914e+001,-3.28487208632356e+000

8.45614432449099e+004,-2.63556668937361e+001,-3.33070577956824e+000

8.57418770029029e+004,-2.63558191438812e+001,-3.37717837890438e+000

8.69387890020841e+004,-2.63559756693752e+001,-3.42429876461416e+000

8.81524092701283e+004,-2.63561365901304e+001,-3.47207593931204e+000

8.93829710457770e+004,-2.63563020294145e+001,-3.52051902958485e+000

9.06307108236633e+004,-2.63564721139436e+001,-3.56963728764929e+000

9.18958683997622e+004,-2.63566469739779e+001,-3.61944009303223e+000

9.31786869174758e+004,-2.63568267434210e+001,-3.66993695426815e+000

9.44794129143618e+004,-2.63570115599208e+001,-3.72113751061990e+000

9.57982963695136e+004,-2.63572015649735e+001,-3.77305153381897e+000

9.71355907516031e+004,-2.63573969040312e+001,-3.82568892982521e+000

9.84915530675926e+004,-2.63575977266111e+001,-3.87905974060951e+000

9.98664439121282e+004,-2.63578041864088e+001,-3.93317414595666e+000

1.01260527517622e+005,-2.63580164414144e+001,-3.98804246528849e+000

1.02674071805032e+005,-2.63582346540316e+001,-4.04367515950964e+000

1.04107348435354e+005,-2.63584589912001e+001,-4.10008283287367e+000

1.05560632861831e+005,-2.63586896245216e+001,-4.15727623487140e+000

1.07034204382888e+005,-2.63589267303893e+001,-4.21526626214015e+000

1.08528346195813e+005,-2.63591704901200e+001,-4.27406396039568e+000

1.10043345451179e+005,-2.63594210900914e+001,-4.33368052638428e+000

1.11579493308032e+005,-2.63596787218817e+001,-4.39412730985903e+000

1.13137084989847e+005,-2.63599435824137e+001,-4.45541581557633e+000

1.14716419841265e+005,-2.63602158741031e+001,-4.51755770531423e+000

1.16317801385624e+005,-2.63604958050096e+001,-4.58056479991489e+000

1.17941537383287e+005,-2.63607835889939e+001,-4.64444908134674e+000

1.19587939890794e+005,-2.63610794458776e+001,-4.70922269479124e+000

1.21257325320831e+005,-2.63613836016075e+001,-4.77489795074961e+000

1.22950014503040e+005,-2.63616962884254e+001,-4.84148732717388e+000

1.24666332745679e+005,-2.63620177450415e+001,-4.90900347161840e+000

1.26406609898139e+005,-2.63623482168126e+001,-4.97745920341552e+000

1.28171180414339e+005,-2.63626879559255e+001,-5.04686751587198e+000

1.29960383416997e+005,-2.63630372215855e+001,-5.11724157848855e+000

1.31774562762811e+005,-2.63633962802090e+001,-5.18859473920130e+000

1.33614067108538e+005,-2.63637654056223e+001,-5.26094052664569e+000

1.35479249978003e+005,-2.63641448792655e+001,-5.33429265244215e+000

1.37370469830040e+005,-2.63645349904016e+001,-5.40866501350410e+000

1.39288090127379e+005,-2.63649360363312e+001,-5.48407169436765e+000

1.41232479406504e+005,-2.63653483226134e+001,-5.56052696954349e+000

1.43204011348474e+005,-2.63657721632922e+001,-5.63804530589034e+000

1.45203064850745e+005,-2.63662078811292e+001,-5.71664136500926e+000

1.47230024099979e+005,-2.63666558078419e+001,-5.79633000566088e+000

1.49285278645888e+005,-2.63671162843497e+001,-5.87712628620185e+000

1.51369223476094e+005,-2.63675896610247e+001,-5.95904546704382e+000

1.53482259092041e+005,-2.63680762979504e+001,-6.04210301313223e+000

1.55624791585964e+005,-2.63685765651869e+001,-6.12631459644627e+000

1.57797232718936e+005,-2.63690908430430e+001,-6.21169609851800e+000

1.59999999999999e+005,-2.63696195223555e+001,-6.29826361297220e+000

1.62233516766403e+005,-2.63701630047761e+001,-6.38603344808501e+000

1.64498212264969e+005,-2.63707217030656e+001,-6.47502212936248e+000

1.66794521734578e+005,-2.63712960413959e+001,-6.56524640213697e+000

1.69122886489819e+005,-2.63718864556596e+001,-6.65672323418231e+000

1.71483754005805e+005,-2.63724933937887e+001,-6.74946981834658e+000

1.73877578004168e+005,-2.63731173160802e+001,-6.84350357520183e+000

1.76304818540256e+005,-2.63737586955313e+001,-6.93884215571177e+000

1.78765942091554e+005,-2.63744180181827e+001,-7.03550344391365e+000

1.81261421647326e+005,-2.63750957834709e+001,-7.13350555961734e+000

1.83791736799524e+005,-2.63757925045902e+001,-7.23286686111821e+000

1.86357373834951e+005,-2.63765087088626e+001,-7.33360594792524e+000

1.88958825828723e+005,-2.63772449381192e+001,-7.43574166350081e+000

1.91596592739027e+005,-2.63780017490892e+001,-7.53929309801526e+000

1.94271181503206e+005,-2.63787797138007e+001,-7.64427959111113e+000

1.96983106135185e+005,-2.63795794199909e+001,-7.75072073467950e+000

1.99732887824256e+005,-2.63804014715263e+001,-7.85863637564586e+000

2.02521055035243e+005,-2.63812464888344e+001,-7.96804661876514e+000

2.05348143610063e+005,-2.63821151093460e+001,-8.07897182942340e+000

2.08214696870707e+005,-2.63830079879480e+001,-8.19143263644839e+000

2.11121265723661e+005,-2.63839257974489e+001,-8.30544993492290e+000

2.14068408765776e+005,-2.63848692290546e+001,-8.42104488900502e+000

2.17056692391625e+005,-2.63858389928567e+001,-8.53823893474924e+000

2.20086690902357e+005,-2.63868358183329e+001,-8.65705378293019e+000

2.23158986616063e+005,-2.63878604548596e+001,-8.77751142186664e+000

2.26274169979693e+005,-2.63889136722373e+001,-8.89963412024296e+000

2.29432839682530e+005,-2.63899962612286e+001,-9.02344442992863e+000

2.32635602771247e+005,-2.63911090341095e+001,-9.14896518879274e+000

2.35883074766574e+005,-2.63922528252346e+001,-9.27621952351127e+000

2.39175879781588e+005,-2.63934284916147e+001,-9.40523085236743e+000

2.42514650641661e+005,-2.63946369135093e+001,-9.53602288804026e+000

2.45900029006080e+005,-2.63958789950338e+001,-9.66861964038135e+000

2.49332665491357e+005,-2.63971556647790e+001,-9.80304541917785e+000

2.52813219796278e+005,-2.63984678764482e+001,-9.93932483689763e+000

2.56342360828676e+005,-2.63998166095067e+001,-1.00774828114159e+001

2.59920766833993e+005,-2.64012028698482e+001,-1.02175445687206e+001

2.63549125525621e+005,-2.64026276904759e+001,-1.03595356455933e+001

2.67228134217075e+005,-2.64040921322000e+001,-1.05034818922637e+001

2.70958499956006e+005,-2.64055972843504e+001,-1.06494094750349e+001

2.74740939660078e+005,-2.64071442655063e+001,-1.07973448788756e+001

2.78576180254757e+005,-2.64087342242423e+001,-1.09473149099776e+001

2.82464958813007e+005,-2.64103683398913e+001,-1.10993466982750e+001

2.86408022696948e+005,-2.64120478233240e+001,-1.12534676999204e+001

2.90406129701488e+005,-2.64137739177463e+001,-1.14097056997180e+001

2.94460048199957e+005,-2.64155478995142e+001,-1.15680888135059e+001

2.98570557291775e+005,-2.64173710789656e+001,-1.17286454904873e+001

3.02738446952187e+005,-2.64192448012717e+001,-1.18914045155055e+001

3.06964518184081e+005,-2.64211704473048e+001,-1.20563950112579e+001

3.11249583171928e+005,-2.64231494345261e+001,-1.22236464404468e+001

3.15594465437872e+005,-2.64251832178910e+001,-1.23931886078608e+001

3.19999999999997e+005,-2.64272732907740e+001,-1.25650516623841e+001

3.24467033532806e+005,-2.64294211859123e+001,-1.27392660989266e+001

3.28996424529938e+005,-2.64316284763684e+001,-1.29158627602738e+001

3.33589043469155e+005,-2.64338967765125e+001,-1.30948728388483e+001

3.38245772979638e+005,-2.64362277430240e+001,-1.32763278783781e+001

3.42967508011610e+005,-2.64386230759126e+001,-1.34602597754695e+001

3.47755156008335e+005,-2.64410845195598e+001,-1.36467007810736e+001

3.52609637080511e+005,-2.64436138637789e+001,-1.38356835018483e+001

3.57531884183106e+005,-2.64462129448965e+001,-1.40272409014012e+001

3.62522843294651e+005,-2.64488836468525e+001,-1.42214063014158e+001

3.67583473599047e+005,-2.64516279023211e+001,-1.44182133826476e+001

3.72714747669902e+005,-2.64544476938509e+001,-1.46176961857896e+001

3.77917651657445e+005,-2.64573450550261e+001,-1.48198891121963e+001

3.83193185478053e+005,-2.64603220716462e+001,-1.50248269244622e+001

3.88542363006410e+005,-2.64633808829267e+001,-1.52325447468456e+001

3.93966212270369e+005,-2.64665236827189e+001,-1.54430780655328e+001

3.99465775648511e+005,-2.64697527207492e+001,-1.56564627287333e+001

4.05042110070485e+005,-2.64730703038785e+001,-1.58727349465998e+001

4.10696287220124e+005,-2.64764787973797e+001,-1.60919312909641e+001

4.16429393741414e+005,-2.64799806262351e+001,-1.63140886948825e+001

4.22242531447321e+005,-2.64835782764517e+001,-1.65392444519804e+001

4.28136817531551e+005,-2.64872742963951e+001,-1.67674362155898e+001

4.34113384783250e+005,-2.64910712981411e+001,-1.69987019976694e+001

4.40173381804713e+005,-2.64949719588450e+001,-1.72330801675010e+001

4.46317973232124e+005,-2.64989790221272e+001,-1.74706094501490e+001

4.52548339959385e+005,-2.65030952994761e+001,-1.77113289246795e+001

4.58865679365059e+005,-2.65073236716657e+001,-1.79552780221249e+001

4.65271205542494e+005,-2.65116670901891e+001,-1.82024965231873e+001

4.71766149533147e+005,-2.65161285787058e+001,-1.84530245556696e+001

4.78351759563174e+005,-2.65207112345029e+001,-1.87069025916264e+001

4.85029301283321e+005,-2.65254182299684e+001,-1.89641714442226e+001

4.91800058012158e+005,-2.65302528140772e+001,-1.92248722642917e+001

4.98665330982714e+005,-2.65352183138862e+001,-1.94890465365816e+001

5.05626439592555e+005,-2.65403181360408e+001,-1.97567360756806e+001

5.12684721657352e+005,-2.65455557682880e+001,-2.00279830216101e+001

5.19841533667984e+005,-2.65509347809980e+001,-2.03028298350760e+001

5.27098251051240e+005,-2.65564588286903e+001,-2.05813192923673e+001

5.34456268434150e+005,-2.65621316515649e+001,-2.08634944798916e+001

5.41916999912011e+005,-2.65679570770356e+001,-2.11493987883381e+001

