Freq.,VOut,OutRef

1.00000000000000e+004,-1.22166810379602e+000,-1.63112766994919e-001

1.01395947979003e+004,-1.22166801524305e+000,-1.65389737195369e-001

1.02811382665607e+004,-1.22166792420052e+000,-1.67698492750300e-001

1.04246576084112e+004,-1.22166783059850e+000,-1.70039477368105e-001

1.05701804056138e+004,-1.22166773436483e+000,-1.72413140952379e-001

1.07177346253629e+004,-1.22166763542582e+000,-1.74819939684388e-001

1.08673486252606e+004,-1.22166753370510e+000,-1.77260336116968e-001

1.10190511587661e+004,-1.22166742912473e+000,-1.79734799256774e-001

1.11728713807222e+004,-1.22166732160430e+000,-1.82243804659373e-001

1.13288388529580e+004,-1.22166721106093e+000,-1.84787834520155e-001

1.14869835499703e+004,-1.22166709740988e+000,-1.87367377762384e-001

1.16473358646846e+004,-1.22166698056355e+000,-1.89982930138309e-001

1.18099266142953e+004,-1.22166686043237e+000,-1.92634994317060e-001

1.19747870461893e+004,-1.22166673692375e+000,-1.95324079988179e-001

1.21419488439505e+004,-1.22166660994289e+000,-1.98050703953986e-001

1.23114441334492e+004,-1.22166647939213e+000,-2.00815390232067e-001

1.24833054890161e+004,-1.22166634517112e+000,-2.03618670155145e-001

1.26575659397028e+004,-1.22166620717658e+000,-2.06461082473519e-001

1.28342589756290e+004,-1.22166606530269e+000,-2.09343173456467e-001

1.30134185544193e+004,-1.22166591944002e+000,-2.12265497002435e-001

1.31950791077289e+004,-1.22166576947669e+000,-2.15228614738630e-001

1.33792755478611e+004,-1.22166561529731e+000,-2.18233096134375e-001

1.35660432744767e+004,-1.22166545678342e+000,-2.21279518607895e-001

1.37554181813974e+004,-1.22166529381306e+000,-2.24368467638782e-001

1.39474366635040e+004,-1.22166512626101e+000,-2.27500536878715e-001

1.41421356237309e+004,-1.22166495399853e+000,-2.30676328266797e-001

1.43395524801583e+004,-1.22166477689311e+000,-2.33896452145851e-001

1.45397251732031e+004,-1.22166459480850e+000,-2.37161527379098e-001

1.47426921729110e+004,-1.22166440760493e+000,-2.40472181466737e-001

1.49484924863494e+004,-1.22166421513834e+000,-2.43829050671475e-001

1.51571656651040e+004,-1.22166401726082e+000,-2.47232780136177e-001

1.53687518128801e+004,-1.22166381382033e+000,-2.50684024010565e-001

1.55832915932100e+004,-1.22166360466031e+000,-2.54183445576372e-001

1.58008262372675e+004,-1.22166338962002e+000,-2.57731717374460e-001

1.60213975517924e+004,-1.22166316853416e+000,-2.61329521333873e-001

1.62450479271247e+004,-1.22166294123283e+000,-2.64977548902986e-001

1.64718203453514e+004,-1.22166270754133e+000,-2.68676501183038e-001

1.67017583885674e+004,-1.22166246727975e+000,-2.72427089064053e-001

1.69349062472505e+004,-1.22166222026364e+000,-2.76230033357005e-001

1.71713087287550e+004,-1.22166196630295e+000,-2.80086064937882e-001

1.74110112659224e+004,-1.22166170520259e+000,-2.83995924883571e-001

1.76540599258131e+004,-1.22166143676178e+000,-2.87960364617894e-001

1.79005014185594e+004,-1.22166116077404e+000,-2.91980146054077e-001

1.81503831063432e+004,-1.22166087702740e+000,-2.96056041740769e-001

1.84037530124975e+004,-1.22166058530358e+000,-3.00188835012240e-001

1.86606598307361e+004,-1.22166028537844e+000,-3.04379320137193e-001

1.89211529345119e+004,-1.22165997702127e+000,-3.08628302473791e-001

1.91852823865052e+004,-1.22165965999507e+000,-3.12936598621501e-001

1.94530989482457e+004,-1.22165933405621e+000,-3.17305036579545e-001

1.97246540898671e+004,-1.22165899895404e+000,-3.21734455906845e-001

1.99999999999999e+004,-1.22165865443097e+000,-3.26225707881968e-001

2.02791895958005e+004,-1.22165830022219e+000,-3.30779655667358e-001

2.05622765331213e+004,-1.22165793605536e+000,-3.35397174475554e-001

2.08493152168224e+004,-1.22165756165050e+000,-3.40079151736963e-001

2.11403608112276e+004,-1.22165717671984e+000,-3.44826487270365e-001

2.14354692507258e+004,-1.22165678096746e+000,-3.49640093455858e-001

2.17346972505211e+004,-1.22165637408910e+000,-3.54520895411355e-001

2.20381023175322e+004,-1.22165595577201e+000,-3.59469831168551e-001

2.23457427614443e+004,-1.22165552569454e+000,-3.64487851855006e-001

2.26576777059159e+004,-1.22165508352621e+000,-3.69575921874764e-001

2.29739670999406e+004,-1.22165462892691e+000,-3.74735019097146e-001

2.32946717293690e+004,-1.22165416154735e+000,-3.79966135040856e-001

2.36198532285905e+004,-1.22165368102820e+000,-3.85270275067070e-001

2.39495740923785e+004,-1.22165318700005e+000,-3.90648458572206e-001

2.42838976879009e+004,-1.22165267908308e+000,-3.96101719183744e-001

2.46228882668982e+004,-1.22165215688691e+000,-4.01631104958381e-001

2.49666109780322e+004,-1.22165162000999e+000,-4.07237678584752e-001

2.53151318794055e+004,-1.22165106803976e+000,-4.12922517585807e-001

2.56685179512580e+004,-1.22165050055178e+000,-4.18686714528222e-001

2.60268371088386e+004,-1.22164991710986e+000,-4.24531377230464e-001

2.63901582154578e+004,-1.22164931726545e+000,-4.30457628977094e-001

2.67585510957221e+004,-1.22164870055755e+000,-4.36466608733259e-001

2.71320865489533e+004,-1.22164806651195e+000,-4.42559471366000e-001

2.75108363627948e+004,-1.22164741464128e+000,-4.48737387863840e-001

2.78948733270080e+004,-1.22164674444445e+000,-4.55001545562777e-001

2.82842712474618e+004,-1.22164605540626e+000,-4.61353148375021e-001

2.86791049603164e+004,-1.22164534699709e+000,-4.67793417019471e-001

2.90794503464061e+004,-1.22164461867223e+000,-4.74323589258226e-001

2.94853843458219e+004,-1.22164386987191e+000,-4.80944920131697e-001

2.98969849726987e+004,-1.22164310002049e+000,-4.87658682202621e-001

3.03143313302078e+004,-1.22164230852617e+000,-4.94466165798721e-001

3.07375036257601e+004,-1.22164149478055e+000,-5.01368679261871e-001

3.11665831864199e+004,-1.22164065815805e+000,-5.08367549199547e-001

3.16016524745350e+004,-1.22163979801554e+000,-5.15464120739865e-001

3.20427951035848e+004,-1.22163891369186e+000,-5.22659757788834e-001

3.24900958542493e+004,-1.22163800450724e+000,-5.29955843295231e-001

3.29436406907028e+004,-1.22163706976271e+000,-5.37353779514147e-001

3.34035167771346e+004,-1.22163610873977e+000,-5.44854988277367e-001

3.38698124945009e+004,-1.22163512069976e+000,-5.52460911266842e-001

3.43426174575100e+004,-1.22163410488306e+000,-5.60173010292371e-001

3.48220225318448e+004,-1.22163306050891e+000,-5.67992767571425e-001

3.53081198516260e+004,-1.22163198677438e+000,-5.75921686015317e-001

3.58010028371187e+004,-1.22163088285427e+000,-5.83961289516950e-001

3.63007662126863e+004,-1.22162974789987e+000,-5.92113123245834e-001

3.68075060249948e+004,-1.22162858103883e+000,-6.00378753942423e-001

3.73213196614721e+004,-1.22162738137410e+000,-6.08759770222550e-001

3.78423058690237e+004,-1.22162614798368e+000,-6.17257782878752e-001

3.83705647730104e+004,-1.22162487991932e+000,-6.25874425195229e-001

3.89061978964912e+004,-1.22162357620646e+000,-6.34611353256638e-001

3.94493081797342e+004,-1.22162223584290e+000,-6.43470246270889e-001

3.99999999999998e+004,-1.22162085779823e+000,-6.52452806889338e-001

4.05583791916010e+004,-1.22161944101331e+000,-6.61560761535088e-001

4.11245530662425e+004,-1.22161798439912e+000,-6.70795860734841e-001

4.16986304336447e+004,-1.22161648683600e+000,-6.80159879455694e-001

4.22807216224550e+004,-1.22161494717276e+000,-6.89654617446909e-001

4.28709385014515e+004,-1.22161336422603e+000,-6.99281899584706e-001

4.34693945010421e+004,-1.22161173677900e+000,-7.09043576224669e-001

4.40762046350642e+004,-1.22161006358082e+000,-7.18941523556444e-001

4.46914855228886e+004,-1.22160834334530e+000,-7.28977643965839e-001

4.53153554118317e+004,-1.22160657475021e+000,-7.39153866399388e-001

4.59479341998812e+004,-1.22160475643620e+000,-7.49472146735722e-001

4.65893434587380e+004,-1.22160288700559e+000,-7.59934468162539e-001

4.72397064571810e+004,-1.22160096502157e+000,-7.70542841556824e-001

4.78991481847569e+004,-1.22159898900674e+000,-7.81299305873191e-001

4.85677953758016e+004,-1.22159695744237e+000,-7.92205928533798e-001

4.92457765337964e+004,-1.22159486876693e+000,-8.03264805828535e-001

4.99332219560642e+004,-1.22159272137507e+000,-8.14478063316327e-001

5.06302637588109e+004,-1.22159051361623e+000,-8.25847856235371e-001

5.13370359025159e+004,-1.22158824379357e+000,-8.37376369916381e-001

5.20536742176771e+004,-1.22158591016249e+000,-8.49065820204387e-001

5.27803164309155e+004,-1.22158351092934e+000,-8.60918453884052e-001

5.35171021914442e+004,-1.22158104425017e+000,-8.72936549111793e-001

5.42641730979066e+004,-1.22157850822909e+000,-8.85122415855223e-001

5.50216727255895e+004,-1.22157590091694e+000,-8.97478396336542e-001

5.57897466540159e+004,-1.22157322030978e+000,-9.10006865483275e-001

5.65685424949235e+004,-1.22157046434756e+000,-9.22710231385102e-001

5.73582099206328e+004,-1.22156763091196e+000,-9.35590935758362e-001

5.81589006928121e+004,-1.22156471782543e+000,-9.48651454414420e-001

5.89707686916437e+004,-1.22156172284912e+000,-9.61894297736562e-001

5.97939699453972e+004,-1.22155864368115e+000,-9.75322011163838e-001

6.06286626604156e+004,-1.22155547795522e+000,-9.88937175679308e-001

6.14750072515201e+004,-1.22155222323828e+000,-1.00274240830833e+000

6.23331663728396e+004,-1.22154887702906e+000,-1.01674036262118e+000

6.32033049490698e+004,-1.22154543675589e+000,-1.03093372924462e+000

6.40855902071694e+004,-1.22154189977492e+000,-1.04532523637875e+000

6.49801917084985e+004,-1.22153826336791e+000,-1.05991765032318e+000

6.58872813814055e+004,-1.22153452474042e+000,-1.07471377600778e+000

6.68070335542691e+004,-1.22153068101934e+000,-1.08971645753481e+000

6.77396249890018e+004,-1.22152672925082e+000,-1.10492857872541e+000

6.86852349150199e+004,-1.22152266639802e+000,-1.12035306367427e+000

6.96440450636895e+004,-1.22151848933887e+000,-1.13599287731281e+000

7.06162397032520e+004,-1.22151419486342e+000,-1.15185102598110e+000

7.16020056742374e+004,-1.22150977967168e+000,-1.16793055800473e+000

7.26015324253724e+004,-1.22150524037088e+000,-1.18423456428336e+000

7.36150120499896e+004,-1.22150057347283e+000,-1.20076617888575e+000

7.46426393229441e+004,-1.22149577539147e+000,-1.21752857965222e+000

7.56846117380472e+004,-1.22149084243998e+000,-1.23452498880743e+000

7.67411295460207e+004,-1.22148577082780e+000,-1.25175867358130e+000

7.78123957929823e+004,-1.22148055665810e+000,-1.26923294683717e+000

7.88986163594682e+004,-1.22147519592441e+000,-1.28695116771091e+000

7.99999999999995e+004,-1.22146968450777e+000,-1.30491674225774e+000

8.11167583832018e+004,-1.22146401817347e+000,-1.32313312410755e+000

8.22491061324848e+004,-1.22145819256782e+000,-1.34160381513202e+000

8.33972608672892e+004,-1.22145220321496e+000,-1.36033236611695e+000

8.45614432449099e+004,-1.22144604551314e+000,-1.37932237744835e+000

8.57418770029029e+004,-1.22143971473139e+000,-1.39857749980543e+000

8.69387890020841e+004,-1.22143320600589e+000,-1.41810143486410e+000

8.81524092701283e+004,-1.22142651433618e+000,-1.43789793601049e+000

8.93829710457770e+004,-1.22141963458123e+000,-1.45797080906436e+000

9.06307108236633e+004,-1.22141256145586e+000,-1.47832391301194e+000

9.18958683997622e+004,-1.22140528952622e+000,-1.49896116075129e+000

9.31786869174758e+004,-1.22139781320595e+000,-1.51988651984539e+000

9.44794129143618e+004,-1.22139012675170e+000,-1.54110401328790e+000

9.57982963695136e+004,-1.22138222425892e+000,-1.56261772027770e+000

9.71355907516031e+004,-1.22137409965721e+000,-1.58443177700683e+000

9.84915530675926e+004,-1.22136574670566e+000,-1.60655037745734e+000

9.98664439121282e+004,-1.22135715898815e+000,-1.62897777421031e+000

1.01260527517622e+005,-1.22134832990833e+000,-1.65171827926660e+000

1.02674071805032e+005,-1.22133925268458e+000,-1.67477626487827e+000

1.04107348435354e+005,-1.22132992034508e+000,-1.69815616439138e+000

1.05560632861831e+005,-1.22132032572199e+000,-1.72186247310313e+000

1.07034204382888e+005,-1.22131046144631e+000,-1.74589974912796e+000

1.08528346195813e+005,-1.22130031994215e+000,-1.77027261427777e+000

1.10043345451179e+005,-1.22128989342093e+000,-1.79498575495356e+000

1.11579493308032e+005,-1.22127917387543e+000,-1.82004392305062e+000

1.13137084989847e+005,-1.22126815307359e+000,-1.84545193687564e+000

1.14716419841265e+005,-1.22125682255224e+000,-1.87121468207765e+000

1.16317801385624e+005,-1.22124517361073e+000,-1.89733711259017e+000

1.17941537383287e+005,-1.22123319730410e+000,-1.92382425158965e+000

1.19587939890794e+005,-1.22122088443635e+000,-1.95068119246440e+000

1.21257325320831e+005,-1.22120822555334e+000,-1.97791309980001e+000

1.22950014503040e+005,-1.22119521093567e+000,-2.00552521037534e+000

1.24666332745679e+005,-1.22118183059104e+000,-2.03352283417673e+000

1.26406609898139e+005,-1.22116807424689e+000,-2.06191135542230e+000

1.28171180414339e+005,-1.22115393134222e+000,-2.09069623360459e+000

1.29960383416997e+005,-1.22113939101976e+000,-2.11988300454491e+000

1.31774562762811e+005,-1.22112444211771e+000,-2.14947728146366e+000

1.33614067108538e+005,-1.22110907316093e+000,-2.17948475606732e+000

1.35479249978003e+005,-1.22109327235238e+000,-2.20991119964846e+000

1.37370469830040e+005,-1.22107702756409e+000,-2.24076246420236e+000

1.39288090127379e+005,-1.22106032632789e+000,-2.27204448355982e+000

1.41232479406504e+005,-1.22104315582575e+000,-2.30376327453565e+000

1.43204011348474e+005,-1.22102550288027e+000,-2.33592493809293e+000

1.45203064850745e+005,-1.22100735394436e+000,-2.36853566052551e+000

1.47230024099979e+005,-1.22098869509099e+000,-2.40160171465489e+000

1.49285278645888e+005,-1.22096951200261e+000,-2.43512946104594e+000

1.51369223476094e+005,-1.22094978996016e+000,-2.46912534923917e+000

1.53482259092041e+005,-1.22092951383187e+000,-2.50359591900087e+000

1.55624791585964e+005,-1.22090866806177e+000,-2.53854780159042e+000

1.57797232718936e+005,-1.22088723665762e+000,-2.57398772104668e+000

1.59999999999999e+005,-1.22086520317907e+000,-2.60992249549099e+000

1.62233516766403e+005,-1.22084255072476e+000,-2.64635903845104e+000

1.64498212264969e+005,-1.22081926191975e+000,-2.68330436020151e+000

1.66794521734578e+005,-1.22079531890204e+000,-2.72076556912513e+000

1.69122886489819e+005,-1.22077070330919e+000,-2.75874987309240e+000

1.71483754005805e+005,-1.22074539626407e+000,-2.79726458086176e+000

1.73877578004168e+005,-1.22071937836081e+000,-2.83631710349877e+000

1.76304818540256e+005,-1.22069262964979e+000,-2.87591495581709e+000

1.78765942091554e+005,-1.22066512962252e+000,-2.91606575783832e+000

1.81261421647326e+005,-1.22063685719611e+000,-2.95677723627391e+000

1.83791736799524e+005,-1.22060779069719e+000,-2.99805722602816e+000

1.86357373834951e+005,-1.22057790784546e+000,-3.03991367172240e+000

1.88958825828723e+005,-1.22054718573669e+000,-3.08235462924132e+000

1.91596592739027e+005,-1.22051560082548e+000,-3.12538826730116e+000

1.94271181503206e+005,-1.22048312890718e+000,-3.16902286904125e+000

1.96983106135185e+005,-1.22044974509971e+000,-3.21326683363772e+000

1.99732887824256e+005,-1.22041542382458e+000,-3.25812867793996e+000

2.02521055035243e+005,-1.22038013878745e+000,-3.30361703813243e+000

2.05348143610063e+005,-1.22034386295832e+000,-3.34974067141861e+000

2.08214696870707e+005,-1.22030656855094e+000,-3.39650845773003e+000

2.11121265723661e+005,-1.22026822700181e+000,-3.44392940146009e+000

2.14068408765776e+005,-1.22022880894857e+000,-3.49201263322259e+000

2.17056692391625e+005,-1.22018828420769e+000,-3.54076741163624e+000

2.20086690902357e+005,-1.22014662175171e+000,-3.59020312513435e+000

2.23158986616063e+005,-1.22010378968581e+000,-3.64032929380092e+000

2.26274169979693e+005,-1.22005975522358e+000,-3.69115557123435e+000

2.29432839682530e+005,-1.22001448466235e+000,-3.74269174643656e+000

2.32635602771247e+005,-1.21996794335774e+000,-3.79494774573083e+000

2.35883074766574e+005,-1.21992009569744e+000,-3.84793363470713e+000

2.39175879781588e+005,-1.21987090507444e+000,-3.90165962019609e+000

2.42514650641661e+005,-1.21982033385935e+000,-3.95613605227111e+000

2.45900029006080e+005,-1.21976834337203e+000,-4.01137342628107e+000

2.49332665491357e+005,-1.21971489385265e+000,-4.06738238491036e+000

2.52813219796278e+005,-1.21965994443150e+000,-4.12417372027213e+000

2.56342360828676e+005,-1.21960345309845e+000,-4.18175837603013e+000

2.59920766833993e+005,-1.21954537667129e+000,-4.24014744955204e+000

2.63549125525621e+005,-1.21948567076322e+000,-4.29935219409517e+000

2.67228134217075e+005,-1.21942428974973e+000,-4.35938402102363e+000

2.70958499956006e+005,-1.21936118673414e+000,-4.42025450205869e+000

2.74740939660078e+005,-1.21929631351265e+000,-4.48197537156190e+000

2.78576180254757e+005,-1.21922962053807e+000,-4.54455852885231e+000

2.82464958813007e+005,-1.21916105688279e+000,-4.60801604055807e+000

2.86408022696948e+005,-1.21909057020074e+000,-4.67236014300257e+000

2.90406129701488e+005,-1.21901810668813e+000,-4.73760324462659e+000

2.94460048199957e+005,-1.21894361104345e+000,-4.80375792844552e+000

2.98570557291775e+005,-1.21886702642600e+000,-4.87083695454444e+000

3.02738446952187e+005,-1.21878829441373e+000,-4.93885326260937e+000

3.06964518184081e+005,-1.21870735495951e+000,-5.00781997449733e+000

3.11249583171928e+005,-1.21862414634658e+000,-5.07775039684401e+000

3.15594465437872e+005,-1.21853860514265e+000,-5.14865802371116e+000

3.19999999999997e+005,-1.21845066615269e+000,-5.22055653927376e+000

3.24467033532806e+005,-1.21836026237070e+000,-5.29345982054716e+000

3.28996424529938e+005,-1.21826732492988e+000,-5.36738194015636e+000

3.33589043469155e+005,-1.21817178305174e+000,-5.44233716914620e+000

3.38245772979638e+005,-1.21807356399373e+000,-5.51833997983458e+000

3.42967508011610e+005,-1.21797259299541e+000,-5.59540504870912e+000

3.47755156008335e+005,-1.21786879322333e+000,-5.67354725936793e+000

3.52609637080511e+005,-1.21776208571449e+000,-5.75278170550449e+000

3.57531884183106e+005,-1.21765238931796e+000,-5.83312369393953e+000

3.62522843294651e+005,-1.21753962063547e+000,-5.91458874769787e+000

3.67583473599047e+005,-1.21742369395994e+000,-5.99719260913393e+000

3.72714747669902e+005,-1.21730452121274e+000,-6.08095124310408e+000

3.77917651657445e+005,-1.21718201187920e+000,-6.16588084018880e+000

3.83193185478053e+005,-1.21705607294229e+000,-6.25199781996444e+000

3.88542363006410e+005,-1.21692660881480e+000,-6.33931883432570e+000

3.93966212270369e+005,-1.21679352126962e+000,-6.42786077085941e+000

3.99465775648511e+005,-1.21665670936807e+000,-6.51764075627187e+000

4.05042110070485e+005,-1.21651606938677e+000,-6.60867615986856e+000

4.10696287220124e+005,-1.21637149474214e+000,-6.70098459708934e+000

4.16429393741414e+005,-1.21622287591332e+000,-6.79458393309859e+000

4.22242531447321e+005,-1.21607010036293e+000,-6.88949228643251e+000

4.28136817531551e+005,-1.21591305245572e+000,-6.98572803270325e+000

4.34113384783250e+005,-1.21575161337540e+000,-7.08330980836275e+000

4.40173381804713e+005,-1.21558566103898e+000,-7.18225651452590e+000

4.46317973232124e+005,-1.21541507000938e+000,-7.28258732085415e+000

4.52548339959385e+005,-1.21523971140529e+000,-7.38432166950269e+000

4.58865679365059e+005,-1.21505945280934e+000,-7.48747927912929e+000

4.65271205542494e+005,-1.21487415817336e+000,-7.59208014896916e+000

4.71766149533147e+005,-1.21468368772175e+000,-7.69814456297452e+000

4.78351759563174e+005,-1.21448789785204e+000,-7.80569309402208e+000

4.85029301283321e+005,-1.21428664103329e+000,-7.91474660818855e+000

4.91800058012158e+005,-1.21407976570186e+000,-8.02532626909565e+000

4.98665330982714e+005,-1.21386711615439e+000,-8.13745354232715e+000

5.05626439592555e+005,-1.21364853243849e+000,-8.25115019991761e+000

5.12684721657352e+005,-1.21342385024052e+000,-8.36643832491582e+000

5.19841533667984e+005,-1.21319290077071e+000,-8.48334031602312e+000

5.27098251051240e+005,-1.21295551064539e+000,-8.60187889230974e+000

5.34456268434150e+005,-1.21271150176654e+000,-8.72207709800889e+000

5.41916999912011e+005,-1.21246069119833e+000,-8.84395830739166e+000

