Freq.,VOut,OutRef

1.00000000000000e+004,-1.29547970057385e+001,-8.51777333598191e-002

1.01395947979003e+004,-1.29547970058952e+001,-8.63667702472494e-002

1.02811382665607e+004,-1.29547970060562e+001,-8.75724054731595e-002

1.04246576084112e+004,-1.29547970062218e+001,-8.87948707405924e-002

1.05701804056138e+004,-1.29547970063919e+001,-9.00344009903601e-002

1.07177346253629e+004,-1.29547970065670e+001,-9.12912344382024e-002

1.08673486252606e+004,-1.29547970067471e+001,-9.25656126291214e-002

1.10190511587661e+004,-1.29547970069320e+001,-9.38577804793151e-002

1.11728713807222e+004,-1.29547970071222e+001,-9.51679863230517e-002

1.13288388529580e+004,-1.29547970073180e+001,-9.64964819594016e-002

1.14869835499703e+004,-1.29547970075188e+001,-9.78435227086153e-002

1.16473358646846e+004,-1.29547970077257e+001,-9.92093674458518e-002

1.18099266142953e+004,-1.29547970079381e+001,-1.00594278669330e-001

1.19747870461893e+004,-1.29547970081566e+001,-1.01998522535348e-001

1.21419488439505e+004,-1.29547970083814e+001,-1.03422368917071e-001

1.23114441334492e+004,-1.29547970086123e+001,-1.04866091458210e-001

1.24833054890161e+004,-1.29547970088498e+001,-1.06329967616866e-001

1.26575659397028e+004,-1.29547970090939e+001,-1.07814278728671e-001

1.28342589756290e+004,-1.29547970093448e+001,-1.09319310054989e-001

1.30134185544193e+004,-1.29547970096030e+001,-1.10845350838126e-001

1.31950791077289e+004,-1.29547970098682e+001,-1.12392694361474e-001

1.33792755478611e+004,-1.29547970101410e+001,-1.13961637998838e-001

1.35660432744767e+004,-1.29547970104215e+001,-1.15552483276648e-001

1.37554181813974e+004,-1.29547970107097e+001,-1.17165535932248e-001

1.39474366635040e+004,-1.29547970110063e+001,-1.18801105966235e-001

1.41421356237309e+004,-1.29547970113110e+001,-1.20459507712935e-001

1.43395524801583e+004,-1.29547970116245e+001,-1.22141059888660e-001

1.45397251732031e+004,-1.29547970119465e+001,-1.23846085664247e-001

1.47426921729110e+004,-1.29547970122778e+001,-1.25574912716615e-001

1.49484924863494e+004,-1.29547970126183e+001,-1.27327873300707e-001

1.51571656651040e+004,-1.29547970129684e+001,-1.29105304308640e-001

1.53687518128801e+004,-1.29547970133283e+001,-1.30907547334156e-001

1.55832915932100e+004,-1.29547970136983e+001,-1.32734948740905e-001

1.58008262372675e+004,-1.29547970140789e+001,-1.34587859725611e-001

1.60213975517924e+004,-1.29547970144700e+001,-1.36466636391475e-001

1.62450479271247e+004,-1.29547970148723e+001,-1.38371639807978e-001

1.64718203453514e+004,-1.29547970152857e+001,-1.40303236088802e-001

1.67017583885674e+004,-1.29547970157109e+001,-1.42261796455885e-001

1.69349062472505e+004,-1.29547970161478e+001,-1.44247697315102e-001

1.71713087287550e+004,-1.29547970165971e+001,-1.46261320324828e-001

1.74110112659224e+004,-1.29547970170593e+001,-1.48303052471437e-001

1.76540599258131e+004,-1.29547970175342e+001,-1.50373286146079e-001

1.79005014185594e+004,-1.29547970180226e+001,-1.52472419214946e-001

1.81503831063432e+004,-1.29547970185246e+001,-1.54600855098607e-001

1.84037530124975e+004,-1.29547970190407e+001,-1.56759002850379e-001

1.86606598307361e+004,-1.29547970195715e+001,-1.58947277231102e-001

1.89211529345119e+004,-1.29547970201171e+001,-1.61166098795122e-001

1.91852823865052e+004,-1.29547970206780e+001,-1.63415893965336e-001

1.94530989482457e+004,-1.29547970212548e+001,-1.65697095116203e-001

1.97246540898671e+004,-1.29547970218477e+001,-1.68010140661084e-001

1.99999999999999e+004,-1.29547970224573e+001,-1.70355475131072e-001

2.02791895958005e+004,-1.29547970230841e+001,-1.72733549262809e-001

2.05622765331213e+004,-1.29547970237285e+001,-1.75144820085984e-001

2.08493152168224e+004,-1.29547970243910e+001,-1.77589751009758e-001

2.11403608112276e+004,-1.29547970250722e+001,-1.80068811911521e-001

2.14354692507258e+004,-1.29547970257725e+001,-1.82582479229793e-001

2.17346972505211e+004,-1.29547970264926e+001,-1.85131236051788e-001

2.20381023175322e+004,-1.29547970272328e+001,-1.87715572210720e-001

2.23457427614443e+004,-1.29547970279939e+001,-1.90335984374469e-001

2.26576777059159e+004,-1.29547970287763e+001,-1.92992976147873e-001

2.29739670999406e+004,-1.29547970295808e+001,-1.95687058163205e-001

2.32946717293690e+004,-1.29547970304080e+001,-1.98418748180614e-001

2.36198532285905e+004,-1.29547970312584e+001,-2.01188571190756e-001

2.39495740923785e+004,-1.29547970321326e+001,-2.03997059511041e-001

2.42838976879009e+004,-1.29547970330314e+001,-2.06844752890018e-001

2.46228882668982e+004,-1.29547970339556e+001,-2.09732198609741e-001

2.49666109780322e+004,-1.29547970349057e+001,-2.12659951594074e-001

2.53151318794055e+004,-1.29547970358827e+001,-2.15628574511823e-001

2.56685179512580e+004,-1.29547970368871e+001,-2.18638637887992e-001

2.60268371088386e+004,-1.29547970379196e+001,-2.21690720211123e-001

2.63901582154578e+004,-1.29547970389813e+001,-2.24785408043757e-001

2.67585510957221e+004,-1.29547970400728e+001,-2.27923296138873e-001

2.71320865489533e+004,-1.29547970411950e+001,-2.31104987550695e-001

2.75108363627948e+004,-1.29547970423488e+001,-2.34331093751484e-001

2.78948733270080e+004,-1.29547970435349e+001,-2.37602234751364e-001

2.82842712474618e+004,-1.29547970447546e+001,-2.40919039212235e-001

2.86791049603164e+004,-1.29547970460085e+001,-2.44282144575512e-001

2.90794503464061e+004,-1.29547970472978e+001,-2.47692197177570e-001

2.94853843458219e+004,-1.29547970486232e+001,-2.51149852380912e-001

2.98969849726987e+004,-1.29547970499858e+001,-2.54655774694168e-001

3.03143313302078e+004,-1.29547970513869e+001,-2.58210637901964e-001

3.07375036257601e+004,-1.29547970528274e+001,-2.61815125196378e-001

3.11665831864199e+004,-1.29547970543084e+001,-2.65469929305541e-001

3.16016524745350e+004,-1.29547970558311e+001,-2.69175752628287e-001

3.20427951035848e+004,-1.29547970573965e+001,-2.72933307368150e-001

3.24900958542493e+004,-1.29547970590061e+001,-2.76743315670776e-001

3.29436406907028e+004,-1.29547970606609e+001,-2.80606509763313e-001

3.34035167771346e+004,-1.29547970623624e+001,-2.84523632093598e-001

3.38698124945009e+004,-1.29547970641116e+001,-2.88495435475000e-001

3.43426174575100e+004,-1.29547970659100e+001,-2.92522683228603e-001

3.48220225318448e+004,-1.29547970677591e+001,-2.96606149331653e-001

3.53081198516260e+004,-1.29547970696602e+001,-3.00746618566055e-001

3.58010028371187e+004,-1.29547970716148e+001,-3.04944886668592e-001

3.63007662126863e+004,-1.29547970736244e+001,-3.09201760484749e-001

3.68075060249948e+004,-1.29547970756907e+001,-3.13518058121863e-001

3.73213196614721e+004,-1.29547970778150e+001,-3.17894609110785e-001

3.78423058690237e+004,-1.29547970799990e+001,-3.22332254559065e-001

3.83705647730104e+004,-1.29547970822446e+001,-3.26831847317457e-001

3.89061978964912e+004,-1.29547970845533e+001,-3.31394252142328e-001

3.94493081797342e+004,-1.29547970869270e+001,-3.36020345860789e-001

3.99999999999998e+004,-1.29547970893676e+001,-3.40711017540511e-001

4.05583791916010e+004,-1.29547970918768e+001,-3.45467168661142e-001

4.11245530662425e+004,-1.29547970944566e+001,-3.50289713285955e-001

4.16986304336447e+004,-1.29547970971091e+001,-3.55179578238118e-001

4.22807216224550e+004,-1.29547970998361e+001,-3.60137703279703e-001

4.28709385014515e+004,-1.29547971026400e+001,-3.65165041290053e-001

4.34693945010421e+004,-1.29547971055228e+001,-3.70262558452597e-001

4.40762046350642e+004,-1.29547971084868e+001,-3.75431234435667e-001

4.46914855228886e+004,-1.29547971115342e+001,-3.80672062586781e-001

4.53153554118317e+004,-1.29547971146675e+001,-3.85986050117266e-001

4.59479341998812e+004,-1.29547971178888e+001,-3.91374218301764e-001

4.65893434587380e+004,-1.29547971212009e+001,-3.96837602668189e-001

4.72397064571810e+004,-1.29547971246062e+001,-4.02377253203116e-001

4.78991481847569e+004,-1.29547971281076e+001,-4.07994234548917e-001

4.85677953758016e+004,-1.29547971317074e+001,-4.13689626211640e-001

4.92457765337964e+004,-1.29547971354086e+001,-4.19464522765617e-001

4.99332219560642e+004,-1.29547971392140e+001,-4.25320034065540e-001

5.06302637588109e+004,-1.29547971431267e+001,-4.31257285459419e-001

5.13370359025159e+004,-1.29547971471494e+001,-4.37277418006372e-001

5.20536742176771e+004,-1.29547971512856e+001,-4.43381588691502e-001

5.27803164309155e+004,-1.29547971555383e+001,-4.49570970652952e-001

5.35171021914442e+004,-1.29547971599106e+001,-4.55846753407130e-001

5.42641730979066e+004,-1.29547971644062e+001,-4.62210143072799e-001

5.50216727255895e+004,-1.29547971690284e+001,-4.68662362608213e-001

5.57897466540159e+004,-1.29547971737809e+001,-4.75204652042605e-001

5.65685424949235e+004,-1.29547971786673e+001,-4.81838268716887e-001

5.73582099206328e+004,-1.29547971836914e+001,-4.88564487523428e-001

5.81589006928121e+004,-1.29547971888569e+001,-4.95384601153216e-001

5.89707686916437e+004,-1.29547971941682e+001,-5.02299920340722e-001

5.97939699453972e+004,-1.29547971996290e+001,-5.09311774121375e-001

6.06286626604156e+004,-1.29547972052437e+001,-5.16421510080568e-001

6.14750072515201e+004,-1.29547972110168e+001,-5.23630494617731e-001

6.23331663728396e+004,-1.29547972169525e+001,-5.30940113207364e-001

6.32033049490698e+004,-1.29547972230556e+001,-5.38351770664349e-001

6.40855902071694e+004,-1.29547972293307e+001,-5.45866891414368e-001

6.49801917084985e+004,-1.29547972357828e+001,-5.53486919768975e-001

6.58872813814055e+004,-1.29547972424168e+001,-5.61213320201780e-001

6.68070335542691e+004,-1.29547972492378e+001,-5.69047577631187e-001

6.77396249890018e+004,-1.29547972562513e+001,-5.76991197703675e-001

6.86852349150199e+004,-1.29547972634626e+001,-5.85045707086154e-001

6.96440450636895e+004,-1.29547972708771e+001,-5.93212653757416e-001

7.06162397032520e+004,-1.29547972785010e+001,-6.01493607304717e-001

7.16020056742374e+004,-1.29547972863398e+001,-6.09890159229278e-001

7.26015324253724e+004,-1.29547972943999e+001,-6.18403923247878e-001

7.36150120499896e+004,-1.29547973026874e+001,-6.27036535606228e-001

7.46426393229441e+004,-1.29547973112088e+001,-6.35789655391328e-001

7.56846117380472e+004,-1.29547973199706e+001,-6.44664964852173e-001

7.67411295460207e+004,-1.29547973289798e+001,-6.53664169721687e-001

7.78123957929823e+004,-1.29547973382433e+001,-6.62788999545140e-001

7.88986163594682e+004,-1.29547973477682e+001,-6.72041208013471e-001

7.99999999999995e+004,-1.29547973575622e+001,-6.81422573297547e-001

8.11167583832018e+004,-1.29547973676327e+001,-6.90934898394051e-001

8.22491061324848e+004,-1.29547973779877e+001,-7.00580011469004e-001

8.33972608672892e+004,-1.29547973886351e+001,-7.10359766211180e-001

8.45614432449099e+004,-1.29547973995834e+001,-7.20276042185300e-001

8.57418770029029e+004,-1.29547974108410e+001,-7.30330745198125e-001

8.69387890020841e+004,-1.29547974224167e+001,-7.40525807659642e-001

8.81524092701283e+004,-1.29547974343195e+001,-7.50863188959650e-001

8.93829710457770e+004,-1.29547974465587e+001,-7.61344875839673e-001

9.06307108236633e+004,-1.29547974591441e+001,-7.71972882777540e-001

9.18958683997622e+004,-1.29547974720852e+001,-7.82749252375328e-001

9.31786869174758e+004,-1.29547974853923e+001,-7.93676055749884e-001

9.44794129143618e+004,-1.29547974990757e+001,-8.04755392931609e-001

9.57982963695136e+004,-1.29547975131463e+001,-8.15989393269219e-001

9.71355907516031e+004,-1.29547975276149e+001,-8.27380215838244e-001

9.84915530675926e+004,-1.29547975424930e+001,-8.38930049856287e-001

9.98664439121282e+004,-1.29547975577922e+001,-8.50641115103806e-001

1.01260527517622e+005,-1.29547975735245e+001,-8.62515662351047e-001

1.02674071805032e+005,-1.29547975897023e+001,-8.74555973789802e-001

1.04107348435354e+005,-1.29547976063382e+001,-8.86764363474351e-001

1.05560632861831e+005,-1.29547976234453e+001,-8.99143177764171e-001

1.07034204382888e+005,-1.29547976410371e+001,-9.11694795776145e-001

1.08528346195813e+005,-1.29547976591273e+001,-9.24421629841737e-001

1.10043345451179e+005,-1.29547976777304e+001,-9.37326125969876e-001

1.11579493308032e+005,-1.29547976968608e+001,-9.50410764319832e-001

1.13137084989847e+005,-1.29547977165337e+001,-9.63678059674962e-001

1.14716419841265e+005,-1.29547977367646e+001,-9.77130561928102e-001

1.16317801385624e+005,-1.29547977575695e+001,-9.90770856570712e-001

1.17941537383287e+005,-1.29547977789648e+001,-1.00460156519209e+000

1.19587939890794e+005,-1.29547978009674e+001,-1.01862534598066e+000

1.21257325320831e+005,-1.29547978235947e+001,-1.03284489423639e+000

1.22950014503040e+005,-1.29547978468646e+001,-1.04726294289002e+000

1.24666332745679e+005,-1.29547978707955e+001,-1.06188226302688e+000

1.26406609898139e+005,-1.29547978954065e+001,-1.07670566442029e+000

1.28171180414339e+005,-1.29547979207171e+001,-1.09173599607250e+000

1.29960383416997e+005,-1.29547979467473e+001,-1.10697614676200e+000

1.31774562762811e+005,-1.29547979735179e+001,-1.12242904559822e+000

1.33614067108538e+005,-1.29547980010502e+001,-1.13809766258699e+000

1.35479249978003e+005,-1.29547980293660e+001,-1.15398500919953e+000

1.37370469830040e+005,-1.29547980584880e+001,-1.17009413895182e+000

1.39288090127379e+005,-1.29547980884395e+001,-1.18642814799335e+000

1.41232479406504e+005,-1.29547981192442e+001,-1.20299017570090e+000

1.43204011348474e+005,-1.29547981509269e+001,-1.21978340528356e+000

1.45203064850745e+005,-1.29547981835131e+001,-1.23681106439289e+000

1.47230024099979e+005,-1.29547982170285e+001,-1.25407642574687e+000

1.49285278645888e+005,-1.29547982515004e+001,-1.27158280775619e+000

1.51369223476094e+005,-1.29547982869563e+001,-1.28933357516453e+000

1.53482259092041e+005,-1.29547983234248e+001,-1.30733213969449e+000

1.55624791585964e+005,-1.29547983609350e+001,-1.32558196070501e+000

1.57797232718936e+005,-1.29547983995175e+001,-1.34408654585480e+000

1.59999999999999e+005,-1.29547984392033e+001,-1.36284945177995e+000

1.62233516766403e+005,-1.29547984800245e+001,-1.38187428477456e+000

1.64498212264969e+005,-1.29547985220140e+001,-1.40116470148784e+000

1.66794521734578e+005,-1.29547985652059e+001,-1.42072440962533e+000

1.69122886489819e+005,-1.29547986096355e+001,-1.44055716866185e+000

1.71483754005805e+005,-1.29547986553386e+001,-1.46066679056693e+000

1.73877578004168e+005,-1.29547987023525e+001,-1.48105714053649e+000

1.76304818540256e+005,-1.29547987507156e+001,-1.50173213773603e+000

1.78765942091554e+005,-1.29547988004672e+001,-1.52269575605626e+000

1.81261421647326e+005,-1.29547988516482e+001,-1.54395202487591e+000

1.83791736799524e+005,-1.29547989043005e+001,-1.56550502983837e+000

1.86357373834951e+005,-1.29547989584674e+001,-1.58735891363672e+000

1.88958825828723e+005,-1.29547990141931e+001,-1.60951787681258e+000

1.91596592739027e+005,-1.29547990715237e+001,-1.63198617856161e+000

1.94271181503206e+005,-1.29547991305066e+001,-1.65476813755515e+000

1.96983106135185e+005,-1.29547991911903e+001,-1.67786813277097e+000

1.99732887824256e+005,-1.29547992536253e+001,-1.70129060433562e+000

2.02521055035243e+005,-1.29547993178632e+001,-1.72504005437846e+000

2.05348143610063e+005,-1.29547993839576e+001,-1.74912104789945e+000

2.08214696870707e+005,-1.29547994519634e+001,-1.77353821364628e+000

2.11121265723661e+005,-1.29547995219375e+001,-1.79829624500604e+000

2.14068408765776e+005,-1.29547995939384e+001,-1.82339990090897e+000

2.17056692391625e+005,-1.29547996680264e+001,-1.84885400674292e+000

2.20086690902357e+005,-1.29547997442640e+001,-1.87466345528381e+000

2.23158986616063e+005,-1.29547998227151e+001,-1.90083320763691e+000

2.26274169979693e+005,-1.29547999034462e+001,-1.92736829419194e+000

2.29432839682530e+005,-1.29547999865255e+001,-1.95427381559128e+000

2.32635602771247e+005,-1.29548000720236e+001,-1.98155494371208e+000

2.35883074766574e+005,-1.29548001600131e+001,-2.00921692266206e+000

2.39175879781588e+005,-1.29548002505692e+001,-2.03726506978989e+000

2.42514650641661e+005,-1.29548003437692e+001,-2.06570477670788e+000

2.45900029006080e+005,-1.29548004396932e+001,-2.09454151033123e+000

2.49332665491357e+005,-1.29548005384235e+001,-2.12378081393008e+000

2.52813219796278e+005,-1.29548006400453e+001,-2.15342830819820e+000

2.56342360828676e+005,-1.29548007446466e+001,-2.18348969233380e+000

2.59920766833993e+005,-1.29548008523181e+001,-2.21397074513916e+000

2.63549125525621e+005,-1.29548009631534e+001,-2.24487732613282e+000

2.67228134217075e+005,-1.29548010772493e+001,-2.27621537667802e+000

2.70958499956006e+005,-1.29548011947058e+001,-2.30799092112754e+000

2.74740939660078e+005,-1.29548013156259e+001,-2.34021006798547e+000

2.78576180254757e+005,-1.29548014401164e+001,-2.37287901108229e+000

2.82464958813007e+005,-1.29548015682873e+001,-2.40600403076999e+000

2.86408022696948e+005,-1.29548017002523e+001,-2.43959149513137e+000

2.90406129701488e+005,-1.29548018361290e+001,-2.47364786120719e+000

2.94460048199957e+005,-1.29548019760389e+001,-2.50817967624164e+000

2.98570557291775e+005,-1.29548021201076e+001,-2.54319357894319e+000

3.02738446952187e+005,-1.29548022684647e+001,-2.57869630076550e+000

3.06964518184081e+005,-1.29548024212444e+001,-2.61469466720375e+000

3.11249583171928e+005,-1.29548025785854e+001,-2.65119559911128e+000

3.15594465437872e+005,-1.29548027406311e+001,-2.68820611403463e+000

3.19999999999997e+005,-1.29548029075298e+001,-2.72573332756581e+000

3.24467033532806e+005,-1.29548030794349e+001,-2.76378445471430e+000

3.28996424529938e+005,-1.29548032565051e+001,-2.80236681129999e+000

3.33589043469155e+005,-1.29548034389044e+001,-2.84148781536311e+000

3.38245772979638e+005,-1.29548036268027e+001,-2.88115498859567e+000

3.42967508011610e+005,-1.29548038203758e+001,-2.92137595779252e+000

3.47755156008335e+005,-1.29548040198055e+001,-2.96215845632302e+000

3.52609637080511e+005,-1.29548042252801e+001,-3.00351032562318e+000

3.57531884183106e+005,-1.29548044369945e+001,-3.04543951670889e+000

3.62522843294651e+005,-1.29548046551506e+001,-3.08795409171133e+000

3.67583473599047e+005,-1.29548048799574e+001,-3.13106222543251e+000

3.72714747669902e+005,-1.29548051116313e+001,-3.17477220692315e+000

3.77917651657445e+005,-1.29548053503965e+001,-3.21909244108467e+000

3.83193185478053e+005,-1.29548055964855e+001,-3.26403145029030e+000

3.88542363006410e+005,-1.29548058501387e+001,-3.30959787603319e+000

3.93966212270369e+005,-1.29548061116059e+001,-3.35580048059343e+000

3.99465775648511e+005,-1.29548063811455e+001,-3.40264814873291e+000

4.05042110070485e+005,-1.29548066590255e+001,-3.45014988941038e+000

4.10696287220124e+005,-1.29548069455240e+001,-3.49831483752302e+000

4.16429393741414e+005,-1.29548072409292e+001,-3.54715225567268e+000

4.22242531447321e+005,-1.29548075455399e+001,-3.59667153595506e+000

4.28136817531551e+005,-1.29548078596665e+001,-3.64688220177630e+000

4.34113384783250e+005,-1.29548081836305e+001,-3.69779390969512e+000

4.40173381804713e+005,-1.29548085177660e+001,-3.74941645128887e+000

4.46317973232124e+005,-1.29548088624194e+001,-3.80175975504907e+000

4.52548339959385e+005,-1.29548092179505e+001,-3.85483388830154e+000

4.58865679365059e+005,-1.29548095847329e+001,-3.90864905915437e+000

4.65271205542494e+005,-1.29548099631543e+001,-3.96321561847406e+000

4.71766149533147e+005,-1.29548103536177e+001,-4.01854406188914e+000

4.78351759563174e+005,-1.29548107565414e+001,-4.07464503182214e+000

4.85029301283321e+005,-1.29548111723603e+001,-4.13152931955080e+000

4.91800058012158e+005,-1.29548116015263e+001,-4.18920786729787e+000

4.98665330982714e+005,-1.29548120445089e+001,-4.24769177035211e+000

5.05626439592555e+005,-1.29548125017963e+001,-4.30699227921681e+000

5.12684721657352e+005,-1.29548129738962e+001,-4.36712080179234e+000

5.19841533667984e+005,-1.29548134613362e+001,-4.42808890558593e+000

5.27098251051240e+005,-1.29548139646656e+001,-4.48990831995623e+000

5.34456268434150e+005,-1.29548144844556e+001,-4.55259093838777e+000

5.41916999912011e+005,-1.29548150213003e+001,-4.61614882079895e+000

