Freq.,VOut,OutRef

1.00000000000000e+004,-2.14415217214662e+001,-3.36596609515840e-001

1.01395947979003e+004,-2.14415230376178e+001,-3.41295304033195e-001

1.02811382665607e+004,-2.14415243907710e+001,-3.46059589072501e-001

1.04246576084112e+004,-2.14415257819662e+001,-3.50890380208916e-001

1.05701804056138e+004,-2.14415272122726e+001,-3.55788605797797e-001

1.07177346253629e+004,-2.14415286827901e+001,-3.60755207150900e-001

1.08673486252606e+004,-2.14415301946488e+001,-3.65791138720040e-001

1.10190511587661e+004,-2.14415317490112e+001,-3.70897368278216e-001

1.11728713807222e+004,-2.14415333470720e+001,-3.76074877106039e-001

1.13288388529580e+004,-2.14415349900598e+001,-3.81324660181876e-001

1.14869835499703e+004,-2.14415366792378e+001,-3.86647726369672e-001

1.16473358646846e+004,-2.14415384159043e+001,-3.92045098616065e-001

1.18099266142953e+004,-2.14415402013944e+001,-3.97517814144931e-001

1.19747870461893e+004,-2.14415420370807e+001,-4.03066924658043e-001

1.21419488439505e+004,-2.14415439243744e+001,-4.08693496533828e-001

1.23114441334492e+004,-2.14415458647264e+001,-4.14398611037333e-001

1.24833054890161e+004,-2.14415478596281e+001,-4.20183364523274e-001

1.26575659397028e+004,-2.14415499106132e+001,-4.26048868648929e-001

1.28342589756290e+004,-2.14415520192583e+001,-4.31996250587484e-001

1.30134185544193e+004,-2.14415541871845e+001,-4.38026653242949e-001

1.31950791077289e+004,-2.14415564160583e+001,-4.44141235472452e-001

1.33792755478611e+004,-2.14415587075931e+001,-4.50341172305745e-001

1.35660432744767e+004,-2.14415610635505e+001,-4.56627655173454e-001

1.37554181813974e+004,-2.14415634857415e+001,-4.63001892134921e-001

1.39474366635040e+004,-2.14415659760282e+001,-4.69465108107907e-001

1.41421356237309e+004,-2.14415685363249e+001,-4.76018545108726e-001

1.43395524801583e+004,-2.14415711685999e+001,-4.82663462485141e-001

1.45397251732031e+004,-2.14415738748766e+001,-4.89401137163687e-001

1.47426921729110e+004,-2.14415766572352e+001,-4.96232863890639e-001

1.49484924863494e+004,-2.14415795178148e+001,-5.03159955481920e-001

1.51571656651040e+004,-2.14415824588143e+001,-5.10183743076144e-001

1.53687518128801e+004,-2.14415854824945e+001,-5.17305576389230e-001

1.55832915932100e+004,-2.14415885911799e+001,-5.24526823972994e-001

1.58008262372675e+004,-2.14415917872599e+001,-5.31848873480277e-001

1.60213975517924e+004,-2.14415950731916e+001,-5.39273131928382e-001

1.62450479271247e+004,-2.14415984515009e+001,-5.46801025970665e-001

1.64718203453514e+004,-2.14416019247846e+001,-5.54434002170806e-001

1.67017583885674e+004,-2.14416054957129e+001,-5.62173527279586e-001

1.69349062472505e+004,-2.14416091670306e+001,-5.70021088517560e-001

1.71713087287550e+004,-2.14416129415599e+001,-5.77978193858998e-001

1.74110112659224e+004,-2.14416168222023e+001,-5.86046372322757e-001

1.76540599258131e+004,-2.14416208119408e+001,-5.94227174265334e-001

1.79005014185594e+004,-2.14416249138424e+001,-6.02522171676779e-001

1.81503831063432e+004,-2.14416291310602e+001,-6.10932958486337e-001

1.84037530124975e+004,-2.14416334668359e+001,-6.19461150864331e-001

1.86606598307361e+004,-2.14416379245025e+001,-6.28108387534136e-001

1.89211529345119e+004,-2.14416425074865e+001,-6.36876330086824e-001

1.91852823865052e+004,-2.14416472193106e+001,-6.45766663300268e-001

1.94530989482457e+004,-2.14416520635971e+001,-6.54781095460105e-001

1.97246540898671e+004,-2.14416570440693e+001,-6.63921358691659e-001

1.99999999999999e+004,-2.14416621645559e+001,-6.73189209287381e-001

2.02791895958005e+004,-2.14416674289927e+001,-6.82586428048736e-001

2.05622765331213e+004,-2.14416728414264e+001,-6.92114820623744e-001

2.08493152168224e+004,-2.14416784060176e+001,-7.01776217855373e-001

2.11403608112276e+004,-2.14416841270433e+001,-7.11572476134184e-001

2.14354692507258e+004,-2.14416900089013e+001,-7.21505477750745e-001

2.17346972505211e+004,-2.14416960561126e+001,-7.31577131259628e-001

2.20381023175322e+004,-2.14417022733255e+001,-7.41789371845187e-001

2.23457427614443e+004,-2.14417086653191e+001,-7.52144161690836e-001

2.26576777059159e+004,-2.14417152370064e+001,-7.62643490357509e-001

2.29739670999406e+004,-2.14417219934387e+001,-7.73289375164801e-001

2.32946717293690e+004,-2.14417289398095e+001,-7.84083861576687e-001

2.36198532285905e+004,-2.14417360814579e+001,-7.95029023594792e-001

2.39495740923785e+004,-2.14417434238734e+001,-8.06126964155273e-001

2.42838976879009e+004,-2.14417509726996e+001,-8.17379815533283e-001

2.46228882668982e+004,-2.14417587337387e+001,-8.28789739750774e-001

2.49666109780322e+004,-2.14417667129562e+001,-8.40358928990273e-001

2.53151318794055e+004,-2.14417749164850e+001,-8.52089606017614e-001

2.56685179512580e+004,-2.14417833506305e+001,-8.63984024605312e-001

2.60268371088386e+004,-2.14417920218753e+001,-8.76044469965592e-001

2.63901582154578e+004,-2.14418009368843e+001,-8.88273259188790e-001

2.67585510957221e+004,-2.14418101025096e+001,-9.00672741686795e-001

2.71320865489533e+004,-2.14418195257958e+001,-9.13245299643446e-001

2.75108363627948e+004,-2.14418292139858e+001,-9.25993348470144e-001

2.78948733270080e+004,-2.14418391745257e+001,-9.38919337271285e-001

2.82842712474618e+004,-2.14418494150712e+001,-9.52025749309197e-001

2.86791049603164e+004,-2.14418599434928e+001,-9.65315102483833e-001

2.90794503464061e+004,-2.14418707678826e+001,-9.78789949812766e-001

2.94853843458219e+004,-2.14418818965597e+001,-9.92452879920889e-001

2.98969849726987e+004,-2.14418933380773e+001,-1.00630651753552e+000

3.03143313302078e+004,-2.14419051012289e+001,-1.02035352398977e+000

3.07375036257601e+004,-2.14419171950551e+001,-1.03459659773187e+000

3.11665831864199e+004,-2.14419296288505e+001,-1.04903847484110e+000

3.16016524745350e+004,-2.14419424121711e+001,-1.06368192955244e+000

3.20427951035848e+004,-2.14419555548412e+001,-1.07852977478703e+000

3.24900958542493e+004,-2.14419690669613e+001,-1.09358486269018e+000

3.29436406907028e+004,-2.14419829589158e+001,-1.10885008517842e+000

3.34035167771346e+004,-2.14419972413808e+001,-1.12432837449107e+000

3.38698124945009e+004,-2.14420119253325e+001,-1.14002270375238e+000

3.43426174575100e+004,-2.14420270220554e+001,-1.15593608754013e+000

3.48220225318448e+004,-2.14420425431512e+001,-1.17207158246132e+000

3.53081198516260e+004,-2.14420585005476e+001,-1.18843228773725e+000

3.58010028371187e+004,-2.14420749065076e+001,-1.20502134579668e+000

3.63007662126863e+004,-2.14420917736383e+001,-1.22184194287606e+000

3.68075060249948e+004,-2.14421091149015e+001,-1.23889730962758e+000

3.73213196614721e+004,-2.14421269436231e+001,-1.25619072173806e+000

3.78423058690237e+004,-2.14421452735035e+001,-1.27372550055430e+000

3.83705647730104e+004,-2.14421641186276e+001,-1.29150501371780e+000

3.89061978964912e+004,-2.14421834934766e+001,-1.30953267580774e+000

3.94493081797342e+004,-2.14422034129382e+001,-1.32781194899330e+000

3.99999999999998e+004,-2.14422238923186e+001,-1.34634634369418e+000

4.05583791916010e+004,-2.14422449473540e+001,-1.36513941925201e+000

4.11245530662425e+004,-2.14422665942223e+001,-1.38419478460948e+000

4.16986304336447e+004,-2.14422888495566e+001,-1.40351609899795e+000

4.22807216224550e+004,-2.14423117304566e+001,-1.42310707263712e+000

4.28709385014515e+004,-2.14423352545030e+001,-1.44297146744123e+000

4.34693945010421e+004,-2.14423594397697e+001,-1.46311309773894e+000

4.40762046350642e+004,-2.14423843048391e+001,-1.48353583099788e+000

4.46914855228886e+004,-2.14424098688149e+001,-1.50424358856416e+000

4.53153554118317e+004,-2.14424361513379e+001,-1.52524034640937e+000

4.59479341998812e+004,-2.14424631726002e+001,-1.54653013588683e+000

4.65893434587380e+004,-2.14424909533616e+001,-1.56811704450137e+000

4.72397064571810e+004,-2.14425195149646e+001,-1.59000521668710e+000

4.78991481847569e+004,-2.14425488793511e+001,-1.61219885459689e+000

4.85677953758016e+004,-2.14425790690797e+001,-1.63470221890146e+000

4.92457765337964e+004,-2.14426101073423e+001,-1.65751962960185e+000

4.99332219560642e+004,-2.14426420179820e+001,-1.68065546684968e+000

5.06302637588109e+004,-2.14426748255119e+001,-1.70411417178158e+000

5.13370359025159e+004,-2.14427085551333e+001,-1.72790024736337e+000

5.20536742176771e+004,-2.14427432327552e+001,-1.75201825924534e+000

5.27803164309155e+004,-2.14427788850142e+001,-1.77647283663091e+000

5.35171021914442e+004,-2.14428155392951e+001,-1.80126867315574e+000

5.42641730979066e+004,-2.14428532237513e+001,-1.82641052777949e+000

5.50216727255895e+004,-2.14428919673270e+001,-1.85190322568810e+000

5.57897466540159e+004,-2.14429317997790e+001,-1.87775165921108e+000

5.65685424949235e+004,-2.14429727516996e+001,-1.90396078874902e+000

5.73582099206328e+004,-2.14430148545402e+001,-1.93053564371427e+000

5.81589006928121e+004,-2.14430581406347e+001,-1.95748132348497e+000

5.89707686916437e+004,-2.14431026432253e+001,-1.98480299837080e+000

5.97939699453972e+004,-2.14431483964872e+001,-2.01250591059242e+000

6.06286626604156e+004,-2.14431954355549e+001,-2.04059537527521e+000

6.14750072515201e+004,-2.14432437965491e+001,-2.06907678145351e+000

6.23331663728396e+004,-2.14432935166046e+001,-2.09795559309227e+000

6.32033049490698e+004,-2.14433446338984e+001,-2.12723735011862e+000

6.40855902071694e+004,-2.14433971876789e+001,-2.15692766947024e+000

6.49801917084985e+004,-2.14434512182963e+001,-2.18703224615586e+000

6.58872813814055e+004,-2.14435067672328e+001,-2.21755685433121e+000

6.68070335542691e+004,-2.14435638771351e+001,-2.24850734838888e+000

6.77396249890018e+004,-2.14436225918464e+001,-2.27988966406276e+000

6.86852349150199e+004,-2.14436829564402e+001,-2.31170981954695e+000

6.96440450636895e+004,-2.14437450172548e+001,-2.34397391663030e+000

7.06162397032520e+004,-2.14438088219284e+001,-2.37668814184656e+000

7.16020056742374e+004,-2.14438744194358e+001,-2.40985876763685e+000

7.26015324253724e+004,-2.14439418601259e+001,-2.44349215353138e+000

7.36150120499896e+004,-2.14440111957596e+001,-2.47759474734494e+000

7.46426393229441e+004,-2.14440824795500e+001,-2.51217308638827e+000

7.56846117380472e+004,-2.14441557662026e+001,-2.54723379869583e+000

7.67411295460207e+004,-2.14442311119574e+001,-2.58278360426912e+000

7.78123957929823e+004,-2.14443085746314e+001,-2.61882931633765e+000

7.88986163594682e+004,-2.14443882136631e+001,-2.65537784263515e+000

7.99999999999995e+004,-2.14444700901575e+001,-2.69243618669415e+000

8.11167583832018e+004,-2.14445542669332e+001,-2.73001144915501e+000

8.22491061324848e+004,-2.14446408085699e+001,-2.76811082909523e+000

8.33972608672892e+004,-2.14447297814576e+001,-2.80674162537364e+000

8.45614432449099e+004,-2.14448212538475e+001,-2.84591123799346e+000

8.57418770029029e+004,-2.14449152959039e+001,-2.88562716948264e+000

8.69387890020841e+004,-2.14450119797575e+001,-2.92589702629210e+000

8.81524092701283e+004,-2.14451113795607e+001,-2.96672852021225e+000

8.93829710457770e+004,-2.14452135715436e+001,-3.00812946980795e+000

9.06307108236633e+004,-2.14453186340723e+001,-3.05010780187185e+000

9.18958683997622e+004,-2.14454266477087e+001,-3.09267155289589e+000

9.31786869174758e+004,-2.14455376952715e+001,-3.13582887056336e+000

9.44794129143618e+004,-2.14456518618992e+001,-3.17958801525799e+000

9.57982963695136e+004,-2.14457692351152e+001,-3.22395736159308e+000

9.71355907516031e+004,-2.14458899048939e+001,-3.26894539996209e+000

9.84915530675926e+004,-2.14460139637293e+001,-3.31456073810525e+000

9.98664439121282e+004,-2.14461415067052e+001,-3.36081210269920e+000

1.01260527517622e+005,-2.14462726315675e+001,-3.40770834096476e+000

1.02674071805032e+005,-2.14464074387984e+001,-3.45525842229648e+000

1.04107348435354e+005,-2.14465460316925e+001,-3.50347143991121e+000

1.05560632861831e+005,-2.14466885164352e+001,-3.55235661251879e+000

1.07034204382888e+005,-2.14468350021835e+001,-3.60192328601154e+000

1.08528346195813e+005,-2.14469856011485e+001,-3.65218093517759e+000

1.10043345451179e+005,-2.14471404286803e+001,-3.70313916543292e+000

1.11579493308032e+005,-2.14472996033557e+001,-3.75480771457551e+000

1.13137084989847e+005,-2.14474632470677e+001,-3.80719645456238e+000

1.14716419841265e+005,-2.14476314851181e+001,-3.86031539330616e+000

1.16317801385624e+005,-2.14478044463118e+001,-3.91417467649575e+000

1.17941537383287e+005,-2.14479822630546e+001,-3.96878458943702e+000

1.19587939890794e+005,-2.14481650714531e+001,-4.02415555891794e+000

1.21257325320831e+005,-2.14483530114175e+001,-4.08029815509448e+000

1.22950014503040e+005,-2.14485462267672e+001,-4.13722309339965e+000

1.24666332745679e+005,-2.14487448653397e+001,-4.19494123647577e+000

1.26406609898139e+005,-2.14489490791015e+001,-4.25346359612883e+000

1.28171180414339e+005,-2.14491590242630e+001,-4.31280133530692e+000

1.29960383416997e+005,-2.14493748613964e+001,-4.37296577010077e+000

1.31774562762811e+005,-2.14495967555563e+001,-4.43396837176852e+000

1.33614067108538e+005,-2.14498248764037e+001,-4.49582076878365e+000

1.35479249978003e+005,-2.14500593983344e+001,-4.55853474890659e+000

1.37370469830040e+005,-2.14503005006090e+001,-4.62212226128031e+000

1.39288090127379e+005,-2.14505483674887e+001,-4.68659541854883e+000

1.41232479406504e+005,-2.14508031883726e+001,-4.75196649900153e+000

1.43204011348474e+005,-2.14510651579405e+001,-4.81824794873921e+000

1.45203064850745e+005,-2.14513344762983e+001,-4.88545238386672e+000

1.47230024099979e+005,-2.14516113491286e+001,-4.95359259270789e+000

1.49285278645888e+005,-2.14518959878437e+001,-5.02268153804593e+000

1.51369223476094e+005,-2.14521886097447e+001,-5.09273235938791e+000

1.53482259092041e+005,-2.14524894381832e+001,-5.16375837525365e+000

1.55624791585964e+005,-2.14527987027284e+001,-5.23577308548920e+000

1.57797232718936e+005,-2.14531166393386e+001,-5.30879017360452e+000

1.59999999999999e+005,-2.14534434905365e+001,-5.38282350913655e+000

1.62233516766403e+005,-2.14537795055907e+001,-5.45788715003591e+000

1.64498212264969e+005,-2.14541249407003e+001,-5.53399534507890e+000

1.66794521734578e+005,-2.14544800591862e+001,-5.61116253630338e+000

1.69122886489819e+005,-2.14548451316862e+001,-5.68940336146965e+000

1.71483754005805e+005,-2.14552204363562e+001,-5.76873265654563e+000

1.73877578004168e+005,-2.14556062590760e+001,-5.84916545821689e+000

1.76304818540256e+005,-2.14560028936614e+001,-5.93071700641983e+000

1.78765942091554e+005,-2.14564106420815e+001,-6.01340274690014e+000

1.81261421647326e+005,-2.14568298146816e+001,-6.09723833379543e+000

1.83791736799524e+005,-2.14572607304125e+001,-6.18223963224098e+000

1.86357373834951e+005,-2.14577037170660e+001,-6.26842272099965e+000

1.88958825828723e+005,-2.14581591115155e+001,-6.35580389511592e+000

1.91596592739027e+005,-2.14586272599646e+001,-6.44439966859264e+000

1.94271181503206e+005,-2.14591085182009e+001,-6.53422677709112e+000

1.96983106135185e+005,-2.14596032518573e+001,-6.62530218065457e+000

1.99732887824256e+005,-2.14601118366798e+001,-6.71764306645381e+000

2.02521055035243e+005,-2.14606346588025e+001,-6.81126685155514e+000

2.05348143610063e+005,-2.14611721150296e+001,-6.90619118571034e+000

2.08214696870707e+005,-2.14617246131249e+001,-7.00243395416926e+000

2.11121265723661e+005,-2.14622925721092e+001,-7.10001328051156e+000

2.14068408765776e+005,-2.14628764225646e+001,-7.19894752950143e+000

2.17056692391625e+005,-2.14634766069477e+001,-7.29925530996128e+000

2.20086690902357e+005,-2.14640935799097e+001,-7.40095547766549e+000

2.23158986616063e+005,-2.14647278086263e+001,-7.50406713825407e+000

2.26274169979693e+005,-2.14653797731348e+001,-7.60860965016408e+000

2.29432839682530e+005,-2.14660499666804e+001,-7.71460262758019e+000

2.32635602771247e+005,-2.14667388960715e+001,-7.82206594340123e+000

2.35883074766574e+005,-2.14674470820434e+001,-7.93101973222547e+000

2.39175879781588e+005,-2.14681750596325e+001,-8.04148439334961e+000

2.42514650641661e+005,-2.14689233785589e+001,-8.15348059378450e+000

2.45900029006080e+005,-2.14696926036189e+001,-8.26702927128500e+000

2.49332665491357e+005,-2.14704833150880e+001,-8.38215163739236e+000

2.52813219796278e+005,-2.14712961091333e+001,-8.49886918049003e+000

2.56342360828676e+005,-2.14721315982367e+001,-8.61720366887024e+000

2.59920766833993e+005,-2.14729904116284e+001,-8.73717715381139e+000

2.63549125525621e+005,-2.14738731957318e+001,-8.85881197266446e+000

2.67228134217075e+005,-2.14747806146183e+001,-8.98213075194721e+000

2.70958499956006e+005,-2.14757133504747e+001,-9.10715641044566e+000

2.74740939660078e+005,-2.14766721040808e+001,-9.23391216232062e+000

2.78576180254757e+005,-2.14776575952999e+001,-9.36242152021840e+000

2.82464958813007e+005,-2.14786705635801e+001,-9.49270829838390e+000

2.86408022696948e+005,-2.14797117684691e+001,-9.62479661577530e+000

2.90406129701488e+005,-2.14807819901399e+001,-9.75871089917717e+000

2.94460048199957e+005,-2.14818820299305e+001,-9.89447588631184e+000

2.98570557291775e+005,-2.14830127108962e+001,-1.00321166289469e+001

3.02738446952187e+005,-2.14841748783739e+001,-1.01716584959961e+001

3.06964518184081e+005,-2.14853694005618e+001,-1.03131271766126e+001

3.11249583171928e+005,-2.14865971691110e+001,-1.04565486832719e+001

3.15594465437872e+005,-2.14878590997318e+001,-1.06019493548432e+001

3.19999999999997e+005,-2.14891561328139e+001,-1.07493558596452e+001

3.24467033532806e+005,-2.14904892340612e+001,-1.08987951984865e+001

3.28996424529938e+005,-2.14918593951405e+001,-1.10502947076852e+001

3.33589043469155e+005,-2.14932676343462e+001,-1.12038820620674e+001

3.38245772979638e+005,-2.14947149972786e+001,-1.13595852779416e+001

3.42967508011610e+005,-2.14962025575387e+001,-1.15174327160442e+001

3.47755156008335e+005,-2.14977314174380e+001,-1.16774530844563e+001

3.52609637080511e+005,-2.14993027087239e+001,-1.18396754414859e+001

3.57531884183106e+005,-2.15009175933213e+001,-1.20041291985144e+001

3.62522843294651e+005,-2.15025772640904e+001,-1.21708441228023e+001

3.67583473599047e+005,-2.15042829456006e+001,-1.23398503402527e+001

3.72714747669902e+005,-2.15060358949211e+001,-1.25111783381269e+001

3.77917651657445e+005,-2.15078374024285e+001,-1.26848589677093e+001

3.83193185478053e+005,-2.15096887926308e+001,-1.28609234469192e+001

3.88542363006410e+005,-2.15115914250090e+001,-1.30394033628620e+001

3.93966212270369e+005,-2.15135466948757e+001,-1.32203306743195e+001

3.99465775648511e+005,-2.15155560342512e+001,-1.34037377141716e+001

4.05042110070485e+005,-2.15176209127575e+001,-1.35896571917479e+001

4.10696287220124e+005,-2.15197428385291e+001,-1.37781221951021e+001

4.16429393741414e+005,-2.15219233591426e+001,-1.39691661932058e+001

4.22242531447321e+005,-2.15241640625634e+001,-1.41628230380559e+001

4.28136817531551e+005,-2.15264665781113e+001,-1.43591269666915e+001

4.34113384783250e+005,-2.15288325774429e+001,-1.45581126031139e+001

4.40173381804713e+005,-2.15312637755531e+001,-1.47598149601046e+001

4.46317973232124e+005,-2.15337619317942e+001,-1.49642694409352e+001

4.52548339959385e+005,-2.15363288509135e+001,-1.51715118409652e+001

4.58865679365059e+005,-2.15389663841080e+001,-1.53815783491180e+001

4.65271205542494e+005,-2.15416764300984e+001,-1.55945055492328e+001

4.71766149533147e+005,-2.15444609362201e+001,-1.58103304212833e+001

4.78351759563174e+005,-2.15473218995321e+001,-1.60290903424577e+001

4.85029301283321e+005,-2.15502613679442e+001,-1.62508230880929e+001

4.91800058012158e+005,-2.15532814413606e+001,-1.64755668324560e+001

4.98665330982714e+005,-2.15563842728419e+001,-1.67033601493658e+001

5.05626439592555e+005,-2.15595720697831e+001,-1.69342420126468e+001

5.12684721657352e+005,-2.15628470951091e+001,-1.71682517964085e+001

5.19841533667984e+005,-2.15662116684863e+001,-1.74054292751421e+001

5.27098251051240e+005,-2.15696681675497e+001,-1.76458146236258e+001

5.34456268434150e+005,-2.15732190291465e+001,-1.78894484166328e+001

5.41916999912011e+005,-2.15768667505942e+001,-1.81363716284305e+001

