Freq.,VOut,OutRef

1.00000000000000e+004,-5.16229078090276e+000,-3.59966895269980e-002

1.01395947979003e+004,-5.16229076809572e+000,-3.64991846107735e-002

1.02811382665607e+004,-5.16229075492820e+000,-3.70086942682008e-002

1.04246576084112e+004,-5.16229074139073e+000,-3.75253164151236e-002

1.05701804056138e+004,-5.16229072747291e+000,-3.80491503381199e-002

1.07177346253629e+004,-5.16229071316334e+000,-3.85802967142254e-002

1.08673486252606e+004,-5.16229069845162e+000,-3.91188576179658e-002

1.10190511587661e+004,-5.16229068332622e+000,-3.96649365535133e-002

1.11728713807222e+004,-5.16229066777585e+000,-4.02186384665981e-002

1.13288388529580e+004,-5.16229065178801e+000,-4.07800697735269e-002

1.14869835499703e+004,-5.16229063535087e+000,-4.13493383699693e-002

1.16473358646846e+004,-5.16229061845156e+000,-4.19265536618838e-002

1.18099266142953e+004,-5.16229060107730e+000,-4.25118265794191e-002

1.19747870461893e+004,-5.16229058321455e+000,-4.31052696042708e-002

1.21419488439505e+004,-5.16229056484925e+000,-4.37069967893469e-002

1.23114441334492e+004,-5.16229054596796e+000,-4.43171237724844e-002

1.24833054890161e+004,-5.16229052655578e+000,-4.49357678133776e-002

1.26575659397028e+004,-5.16229050659815e+000,-4.55630478030221e-002

1.28342589756290e+004,-5.16229048607886e+000,-4.61990843012389e-002

1.30134185544193e+004,-5.16229046498289e+000,-4.68439995385861e-002

1.31950791077289e+004,-5.16229044329422e+000,-4.74979174572431e-002

1.33792755478611e+004,-5.16229042099517e+000,-4.81609637360793e-002

1.35660432744767e+004,-5.16229039806982e+000,-4.88332657945863e-002

1.37554181813974e+004,-5.16229037449953e+000,-4.95149528454292e-002

1.39474366635040e+004,-5.16229035026665e+000,-5.02061558951826e-002

1.41421356237309e+004,-5.16229032535270e+000,-5.09070077813578e-002

1.43395524801583e+004,-5.16229029973816e+000,-5.16176431993485e-002

1.45397251732031e+004,-5.16229027340353e+000,-5.23381987207542e-002

1.47426921729110e+004,-5.16229024632839e+000,-5.30688128264281e-002

1.49484924863494e+004,-5.16229021849235e+000,-5.38096259266049e-002

1.51571656651040e+004,-5.16229018987340e+000,-5.45607803977652e-002

1.53687518128801e+004,-5.16229016045028e+000,-5.53224205955539e-002

1.55832915932100e+004,-5.16229013019968e+000,-5.60946928997453e-002

1.58008262372675e+004,-5.16229009909851e+000,-5.68777457282091e-002

1.60213975517924e+004,-5.16229006712317e+000,-5.76717295694604e-002

1.62450479271247e+004,-5.16229003424903e+000,-5.84767970154298e-002

1.64718203453514e+004,-5.16229000045032e+000,-5.92931027908259e-002

1.67017583885674e+004,-5.16228996570164e+000,-6.01208037734382e-002

1.69349062472505e+004,-5.16228992997602e+000,-6.09600590358503e-002

1.71713087287550e+004,-5.16228989324584e+000,-6.18110298712809e-002

1.74110112659224e+004,-5.16228985548314e+000,-6.26738798214685e-002

1.76540599258131e+004,-5.16228981665883e+000,-6.35487747133956e-002

1.79005014185594e+004,-5.16228977674300e+000,-6.44358826885294e-002

1.81503831063432e+004,-5.16228973570500e+000,-6.53353742352705e-002

1.84037530124975e+004,-5.16228969351319e+000,-6.62474222226842e-002

1.86606598307361e+004,-5.16228965013523e+000,-6.71722019320799e-002

1.89211529345119e+004,-5.16228960553786e+000,-6.81098910908515e-002

1.91852823865052e+004,-5.16228955968658e+000,-6.90606699103019e-002

1.94530989482457e+004,-5.16228951254626e+000,-7.00247211145803e-002

1.97246540898671e+004,-5.16228946408063e+000,-7.10022299797505e-002

1.99999999999999e+004,-5.16228941425243e+000,-7.19933843683423e-002

2.02791895958005e+004,-5.16228936302332e+000,-7.29983747649745e-002

2.05622765331213e+004,-5.16228931035414e+000,-7.40173943123483e-002

2.08493152168224e+004,-5.16228925620428e+000,-7.50506388510520e-002

2.11403608112276e+004,-5.16228920053186e+000,-7.60983069565426e-002

2.14354692507258e+004,-5.16228914329431e+000,-7.71605999733225e-002

2.17346972505211e+004,-5.16228908444772e+000,-7.82377220573682e-002

2.20381023175322e+004,-5.16228902394648e+000,-7.93298802174818e-002

2.23457427614443e+004,-5.16228896174447e+000,-8.04372843473635e-002

2.26576777059159e+004,-5.16228889779381e+000,-8.15601472738731e-002

2.29739670999406e+004,-5.16228883204502e+000,-8.26986847961812e-002

2.32946717293690e+004,-5.16228876444794e+000,-8.38531157213461e-002

2.36198532285905e+004,-5.16228869495060e+000,-8.50236619137386e-002

2.39495740923785e+004,-5.16228862349915e+000,-8.62105483374704e-002

2.42838976879009e+004,-5.16228855003905e+000,-8.74140030915489e-002

2.46228882668982e+004,-5.16228847451375e+000,-8.86342574623233e-002

2.49666109780322e+004,-5.16228839686503e+000,-8.98715459654654e-002

2.53151318794055e+004,-5.16228831703344e+000,-9.11261063876273e-002

2.56685179512580e+004,-5.16228823495735e+000,-9.23981798381892e-002

2.60268371088386e+004,-5.16228815057384e+000,-9.36880107894818e-002

2.63901582154578e+004,-5.16228806381807e+000,-9.49958471274402e-002

2.67585510957221e+004,-5.16228797462320e+000,-9.63219401997102e-002

2.71320865489533e+004,-5.16228788292079e+000,-9.76665448605969e-002

2.75108363627948e+004,-5.16228778864000e+000,-9.90299195254442e-002

2.78948733270080e+004,-5.16228769170897e+000,-1.00412326210546e-001

2.82842712474618e+004,-5.16228759205277e+000,-1.01814030596699e-001

2.86791049603164e+004,-5.16228748959472e+000,-1.03235302070863e-001

2.90794503464061e+004,-5.16228738425620e+000,-1.04676413779731e-001

2.94853843458219e+004,-5.16228727595622e+000,-1.06137642683638e-001

2.98969849726987e+004,-5.16228716461152e+000,-1.07619269609089e-001

3.03143313302078e+004,-5.16228705013649e+000,-1.09121579303413e-001

3.07375036257601e+004,-5.16228693244324e+000,-1.10644860487445e-001

3.11665831864199e+004,-5.16228681144106e+000,-1.12189405915053e-001

3.16016524745350e+004,-5.16228668703720e+000,-1.13755512423514e-001

3.20427951035848e+004,-5.16228655913570e+000,-1.15343480997746e-001

3.24900958542493e+004,-5.16228642763844e+000,-1.16953616820782e-001

3.29436406907028e+004,-5.16228629244440e+000,-1.18586229336969e-001

3.34035167771346e+004,-5.16228615344961e+000,-1.20241632310822e-001

3.38698124945009e+004,-5.16228601054702e+000,-1.21920143888280e-001

3.43426174575100e+004,-5.16228586362686e+000,-1.23622086654278e-001

3.48220225318448e+004,-5.16228571257638e+000,-1.25347787696729e-001

3.53081198516260e+004,-5.16228555727904e+000,-1.27097578672809e-001

3.58010028371187e+004,-5.16228539761572e+000,-1.28871795866072e-001

3.63007662126863e+004,-5.16228523346386e+000,-1.30670780254305e-001

3.68075060249948e+004,-5.16228506469701e+000,-1.32494877578326e-001

3.73213196614721e+004,-5.16228489118548e+000,-1.34344438403451e-001

3.78423058690237e+004,-5.16228471279597e+000,-1.36219818188283e-001

3.83705647730104e+004,-5.16228452939115e+000,-1.38121377355882e-001

3.89061978964912e+004,-5.16228434083008e+000,-1.40049481358632e-001

3.94493081797342e+004,-5.16228414696788e+000,-1.42004500750522e-001

3.99999999999998e+004,-5.16228394765554e+000,-1.43986811259103e-001

4.05583791916010e+004,-5.16228374273969e+000,-1.45996793857565e-001

4.11245530662425e+004,-5.16228353206297e+000,-1.48034834835258e-001

4.16986304336447e+004,-5.16228331546322e+000,-1.50101325877237e-001

4.22807216224550e+004,-5.16228309277405e+000,-1.52196664133696e-001

4.28709385014515e+004,-5.16228286382439e+000,-1.54321252298966e-001

4.34693945010421e+004,-5.16228262843795e+000,-1.56475498691855e-001

4.40762046350642e+004,-5.16228238643394e+000,-1.58659817327927e-001

4.46914855228886e+004,-5.16228213762631e+000,-1.60874628003793e-001

4.53153554118317e+004,-5.16228188182380e+000,-1.63120356376215e-001

4.59479341998812e+004,-5.16228161882971e+000,-1.65397434044217e-001

4.65893434587380e+004,-5.16228134844190e+000,-1.67706298631467e-001

4.72397064571810e+004,-5.16228107045240e+000,-1.70047393871682e-001

4.78991481847569e+004,-5.16228078464764e+000,-1.72421169691690e-001

4.85677953758016e+004,-5.16228049080770e+000,-1.74828082301175e-001

4.92457765337964e+004,-5.16228018870697e+000,-1.77268594275575e-001

4.99332219560642e+004,-5.16227987811286e+000,-1.79743174651363e-001

5.06302637588109e+004,-5.16227955878688e+000,-1.82252299009544e-001

5.13370359025159e+004,-5.16227923048350e+000,-1.84796449571881e-001

5.20536742176771e+004,-5.16227889295033e+000,-1.87376115291236e-001

5.27803164309155e+004,-5.16227854592770e+000,-1.89991791948292e-001

5.35171021914442e+004,-5.16227818914911e+000,-1.92643982240789e-001

5.42641730979066e+004,-5.16227782234011e+000,-1.95333195888154e-001

5.50216727255895e+004,-5.16227744521866e+000,-1.98059949723952e-001

5.57897466540159e+004,-5.16227705749500e+000,-2.00824767795702e-001

5.65685424949235e+004,-5.16227665887085e+000,-2.03628181468760e-001

5.73582099206328e+004,-5.16227624904002e+000,-2.06470729523748e-001

5.81589006928121e+004,-5.16227582768731e+000,-2.09352958265178e-001

5.89707686916437e+004,-5.16227539448880e+000,-2.12275421622977e-001

5.97939699453972e+004,-5.16227494911145e+000,-2.15238681259927e-001

6.06286626604156e+004,-5.16227449121287e+000,-2.18243306679821e-001

6.14750072515201e+004,-5.16227402044113e+000,-2.21289875336478e-001

6.23331663728396e+004,-5.16227353643413e+000,-2.24378972746524e-001

6.32033049490698e+004,-5.16227303882000e+000,-2.27511192597931e-001

6.40855902071694e+004,-5.16227252721607e+000,-2.30687136868885e-001

6.49801917084985e+004,-5.16227200122914e+000,-2.33907415940187e-001

6.58872813814055e+004,-5.16227146045470e+000,-2.37172648714680e-001

6.68070335542691e+004,-5.16227090447709e+000,-2.40483462734349e-001

6.77396249890018e+004,-5.16227033286888e+000,-2.43840494302261e-001

6.86852349150199e+004,-5.16226974519068e+000,-2.47244388604138e-001

6.96440450636895e+004,-5.16226914099073e+000,-2.50695799833007e-001

7.06162397032520e+004,-5.16226851980443e+000,-2.54195391314929e-001

7.16020056742374e+004,-5.16226788115432e+000,-2.57743835635527e-001

7.26015324253724e+004,-5.16226722454940e+000,-2.61341814770736e-001

7.36150120499896e+004,-5.16226654948501e+000,-2.64990020216019e-001

7.46426393229441e+004,-5.16226585544200e+000,-2.68689153122475e-001

7.56846117380472e+004,-5.16226514188699e+000,-2.72439924427316e-001

7.67411295460207e+004,-5.16226440827121e+000,-2.76243054995173e-001

7.78123957929823e+004,-5.16226365403100e+000,-2.80099275751153e-001

7.88986163594682e+004,-5.16226287858617e+000,-2.84009327828696e-001

7.99999999999995e+004,-5.16226208134094e+000,-2.87973962703466e-001

8.11167583832018e+004,-5.16226126168224e+000,-2.91993942345339e-001

8.22491061324848e+004,-5.16226041897987e+000,-2.96070039361557e-001

8.33972608672892e+004,-5.16225955258613e+000,-3.00203037143803e-001

8.45614432449099e+004,-5.16225866183487e+000,-3.04393730022226e-001

8.57418770029029e+004,-5.16225774604151e+000,-3.08642923414468e-001

8.69387890020841e+004,-5.16225680450185e+000,-3.12951433984843e-001

8.81524092701283e+004,-5.16225583649215e+000,-3.17320089797394e-001

8.93829710457770e+004,-5.16225484126824e+000,-3.21749730476924e-001

9.06307108236633e+004,-5.16225381806509e+000,-3.26241207370423e-001

9.18958683997622e+004,-5.16225276609590e+000,-3.30795383711630e-001

9.31786869174758e+004,-5.16225168455228e+000,-3.35413134782577e-001

9.44794129143618e+004,-5.16225057260255e+000,-3.40095348089014e-001

9.57982963695136e+004,-5.16224942939193e+000,-3.44842923525408e-001

9.71355907516031e+004,-5.16224825404163e+000,-3.49656773549531e-001

9.84915530675926e+004,-5.16224704564812e+000,-3.54537823358469e-001

9.98664439121282e+004,-5.16224580328242e+000,-3.59487011066444e-001

1.01260527517622e+005,-5.16224452598948e+000,-3.64505287884595e-001

1.02674071805032e+005,-5.16224321278738e+000,-3.69593618304542e-001

1.04107348435354e+005,-5.16224186266652e+000,-3.74752980284107e-001

1.05560632861831e+005,-5.16224047458913e+000,-3.79984365433340e-001

1.07034204382888e+005,-5.16223904748799e+000,-3.85288779208321e-001

1.08528346195813e+005,-5.16223758026609e+000,-3.90667241101807e-001

1.10043345451179e+005,-5.16223607179557e+000,-3.96120784839971e-001

1.11579493308032e+005,-5.16223452091680e+000,-4.01650458582187e-001

1.13137084989847e+005,-5.16223292643748e+000,-4.07257325122664e-001

1.14716419841265e+005,-5.16223128713176e+000,-4.12942462093868e-001

1.16317801385624e+005,-5.16222960173972e+000,-4.18706962171717e-001

1.17941537383287e+005,-5.16222786896552e+000,-4.24551933291324e-001

1.19587939890794e+005,-5.16222608747727e+000,-4.30478498854327e-001

1.21257325320831e+005,-5.16222425590535e+000,-4.36487797949152e-001

1.22950014503040e+005,-5.16222237284168e+000,-4.42580985567989e-001

1.24666332745679e+005,-5.16222043683889e+000,-4.48759232827606e-001

1.26406609898139e+005,-5.16221844640856e+000,-4.55023727198469e-001

1.28171180414339e+005,-5.16221640002075e+000,-4.61375672729006e-001

1.29960383416997e+005,-5.16221429610210e+000,-4.67816290281670e-001

1.31774562762811e+005,-5.16221213303539e+000,-4.74346817762709e-001

1.33614067108538e+005,-5.16220990915782e+000,-4.80968510363964e-001

1.35479249978003e+005,-5.16220762275980e+000,-4.87682640803197e-001

1.37370469830040e+005,-5.16220527208372e+000,-4.94490499568940e-001

1.39288090127379e+005,-5.16220285532258e+000,-5.01393395167797e-001

1.41232479406504e+005,-5.16220037061853e+000,-5.08392654378371e-001

1.43204011348474e+005,-5.16219781606150e+000,-5.15489622504564e-001

1.45203064850745e+005,-5.16219518968770e+000,-5.22685663635384e-001

1.47230024099979e+005,-5.16219248947835e+000,-5.29982160905607e-001

1.49285278645888e+005,-5.16218971335767e+000,-5.37380516765142e-001

1.51369223476094e+005,-5.16218685919141e+000,-5.44882153247287e-001

1.53482259092041e+005,-5.16218392478591e+000,-5.52488512238950e-001

1.55624791585964e+005,-5.16218090788515e+000,-5.60201055765270e-001

1.57797232718936e+005,-5.16217780617003e+000,-5.68021266264784e-001

1.59999999999999e+005,-5.16217461725638e+000,-5.75950646876078e-001

1.62233516766403e+005,-5.16217133869277e+000,-5.83990721729447e-001

1.64498212264969e+005,-5.16216796795890e+000,-5.92143036238098e-001

1.66794521734578e+005,-5.16216450246377e+000,-6.00409157395123e-001

1.69122886489819e+005,-5.16216093954335e+000,-6.08790674077118e-001

1.71483754005805e+005,-5.16215727645877e+000,-6.17289197348609e-001

1.73877578004168e+005,-5.16215351039443e+000,-6.25906360770655e-001

1.76304818540256e+005,-5.16214963845521e+000,-6.34643820719569e-001

1.78765942091554e+005,-5.16214565766474e+000,-6.43503256701849e-001

1.81261421647326e+005,-5.16214156496308e+000,-6.52486371678551e-001

1.83791736799524e+005,-5.16213735720420e+000,-6.61594892393769e-001

1.86357373834951e+005,-5.16213303115369e+000,-6.70830569706185e-001

1.88958825828723e+005,-5.16212858348618e+000,-6.80195178926959e-001

1.91596592739027e+005,-5.16212401078269e+000,-6.89690520162237e-001

1.94271181503206e+005,-5.16211930952841e+000,-6.99318418656415e-001

1.96983106135185e+005,-5.16211447610952e+000,-7.09080725147826e-001

1.99732887824256e+005,-5.16210950681069e+000,-7.18979316222480e-001

2.02521055035243e+005,-5.16210439781218e+000,-7.29016094675819e-001

2.05348143610063e+005,-5.16209914518686e+000,-7.39192989880004e-001

2.08214696870707e+005,-5.16209374489721e+000,-7.49511958154796e-001

2.11121265723661e+005,-5.16208819279219e+000,-7.59974983144859e-001

2.14068408765776e+005,-5.16208248460422e+000,-7.70584076200704e-001

2.17056692391625e+005,-5.16207661594549e+000,-7.81341276768456e-001

2.20086690902357e+005,-5.16207058230514e+000,-7.92248652780176e-001

2.23158986616063e+005,-5.16206437904542e+000,-8.03308301053268e-001

2.26274169979693e+005,-5.16205800139820e+000,-8.14522347695162e-001

2.29432839682530e+005,-5.16205144446129e+000,-8.25892948512542e-001

2.32635602771247e+005,-5.16204470319475e+000,-8.37422289426559e-001

2.35883074766574e+005,-5.16203777241710e+000,-8.49112586893216e-001

2.39175879781588e+005,-5.16203064680108e+000,-8.60966088332382e-001

2.42514650641661e+005,-5.16202332086971e+000,-8.72985072560448e-001

2.45900029006080e+005,-5.16201578899210e+000,-8.85171850228630e-001

2.49332665491357e+005,-5.16200804537908e+000,-8.97528764268980e-001

2.52813219796278e+005,-5.16200008407882e+000,-9.10058190346407e-001

2.56342360828676e+005,-5.16199189897220e+000,-9.22762537315923e-001

2.59920766833993e+005,-5.16198348376806e+000,-9.35644247688575e-001

2.63549125525621e+005,-5.16197483199845e+000,-9.48705798100570e-001

2.67228134217075e+005,-5.16196593701367e+000,-9.61949699792616e-001

2.70958499956006e+005,-5.16195679197704e+000,-9.75378499093683e-001

2.74740939660078e+005,-5.16194738985988e+000,-9.88994777911408e-001

2.78576180254757e+005,-5.16193772343584e+000,-1.00280115423133e+000

2.82464958813007e+005,-5.16192778527556e+000,-1.01680028262197e+000

2.86408022696948e+005,-5.16191756774077e+000,-1.03099485474637e+000

2.90406129701488e+005,-5.16190706297878e+000,-1.04538759988113e+000

2.94460048199957e+005,-5.16189626291598e+000,-1.05998128544535e+000

2.98570557291775e+005,-5.16188515925188e+000,-1.07477871753302e+000

3.02738446952187e+005,-5.16187374345294e+000,-1.08978274145390e+000

3.06964518184081e+005,-5.16186200674550e+000,-1.10499624228611e+000

3.11249583171928e+005,-5.16184994010962e+000,-1.12042214542995e+000

3.15594465437872e+005,-5.16183753427164e+000,-1.13606341717518e+000

3.19999999999997e+005,-5.16182477969751e+000,-1.15192306527200e+000

3.24467033532806e+005,-5.16181166658516e+000,-1.16800413951410e+000

3.28996424529938e+005,-5.16179818485705e+000,-1.18430973232653e+000

3.33589043469155e+005,-5.16178432415248e+000,-1.20084297936430e+000

3.38245772979638e+005,-5.16177007381967e+000,-1.21760706011705e+000

3.42967508011610e+005,-5.16175542290747e+000,-1.23460519852510e+000

3.47755156008335e+005,-5.16174036015702e+000,-1.25184066360210e+000

3.52609637080511e+005,-5.16172487399308e+000,-1.26931677006720e+000

3.57531884183106e+005,-5.16170895251521e+000,-1.28703687898602e+000

3.62522843294651e+005,-5.16169258348857e+000,-1.30500439842100e+000

3.67583473599047e+005,-5.16167575433451e+000,-1.32322278409074e+000

3.72714747669902e+005,-5.16165845212111e+000,-1.34169554003809e+000

3.77917651657445e+005,-5.16164066355293e+000,-1.36042621930964e+000

3.83193185478053e+005,-5.16162237496097e+000,-1.37941842464306e+000

3.88542363006410e+005,-5.16160357229242e+000,-1.39867580916280e+000

3.93966212270369e+005,-5.16158424109942e+000,-1.41820207709082e+000

3.99465775648511e+005,-5.16156436652824e+000,-1.43800098446202e+000

4.05042110070485e+005,-5.16154393330795e+000,-1.45807633985186e+000

4.10696287220124e+005,-5.16152292573858e+000,-1.47843200511536e+000

4.16429393741414e+005,-5.16150132767901e+000,-1.49907189613522e+000

4.22242531447321e+005,-5.16147912253482e+000,-1.51999998358102e+000

4.28136817531551e+005,-5.16145629324533e+000,-1.54122029367911e+000

4.34113384783250e+005,-5.16143282227057e+000,-1.56273690899452e+000

4.40173381804713e+005,-5.16140869157795e+000,-1.58455396922188e+000

4.46317973232124e+005,-5.16138388262836e+000,-1.60667567198902e+000

4.52548339959385e+005,-5.16135837636181e+000,-1.62910627367312e+000

4.58865679365059e+005,-5.16133215318317e+000,-1.65185009022519e+000

4.65271205542494e+005,-5.16130519294671e+000,-1.67491149801057e+000

4.71766149533147e+005,-5.16127747494096e+000,-1.69829493465804e+000

4.78351759563174e+005,-5.16124897787280e+000,-1.72200489992211e+000

4.85029301283321e+005,-5.16121967985092e+000,-1.74604595655921e+000

4.91800058012158e+005,-5.16118955836938e+000,-1.77042273121329e+000

4.98665330982714e+005,-5.16115859029015e+000,-1.79513991531711e+000

5.05626439592555e+005,-5.16112675182526e+000,-1.82020226600571e+000

5.12684721657352e+005,-5.16109401851896e+000,-1.84561460704083e+000

5.19841533667984e+005,-5.16106036522858e+000,-1.87138182975208e+000

5.27098251051240e+005,-5.16102576610557e+000,-1.89750889398864e+000

5.34456268434150e+005,-5.16099019457535e+000,-1.92400082908794e+000

5.41916999912011e+005,-5.16095362331749e+000,-1.95086273485275e+000

