Freq.,VOut,OutRef

1.00000000000000e+004,-9.94247472707621e+000,-5.36521947034956e-002

1.01395947979003e+004,-9.94247470971118e+000,-5.44011514858235e-002

1.02811382665607e+004,-9.94247469185787e+000,-5.51605633180745e-002

1.04246576084112e+004,-9.94247467350255e+000,-5.59305761475314e-002

1.05701804056138e+004,-9.94247465463133e+000,-5.67113379570121e-002

1.07177346253629e+004,-9.94247463522968e+000,-5.75029987972367e-002

1.08673486252606e+004,-9.94247461528247e+000,-5.83057108141794e-002

1.10190511587661e+004,-9.94247459477441e+000,-5.91196282768807e-002

1.11728713807222e+004,-9.94247457368985e+000,-5.99449076062484e-002

1.13288388529580e+004,-9.94247455201260e+000,-6.07817074086029e-002

1.14869835499703e+004,-9.94247452972584e+000,-6.16301885044096e-002

1.16473358646846e+004,-9.94247450681240e+000,-6.24905139591945e-002

1.18099266142953e+004,-9.94247448325497e+000,-6.33628491120907e-002

1.19747870461893e+004,-9.94247445903519e+000,-6.42473616139611e-002

1.21419488439505e+004,-9.94247443413451e+000,-6.51442214539570e-002

1.23114441334492e+004,-9.94247440853365e+000,-6.60536009956050e-002

1.24833054890161e+004,-9.94247438221304e+000,-6.69756750068195e-002

1.26575659397028e+004,-9.94247435515275e+000,-6.79106206941253e-002

1.28342589756290e+004,-9.94247432733137e+000,-6.88586177433528e-002

1.30134185544193e+004,-9.94247429872792e+000,-6.98198483423468e-002

1.31950791077289e+004,-9.94247426932047e+000,-7.07944972243885e-002

1.33792755478611e+004,-9.94247423908602e+000,-7.17827517045075e-002

1.35660432744767e+004,-9.94247420800171e+000,-7.27848017075698e-002

1.37554181813974e+004,-9.94247417604350e+000,-7.38008398129233e-002

1.39474366635040e+004,-9.94247414318672e+000,-7.48310612882789e-002

1.41421356237309e+004,-9.94247410940639e+000,-7.58756641244425e-002

1.43395524801583e+004,-9.94247407467643e+000,-7.69348490785336e-002

1.45397251732031e+004,-9.94247403896977e+000,-7.80088197120620e-002

1.47426921729110e+004,-9.94247400225954e+000,-7.90977824221729e-002

1.49484924863494e+004,-9.94247396451687e+000,-8.02019464948708e-002

1.51571656651040e+004,-9.94247392571357e+000,-8.13215241280797e-002

1.53687518128801e+004,-9.94247388581899e+000,-8.24567304927646e-002

1.55832915932100e+004,-9.94247384480313e+000,-8.36077837539718e-002

1.58008262372675e+004,-9.94247380263390e+000,-8.47749051299718e-002

1.60213975517924e+004,-9.94247375927922e+000,-8.59583189214498e-002

1.62450479271247e+004,-9.94247371470588e+000,-8.71582525618659e-002

1.64718203453514e+004,-9.94247366887909e+000,-8.83749366631710e-002

1.67017583885674e+004,-9.94247362176412e+000,-8.96086050504403e-002

1.69349062472505e+004,-9.94247357332453e+000,-9.08594948173322e-002

1.71713087287550e+004,-9.94247352352305e+000,-9.21278463659291e-002

1.74110112659224e+004,-9.94247347232165e+000,-9.34139034523968e-002

1.76540599258131e+004,-9.94247341968058e+000,-9.47179132399178e-002

1.79005014185594e+004,-9.94247336555978e+000,-9.60401263367991e-002

1.81503831063432e+004,-9.94247330991715e+000,-9.73807968552244e-002

1.84037530124975e+004,-9.94247325271048e+000,-9.87401824481958e-002

1.86606598307361e+004,-9.94247319389540e+000,-1.00118544371446e-001

1.89211529345119e+004,-9.94247313342666e+000,-1.01516147525764e-001

1.91852823865052e+004,-9.94247307125797e+000,-1.02933260507792e-001

1.94530989482457e+004,-9.94247300734173e+000,-1.04370155664023e-001

1.97246540898671e+004,-9.94247294162834e+000,-1.05827109146951e-001

1.99999999999999e+004,-9.94247287406742e+000,-1.07304400960424e-001

2.02791895958005e+004,-9.94247280460744e+000,-1.08802315014659e-001

2.05622765331213e+004,-9.94247273319437e+000,-1.10321139190540e-001

2.08493152168224e+004,-9.94247265977378e+000,-1.11861165380242e-001

2.11403608112276e+004,-9.94247258428900e+000,-1.13422689555048e-001

2.14354692507258e+004,-9.94247250668196e+000,-1.15006011816625e-001

2.17346972505211e+004,-9.94247242689308e+000,-1.16611436455309e-001

2.20381023175322e+004,-9.94247234486121e+000,-1.18239272008933e-001

2.23457427614443e+004,-9.94247226052307e+000,-1.19889831324036e-001

2.26576777059159e+004,-9.94247217381378e+000,-1.21563431614341e-001

2.29739670999406e+004,-9.94247208466674e+000,-1.23260394519904e-001

2.32946717293690e+004,-9.94247199301368e+000,-1.24981046170507e-001

2.36198532285905e+004,-9.94247189878363e+000,-1.26725717253115e-001

2.39495740923785e+004,-9.94247180190452e+000,-1.28494743065250e-001

2.42838976879009e+004,-9.94247170230178e+000,-1.30288463588197e-001

2.46228882668982e+004,-9.94247159989879e+000,-1.32107223548663e-001

2.49666109780322e+004,-9.94247149461702e+000,-1.33951372484386e-001

2.53151318794055e+004,-9.94247138637531e+000,-1.35821264815316e-001

2.56685179512580e+004,-9.94247127509039e+000,-1.37717259907560e-001

2.60268371088386e+004,-9.94247116067698e+000,-1.39639722141668e-001

2.63901582154578e+004,-9.94247104304688e+000,-1.41589020988586e-001

2.67585510957221e+004,-9.94247092210983e+000,-1.43565531074071e-001

2.71320865489533e+004,-9.94247079777275e+000,-1.45569632255199e-001

2.75108363627948e+004,-9.94247066994002e+000,-1.47601709691123e-001

2.78948733270080e+004,-9.94247053851350e+000,-1.49662153917295e-001

2.82842712474618e+004,-9.94247040339216e+000,-1.51751360921025e-001

2.86791049603164e+004,-9.94247026447186e+000,-1.53869732219403e-001

2.90794503464061e+004,-9.94247012164615e+000,-1.56017674930836e-001

2.94853843458219e+004,-9.94246997480499e+000,-1.58195601860694e-001

2.98969849726987e+004,-9.94246982383555e+000,-1.60403931575011e-001

3.03143313302078e+004,-9.94246966862188e+000,-1.62643088482522e-001

3.07375036257601e+004,-9.94246950904462e+000,-1.64913502917586e-001

3.11665831864199e+004,-9.94246934498088e+000,-1.67215611223114e-001

3.16016524745350e+004,-9.94246917630485e+000,-1.69549855829562e-001

3.20427951035848e+004,-9.94246900288658e+000,-1.71916685347914e-001

3.24900958542493e+004,-9.94246882459293e+000,-1.74316554648206e-001

3.29436406907028e+004,-9.94246864128677e+000,-1.76749924952354e-001

3.34035167771346e+004,-9.94246845282719e+000,-1.79217263919860e-001

3.38698124945009e+004,-9.94246825906943e+000,-1.81719045738313e-001

3.43426174575100e+004,-9.94246805986419e+000,-1.84255751217960e-001

3.48220225318448e+004,-9.94246785505876e+000,-1.86827867875795e-001

3.53081198516260e+004,-9.94246764449543e+000,-1.89435890038657e-001

3.58010028371187e+004,-9.94246742801233e+000,-1.92080318933172e-001

3.63007662126863e+004,-9.94246720544314e+000,-1.94761662781426e-001

3.68075060249948e+004,-9.94246697661656e+000,-1.97480436902981e-001

3.73213196614721e+004,-9.94246674135690e+000,-2.00237163807744e-001

3.78423058690237e+004,-9.94246649948333e+000,-2.03032373301643e-001

3.83705647730104e+004,-9.94246625080963e+000,-2.05866602588233e-001

3.89061978964912e+004,-9.94246599514491e+000,-2.08740396366842e-001

3.94493081797342e+004,-9.94246573229254e+000,-2.11654306942910e-001

3.99999999999998e+004,-9.94246546205034e+000,-2.14608894332638e-001

4.05583791916010e+004,-9.94246518421061e+000,-2.17604726368571e-001

4.11245530662425e+004,-9.94246489855980e+000,-2.20642378810520e-001

4.16986304336447e+004,-9.94246460487841e+000,-2.23722435454938e-001

4.22807216224550e+004,-9.94246430294039e+000,-2.26845488250900e-001

4.28709385014515e+004,-9.94246399251387e+000,-2.30012137407762e-001

4.34693945010421e+004,-9.94246367336021e+000,-2.33222991515110e-001

4.40762046350642e+004,-9.94246334523386e+000,-2.36478667659894e-001

4.46914855228886e+004,-9.94246300788265e+000,-2.39779791541592e-001

4.53153554118317e+004,-9.94246266104726e+000,-2.43126997595081e-001

4.59479341998812e+004,-9.94246230446119e+000,-2.46520929110958e-001

4.65893434587380e+004,-9.94246193785016e+000,-2.49962238362404e-001

4.72397064571810e+004,-9.94246156093232e+000,-2.53451586727042e-001

4.78991481847569e+004,-9.94246117341792e+000,-2.56989644815468e-001

4.85677953758016e+004,-9.94246077500915e+000,-2.60577092599798e-001

4.92457765337964e+004,-9.94246036539958e+000,-2.64214619545487e-001

4.99332219560642e+004,-9.94245994427445e+000,-2.67902924741807e-001

5.06302637588109e+004,-9.94245951130999e+000,-2.71642717038223e-001

5.13370359025159e+004,-9.94245906617332e+000,-2.75434715179905e-001

5.20536742176771e+004,-9.94245860852225e+000,-2.79279647945515e-001

5.27803164309155e+004,-9.94245813800496e+000,-2.83178254287820e-001

5.35171021914442e+004,-9.94245765425985e+000,-2.87131283474548e-001

5.42641730979066e+004,-9.94245715691476e+000,-2.91139495236145e-001

5.50216727255895e+004,-9.94245664558767e+000,-2.95203659905145e-001

5.57897466540159e+004,-9.94245611988534e+000,-2.99324558571148e-001

5.65685424949235e+004,-9.94245557940365e+000,-3.03502983227161e-001

5.73582099206328e+004,-9.94245502372700e+000,-3.07739736922895e-001

5.81589006928121e+004,-9.94245445242842e+000,-3.12035633917550e-001

5.89707686916437e+004,-9.94245386506863e+000,-3.16391499839149e-001

5.97939699453972e+004,-9.94245326119598e+000,-3.20808171842209e-001

6.06286626604156e+004,-9.94245264034637e+000,-3.25286498766746e-001

6.14750072515201e+004,-9.94245200204255e+000,-3.29827341303406e-001

6.23331663728396e+004,-9.94245134579389e+000,-3.34431572158437e-001

6.32033049490698e+004,-9.94245067109562e+000,-3.39100076223403e-001

6.40855902071694e+004,-9.94244997742925e+000,-3.43833750741115e-001

6.49801917084985e+004,-9.94244926426157e+000,-3.48633505480565e-001

6.58872813814055e+004,-9.94244853104431e+000,-3.53500262912588e-001

6.68070335542691e+004,-9.94244777721381e+000,-3.58434958385858e-001

6.77396249890018e+004,-9.94244700219051e+000,-3.63438540307750e-001

6.86852349150199e+004,-9.94244620537857e+000,-3.68511970325878e-001

6.96440450636895e+004,-9.94244538616566e+000,-3.73656223511189e-001

7.06162397032520e+004,-9.94244454392183e+000,-3.78872288550803e-001

7.16020056742374e+004,-9.94244367799962e+000,-3.84161167932204e-001

7.26015324253724e+004,-9.94244278773348e+000,-3.89523878138930e-001

7.36150120499896e+004,-9.94244187243901e+000,-3.94961449845716e-001

7.46426393229441e+004,-9.94244093141251e+000,-4.00474928116908e-001

7.56846117380472e+004,-9.94243996393058e+000,-4.06065372606477e-001

7.67411295460207e+004,-9.94243896924953e+000,-4.11733857762240e-001

7.78123957929823e+004,-9.94243794660471e+000,-4.17481473032279e-001

7.88986163594682e+004,-9.94243689520996e+000,-4.23309323074891e-001

7.99999999999995e+004,-9.94243581425716e+000,-4.29218527969804e-001

8.11167583832018e+004,-9.94243470291512e+000,-4.35210223436544e-001

8.22491061324848e+004,-9.94243356032976e+000,-4.41285561047652e-001

8.33972608672892e+004,-9.94243238562257e+000,-4.47445708455812e-001

8.45614432449099e+004,-9.94243117789052e+000,-4.53691849614216e-001

8.57418770029029e+004,-9.94242993620536e+000,-4.60025185005091e-001

8.69387890020841e+004,-9.94242865961253e+000,-4.66446931872557e-001

8.81524092701283e+004,-9.94242734713059e+000,-4.72958324454876e-001

8.93829710457770e+004,-9.94242599775066e+000,-4.79560614221732e-001

9.06307108236633e+004,-9.94242461043545e+000,-4.86255070115745e-001

9.18958683997622e+004,-9.94242318411846e+000,-4.93042978796167e-001

9.31786869174758e+004,-9.94242171770332e+000,-4.99925644885463e-001

9.44794129143618e+004,-9.94242021006277e+000,-5.06904391221553e-001

9.57982963695136e+004,-9.94241866003791e+000,-5.13980559111247e-001

9.71355907516031e+004,-9.94241706643716e+000,-5.21155508589157e-001

9.84915530675926e+004,-9.94241542803548e+000,-5.28430618678640e-001

9.98664439121282e+004,-9.94241374357359e+000,-5.35807287655597e-001

1.01260527517622e+005,-9.94241201175632e+000,-5.43286933321929e-001

1.02674071805032e+005,-9.94241023125279e+000,-5.50870993270818e-001

1.04107348435354e+005,-9.94240840069404e+000,-5.58560925171966e-001

1.05560632861831e+005,-9.94240651867306e+000,-5.66358207044422e-001

1.07034204382888e+005,-9.94240458374310e+000,-5.74264337545315e-001

1.08528346195813e+005,-9.94240259441685e+000,-5.82280836256402e-001

1.10043345451179e+005,-9.94240054916501e+000,-5.90409243977469e-001

1.11579493308032e+005,-9.94239844641570e+000,-5.98651123019970e-001

1.13137084989847e+005,-9.94239628455215e+000,-6.07008057513192e-001

1.14716419841265e+005,-9.94239406191286e+000,-6.15481653701823e-001

1.16317801385624e+005,-9.94239177678929e+000,-6.24073540260042e-001

1.17941537383287e+005,-9.94238942742495e+000,-6.32785368602973e-001

1.19587939890794e+005,-9.94238701201376e+000,-6.41618813206010e-001

1.21257325320831e+005,-9.94238452869923e+000,-6.50575571923644e-001

1.22950014503040e+005,-9.94238197557239e+000,-6.59657366319723e-001

1.24666332745679e+005,-9.94237935067092e+000,-6.68865941995570e-001

1.26406609898139e+005,-9.94237665197688e+000,-6.78203068929753e-001

1.28171180414339e+005,-9.94237387741608e+000,-6.87670541814077e-001

1.29960383416997e+005,-9.94237102485586e+000,-6.97270180401654e-001

1.31774562762811e+005,-9.94236809210344e+000,-7.07003829857483e-001

1.33614067108538e+005,-9.94236507690463e+000,-7.16873361111883e-001

1.35479249978003e+005,-9.94236197694180e+000,-7.26880671220921e-001

1.37370469830040e+005,-9.94235878983216e+000,-7.37027683732757e-001

1.39288090127379e+005,-9.94235551312607e+000,-7.47316349055307e-001

1.41232479406504e+005,-9.94235214430480e+000,-7.57748644835216e-001

1.43204011348474e+005,-9.94234868077899e+000,-7.68326576335169e-001

1.45203064850745e+005,-9.94234511988649e+000,-7.79052176821563e-001

1.47230024099979e+005,-9.94234145889036e+000,-7.89927507954967e-001

1.49285278645888e+005,-9.94233769497661e+000,-8.00954660188612e-001

1.51369223476094e+005,-9.94233382525226e+000,-8.12135753168636e-001

1.53482259092041e+005,-9.94232984674293e+000,-8.23472936144015e-001

1.55624791585964e+005,-9.94232575639076e+000,-8.34968388378899e-001

1.57797232718936e+005,-9.94232155105191e+000,-8.46624319572943e-001

1.59999999999999e+005,-9.94231722749418e+000,-8.58442970286670e-001

1.62233516766403e+005,-9.94231278239444e+000,-8.70426612373261e-001

1.64498212264969e+005,-9.94230821233632e+000,-8.82577549414742e-001

1.66794521734578e+005,-9.94230351380725e+000,-8.94898117167819e-001

1.69122886489819e+005,-9.94229868319611e+000,-9.07390684010906e-001

1.71483754005805e+005,-9.94229371679020e+000,-9.20057651402665e-001

1.73877578004168e+005,-9.94228861077255e+000,-9.32901454343016e-001

1.76304818540256e+005,-9.94228336121884e+000,-9.45924561842897e-001

1.78765942091554e+005,-9.94227796409449e+000,-9.59129477400060e-001

1.81261421647326e+005,-9.94227241525154e+000,-9.72518739480490e-001

1.83791736799524e+005,-9.94226671042552e+000,-9.86094922007831e-001

1.86357373834951e+005,-9.94226084523205e+000,-9.99860634859843e-001

1.88958825828723e+005,-9.94225481516352e+000,-1.01381852437057e+000

1.91596592739027e+005,-9.94224861558572e+000,-1.02797127384064e+000

1.94271181503206e+005,-9.94224224173414e+000,-1.04232160405433e+000

1.96983106135185e+005,-9.94223568871053e+000,-1.05687227380321e+000

1.99732887824256e+005,-9.94222895147869e+000,-1.07162608041971e+000

2.02521055035243e+005,-9.94222202486135e+000,-1.08658586031360e+000

2.05348143610063e+005,-9.94221490353534e+000,-1.10175448952154e+000

2.08214696870707e+005,-9.94220758202810e+000,-1.11713488425999e+000

2.11121265723661e+005,-9.94220005471338e+000,-1.13273000148695e+000

2.14068408765776e+005,-9.94219231580667e+000,-1.14854283947396e+000

2.17056692391625e+005,-9.94218435936106e+000,-1.16457643838244e+000

2.20086690902357e+005,-9.94217617926237e+000,-1.18083388085174e+000

2.23158986616063e+005,-9.94216776922478e+000,-1.19731829259234e+000

2.26274169979693e+005,-9.94215912278595e+000,-1.21403284298837e+000

2.29432839682530e+005,-9.94215023330171e+000,-1.23098074571126e+000

2.32635602771247e+005,-9.94214109394140e+000,-1.24816525933755e+000

2.35883074766574e+005,-9.94213169768237e+000,-1.26558968797913e+000

2.39175879781588e+005,-9.94212203730474e+000,-1.28325738191959e+000

2.42514650641661e+005,-9.94211210538578e+000,-1.30117173826167e+000

2.45900029006080e+005,-9.94210189429418e+000,-1.31933620158310e+000

2.49332665491357e+005,-9.94209139618431e+000,-1.33775426460080e+000

2.52813219796278e+005,-9.94208060299001e+000,-1.35642946884640e+000

2.56342360828676e+005,-9.94206950641874e+000,-1.37536540534829e+000

2.59920766833993e+005,-9.94205809794477e+000,-1.39456571532765e+000

2.63549125525621e+005,-9.94204636880307e+000,-1.41403409089907e+000

2.67228134217075e+005,-9.94203430998227e+000,-1.43377427578576e+000

2.70958499956006e+005,-9.94202191221802e+000,-1.45379006604146e+000

2.74740939660078e+005,-9.94200916598554e+000,-1.47408531078571e+000

2.78576180254757e+005,-9.94199606149271e+000,-1.49466391294547e+000

2.82464958813007e+005,-9.94198258867234e+000,-1.51552983001123e+000

2.86408022696948e+005,-9.94196873717441e+000,-1.53668707480176e+000

2.90406129701488e+005,-9.94195449635826e+000,-1.55813971623956e+000

2.94460048199957e+005,-9.94193985528442e+000,-1.57989188013790e+000

2.98570557291775e+005,-9.94192480270613e+000,-1.60194774999925e+000

3.02738446952187e+005,-9.94190932706088e+000,-1.62431156782386e+000

3.06964518184081e+005,-9.94189341646133e+000,-1.64698763493141e+000

3.11249583171928e+005,-9.94187705868643e+000,-1.66998031279285e+000

3.15594465437872e+005,-9.94186024117190e+000,-1.69329402387486e+000

3.19999999999997e+005,-9.94184295100076e+000,-1.71693325249541e+000

3.24467033532806e+005,-9.94182517489316e+000,-1.74090254569396e+000

3.28996424529938e+005,-9.94180689919655e+000,-1.76520651410966e+000

3.33589043469155e+005,-9.94178810987500e+000,-1.78984983287662e+000

3.38245772979638e+005,-9.94176879249850e+000,-1.81483724252861e+000

3.42967508011610e+005,-9.94174893223197e+000,-1.84017354991826e+000

3.47755156008335e+005,-9.94172851382377e+000,-1.86586362914951e+000

3.52609637080511e+005,-9.94170752159423e+000,-1.89191242252142e+000

3.57531884183106e+005,-9.94168593942343e+000,-1.91832494148805e+000

3.62522843294651e+005,-9.94166375073912e+000,-1.94510626762955e+000

3.67583473599047e+005,-9.94164093850363e+000,-1.97226155363981e+000

3.72714747669902e+005,-9.94161748520137e+000,-1.99979602432492e+000

3.77917651657445e+005,-9.94159337282497e+000,-2.02771497761906e+000

3.83193185478053e+005,-9.94156858286187e+000,-2.05602378561218e+000

3.88542363006410e+005,-9.94154309627968e+000,-2.08472789559568e+000

3.93966212270369e+005,-9.94151689351221e+000,-2.11383283111848e+000

3.99465775648511e+005,-9.94148995444418e+000,-2.14334419306246e+000

4.05042110070485e+005,-9.94146225839581e+000,-2.17326766073132e+000

4.10696287220124e+005,-9.94143378410715e+000,-2.20360899295492e+000

4.16429393741414e+005,-9.94140450972187e+000,-2.23437402921016e+000

4.22242531447321e+005,-9.94137441277027e+000,-2.26556869075820e+000

4.28136817531551e+005,-9.94134347015256e+000,-2.29719898179598e+000

4.34113384783250e+005,-9.94131165812076e+000,-2.32927099062791e+000

4.40173381804713e+005,-9.94127895226104e+000,-2.36179089084979e+000

4.46317973232124e+005,-9.94124532747459e+000,-2.39476494255464e+000

4.52548339959385e+005,-9.94121075795888e+000,-2.42819949355249e+000

4.58865679365059e+005,-9.94117521718762e+000,-2.46210098060882e+000

4.65271205542494e+005,-9.94113867789087e+000,-2.49647593070066e+000

4.71766149533147e+005,-9.94110111203399e+000,-2.53133096229185e+000

4.78351759563174e+005,-9.94106249079626e+000,-2.56667278662570e+000

4.85029301283321e+005,-9.94102278454904e+000,-2.60250820903632e+000

4.91800058012158e+005,-9.94098196283320e+000,-2.63884413027924e+000

4.98665330982714e+005,-9.94093999433562e+000,-2.67568754788217e+000

5.05626439592555e+005,-9.94089684686571e+000,-2.71304555751387e+000

5.12684721657352e+005,-9.94085248733063e+000,-2.75092535437386e+000

5.19841533667984e+005,-9.94080688171026e+000,-2.78933423460163e+000

5.27098251051240e+005,-9.94075999503112e+000,-2.82827959670795e+000

5.34456268434150e+005,-9.94071179133994e+000,-2.86776894302497e+000

5.41916999912011e+005,-9.94066223367609e+000,-2.90780988117950e+000

