Freq.,VOut,OutRef

1.00000000000000e+004,-7.45528230234892e+000,-1.62826483886512e-002

1.01395947979003e+004,-7.45528229983081e+000,-1.65099456925836e-002

1.02811382665607e+004,-7.45528229724202e+000,-1.67404159478152e-002

1.04246576084112e+004,-7.45528229458052e+000,-1.69741034476270e-002

1.05701804056138e+004,-7.45528229184429e+000,-1.72110531028581e-002

1.07177346253629e+004,-7.45528228903083e+000,-1.74513104541154e-002

1.08673486252606e+004,-7.45528228613812e+000,-1.76949216741334e-002

1.10190511587661e+004,-7.45528228316432e+000,-1.79419335786445e-002

1.11728713807222e+004,-7.45528228010690e+000,-1.81923936410352e-002

1.13288388529580e+004,-7.45528227696387e+000,-1.84463499934555e-002

1.14869835499703e+004,-7.45528227373192e+000,-1.87038514483176e-002

1.16473358646846e+004,-7.45528227040956e+000,-1.89649474866504e-002

1.18099266142953e+004,-7.45528226699344e+000,-1.92296882924673e-002

1.19747870461893e+004,-7.45528226348139e+000,-1.94981247413924e-002

1.21419488439505e+004,-7.45528225987080e+000,-1.97703084225596e-002

1.23114441334492e+004,-7.45528225615831e+000,-2.00462916489694e-002

1.24833054890161e+004,-7.45528225234195e+000,-2.03261274544615e-002

1.26575659397028e+004,-7.45528224841791e+000,-2.06098696250756e-002

1.28342589756290e+004,-7.45528224438377e+000,-2.08975726874457e-002

1.30134185544193e+004,-7.45528224023586e+000,-2.11892919374095e-002

1.31950791077289e+004,-7.45528223597180e+000,-2.14850834335495e-002

1.33792755478611e+004,-7.45528223158773e+000,-2.17850040262637e-002

1.35660432744767e+004,-7.45528222708020e+000,-2.20891113558638e-002

1.37554181813974e+004,-7.45528222244601e+000,-2.23974638653948e-002

1.39474366635040e+004,-7.45528221768180e+000,-2.27101208142224e-002

1.41421356237309e+004,-7.45528221278337e+000,-2.30271422933447e-002

1.43395524801583e+004,-7.45528220774741e+000,-2.33485892265678e-002

1.45397251732031e+004,-7.45528220256946e+000,-2.36745233945829e-002

1.47426921729110e+004,-7.45528219724620e+000,-2.40050074326155e-002

1.49484924863494e+004,-7.45528219177333e+000,-2.43401048560135e-002

1.51571656651040e+004,-7.45528218614687e+000,-2.46798800635566e-002

1.53687518128801e+004,-7.45528218036205e+000,-2.50243983577107e-002

1.55832915932100e+004,-7.45528217441414e+000,-2.53737259513363e-002

1.58008262372675e+004,-7.45528216829959e+000,-2.57279299731515e-002

1.60213975517924e+004,-7.45528216201294e+000,-2.60870785003143e-002

1.62450479271247e+004,-7.45528215554926e+000,-2.64512405563475e-002

1.64718203453514e+004,-7.45528214890431e+000,-2.68204861228145e-002

1.67017583885674e+004,-7.45528214207241e+000,-2.71948861666010e-002

1.69349062472505e+004,-7.45528213504817e+000,-2.75745126423110e-002

1.71713087287550e+004,-7.45528212782684e+000,-2.79594385041410e-002

1.74110112659224e+004,-7.45528212040239e+000,-2.83497377318131e-002

1.76540599258131e+004,-7.45528211276897e+000,-2.87454853357223e-002

1.79005014185594e+004,-7.45528210492133e+000,-2.91467573684326e-002

1.81503831063432e+004,-7.45528209685277e+000,-2.95536309523120e-002

1.84037530124975e+004,-7.45528208855741e+000,-2.99661842800345e-002

1.86606598307361e+004,-7.45528208002891e+000,-3.03844966376780e-002

1.89211529345119e+004,-7.45528207126071e+000,-3.08086484184629e-002

1.91852823865052e+004,-7.45528206224560e+000,-3.12387211406563e-002

1.94530989482457e+004,-7.45528205297747e+000,-3.16747974520842e-002

1.97246540898671e+004,-7.45528204344864e+000,-3.21169611636942e-002

1.99999999999999e+004,-7.45528203365180e+000,-3.25652972521804e-002

2.02791895958005e+004,-7.45528202357985e+000,-3.30198918778201e-002

2.05622765331213e+004,-7.45528201322456e+000,-3.34808324099192e-002

2.08493152168224e+004,-7.45528200257823e+000,-3.39482074321281e-002

2.11403608112276e+004,-7.45528199163230e+000,-3.44221067695521e-002

2.14354692507258e+004,-7.45528198037887e+000,-3.49026214943620e-002

2.17346972505211e+004,-7.45528196880886e+000,-3.53898439570417e-002

2.20381023175322e+004,-7.45528195691399e+000,-3.58838677899557e-002

2.23457427614443e+004,-7.45528194468453e+000,-3.63847879408480e-002

2.26576777059159e+004,-7.45528193211108e+000,-3.68927006785738e-002

2.29739670999406e+004,-7.45528191918421e+000,-3.74077036146433e-002

2.32946717293690e+004,-7.45528190589383e+000,-3.79298957253591e-002

2.36198532285905e+004,-7.45528189222993e+000,-3.84593773667292e-002

2.39495740923785e+004,-7.45528187818181e+000,-3.89962502979079e-002

2.42838976879009e+004,-7.45528186373893e+000,-3.95406176961216e-002

2.46228882668982e+004,-7.45528184888978e+000,-4.00925841827419e-002

2.49666109780322e+004,-7.45528183362327e+000,-4.06522558351194e-002

2.53151318794055e+004,-7.45528181792776e+000,-4.12197402126848e-002

2.56685179512580e+004,-7.45528180179083e+000,-4.17951463794997e-002

2.60268371088386e+004,-7.45528178520007e+000,-4.23785849197419e-002

2.63901582154578e+004,-7.45528176814301e+000,-4.29701679592861e-002

2.67585510957221e+004,-7.45528175060658e+000,-4.35700091906512e-002

2.71320865489533e+004,-7.45528173257674e+000,-4.41782238980387e-002

2.75108363627948e+004,-7.45528171404023e+000,-4.47949289667727e-002

2.78948733270080e+004,-7.45528169498270e+000,-4.54202429185864e-002

2.82842712474618e+004,-7.45528167538912e+000,-4.60542859316503e-002

2.86791049603164e+004,-7.45528165524499e+000,-4.66971798555505e-002

2.90794503464061e+004,-7.45528163453444e+000,-4.73490482469587e-002

2.94853843458219e+004,-7.45528161324155e+000,-4.80100163846217e-002

2.98969849726987e+004,-7.45528159134985e+000,-4.86802112973539e-002

3.03143313302078e+004,-7.45528156884321e+000,-4.93597617815801e-002

3.07375036257601e+004,-7.45528154570338e+000,-5.00487984423931e-002

3.11665831864199e+004,-7.45528152191318e+000,-5.07474536980708e-002

3.16016524745350e+004,-7.45528149745399e+000,-5.14558618213809e-002

3.20427951035848e+004,-7.45528147230740e+000,-5.21741589551645e-002

3.24900958542493e+004,-7.45528144645385e+000,-5.29024831459745e-002

3.29436406907028e+004,-7.45528141987328e+000,-5.36409743678951e-002

3.34035167771346e+004,-7.45528139254532e+000,-5.43897745474158e-002

3.38698124945009e+004,-7.45528136444923e+000,-5.51490275900769e-002

3.43426174575100e+004,-7.45528133556339e+000,-5.59188794127746e-002

3.48220225318448e+004,-7.45528130586513e+000,-5.66994779725477e-002

3.53081198516260e+004,-7.45528127533237e+000,-5.74909732830426e-002

3.58010028371187e+004,-7.45528124394076e+000,-5.82935174633854e-002

3.63007662126863e+004,-7.45528121166699e+000,-5.91072647449121e-002

3.68075060249948e+004,-7.45528117848564e+000,-5.99323715208519e-002

3.73213196614721e+004,-7.45528114437140e+000,-6.07689963631808e-002

3.78423058690237e+004,-7.45528110929827e+000,-6.16173000565826e-002

3.83705647730104e+004,-7.45528107323900e+000,-6.24774456338912e-002

3.89061978964912e+004,-7.45528103616616e+000,-6.33495983999216e-002

3.94493081797342e+004,-7.45528099805072e+000,-6.42339259725557e-002

3.99999999999998e+004,-7.45528095886381e+000,-6.51305983028487e-002

4.05583791916010e+004,-7.45528091857534e+000,-6.60397877176369e-002

4.11245530662425e+004,-7.45528087715420e+000,-6.69616689497542e-002

4.16986304336447e+004,-7.45528083456851e+000,-6.78964191710748e-002

4.22807216224550e+004,-7.45528079078569e+000,-6.88442180248806e-002

4.28709385014515e+004,-7.45528074577179e+000,-6.98052476660800e-002

4.34693945010421e+004,-7.45528069949228e+000,-7.07796927887095e-002

4.40762046350642e+004,-7.45528065191180e+000,-7.17677406654079e-002

4.46914855228886e+004,-7.45528060299387e+000,-7.27695811826837e-002

4.53153554118317e+004,-7.45528055270023e+000,-7.37854068834451e-002

4.59479341998812e+004,-7.45528050099307e+000,-7.48154129884253e-002

4.65893434587380e+004,-7.45528044783188e+000,-7.58597974539719e-002

4.72397064571810e+004,-7.45528039317627e+000,-7.69187609917711e-002

4.78991481847569e+004,-7.45528033698414e+000,-7.79925071188665e-002

4.85677953758016e+004,-7.45528027921220e+000,-7.90812421937249e-002

4.92457765337964e+004,-7.45528021981607e+000,-8.01851754544966e-002

4.99332219560642e+004,-7.45528015875012e+000,-8.13045190599233e-002

5.06302637588109e+004,-7.45528009596736e+000,-8.24394881314152e-002

5.13370359025159e+004,-7.45528003141943e+000,-8.35903007931851e-002

5.20536742176771e+004,-7.45527996505689e+000,-8.47571782130638e-002

5.27803164309155e+004,-7.45527989682885e+000,-8.59403446464207e-002

5.35171021914442e+004,-7.45527982668242e+000,-8.71400274827911e-002

5.42641730979066e+004,-7.45527975456378e+000,-8.83564572823416e-002

5.50216727255895e+004,-7.45527968041781e+000,-8.95898678224837e-002

5.57897466540159e+004,-7.45527960418732e+000,-9.08404961474004e-002

5.65685424949235e+004,-7.45527952581373e+000,-9.21085826088717e-002

5.73582099206328e+004,-7.45527944523668e+000,-9.33943709147921e-002

5.81589006928121e+004,-7.45527936239425e+000,-9.46981081744453e-002

5.89707686916437e+004,-7.45527927722300e+000,-9.60200449448058e-002

5.97939699453972e+004,-7.45527918965707e+000,-9.73604352848288e-002

6.06286626604156e+004,-7.45527909962939e+000,-9.87195367959769e-002

6.14750072515201e+004,-7.45527900707070e+000,-1.00097610677642e-001

6.23331663728396e+004,-7.45527891190988e+000,-1.01494921774784e-001

6.32033049490698e+004,-7.45527881407363e+000,-1.02911738630873e-001

6.40855902071694e+004,-7.45527871348693e+000,-1.04348333535755e-001

6.49801917084985e+004,-7.45527861007222e+000,-1.05804982583318e-001

6.58872813814055e+004,-7.45527850375025e+000,-1.07281965718288e-001

6.68070335542691e+004,-7.45527839443903e+000,-1.08779566796675e-001

6.77396249890018e+004,-7.45527828205468e+000,-1.10298073634252e-001

6.86852349150199e+004,-7.45527816651103e+000,-1.11837778064296e-001

6.96440450636895e+004,-7.45527804771884e+000,-1.13398975998019e-001

7.06162397032520e+004,-7.45527792558683e+000,-1.14981967474648e-001

7.16020056742374e+004,-7.45527780002137e+000,-1.16587056720302e-001

7.26015324253724e+004,-7.45527767092572e+000,-1.18214552210976e-001

7.36150120499896e+004,-7.45527753820074e+000,-1.19864766726979e-001

7.46426393229441e+004,-7.45527740174435e+000,-1.21538017415883e-001

7.56846117380472e+004,-7.45527726145178e+000,-1.23234625851426e-001

7.67411295460207e+004,-7.45527711721477e+000,-1.24954918099826e-001

7.78123957929823e+004,-7.45527696892290e+000,-1.26699224773329e-001

7.88986163594682e+004,-7.45527681646212e+000,-1.28467881103158e-001

7.99999999999995e+004,-7.45527665971480e+000,-1.30261227002193e-001

8.11167583832018e+004,-7.45527649856089e+000,-1.32079607123109e-001

8.22491061324848e+004,-7.45527633287634e+000,-1.33923370933344e-001

8.33972608672892e+004,-7.45527616253373e+000,-1.35792872778953e-001

8.45614432449099e+004,-7.45527598740212e+000,-1.37688471951168e-001

8.57418770029029e+004,-7.45527580734688e+000,-1.39610532757329e-001

8.69387890020841e+004,-7.45527562222962e+000,-1.41559424590441e-001

8.81524092701283e+004,-7.45527543190813e+000,-1.43535521999435e-001

8.93829710457770e+004,-7.45527523623581e+000,-1.45539204764210e-001

9.06307108236633e+004,-7.45527503506248e+000,-1.47570857963280e-001

9.18958683997622e+004,-7.45527482823341e+000,-1.49630872052486e-001

9.31786869174758e+004,-7.45527461558969e+000,-1.51719642937428e-001

9.44794129143618e+004,-7.45527439696770e+000,-1.53837572052255e-001

9.57982963695136e+004,-7.45527417219938e+000,-1.55985066433312e-001

9.71355907516031e+004,-7.45527394111184e+000,-1.58162538800596e-001

9.84915530675926e+004,-7.45527370352780e+000,-1.60370407631960e-001

9.98664439121282e+004,-7.45527345926430e+000,-1.62609097252084e-001

1.01260527517622e+005,-7.45527320813355e+000,-1.64879037906945e-001

1.02674071805032e+005,-7.45527294994272e+000,-1.67180665846772e-001

1.04107348435354e+005,-7.45527268449299e+000,-1.69514423416121e-001

1.05560632861831e+005,-7.45527241158071e+000,-1.71880759129350e-001

1.07034204382888e+005,-7.45527213099558e+000,-1.74280127767699e-001

1.08528346195813e+005,-7.45527184252232e+000,-1.76712990455841e-001

1.10043345451179e+005,-7.45527154593893e+000,-1.79179814759396e-001

1.11579493308032e+005,-7.45527124101754e+000,-1.81681074768985e-001

1.13137084989847e+005,-7.45527092752350e+000,-1.84217251195903e-001

1.14716419841265e+005,-7.45527060521617e+000,-1.86788831458343e-001

1.16317801385624e+005,-7.45527027384749e+000,-1.89396309782733e-001

1.17941537383287e+005,-7.45526993316277e+000,-1.92040187292937e-001

1.19587939890794e+005,-7.45526958290023e+000,-1.94720972108063e-001

1.21257325320831e+005,-7.45526922279038e+000,-1.97439179442572e-001

1.22950014503040e+005,-7.45526885255663e+000,-2.00195331700496e-001

1.24666332745679e+005,-7.45526847191408e+000,-2.02989958582000e-001

1.26406609898139e+005,-7.45526808057035e+000,-2.05823597178230e-001

1.28171180414339e+005,-7.45526767822446e+000,-2.08696792081337e-001

1.29960383416997e+005,-7.45526726456716e+000,-2.11610095483773e-001

1.31774562762811e+005,-7.45526683928037e+000,-2.14564067288493e-001

1.33614067108538e+005,-7.45526640203722e+000,-2.17559275212743e-001

1.35479249978003e+005,-7.45526595250153e+000,-2.20596294901072e-001

1.37370469830040e+005,-7.45526549032768e+000,-2.23675710033204e-001

1.39288090127379e+005,-7.45526501516050e+000,-2.26798112436307e-001

1.41232479406504e+005,-7.45526452663468e+000,-2.29964102200765e-001

1.43204011348474e+005,-7.45526402437442e+000,-2.33174287795267e-001

1.45203064850745e+005,-7.45526350799396e+000,-2.36429286179652e-001

1.47230024099979e+005,-7.45526297709595e+000,-2.39729722930625e-001

1.49285278645888e+005,-7.45526243127256e+000,-2.43076232354348e-001

1.51369223476094e+005,-7.45526187010402e+000,-2.46469457614925e-001

1.53482259092041e+005,-7.45526129315888e+000,-2.49910050854421e-001

1.55624791585964e+005,-7.45526069999382e+000,-2.53398673317113e-001

1.57797232718936e+005,-7.45526009015273e+000,-2.56935995481108e-001

1.59999999999999e+005,-7.45525946316678e+000,-2.60522697183369e-001

1.62233516766403e+005,-7.45525881855379e+000,-2.64159467753256e-001

1.64498212264969e+005,-7.45525815581860e+000,-2.67847006139391e-001

1.66794521734578e+005,-7.45525747445136e+000,-2.71586021053292e-001

1.69122886489819e+005,-7.45525677392852e+000,-2.75377231096219e-001

1.71483754005805e+005,-7.45525605371132e+000,-2.79221364904329e-001

1.73877578004168e+005,-7.45525531324622e+000,-2.83119161284152e-001

1.76304818540256e+005,-7.45525455196402e+000,-2.87071369356609e-001

1.78765942091554e+005,-7.45525376927933e+000,-2.91078748702087e-001

1.81261421647326e+005,-7.45525296459068e+000,-2.95142069502893e-001

1.83791736799524e+005,-7.45525213727916e+000,-2.99262112696785e-001

1.86357373834951e+005,-7.45525128670908e+000,-3.03439670120043e-001

1.88958825828723e+005,-7.45525041222636e+000,-3.07675544667144e-001

1.91596592739027e+005,-7.45524951315876e+000,-3.11970550439717e-001

1.94271181503206e+005,-7.45524858881525e+000,-3.16325512904537e-001

1.96983106135185e+005,-7.45524763848504e+000,-3.20741269054371e-001

1.99732887824256e+005,-7.45524666143772e+000,-3.25218667565211e-001

2.02521055035243e+005,-7.45524565692201e+000,-3.29758568963143e-001

2.05348143610063e+005,-7.45524462416597e+000,-3.34361845785432e-001

2.08214696870707e+005,-7.45524356237533e+000,-3.39029382754398e-001

2.11121265723661e+005,-7.45524247073406e+000,-3.43762076940724e-001

2.14068408765776e+005,-7.45524134840297e+000,-3.48560837940515e-001

2.17056692391625e+005,-7.45524019451912e+000,-3.53426588049735e-001

2.20086690902357e+005,-7.45523900819556e+000,-3.58360262439145e-001

2.23158986616063e+005,-7.45523778852030e+000,-3.63362809336391e-001

2.26274169979693e+005,-7.45523653455565e+000,-3.68435190207871e-001

2.29432839682530e+005,-7.45523524533772e+000,-3.73578379942240e-001

2.32635602771247e+005,-7.45523391987534e+000,-3.78793367040281e-001

2.35883074766574e+005,-7.45523255714977e+000,-3.84081153801752e-001

2.39175879781588e+005,-7.45523115611315e+000,-3.89442756522824e-001

2.42514650641661e+005,-7.45522971568852e+000,-3.94879205686767e-001

2.45900029006080e+005,-7.45522823476874e+000,-4.00391546163187e-001

2.49332665491357e+005,-7.45522671221509e+000,-4.05980837412604e-001

2.52813219796278e+005,-7.45522514685735e+000,-4.11648153684751e-001

2.56342360828676e+005,-7.45522353749208e+000,-4.17394584229122e-001

2.59920766833993e+005,-7.45522188288213e+000,-4.23221233502612e-001

2.63549125525621e+005,-7.45522018175540e+000,-4.29129221383741e-001

2.67228134217075e+005,-7.45521843280433e+000,-4.35119683384606e-001

2.70958499956006e+005,-7.45521663468442e+000,-4.41193770872691e-001

2.74740939660078e+005,-7.45521478601325e+000,-4.47352651291595e-001

2.78576180254757e+005,-7.45521288536985e+000,-4.53597508383244e-001

2.82464958813007e+005,-7.45521093129312e+000,-4.59929542418187e-001

2.86408022696948e+005,-7.45520892228076e+000,-4.66349970426446e-001

2.90406129701488e+005,-7.45520685678857e+000,-4.72860026428676e-001

2.94460048199957e+005,-7.45520473322859e+000,-4.79460961677893e-001

2.98570557291775e+005,-7.45520254996849e+000,-4.86154044895856e-001

3.02738446952187e+005,-7.45520030532979e+000,-4.92940562521074e-001

3.06964518184081e+005,-7.45519799758713e+000,-4.99821818951985e-001

3.11249583171928e+005,-7.45519562496647e+000,-5.06799136801474e-001

3.15594465437872e+005,-7.45519318564384e+000,-5.13873857150648e-001

3.19999999999997e+005,-7.45519067774418e+000,-5.21047339804620e-001

3.24467033532806e+005,-7.45518809933948e+000,-5.28320963557426e-001

3.28996424529938e+005,-7.45518544844785e+000,-5.35696126453534e-001

3.33589043469155e+005,-7.45518272303144e+000,-5.43174246060109e-001

3.38245772979638e+005,-7.45517992099507e+000,-5.50756759739221e-001

3.42967508011610e+005,-7.45517704018489e+000,-5.58445124921961e-001

3.47755156008335e+005,-7.45517407838640e+000,-5.66240819391306e-001

3.52609637080511e+005,-7.45517103332283e+000,-5.74145341565590e-001

3.57531884183106e+005,-7.45516790265329e+000,-5.82160210787956e-001

3.62522843294651e+005,-7.45516468397141e+000,-5.90286967615873e-001

3.67583473599047e+005,-7.45516137480287e+000,-5.98527174121019e-001

3.72714747669902e+005,-7.45515797260385e+000,-6.06882414188122e-001

3.77917651657445e+005,-7.45515447475911e+000,-6.15354293819594e-001

3.83193185478053e+005,-7.45515087857995e+000,-6.23944441444811e-001

3.88542363006410e+005,-7.45514718130200e+000,-6.32654508233969e-001

3.93966212270369e+005,-7.45514338008305e+000,-6.41486168416683e-001

3.99465775648511e+005,-7.45513947200120e+000,-6.50441119602288e-001

4.05042110070485e+005,-7.45513545405242e+000,-6.59521083106978e-001

4.10696287220124e+005,-7.45513132314808e+000,-6.68727804287136e-001

4.16429393741414e+005,-7.45512707611282e+000,-6.78063052873311e-001

4.22242531447321e+005,-7.45512270968210e+000,-6.87528623311267e-001

4.28136817531551e+005,-7.45511822049947e+000,-6.97126335108509e-001

4.34113384783250e+005,-7.45511360511417e+000,-7.06858033183606e-001

4.40173381804713e+005,-7.45510885997849e+000,-7.16725588221767e-001

4.46317973232124e+005,-7.45510398144505e+000,-7.26730897034114e-001

4.52548339959385e+005,-7.45509896576380e+000,-7.36875882925182e-001

4.58865679365059e+005,-7.45509380907943e+000,-7.47162496061093e-001

4.65271205542494e+005,-7.45508850742816e+000,-7.57592713846310e-001

4.71766149533147e+005,-7.45508305673475e+000,-7.68168541304711e-001

4.78351759563174e+005,-7.45507745280956e+000,-7.78892011464177e-001

4.85029301283321e+005,-7.45507169134515e+000,-7.89765185749993e-001

4.91800058012158e+005,-7.45506576791293e+000,-8.00790154381222e-001

4.98665330982714e+005,-7.45505967795992e+000,-8.11969036772930e-001

5.05626439592555e+005,-7.45505341680504e+000,-8.23303981946391e-001

5.12684721657352e+005,-7.45504697963580e+000,-8.34797168940197e-001

5.19841533667984e+005,-7.45504036150438e+000,-8.46450807232320e-001

5.27098251051240e+005,-7.45503355732387e+000,-8.58267137165662e-001

5.34456268434150e+005,-7.45502656186427e+000,-8.70248430379789e-001

5.41916999912011e+005,-7.45501936974891e+000,-8.82396990246990e-001

