Freq.,VOut,OutRef

1.00000000000000e+004,-2.31062709093495e+001,-3.69788035832626e-001

1.01395947979003e+004,-2.31062726288415e+001,-3.74950056787969e-001

1.02811382665607e+004,-2.31062743966744e+001,-3.80184135695982e-001

1.04246576084112e+004,-2.31062762142073e+001,-3.85491278397972e-001

1.05701804056138e+004,-2.31062780828370e+001,-3.90872504775603e-001

1.07177346253629e+004,-2.31062800040003e+001,-3.96328848943579e-001

1.08673486252606e+004,-2.31062819791742e+001,-4.01861359449835e-001

1.10190511587661e+004,-2.31062840098767e+001,-4.07471099479542e-001

1.11728713807222e+004,-2.31062860976692e+001,-4.13159147054282e-001

1.13288388529580e+004,-2.31062882441565e+001,-4.18926595242366e-001

1.14869835499703e+004,-2.31062904509888e+001,-4.24774552369117e-001

1.16473358646846e+004,-2.31062927198623e+001,-4.30704142227965e-001

1.18099266142953e+004,-2.31062950525216e+001,-4.36716504295917e-001

1.19747870461893e+004,-2.31062974507595e+001,-4.42812793954935e-001

1.21419488439505e+004,-2.31062999164199e+001,-4.48994182711303e-001

1.23114441334492e+004,-2.31063024513979e+001,-4.55261858423063e-001

1.24833054890161e+004,-2.31063050576425e+001,-4.61617025524701e-001

1.26575659397028e+004,-2.31063077371570e+001,-4.68060905261166e-001

1.28342589756290e+004,-2.31063104920014e+001,-4.74594735922174e-001

1.30134185544193e+004,-2.31063133242931e+001,-4.81219773078648e-001

1.31950791077289e+004,-2.31063162362098e+001,-4.87937289823762e-001

1.33792755478611e+004,-2.31063192299895e+001,-4.94748577020734e-001

1.35660432744767e+004,-2.31063223079339e+001,-5.01654943545371e-001

1.37554181813974e+004,-2.31063254724089e+001,-5.08657716540717e-001

1.39474366635040e+004,-2.31063287258471e+001,-5.15758241672377e-001

1.41421356237309e+004,-2.31063320707496e+001,-5.22957883384050e-001

1.43395524801583e+004,-2.31063355096876e+001,-5.30258025162104e-001

1.45397251732031e+004,-2.31063390453046e+001,-5.37660069800268e-001

1.47426921729110e+004,-2.31063426803184e+001,-5.45165439668054e-001

1.49484924863494e+004,-2.31063464175235e+001,-5.52775576984551e-001

1.51571656651040e+004,-2.31063502597925e+001,-5.60491944095939e-001

1.53687518128801e+004,-2.31063542100791e+001,-5.68316023755170e-001

1.55832915932100e+004,-2.31063582714198e+001,-5.76249319406762e-001

1.58008262372675e+004,-2.31063624469367e+001,-5.84293355474886e-001

1.60213975517924e+004,-2.31063667398393e+001,-5.92449677657912e-001

1.62450479271247e+004,-2.31063711534277e+001,-6.00719853222546e-001

1.64718203453514e+004,-2.31063756910946e+001,-6.09105471305849e-001

1.67017583885674e+004,-2.31063803563280e+001,-6.17608143220801e-001

1.69349062472505e+004,-2.31063851527141e+001,-6.26229502763498e-001

1.71713087287550e+004,-2.31063900839397e+001,-6.34971206529117e-001

1.74110112659224e+004,-2.31063951537954e+001,-6.43834934227700e-001

1.76540599258131e+004,-2.31064003661784e+001,-6.52822389008028e-001

1.79005014185594e+004,-2.31064057250953e+001,-6.61935297782924e-001

1.81503831063432e+004,-2.31064112346653e+001,-6.71175411562393e-001

1.84037530124975e+004,-2.31064168991237e+001,-6.80544505786553e-001

1.86606598307361e+004,-2.31064227228244e+001,-6.90044380669982e-001

1.89211529345119e+004,-2.31064287102439e+001,-6.99676861544728e-001

1.91852823865052e+004,-2.31064348659846e+001,-7.09443799210274e-001

1.94530989482457e+004,-2.31064411947781e+001,-7.19347070289590e-001

1.97246540898671e+004,-2.31064477014893e+001,-7.29388577587484e-001

1.99999999999999e+004,-2.31064543911194e+001,-7.39570250458938e-001

2.02791895958005e+004,-2.31064612688105e+001,-7.49894045174675e-001

2.05622765331213e+004,-2.31064683398492e+001,-7.60361945298960e-001

2.08493152168224e+004,-2.31064756096705e+001,-7.70975962069252e-001

2.11403608112276e+004,-2.31064830838624e+001,-7.81738134782422e-001

2.14354692507258e+004,-2.31064907681697e+001,-7.92650531184800e-001

2.17346972505211e+004,-2.31064986684991e+001,-8.03715247868587e-001

2.20381023175322e+004,-2.31065067909229e+001,-8.14934410674512e-001

2.23457427614443e+004,-2.31065151416842e+001,-8.26310175099627e-001

2.26576777059159e+004,-2.31065237272015e+001,-8.37844726708899e-001

2.29739670999406e+004,-2.31065325540740e+001,-8.49540281554655e-001

2.32946717293690e+004,-2.31065416290861e+001,-8.61399086601975e-001

2.36198532285905e+004,-2.31065509592128e+001,-8.73423420159301e-001

2.39495740923785e+004,-2.31065605516255e+001,-8.85615592313145e-001

2.42838976879009e+004,-2.31065704136968e+001,-8.97977945373304e-001

2.46228882668982e+004,-2.31065805530067e+001,-9.10512854319259e-001

2.49666109780322e+004,-2.31065909773483e+001,-9.23222727256433e-001

2.53151318794055e+004,-2.31066016947334e+001,-9.36110005877435e-001

2.56685179512580e+004,-2.31066127133993e+001,-9.49177165928203e-001

2.60268371088386e+004,-2.31066240418145e+001,-9.62426717685138e-001

2.63901582154578e+004,-2.31066356886860e+001,-9.75861206431544e-001

2.67585510957221e+004,-2.31066476629649e+001,-9.89483212948837e-001

2.71320865489533e+004,-2.31066599738544e+001,-1.00329535400790e+000

2.75108363627948e+004,-2.31066726308157e+001,-1.01730028287267e+000

2.78948733270080e+004,-2.31066856435765e+001,-1.03150068980468e+000

2.82842712474618e+004,-2.31066990221376e+001,-1.04589930257992e+000

2.86791049603164e+004,-2.31067127767808e+001,-1.06049888701168e+000

2.90794503464061e+004,-2.31067269180770e+001,-1.07530224747621e+000

2.94853843458219e+004,-2.31067414568939e+001,-1.09031222745406e+000

2.98969849726987e+004,-2.31067564044048e+001,-1.10553171006925e+000

3.03143313302078e+004,-2.31067717720971e+001,-1.12096361864398e+000

3.07375036257601e+004,-2.31067875717807e+001,-1.13661091725596e+000

3.11665831864199e+004,-2.31068038155975e+001,-1.15247661130585e+000

3.16016524745350e+004,-2.31068205160305e+001,-1.16856374809168e+000

3.20427951035848e+004,-2.31068376859136e+001,-1.18487541739081e+000

3.24900958542493e+004,-2.31068553384413e+001,-1.20141475205078e+000

3.29436406907028e+004,-2.31068734871787e+001,-1.21818492858917e+000

3.34035167771346e+004,-2.31068921460723e+001,-1.23518916779730e+000

3.38698124945009e+004,-2.31069113294601e+001,-1.25243073535913e+000

3.43426174575100e+004,-2.31069310520832e+001,-1.26991294247257e+000

3.48220225318448e+004,-2.31069513290969e+001,-1.28763914648249e+000

3.53081198516260e+004,-2.31069721760822e+001,-1.30561275152210e+000

3.58010028371187e+004,-2.31069936090579e+001,-1.32383720916174e+000

3.63007662126863e+004,-2.31070156444929e+001,-1.34231601906800e+000

3.68075060249948e+004,-2.31070382993187e+001,-1.36105272967263e+000

3.73213196614721e+004,-2.31070615909423e+001,-1.38005093884782e+000

3.78423058690237e+004,-2.31070855372602e+001,-1.39931429459307e+000

3.83705647730104e+004,-2.31071101566712e+001,-1.41884649573094e+000

3.89061978964912e+004,-2.31071354680911e+001,-1.43865129261251e+000

3.94493081797342e+004,-2.31071614909673e+001,-1.45873248783101e+000

3.99999999999998e+004,-2.31071882452933e+001,-1.47909393694771e+000

4.05583791916010e+004,-2.31072157516240e+001,-1.49973954922642e+000

4.11245530662425e+004,-2.31072440310921e+001,-1.52067328837686e+000

4.16986304336447e+004,-2.31072731054237e+001,-1.54189917331094e+000

4.22807216224550e+004,-2.31073029969552e+001,-1.56342127890607e+000

4.28709385014515e+004,-2.31073337286503e+001,-1.58524373678317e+000

4.34693945010421e+004,-2.31073653241176e+001,-1.60737073608975e+000

4.40762046350642e+004,-2.31073978076291e+001,-1.62980652429975e+000

4.46914855228886e+004,-2.31074312041380e+001,-1.65255540801869e+000

4.53153554118317e+004,-2.31074655392988e+001,-1.67562175380389e+000

4.59479341998812e+004,-2.31075008394862e+001,-1.69900998899360e+000

4.65893434587380e+004,-2.31075371318155e+001,-1.72272460254874e+000

4.72397064571810e+004,-2.31075744441637e+001,-1.74677014590473e+000

4.78991481847569e+004,-2.31076128051905e+001,-1.77115123383543e+000

4.85677953758016e+004,-2.31076522443601e+001,-1.79587254533069e+000

4.92457765337964e+004,-2.31076927919646e+001,-1.82093882448121e+000

4.99332219560642e+004,-2.31077344791461e+001,-1.84635488138160e+000

5.06302637588109e+004,-2.31077773379214e+001,-1.87212559303869e+000

5.13370359025159e+004,-2.31078214012062e+001,-1.89825590429897e+000

5.20536742176771e+004,-2.31078667028401e+001,-1.92475082878310e+000

5.27803164309155e+004,-2.31079132776129e+001,-1.95161544983690e+000

5.35171021914442e+004,-2.31079611612909e+001,-1.97885492149236e+000

5.42641730979066e+004,-2.31080103906447e+001,-2.00647446944258e+000

5.50216727255895e+004,-2.31080610034768e+001,-2.03447939203134e+000

5.57897466540159e+004,-2.31081130386508e+001,-2.06287506125334e+000

5.65685424949235e+004,-2.31081665361213e+001,-2.09166692376983e+000

5.73582099206328e+004,-2.31082215369642e+001,-2.12086050193674e+000

5.81589006928121e+004,-2.31082780834082e+001,-2.15046139484749e+000

5.89707686916437e+004,-2.31083362188672e+001,-2.18047527938898e+000

5.97939699453972e+004,-2.31083959879732e+001,-2.21090791131191e+000

6.06286626604156e+004,-2.31084574366109e+001,-2.24176512631601e+000

6.14750072515201e+004,-2.31085206119523e+001,-2.27305284114825e+000

6.23331663728396e+004,-2.31085855624932e+001,-2.30477705471763e+000

6.32033049490698e+004,-2.31086523380898e+001,-2.33694384922305e+000

6.40855902071694e+004,-2.31087209899971e+001,-2.36955939129717e+000

6.49801917084985e+004,-2.31087915709080e+001,-2.40262993316499e+000

6.58872813814055e+004,-2.31088641349936e+001,-2.43616181381791e+000

6.68070335542691e+004,-2.31089387379444e+001,-2.47016146020344e+000

6.77396249890018e+004,-2.31090154370129e+001,-2.50463538843011e+000

6.86852349150199e+004,-2.31090942910575e+001,-2.53959020498861e+000

6.96440450636895e+004,-2.31091753605870e+001,-2.57503260798971e+000

7.06162397032520e+004,-2.31092587078073e+001,-2.61096938841639e+000

7.16020056742374e+004,-2.31093443966683e+001,-2.64740743139448e+000

7.26015324253724e+004,-2.31094324929132e+001,-2.68435371747867e+000

7.36150120499896e+004,-2.31095230641283e+001,-2.72181532395613e+000

7.46426393229441e+004,-2.31096161797947e+001,-2.75979942616629e+000

7.56846117380472e+004,-2.31097119113410e+001,-2.79831329883802e+000

7.67411295460207e+004,-2.31098103321982e+001,-2.83736431744488e+000

7.78123957929823e+004,-2.31099115178551e+001,-2.87695995957626e+000

7.88986163594682e+004,-2.31100155459163e+001,-2.91710780632876e+000

7.99999999999995e+004,-2.31101224961609e+001,-2.95781554371224e+000

8.11167583832018e+004,-2.31102324506035e+001,-2.99909096407698e+000

8.22491061324848e+004,-2.31103454935564e+001,-3.04094196755714e+000

8.33972608672892e+004,-2.31104617116940e+001,-3.08337656353334e+000

8.45614432449099e+004,-2.31105811941186e+001,-3.12640287211452e+000

8.57418770029029e+004,-2.31107040324280e+001,-3.17002912563706e+000

8.69387890020841e+004,-2.31108303207853e+001,-3.21426367018468e+000

8.81524092701283e+004,-2.31109601559907e+001,-3.25911496712602e+000

8.93829710457770e+004,-2.31110936375544e+001,-3.30459159467274e+000

9.06307108236633e+004,-2.31112308677728e+001,-3.35070224945655e+000

9.18958683997622e+004,-2.31113719518057e+001,-3.39745574812611e+000

9.31786869174758e+004,-2.31115169977565e+001,-3.44486102896391e+000

9.44794129143618e+004,-2.31116661167539e+001,-3.49292715352324e+000

9.57982963695136e+004,-2.31118194230364e+001,-3.54166330828589e+000

9.71355907516031e+004,-2.31119770340386e+001,-3.59107880633871e+000

9.84915530675926e+004,-2.31121390704804e+001,-3.64118308907360e+000

9.98664439121282e+004,-2.31123056564587e+001,-3.69198572790489e+000

1.01260527517622e+005,-2.31124769195407e+001,-3.74349642601102e+000

1.02674071805032e+005,-2.31126529908609e+001,-3.79572502009430e+000

1.04107348435354e+005,-2.31128340052204e+001,-3.84868148216487e+000

1.05560632861831e+005,-2.31130201011882e+001,-3.90237592134395e+000

1.07034204382888e+005,-2.31132114212068e+001,-3.95681858568922e+000

1.08528346195813e+005,-2.31134081116990e+001,-4.01201986404275e+000

1.10043345451179e+005,-2.31136103231791e+001,-4.06799028789992e+000

1.11579493308032e+005,-2.31138182103658e+001,-4.12474053330119e+000

1.13137084989847e+005,-2.31140319322996e+001,-4.18228142274487e+000

1.14716419841265e+005,-2.31142516524621e+001,-4.24062392712402e+000

1.16317801385624e+005,-2.31144775388997e+001,-4.29977916768393e+000

1.17941537383287e+005,-2.31147097643494e+001,-4.35975841800361e+000

1.19587939890794e+005,-2.31149485063697e+001,-4.42057310599908e+000

1.21257325320831e+005,-2.31151939474735e+001,-4.48223481594955e+000

1.22950014503040e+005,-2.31154462752653e+001,-4.54475529054777e+000

1.24666332745679e+005,-2.31157056825825e+001,-4.60814643297145e+000

1.26406609898139e+005,-2.31159723676398e+001,-4.67242030897910e+000

1.28171180414339e+005,-2.31162465341779e+001,-4.73758914902835e+000

1.29960383416997e+005,-2.31165283916165e+001,-4.80366535041845e+000

1.31774562762811e+005,-2.31168181552110e+001,-4.87066147945503e+000

1.33614067108538e+005,-2.31171160462132e+001,-4.93859027363883e+000

1.35479249978003e+005,-2.31174222920377e+001,-5.00746464387756e+000

1.37370469830040e+005,-2.31177371264312e+001,-5.07729767672186e+000

1.39288090127379e+005,-2.31180607896469e+001,-5.14810263662290e+000

1.41232479406504e+005,-2.31183935286245e+001,-5.21989296821659e+000

1.43204011348474e+005,-2.31187355971735e+001,-5.29268229862768e+000

1.45203064850745e+005,-2.31190872561628e+001,-5.36648443980028e+000

1.47230024099979e+005,-2.31194487737145e+001,-5.44131339084965e+000

1.49285278645888e+005,-2.31198204254036e+001,-5.51718334043863e+000

1.51369223476094e+005,-2.31202024944623e+001,-5.59410866917710e+000

1.53482259092041e+005,-2.31205952719905e+001,-5.67210395204404e+000

1.55624791585964e+005,-2.31209990571712e+001,-5.75118396083368e+000

1.57797232718936e+005,-2.31214141574927e+001,-5.83136366662388e+000

1.59999999999999e+005,-2.31218408889755e+001,-5.91265824226758e+000

1.62233516766403e+005,-2.31222795764059e+001,-5.99508306490733e+000

1.64498212264969e+005,-2.31227305535760e+001,-6.07865371851126e+000

1.66794521734578e+005,-2.31231941635296e+001,-6.16338599643347e+000

1.69122886489819e+005,-2.31236707588151e+001,-6.24929590399374e+000

1.71483754005805e+005,-2.31241607017441e+001,-6.33639966108155e+000

1.73877578004168e+005,-2.31246643646584e+001,-6.42471370478017e+000

1.76304818540256e+005,-2.31251821302025e+001,-6.51425469201311e+000

1.78765942091554e+005,-2.31257143916044e+001,-6.60503950220991e+000

1.81261421647326e+005,-2.31262615529628e+001,-6.69708523999492e+000

1.83791736799524e+005,-2.31268240295430e+001,-6.79040923789400e+000

1.86357373834951e+005,-2.31274022480790e+001,-6.88502905906224e+000

1.88958825828723e+005,-2.31279966470852e+001,-6.98096250003080e+000

1.91596592739027e+005,-2.31286076771746e+001,-7.07822759347273e+000

1.94271181503206e+005,-2.31292358013867e+001,-7.17684261098623e+000

1.96983106135185e+005,-2.31298814955225e+001,-7.27682606589728e+000

1.99732887824256e+005,-2.31305452484893e+001,-7.37819671607804e+000

2.02521055035243e+005,-2.31312275626540e+001,-7.48097356678236e+000

2.05348143610063e+005,-2.31319289542050e+001,-7.58517587349686e+000

2.08214696870707e+005,-2.31326499535242e+001,-7.69082314480811e+000

2.11121265723661e+005,-2.31333911055677e+001,-7.79793514528212e+000

2.14068408765776e+005,-2.31341529702570e+001,-7.90653189835958e+000

2.17056692391625e+005,-2.31349361228797e+001,-8.01663368926206e+000

2.20086690902357e+005,-2.31357411545000e+001,-8.12826106791126e+000

2.23158986616063e+005,-2.31365686723803e+001,-8.24143485185738e+000

2.26274169979693e+005,-2.31374193004130e+001,-8.35617612921919e+000

2.29432839682530e+005,-2.31382936795632e+001,-8.47250626163066e+000

2.32635602771247e+005,-2.31391924683223e+001,-8.59044688719665e+000

2.35883074766574e+005,-2.31401163431732e+001,-8.71001992345370e+000

2.39175879781588e+005,-2.31410659990671e+001,-8.83124757033632e+000

2.42514650641661e+005,-2.31420421499111e+001,-8.95415231314685e+000

2.45900029006080e+005,-2.31430455290696e+001,-9.07875692552702e+000

2.49332665491357e+005,-2.31440768898762e+001,-9.20508447243066e+000

2.52813219796278e+005,-2.31451370061590e+001,-9.33315831309522e+000

2.56342360828676e+005,-2.31462266727786e+001,-9.46300210401063e+000

2.59920766833993e+005,-2.31473467061793e+001,-9.59463980188377e+000

2.63549125525621e+005,-2.31484979449524e+001,-9.72809566659734e+000

2.67228134217075e+005,-2.31496812504148e+001,-9.86339426415969e+000

2.70958499956006e+005,-2.31508975071999e+001,-1.00005604696454e+001

2.74740939660078e+005,-2.31521476238631e+001,-1.01396194701238e+001

2.78576180254757e+005,-2.31534325335016e+001,-1.02805967675715e+001

2.82464958813007e+005,-2.31547531943884e+001,-1.04235181817706e+001

2.86408022696948e+005,-2.31561105906216e+001,-1.05684098531864e+001

2.90406129701488e+005,-2.31575057327881e+001,-1.07152982458235e+001

2.94460048199957e+005,-2.31589396586428e+001,-1.08642101500583e+001

2.98570557291775e+005,-2.31604134338036e+001,-1.10151726854443e+001

3.02738446952187e+005,-2.31619281524617e+001,-1.11682133034876e+001

3.06964518184081e+005,-2.31634849381084e+001,-1.13233597903896e+001

3.11249583171928e+005,-2.31650849442770e+001,-1.14806402697543e+001

3.15594465437872e+005,-2.31667293553032e+001,-1.16400832052556e+001

3.19999999999997e+005,-2.31684193870999e+001,-1.18017174032636e+001

3.24467033532806e+005,-2.31701562879504e+001,-1.19655720154236e+001

3.28996424529938e+005,-2.31719413393187e+001,-1.21316765411864e+001

3.33589043469155e+005,-2.31737758566758e+001,-1.23000608302848e+001

3.38245772979638e+005,-2.31756611903454e+001,-1.24707550851538e+001

3.42967508011610e+005,-2.31775987263658e+001,-1.26437898632879e+001

3.47755156008335e+005,-2.31795898873706e+001,-1.28191960795348e+001

3.52609637080511e+005,-2.31816361334869e+001,-1.29970050083176e+001

3.57531884183106e+005,-2.31837389632524e+001,-1.31772482857836e+001

3.62522843294651e+005,-2.31858999145504e+001,-1.33599579118729e+001

3.67583473599047e+005,-2.31881205655630e+001,-1.35451662523049e+001

3.72714747669902e+005,-2.31904025357440e+001,-1.37329060404732e+001

3.77917651657445e+005,-2.31927474868094e+001,-1.39232103792483e+001

3.83193185478053e+005,-2.31951571237476e+001,-1.41161127426797e+001

3.88542363006410e+005,-2.31976331958476e+001,-1.43116469775927e+001

3.93966212270369e+005,-2.32001774977471e+001,-1.45098473050750e+001

3.99465775648511e+005,-2.32027918704991e+001,-1.47107483218449e+001

4.05042110070485e+005,-2.32054782026567e+001,-1.49143850014979e+001

4.10696287220124e+005,-2.32082384313786e+001,-1.51207926956234e+001

4.16429393741414e+005,-2.32110745435515e+001,-1.53300071347848e+001

4.22242531447321e+005,-2.32139885769328e+001,-1.55420644293581e+001

4.28136817531551e+005,-2.32169826213107e+001,-1.57570010702202e+001

4.34113384783250e+005,-2.32200588196844e+001,-1.59748539292814e+001

4.40173381804713e+005,-2.32232193694607e+001,-1.61956602598525e+001

4.46317973232124e+005,-2.32264665236704e+001,-1.64194576968424e+001

4.52548339959385e+005,-2.32298025922018e+001,-1.66462842567754e+001

4.58865679365059e+005,-2.32332299430515e+001,-1.68761783376223e+001

4.65271205542494e+005,-2.32367510035932e+001,-1.71091787184357e+001

4.71766149533147e+005,-2.32403682618625e+001,-1.73453245587833e+001

4.78351759563174e+005,-2.32440842678587e+001,-1.75846553979684e+001

4.85029301283321e+005,-2.32479016348621e+001,-1.78272111540309e+001

4.91800058012158e+005,-2.32518230407671e+001,-1.80730321225190e+001

4.98665330982714e+005,-2.32558512294294e+001,-1.83221589750229e+001

5.05626439592555e+005,-2.32599890120278e+001,-1.85746327574614e+001

5.12684721657352e+005,-2.32642392684392e+001,-1.88304948881127e+001

5.19841533667984e+005,-2.32686049486260e+001,-1.90897871553779e+001

5.27098251051240e+005,-2.32730890740356e+001,-1.93525517152711e+001

5.34456268434150e+005,-2.32776947390101e+001,-1.96188310886228e+001

5.41916999912011e+005,-2.32824251122063e+001,-1.98886681579895e+001

