Freq.,VOut,OutRef

1.00000000000000e+004,-2.13009245435497e+001,-3.26062321295875e-001

1.01395947979003e+004,-2.13009257684371e+001,-3.30613964526181e-001

1.02811382665607e+004,-2.13009270277604e+001,-3.35229145600469e-001

1.04246576084112e+004,-2.13009283224878e+001,-3.39908751441449e-001

1.05701804056138e+004,-2.13009296536144e+001,-3.44653681354660e-001

1.07177346253629e+004,-2.13009310221638e+001,-3.49464847195755e-001

1.08673486252606e+004,-2.13009324291878e+001,-3.54343173548867e-001

1.10190511587661e+004,-2.13009338757681e+001,-3.59289597903621e-001

1.11728713807222e+004,-2.13009353630170e+001,-3.64305070833592e-001

1.13288388529580e+004,-2.13009368920775e+001,-3.69390556182474e-001

1.14869835499703e+004,-2.13009384641253e+001,-3.74547031244946e-001

1.16473358646846e+004,-2.13009400803687e+001,-3.79775486958009e-001

1.18099266142953e+004,-2.13009417420502e+001,-3.85076928089071e-001

1.19747870461893e+004,-2.13009434504474e+001,-3.90452373428964e-001

1.21419488439505e+004,-2.13009452068735e+001,-3.95902855989692e-001

1.23114441334492e+004,-2.13009470126786e+001,-4.01429423201199e-001

1.24833054890161e+004,-2.13009488692512e+001,-4.07033137111341e-001

1.26575659397028e+004,-2.13009507780183e+001,-4.12715074593579e-001

1.28342589756290e+004,-2.13009527404472e+001,-4.18476327550471e-001

1.30134185544193e+004,-2.13009547580466e+001,-4.24318003124193e-001

1.31950791077289e+004,-2.13009568323675e+001,-4.30241223909918e-001

1.33792755478611e+004,-2.13009589650045e+001,-4.36247128171485e-001

1.35660432744767e+004,-2.13009611575969e+001,-4.42336870058708e-001

1.37554181813974e+004,-2.13009634118304e+001,-4.48511619829685e-001

1.39474366635040e+004,-2.13009657294378e+001,-4.54772564077450e-001

1.41421356237309e+004,-2.13009681122008e+001,-4.61120905953266e-001

1.43395524801583e+004,-2.13009705619510e+001,-4.67557865403648e-001

1.45397251732031e+004,-2.13009730805717e+001,-4.74084679398495e-001

1.47426921729110e+004,-2.13009756699989e+001,-4.80702602173770e-001

1.49484924863494e+004,-2.13009783322232e+001,-4.87412905469000e-001

1.51571656651040e+004,-2.13009810692911e+001,-4.94216878773917e-001

1.53687518128801e+004,-2.13009838833068e+001,-5.01115829573352e-001

1.55832915932100e+004,-2.13009867764333e+001,-5.08111083600089e-001

1.58008262372675e+004,-2.13009897508947e+001,-5.15203985090478e-001

1.60213975517924e+004,-2.13009928089775e+001,-5.22395897038906e-001

1.62450479271247e+004,-2.13009959530325e+001,-5.29688201463244e-001

1.64718203453514e+004,-2.13009991854765e+001,-5.37082299668430e-001

1.67017583885674e+004,-2.13010025087944e+001,-5.44579612515575e-001

1.69349062472505e+004,-2.13010059255409e+001,-5.52181580694165e-001

1.71713087287550e+004,-2.13010094383425e+001,-5.59889665000186e-001

1.74110112659224e+004,-2.13010130498995e+001,-5.67705346615759e-001

1.76540599258131e+004,-2.13010167629880e+001,-5.75630127392762e-001

1.79005014185594e+004,-2.13010205804624e+001,-5.83665530142379e-001

1.81503831063432e+004,-2.13010245052572e+001,-5.91813098926433e-001

1.84037530124975e+004,-2.13010285403893e+001,-6.00074399354309e-001

1.86606598307361e+004,-2.13010326889606e+001,-6.08451018883088e-001

1.89211529345119e+004,-2.13010369541600e+001,-6.16944567122292e-001

1.91852823865052e+004,-2.13010413392662e+001,-6.25556676143552e-001

1.94530989482457e+004,-2.13010458476500e+001,-6.34289000792286e-001

1.97246540898671e+004,-2.13010504827768e+001,-6.43143219007013e-001

1.99999999999999e+004,-2.13010552482097e+001,-6.52121032139900e-001

2.02791895958005e+004,-2.13010601476118e+001,-6.61224165283781e-001

2.05622765331213e+004,-2.13010651847491e+001,-6.70454367603905e-001

2.08493152168224e+004,-2.13010703634937e+001,-6.79813412671700e-001

2.11403608112276e+004,-2.13010756878262e+001,-6.89303098807981e-001

2.14354692507258e+004,-2.13010811618394e+001,-6.98925249424272e-001

2.17346972505211e+004,-2.13010867897409e+001,-7.08681713376067e-001

2.20381023175322e+004,-2.13010925758568e+001,-7.18574365315226e-001

2.23457427614443e+004,-2.13010985246346e+001,-7.28605106050350e-001

2.26576777059159e+004,-2.13011046406469e+001,-7.38775862911965e-001

2.29739670999406e+004,-2.13011109285949e+001,-7.49088590121181e-001

2.32946717293690e+004,-2.13011173933118e+001,-7.59545269165168e-001

2.36198532285905e+004,-2.13011240397668e+001,-7.70147909177001e-001

2.39495740923785e+004,-2.13011308730685e+001,-7.80898547320695e-001

2.42838976879009e+004,-2.13011378984695e+001,-7.91799249181713e-001

2.46228882668982e+004,-2.13011451213697e+001,-8.02852109164880e-001

2.49666109780322e+004,-2.13011525473209e+001,-8.14059250892994e-001

2.53151318794055e+004,-2.13011601820309e+001,-8.25422827616091e-001

2.56685179512580e+004,-2.13011680313681e+001,-8.36945022623300e-001

2.60268371088386e+004,-2.13011761013656e+001,-8.48628049662950e-001

2.63901582154578e+004,-2.13011843982261e+001,-8.60474153364359e-001

2.67585510957221e+004,-2.13011929283269e+001,-8.72485609669223e-001

2.71320865489533e+004,-2.13012016982242e+001,-8.84664726269416e-001

2.75108363627948e+004,-2.13012107146587e+001,-8.97013843046742e-001

2.78948733270080e+004,-2.13012199845603e+001,-9.09535332522762e-001

2.82842712474618e+004,-2.13012295150541e+001,-9.22231600312712e-001

2.86791049603164e+004,-2.13012393134649e+001,-9.35105085587579e-001

2.90794503464061e+004,-2.13012493873240e+001,-9.48158261539084e-001

2.94853843458219e+004,-2.13012597443737e+001,-9.61393635856560e-001

2.98969849726987e+004,-2.13012703925742e+001,-9.74813751204983e-001

3.03143313302078e+004,-2.13012813401096e+001,-9.88421185712020e-001

3.07375036257601e+004,-2.13012925953938e+001,-1.00221855346353e+000

3.11665831864199e+004,-2.13013041670770e+001,-1.01620850500164e+000

3.16016524745350e+004,-2.13013160640528e+001,-1.03039372783548e+000

3.20427951035848e+004,-2.13013282954647e+001,-1.04477694695143e+000

3.24900958542493e+004,-2.13013408707128e+001,-1.05936092533916e+000

3.29436406907028e+004,-2.13013537994619e+001,-1.07414846451791e+000

3.34035167771346e+004,-2.13013670916480e+001,-1.08914240507247e+000

3.38698124945009e+004,-2.13013807574865e+001,-1.10434562719836e+000

3.43426174575100e+004,-2.13013948074799e+001,-1.11976105125163e+000

3.48220225318448e+004,-2.13014092524255e+001,-1.13539163830893e+000

3.53081198516260e+004,-2.13014241034244e+001,-1.15124039073191e+000

3.58010028371187e+004,-2.13014393718895e+001,-1.16731035274323e+000

3.63007662126863e+004,-2.13014550695544e+001,-1.18360461100764e+000

3.68075060249948e+004,-2.13014712084823e+001,-1.20012629522363e+000

3.73213196614721e+004,-2.13014878010756e+001,-1.21687857872023e+000

3.78423058690237e+004,-2.13015048600851e+001,-1.23386467906408e+000

3.83705647730104e+004,-2.13015223986196e+001,-1.25108785867519e+000

3.89061978964912e+004,-2.13015404301566e+001,-1.26855142544962e+000

3.94493081797342e+004,-2.13015589685521e+001,-1.28625873339102e+000

3.99999999999998e+004,-2.13015780280515e+001,-1.30421318325292e+000

4.05583791916010e+004,-2.13015976233003e+001,-1.32241822318682e+000

4.11245530662425e+004,-2.13016177693556e+001,-1.34087734940237e+000

4.16986304336447e+004,-2.13016384816976e+001,-1.35959410683215e+000

4.22807216224550e+004,-2.13016597762411e+001,-1.37857208981221e+000

4.28709385014515e+004,-2.13016816693484e+001,-1.39781494276454e+000

4.34693945010421e+004,-2.13017041778412e+001,-1.41732636089435e+000

4.40762046350642e+004,-2.13017273190139e+001,-1.43711009089570e+000

4.46914855228886e+004,-2.13017511106467e+001,-1.45716993166439e+000

4.53153554118317e+004,-2.13017755710193e+001,-1.47750973502428e+000

4.59479341998812e+004,-2.13018007189250e+001,-1.49813340645982e+000

4.65893434587380e+004,-2.13018265736847e+001,-1.51904490586257e+000

4.72397064571810e+004,-2.13018531551624e+001,-1.54024824828498e+000

4.78991481847569e+004,-2.13018804837797e+001,-1.56174750470488e+000

4.85677953758016e+004,-2.13019085805323e+001,-1.58354680280176e+000

4.92457765337964e+004,-2.13019374670052e+001,-1.60565032774264e+000

4.99332219560642e+004,-2.13019671653898e+001,-1.62806232297965e+000

5.06302637588109e+004,-2.13019976985007e+001,-1.65078709105615e+000

5.13370359025159e+004,-2.13020290897936e+001,-1.67382899442698e+000

5.20536742176771e+004,-2.13020613633824e+001,-1.69719245628802e+000

5.27803164309155e+004,-2.13020945440587e+001,-1.72088196141696e+000

5.35171021914442e+004,-2.13021286573100e+001,-1.74490205702686e+000

5.42641730979066e+004,-2.13021637293398e+001,-1.76925735363002e+000

5.50216727255895e+004,-2.13021997870874e+001,-1.79395252591323e+000

5.57897466540159e+004,-2.13022368582483e+001,-1.81899231362810e+000

5.65685424949235e+004,-2.13022749712960e+001,-1.84438152248838e+000

5.73582099206328e+004,-2.13023141555034e+001,-1.87012502508448e+000

5.81589006928121e+004,-2.13023544409652e+001,-1.89622776180652e+000

5.89707686916437e+004,-2.13023958586211e+001,-1.92269474178267e+000

5.97939699453972e+004,-2.13024384402798e+001,-1.94953104382804e+000

6.06286626604156e+004,-2.13024822186424e+001,-1.97674181740880e+000

6.14750072515201e+004,-2.13025272273285e+001,-2.00433228361620e+000

6.23331663728396e+004,-2.13025735009013e+001,-2.03230773615662e+000

6.32033049490698e+004,-2.13026210748943e+001,-2.06067354235409e+000

6.40855902071694e+004,-2.13026699858383e+001,-2.08943514416480e+000

6.49801917084985e+004,-2.13027202712897e+001,-2.11859805920806e+000

6.58872813814055e+004,-2.13027719698588e+001,-2.14816788180793e+000

6.68070335542691e+004,-2.13028251212396e+001,-2.17815028405211e+000

6.77396249890018e+004,-2.13028797662402e+001,-2.20855101686262e+000

6.86852349150199e+004,-2.13029359468138e+001,-2.23937591108175e+000

6.96440450636895e+004,-2.13029937060909e+001,-2.27063087857263e+000

7.06162397032520e+004,-2.13030530884123e+001,-2.30232191333418e+000

7.16020056742374e+004,-2.13031141393631e+001,-2.33445509263102e+000

7.26015324253724e+004,-2.13031769058071e+001,-2.36703657813904e+000

7.36150120499896e+004,-2.13032414359233e+001,-2.40007261710550e+000

7.46426393229441e+004,-2.13033077792418e+001,-2.43356954352401e+000

7.56846117380472e+004,-2.13033759866828e+001,-2.46753377932753e+000

7.67411295460207e+004,-2.13034461105943e+001,-2.50197183559431e+000

7.78123957929823e+004,-2.13035182047929e+001,-2.53689031377149e+000

7.88986163594682e+004,-2.13035923246045e+001,-2.57229590691437e+000

7.99999999999995e+004,-2.13036685269069e+001,-2.60819540094210e+000

8.11167583832018e+004,-2.13037468701726e+001,-2.64459567591071e+000

8.22491061324848e+004,-2.13038274145140e+001,-2.68150370730047e+000

8.33972608672892e+004,-2.13039102217289e+001,-2.71892656732394e+000

8.45614432449099e+004,-2.13039953553477e+001,-2.75687142624744e+000

8.57418770029029e+004,-2.13040828806823e+001,-2.79534555373182e+000

8.69387890020841e+004,-2.13041728648749e+001,-2.83435632019095e+000

8.81524092701283e+004,-2.13042653769503e+001,-2.87391119816705e+000

8.93829710457770e+004,-2.13043604878675e+001,-2.91401776372375e+000

9.06307108236633e+004,-2.13044582705746e+001,-2.95468369785833e+000

9.18958683997622e+004,-2.13045588000637e+001,-2.99591678793138e+000

9.31786869174758e+004,-2.13046621534285e+001,-3.03772492911489e+000

9.44794129143618e+004,-2.13047684099225e+001,-3.08011612586022e+000

9.57982963695136e+004,-2.13048776510198e+001,-3.12309849338274e+000

9.71355907516031e+004,-2.13049899604765e+001,-3.16668025916817e+000

9.84915530675926e+004,-2.13051054243953e+001,-3.21086976449580e+000

9.98664439121282e+004,-2.13052241312898e+001,-3.25567546598325e+000

1.01260527517622e+005,-2.13053461721527e+001,-3.30110593714873e+000

1.02674071805032e+005,-2.13054716405246e+001,-3.34716986999562e+000

1.04107348435354e+005,-2.13056006325651e+001,-3.39387607661468e+000

1.05560632861831e+005,-2.13057332471256e+001,-3.44123349080804e+000

1.07034204382888e+005,-2.13058695858246e+001,-3.48925116973359e+000

1.08528346195813e+005,-2.13060097531248e+001,-3.53793829556900e+000

1.10043345451179e+005,-2.13061538564121e+001,-3.58730417719757e+000

1.11579493308032e+005,-2.13063020060772e+001,-3.63735825191459e+000

1.13137084989847e+005,-2.13064543155994e+001,-3.68811008715505e+000

1.14716419841265e+005,-2.13066109016321e+001,-3.73956938224251e+000

1.16317801385624e+005,-2.13067718840917e+001,-3.79174597015976e+000

1.17941537383287e+005,-2.13069373862480e+001,-3.84464981934159e+000

1.19587939890794e+005,-2.13071075348176e+001,-3.89829103548841e+000

1.21257325320831e+005,-2.13072824600596e+001,-3.95267986340307e+000

1.22950014503040e+005,-2.13074622958742e+001,-4.00782668884991e+000

1.24666332745679e+005,-2.13076471799042e+001,-4.06374204043419e+000

1.26406609898139e+005,-2.13078372536380e+001,-4.12043659150855e+000

1.28171180414339e+005,-2.13080326625176e+001,-4.17792116209654e+000

1.29960383416997e+005,-2.13082335560471e+001,-4.23620672084495e+000

1.31774562762811e+005,-2.13084400879065e+001,-4.29530438699366e+000

1.33614067108538e+005,-2.13086524160669e+001,-4.35522543237362e+000

1.35479249978003e+005,-2.13088707029098e+001,-4.41598128342445e+000

1.37370469830040e+005,-2.13090951153488e+001,-4.47758352323800e+000

1.39288090127379e+005,-2.13093258249560e+001,-4.54004389362456e+000

1.41232479406504e+005,-2.13095630080902e+001,-4.60337429720296e+000

1.43204011348474e+005,-2.13098068460299e+001,-4.66758679951430e+000

1.45203064850745e+005,-2.13100575251092e+001,-4.73269363116043e+000

1.47230024099979e+005,-2.13103152368578e+001,-4.79870718996643e+000

1.49285278645888e+005,-2.13105801781443e+001,-4.86564004316635e+000

1.51369223476094e+005,-2.13108525513242e+001,-4.93350492961431e+000

1.53482259092041e+005,-2.13111325643910e+001,-5.00231476202001e+000

1.55624791585964e+005,-2.13114204311319e+001,-5.07208262920787e+000

1.57797232718936e+005,-2.13117163712877e+001,-5.14282179840174e+000

1.59999999999999e+005,-2.13120206107173e+001,-5.21454571753320e+000

1.62233516766403e+005,-2.13123333815656e+001,-5.28726801757552e+000

1.64498212264969e+005,-2.13126549224372e+001,-5.36100251490105e+000

1.66794521734578e+005,-2.13129854785739e+001,-5.43576321366492e+000

1.69122886489819e+005,-2.13133253020375e+001,-5.51156430821208e+000

1.71483754005805e+005,-2.13136746518970e+001,-5.58842018550922e+000

1.73877578004168e+005,-2.13140337944218e+001,-5.66634542760179e+000

1.76304818540256e+005,-2.13144030032782e+001,-5.74535481409599e+000

1.78765942091554e+005,-2.13147825597338e+001,-5.82546332466368e+000

1.81261421647326e+005,-2.13151727528647e+001,-5.90668614157361e+000

1.83791736799524e+005,-2.13155738797703e+001,-5.98903865224640e+000

1.86357373834951e+005,-2.13159862457923e+001,-6.07253645183334e+000

1.88958825828723e+005,-2.13164101647409e+001,-6.15719534581972e+000

1.91596592739027e+005,-2.13168459591257e+001,-6.24303135265272e+000

1.94271181503206e+005,-2.13172939603936e+001,-6.33006070639205e+000

1.96983106135185e+005,-2.13177545091726e+001,-6.41829985938533e+000

1.99732887824256e+005,-2.13182279555227e+001,-6.50776548496582e+000

2.02521055035243e+005,-2.13187146591919e+001,-6.59847448017464e+000

2.05348143610063e+005,-2.13192149898809e+001,-6.69044396850477e+000

2.08214696870707e+005,-2.13197293275131e+001,-6.78369130266831e+000

2.11121265723661e+005,-2.13202580625127e+001,-6.87823406738600e+000

2.14068408765776e+005,-2.13208015960898e+001,-6.97409008219847e+000

2.17056692391625e+005,-2.13213603405324e+001,-7.07127740429960e+000

2.20086690902357e+005,-2.13219347195072e+001,-7.16981433139018e+000

2.23158986616063e+005,-2.13225251683668e+001,-7.26971940455354e+000

2.26274169979693e+005,-2.13231321344659e+001,-7.37101141114991e+000

2.29432839682530e+005,-2.13237560774856e+001,-7.47370938773218e+000

2.32635602771247e+005,-2.13243974697652e+001,-7.57783262297941e+000

2.35883074766574e+005,-2.13250567966436e+001,-7.68340066064998e+000

2.39175879781588e+005,-2.13257345568090e+001,-7.79043330255173e+000

2.42514650641661e+005,-2.13264312626572e+001,-7.89895061153014e+000

2.45900029006080e+005,-2.13271474406600e+001,-8.00897291447307e+000

2.49332665491357e+005,-2.13278836317416e+001,-8.12052080533021e+000

2.52813219796278e+005,-2.13286403916662e+001,-8.23361514814872e+000

2.56342360828676e+005,-2.13294182914338e+001,-8.34827708012243e+000

2.59920766833993e+005,-2.13302179176870e+001,-8.46452801465409e+000

2.63549125525621e+005,-2.13310398731279e+001,-8.58238964442969e+000

2.67228134217075e+005,-2.13318847769448e+001,-8.70188394450438e+000

2.70958499956006e+005,-2.13327532652504e+001,-8.82303317539788e+000

2.74740939660078e+005,-2.13336459915303e+001,-8.94585988619898e+000

2.78576180254757e+005,-2.13345636271030e+001,-9.07038691767774e+000

2.82464958813007e+005,-2.13355068615905e+001,-9.19663740540411e+000

2.86408022696948e+005,-2.13364764034017e+001,-9.32463478287098e+000

2.90406129701488e+005,-2.13374729802264e+001,-9.45440278462127e+000

2.94460048199957e+005,-2.13384973395418e+001,-9.58596544937742e+000

2.98570557291775e+005,-2.13395502491318e+001,-9.71934712317011e+000

3.02738446952187e+005,-2.13406324976176e+001,-9.85457246246725e+000

3.06964518184081e+005,-2.13417448950023e+001,-9.99166643729863e+000

3.11249583171928e+005,-2.13428882732278e+001,-1.01306543343774e+001

3.15594465437872e+005,-2.13440634867450e+001,-1.02715617602127e+001

3.19999999999997e+005,-2.13452714130972e+001,-1.04144146442158e+001

3.24467033532806e+005,-2.13465129535186e+001,-1.05592392417935e+001

3.28996424529938e+005,-2.13477890335441e+001,-1.07060621374301e+001

3.33589043469155e+005,-2.13491006036365e+001,-1.08549102477530e+001

3.38245772979638e+005,-2.13504486398253e+001,-1.10058108245804e+001

3.42967508011610e+005,-2.13518341443618e+001,-1.11587914579500e+001

3.47755156008335e+005,-2.13532581463886e+001,-1.13138800791231e+001

3.52609637080511e+005,-2.13547217026243e+001,-1.14711049635641e+001

3.57531884183106e+005,-2.13562258980633e+001,-1.16304947338920e+001

3.62522843294651e+005,-2.13577718466915e+001,-1.17920783627983e+001

3.67583473599047e+005,-2.13593606922176e+001,-1.19558851759327e+001

3.72714747669902e+005,-2.13609936088202e+001,-1.21219448547493e+001

3.77917651657445e+005,-2.13626718019119e+001,-1.22902874393125e+001

3.83193185478053e+005,-2.13643965089186e+001,-1.24609433310575e+001

3.88542363006410e+005,-2.13661690000764e+001,-1.26339432955027e+001

3.93966212270369e+005,-2.13679905792449e+001,-1.28093184649101e+001

3.99465775648511e+005,-2.13698625847372e+001,-1.29871003408893e+001

4.05042110070485e+005,-2.13717863901677e+001,-1.31673207969413e+001

4.10696287220124e+005,-2.13737634053164e+001,-1.33500120809379e+001

4.16429393741414e+005,-2.13757950770114e+001,-1.35352068175326e+001

4.22242531447321e+005,-2.13778828900281e+001,-1.37229380104971e+001

4.28136817531551e+005,-2.13800283680069e+001,-1.39132390449810e+001

4.34113384783250e+005,-2.13822330743881e+001,-1.41061436896874e+001

4.40173381804713e+005,-2.13844986133649e+001,-1.43016860989609e+001

4.46317973232124e+005,-2.13868266308543e+001,-1.44999008147820e+001

4.52548339959385e+005,-2.13892188154859e+001,-1.47008227686632e+001

4.58865679365059e+005,-2.13916768996089e+001,-1.49044872834401e+001

4.65271205542494e+005,-2.13942026603166e+001,-1.51109300749530e+001

4.71766149533147e+005,-2.13967979204896e+001,-1.53201872536125e+001

4.78351759563174e+005,-2.13994645498563e+001,-1.55322953258417e+001

4.85029301283321e+005,-2.14022044660718e+001,-1.57472911953917e+001

4.91800058012158e+005,-2.14050196358139e+001,-1.59652121645208e+001

4.98665330982714e+005,-2.14079120758974e+001,-1.61860959350320e+001

5.05626439592555e+005,-2.14108838544057e+001,-1.64099806091625e+001

5.12684721657352e+005,-2.14139370918394e+001,-1.66369046903168e+001

5.19841533667984e+005,-2.14170739622819e+001,-1.68669070836372e+001

5.27098251051240e+005,-2.14202966945824e+001,-1.71000270964037e+001

5.34456268434150e+005,-2.14236075735546e+001,-1.73363044382556e+001

5.41916999912011e+005,-2.14270089411917e+001,-1.75757792212275e+001

