Freq.,VOut,OutRef

1.00000000000000e+004,-4.04130593170557e+001,-3.21869407810045e-001

1.01395947979003e+004,-4.04130608533372e+001,-3.26362515322153e-001

1.02811382665607e+004,-4.04130624328089e+001,-3.30918343344364e-001

1.04246576084112e+004,-4.04130640566850e+001,-3.35537767382941e-001

1.05701804056138e+004,-4.04130657262141e+001,-3.40221675162930e-001

1.07177346253629e+004,-4.04130674426793e+001,-3.44970966802399e-001

1.08673486252606e+004,-4.04130692074004e+001,-3.49786554979343e-001

1.10190511587661e+004,-4.04130710217340e+001,-3.54669365113012e-001

1.11728713807222e+004,-4.04130728870746e+001,-3.59620335538728e-001

1.13288388529580e+004,-4.04130748048565e+001,-3.64640417686543e-001

1.14869835499703e+004,-4.04130767765537e+001,-3.69730576267970e-001

1.16473358646846e+004,-4.04130788036822e+001,-3.74891789457531e-001

1.18099266142953e+004,-4.04130808878000e+001,-3.80125049084255e-001

1.19747870461893e+004,-4.04130830305096e+001,-3.85431360817666e-001

1.21419488439505e+004,-4.04130852334579e+001,-3.90811744365529e-001

1.23114441334492e+004,-4.04130874983386e+001,-3.96267233665316e-001

1.24833054890161e+004,-4.04130898268927e+001,-4.01798877086915e-001

1.26575659397028e+004,-4.04130922209102e+001,-4.07407737631270e-001

1.28342589756290e+004,-4.04130946822315e+001,-4.13094893135366e-001

1.30134185544193e+004,-4.04130972127488e+001,-4.18861436478775e-001

1.31950791077289e+004,-4.04130998144072e+001,-4.24708475794627e-001

1.33792755478611e+004,-4.04131024892068e+001,-4.30637134680072e-001

1.35660432744767e+004,-4.04131052392038e+001,-4.36648552414862e-001

1.37554181813974e+004,-4.04131080665123e+001,-4.42743884178188e-001

1.39474366635040e+004,-4.04131109733054e+001,-4.48924301272645e-001

1.41421356237309e+004,-4.04131139618179e+001,-4.55190991344424e-001

1.43395524801583e+004,-4.04131170343472e+001,-4.61545158617267e-001

1.45397251732031e+004,-4.04131201932549e+001,-4.67988024119950e-001

1.47426921729110e+004,-4.04131234409697e+001,-4.74520825920935e-001

1.49484924863494e+004,-4.04131267799880e+001,-4.81144819367414e-001

1.51571656651040e+004,-4.04131302128765e+001,-4.87861277325754e-001

1.53687518128801e+004,-4.04131337422742e+001,-4.94671490425555e-001

1.55832915932100e+004,-4.04131373708943e+001,-5.01576767307032e-001

1.58008262372675e+004,-4.04131411015261e+001,-5.08578434872598e-001

1.60213975517924e+004,-4.04131449370373e+001,-5.15677838543629e-001

1.62450479271247e+004,-4.04131488803763e+001,-5.22876342514359e-001

1.64718203453514e+004,-4.04131529345746e+001,-5.30175330016606e-001

1.67017583885674e+004,-4.04131571027484e+001,-5.37576203586706e-001

1.69349062472505e+004,-4.04131613881020e+001,-5.45080385329589e-001

1.71713087287550e+004,-4.04131657939295e+001,-5.52689317197431e-001

1.74110112659224e+004,-4.04131703236176e+001,-5.60404461262873e-001

1.76540599258131e+004,-4.04131749806484e+001,-5.68227299999877e-001

1.79005014185594e+004,-4.04131797686018e+001,-5.76159336569398e-001

1.81503831063432e+004,-4.04131846911580e+001,-5.84202095107798e-001

1.84037530124975e+004,-4.04131897521011e+001,-5.92357121017672e-001

1.86606598307361e+004,-4.04131949553215e+001,-6.00625981265913e-001

1.89211529345119e+004,-4.04132003048187e+001,-6.09010264683149e-001

1.91852823865052e+004,-4.04132058047048e+001,-6.17511582270595e-001

1.94530989482457e+004,-4.04132114592076e+001,-6.26131567505999e-001

1.97246540898671e+004,-4.04132172726734e+001,-6.34871876660269e-001

1.99999999999999e+004,-4.04132232495711e+001,-6.43734189112289e-001

2.02791895958005e+004,-4.04132293944949e+001,-6.52720207672970e-001

2.05622765331213e+004,-4.04132357121682e+001,-6.61831658911408e-001

2.08493152168224e+004,-4.04132422074473e+001,-6.71070293484982e-001

2.11403608112276e+004,-4.04132488853248e+001,-6.80437886476701e-001

2.14354692507258e+004,-4.04132557509338e+001,-6.89936237734385e-001

2.17346972505211e+004,-4.04132628095517e+001,-6.99567172215673e-001

2.20381023175322e+004,-4.04132700666040e+001,-7.09332540339764e-001

2.23457427614443e+004,-4.04132775276689e+001,-7.19234218339866e-001

2.26576777059159e+004,-4.04132851984815e+001,-7.29274108623552e-001

2.29739670999406e+004,-4.04132930849379e+001,-7.39454140138234e-001

2.32946717293690e+004,-4.04133011930999e+001,-7.49776268740922e-001

2.36198532285905e+004,-4.04133095291998e+001,-7.60242477572022e-001

2.39495740923785e+004,-4.04133180996450e+001,-7.70854777435091e-001

2.42838976879009e+004,-4.04133269110231e+001,-7.81615207184968e-001

2.46228882668982e+004,-4.04133359701069e+001,-7.92525834114915e-001

2.49666109780322e+004,-4.04133452838591e+001,-8.03588754355698e-001

2.53151318794055e+004,-4.04133548594387e+001,-8.14806093274328e-001

2.56685179512580e+004,-4.04133647042056e+001,-8.26180005884307e-001

2.60268371088386e+004,-4.04133748257266e+001,-8.37712677256003e-001

2.63901582154578e+004,-4.04133852317812e+001,-8.49406322935683e-001

2.67585510957221e+004,-4.04133959303674e+001,-8.61263189371528e-001

2.71320865489533e+004,-4.04134069297082e+001,-8.73285554341353e-001

2.75108363627948e+004,-4.04134182382577e+001,-8.85475727390178e-001

2.78948733270080e+004,-4.04134298647074e+001,-8.97836050271988e-001

2.82842712474618e+004,-4.04134418179933e+001,-9.10368897398850e-001

2.86791049603164e+004,-4.04134541073023e+001,-9.23076676294261e-001

2.90794503464061e+004,-4.04134667420796e+001,-9.35961828054533e-001

2.94853843458219e+004,-4.04134797320360e+001,-9.49026827815915e-001

2.98969849726987e+004,-4.04134930871550e+001,-9.62274185227948e-001

3.03143313302078e+004,-4.04135068177007e+001,-9.75706444934570e-001

3.07375036257601e+004,-4.04135209342258e+001,-9.89326187059353e-001

3.11665831864199e+004,-4.04135354475793e+001,-1.00313602770114e+000

3.16016524745350e+004,-4.04135503689153e+001,-1.01713861943135e+000

3.20427951035848e+004,-4.04135657097012e+001,-1.03133665180557e+000

3.24900958542493e+004,-4.04135814817269e+001,-1.04573285187251e+000

3.29436406907028e+004,-4.04135976971133e+001,-1.06032998470077e+000

3.34035167771346e+004,-4.04136143683220e+001,-1.07513085390273e+000

3.38698124945009e+004,-4.04136315081649e+001,-1.09013830217336e+000

3.43426174575100e+004,-4.04136491298138e+001,-1.10535521183271e+000

3.48220225318448e+004,-4.04136672468108e+001,-1.12078450537558e+000

3.53081198516260e+004,-4.04136858730781e+001,-1.13642914603115e+000

3.58010028371187e+004,-4.04137050229296e+001,-1.15229213832870e+000

3.63007662126863e+004,-4.04137247110811e+001,-1.16837652866990e+000

3.68075060249948e+004,-4.04137449526619e+001,-1.18468540591296e+000

3.73213196614721e+004,-4.04137657632267e+001,-1.20122190195954e+000

3.78423058690237e+004,-4.04137871587667e+001,-1.21798919235484e+000

3.83705647730104e+004,-4.04138091557229e+001,-1.23499049689222e+000

3.89061978964912e+004,-4.04138317709981e+001,-1.25222908022774e+000

3.94493081797342e+004,-4.04138550219696e+001,-1.26970825250351e+000

3.99999999999998e+004,-4.04138789265036e+001,-1.28743136997734e+000

4.05583791916010e+004,-4.04139035029676e+001,-1.30540183566455e+000

4.11245530662425e+004,-4.04139287702456e+001,-1.32362309998555e+000

4.16986304336447e+004,-4.04139547477519e+001,-1.34209866142272e+000

4.22807216224550e+004,-4.04139814554462e+001,-1.36083206718932e+000

4.28709385014515e+004,-4.04140089138490e+001,-1.37982691390260e+000

4.34693945010421e+004,-4.04140371440570e+001,-1.39908684827009e+000

4.40762046350642e+004,-4.04140661677601e+001,-1.41861556778327e+000

4.46914855228886e+004,-4.04140960072568e+001,-1.43841682142224e+000

4.53153554118317e+004,-4.04141266854724e+001,-1.45849441036812e+000

4.59479341998812e+004,-4.04141582259761e+001,-1.47885218872600e+000

4.65893434587380e+004,-4.04141906529990e+001,-1.49949406425860e+000

4.72397064571810e+004,-4.04142239914528e+001,-1.52042399912976e+000

4.78991481847569e+004,-4.04142582669490e+001,-1.54164601065518e+000

4.85677953758016e+004,-4.04142935058185e+001,-1.56316417206803e+000

4.92457765337964e+004,-4.04143297351314e+001,-1.58498261329192e+000

4.99332219560642e+004,-4.04143669827184e+001,-1.60710552172391e+000

5.06302637588109e+004,-4.04144052771916e+001,-1.62953714303116e+000

5.13370359025159e+004,-4.04144446479668e+001,-1.65228178195485e+000

5.20536742176771e+004,-4.04144851252856e+001,-1.67534380312826e+000

5.27803164309155e+004,-4.04145267402390e+001,-1.69872763190272e+000

5.35171021914442e+004,-4.04145695247910e+001,-1.72243775518727e+000

5.42641730979066e+004,-4.04146135118031e+001,-1.74647872229890e+000

5.50216727255895e+004,-4.04146587350597e+001,-1.77085514582275e+000

5.57897466540159e+004,-4.04147052292936e+001,-1.79557170248732e+000

5.65685424949235e+004,-4.04147530302126e+001,-1.82063313404747e+000

5.73582099206328e+004,-4.04148021745275e+001,-1.84604424818255e+000

5.81589006928121e+004,-4.04148526999793e+001,-1.87180991940454e+000

5.89707686916437e+004,-4.04149046453687e+001,-1.89793508997941e+000

5.97939699453972e+004,-4.04149580505855e+001,-1.92442477086063e+000

6.06286626604156e+004,-4.04150129566396e+001,-1.95128404263469e+000

6.14750072515201e+004,-4.04150694056914e+001,-1.97851805648058e+000

6.23331663728396e+004,-4.04151274410854e+001,-2.00613203514014e+000

6.32033049490698e+004,-4.04151871073821e+001,-2.03413127390315e+000

6.40855902071694e+004,-4.04152484503930e+001,-2.06252114160508e+000

6.49801917084985e+004,-4.04153115172150e+001,-2.09130708163649e+000

6.58872813814055e+004,-4.04153763562668e+001,-2.12049461296923e+000

6.68070335542691e+004,-4.04154430173260e+001,-2.15008933119265e+000

6.77396249890018e+004,-4.04155115515668e+001,-2.18009690956589e+000

6.86852349150199e+004,-4.04155820115992e+001,-2.21052310008327e+000

6.96440450636895e+004,-4.04156544515094e+001,-2.24137373455428e+000

7.06162397032520e+004,-4.04157289269011e+001,-2.27265472569631e+000

7.16020056742374e+004,-4.04158054949377e+001,-2.30437206824436e+000

7.26015324253724e+004,-4.04158842143866e+001,-2.33653184007245e+000

7.36150120499896e+004,-4.04159651456631e+001,-2.36914020333200e+000

7.46426393229441e+004,-4.04160483508775e+001,-2.40220340560400e+000

7.56846117380472e+004,-4.04161338938819e+001,-2.43572778106692e+000

7.67411295460207e+004,-4.04162218403192e+001,-2.46971975167870e+000

7.78123957929823e+004,-4.04163122576732e+001,-2.50418582837581e+000

7.88986163594682e+004,-4.04164052153201e+001,-2.53913261228626e+000

7.99999999999995e+004,-4.04165007845810e+001,-2.57456679595940e+000

8.11167583832018e+004,-4.04165990387771e+001,-2.61049516461153e+000

8.22491061324848e+004,-4.04167000532849e+001,-2.64692459738691e+000

8.33972608672892e+004,-4.04168039055939e+001,-2.68386206863617e+000

8.45614432449099e+004,-4.04169106753657e+001,-2.72131464920946e+000

8.57418770029029e+004,-4.04170204444949e+001,-2.75928950776833e+000

8.69387890020841e+004,-4.04171332971708e+001,-2.79779391211264e+000

8.81524092701283e+004,-4.04172493199424e+001,-2.83683523052500e+000

8.93829710457770e+004,-4.04173686017837e+001,-2.87642093313235e+000

9.06307108236633e+004,-4.04174912341615e+001,-2.91655859328511e+000

9.18958683997622e+004,-4.04176173111051e+001,-2.95725588895301e+000

9.31786869174758e+004,-4.04177469292781e+001,-2.99852060413907e+000

9.44794129143618e+004,-4.04178801880511e+001,-3.04036063031172e+000

9.57982963695136e+004,-4.04180171895783e+001,-3.08278396785324e+000

9.71355907516031e+004,-4.04181580388743e+001,-3.12579872752848e+000

9.84915530675926e+004,-4.04183028438943e+001,-3.16941313197078e+000

9.98664439121282e+004,-4.04184517156160e+001,-3.21363551718559e+000

1.01260527517622e+005,-4.04186047681237e+001,-3.25847433407380e+000

1.02674071805032e+005,-4.04187621186953e+001,-3.30393814997356e+000

1.04107348435354e+005,-4.04189238878909e+001,-3.35003565022105e+000

1.05560632861831e+005,-4.04190901996442e+001,-3.39677563972898e+000

1.07034204382888e+005,-4.04192611813570e+001,-3.44416704458705e+000

1.08528346195813e+005,-4.04194369639949e+001,-3.49221891367938e+000

1.10043345451179e+005,-4.04196176821874e+001,-3.54094042032142e+000

1.11579493308032e+005,-4.04198034743291e+001,-3.59034086391896e+000

1.13137084989847e+005,-4.04199944826850e+001,-3.64042967164378e+000

1.14716419841265e+005,-4.04201908534979e+001,-3.69121640013134e+000

1.16317801385624e+005,-4.04203927370988e+001,-3.74271073719803e+000

1.17941537383287e+005,-4.04206002880210e+001,-3.79492250357754e+000

1.19587939890794e+005,-4.04208136651162e+001,-3.84786165468004e+000

1.21257325320831e+005,-4.04210330316755e+001,-3.90153828236804e+000

1.22950014503040e+005,-4.04212585555512e+001,-3.95596261675702e+000

1.24666332745679e+005,-4.04214904092849e+001,-4.01114502803279e+000

1.26406609898139e+005,-4.04217287702364e+001,-4.06709602829273e+000

1.28171180414339e+005,-4.04219738207180e+001,-4.12382627340556e+000

1.29960383416997e+005,-4.04222257481319e+001,-4.18134656489347e+000

1.31774562762811e+005,-4.04224847451107e+001,-4.23966785183466e+000

1.33614067108538e+005,-4.04227510096626e+001,-4.29880123278740e+000

1.35479249978003e+005,-4.04230247453206e+001,-4.35875795773374e+000

1.37370469830040e+005,-4.04233061612947e+001,-4.41954943004740e+000

1.39288090127379e+005,-4.04235954726297e+001,-4.48118720847936e+000

1.41232479406504e+005,-4.04238929003658e+001,-4.54368300916789e+000

1.43204011348474e+005,-4.04241986717052e+001,-4.60704870766727e+000

1.45203064850745e+005,-4.04245130201816e+001,-4.67129634099998e+000

1.47230024099979e+005,-4.04248361858352e+001,-4.73643810972921e+000

1.49285278645888e+005,-4.04251684153929e+001,-4.80248638005243e+000

1.51369223476094e+005,-4.04255099624517e+001,-4.86945368591654e+000

1.53482259092041e+005,-4.04258610876690e+001,-4.93735273115590e+000

1.55624791585964e+005,-4.04262220589569e+001,-5.00619639164813e+000

1.57797232718936e+005,-4.04265931516816e+001,-5.07599771749495e+000

1.59999999999999e+005,-4.04269746488692e+001,-5.14676993522120e+000

1.62233516766403e+005,-4.04273668414161e+001,-5.21852644999672e+000

1.64498212264969e+005,-4.04277700283051e+001,-5.29128084787855e+000

1.66794521734578e+005,-4.04281845168281e+001,-5.36504689807316e+000

1.69122886489819e+005,-4.04286106228139e+001,-5.43983855522125e+000

1.71483754005805e+005,-4.04290486708622e+001,-5.51566996170093e+000

1.73877578004168e+005,-4.04294989945847e+001,-5.59255544995252e+000

1.76304818540256e+005,-4.04299619368514e+001,-5.67050954482368e+000

1.78765942091554e+005,-4.04304378500445e+001,-5.74954696593326e+000

1.81261421647326e+005,-4.04309270963182e+001,-5.82968263005560e+000

1.83791736799524e+005,-4.04314300478662e+001,-5.91093165352460e+000

1.86357373834951e+005,-4.04319470871958e+001,-5.99330935465595e+000

1.88958825828723e+005,-4.04324786074091e+001,-6.07683125618872e+000

1.91596592739027e+005,-4.04330250124925e+001,-6.16151308774509e+000

1.94271181503206e+005,-4.04335867176124e+001,-6.24737078830834e+000

1.96983106135185e+005,-4.04341641494204e+001,-6.33442050871848e+000

1.99732887824256e+005,-4.04347577463649e+001,-6.42267861418482e+000

2.02521055035243e+005,-4.04353679590119e+001,-6.51216168681549e+000

2.05348143610063e+005,-4.04359952503739e+001,-6.60288652816303e+000

2.08214696870707e+005,-4.04366400962474e+001,-6.69487016178523e+000

2.11121265723661e+005,-4.04373029855591e+001,-6.78812983582234e+000

2.14068408765776e+005,-4.04379844207211e+001,-6.88268302558695e+000

2.17056692391625e+005,-4.04386849179954e+001,-6.97854743616910e+000

2.20086690902357e+005,-4.04394050078680e+001,-7.07574100505379e+000

2.23158986616063e+005,-4.04401452354321e+001,-7.17428190475093e+000

2.26274169979693e+005,-4.04409061607817e+001,-7.27418854543632e+000

2.29432839682530e+005,-4.04416883594152e+001,-7.37547957760487e+000

2.32635602771247e+005,-4.04424924226489e+001,-7.47817389473145e+000

2.35883074766574e+005,-4.04433189580418e+001,-7.58229063594204e+000

2.39175879781588e+005,-4.04441685898304e+001,-7.68784918869279e+000

2.42514650641661e+005,-4.04450419593753e+001,-7.79486919145442e+000

2.45900029006080e+005,-4.04459397256186e+001,-7.90337053640406e+000

2.49332665491357e+005,-4.04468625655524e+001,-8.01337337212059e+000

2.52813219796278e+005,-4.04478111747005e+001,-8.12489810628270e+000

2.56342360828676e+005,-4.04487862676108e+001,-8.23796540837040e+000

2.59920766833993e+005,-4.04497885783603e+001,-8.35259621236562e+000

2.63549125525621e+005,-4.04508188610730e+001,-8.46881171945281e+000

2.67228134217075e+005,-4.04518778904506e+001,-8.58663340071660e+000

2.70958499956006e+005,-4.04529664623155e+001,-8.70608299983582e+000

2.74740939660078e+005,-4.04540853941685e+001,-8.82718253577128e+000

2.78576180254757e+005,-4.04552355257587e+001,-8.94995430544699e+000

2.82464958813007e+005,-4.04564177196684e+001,-9.07442088642109e+000

2.86408022696948e+005,-4.04576328619114e+001,-9.20060513954633e+000

2.90406129701488e+005,-4.04588818625461e+001,-9.32853021161706e+000

2.94460048199957e+005,-4.04601656563036e+001,-9.45821953800019e+000

2.98570557291775e+005,-4.04614852032298e+001,-9.58969684525003e+000

3.02738446952187e+005,-4.04628414893438e+001,-9.72298615370175e+000

3.06964518184081e+005,-4.04642355273117e+001,-9.85811178004366e+000

3.11249583171928e+005,-4.04656683571354e+001,-9.99509833986389e+000

3.15594465437872e+005,-4.04671410468584e+001,-1.01339707501701e+001

3.19999999999997e+005,-4.04686546932876e+001,-1.02747542318785e+001

3.24467033532806e+005,-4.04702104227318e+001,-1.04174743122708e+001

3.28996424529938e+005,-4.04718093917570e+001,-1.05621568274136e+001

3.33589043469155e+005,-4.04734527879591e+001,-1.07088279245400e+001

3.38245772979638e+005,-4.04751418307542e+001,-1.08575140643881e+001

3.42967508011610e+005,-4.04768777721857e+001,-1.10082420234937e+001

3.47755156008335e+005,-4.04786618977508e+001,-1.11610388964341e+001

3.52609637080511e+005,-4.04804955272442e+001,-1.13159320980187e+001

3.57531884183106e+005,-4.04823800156205e+001,-1.14729493654229e+001

3.62522843294651e+005,-4.04843167538754e+001,-1.16321187602612e+001

3.67583473599047e+005,-4.04863071699462e+001,-1.17934686705961e+001

3.72714747669902e+005,-4.04883527296306e+001,-1.19570278128773e+001

3.77917651657445e+005,-4.04904549375262e+001,-1.21228252338080e+001

3.83193185478053e+005,-4.04926153379881e+001,-1.22908903121330e+001

3.88542363006410e+005,-4.04948355161077e+001,-1.24612527603443e+001

3.93966212270369e+005,-4.04971170987107e+001,-1.26339426262987e+001

3.99465775648511e+005,-4.04994617553753e+001,-1.28089902947436e+001

4.05042110070485e+005,-4.05018711994710e+001,-1.29864264887436e+001

4.10696287220124e+005,-4.05043471892181e+001,-1.31662822710050e+001

4.16429393741414e+005,-4.05068915287668e+001,-1.33485890450910e+001

4.22242531447321e+005,-4.05095060692981e+001,-1.35333785565211e+001

4.28136817531551e+005,-4.05121927101452e+001,-1.37206828937518e+001

4.34113384783250e+005,-4.05149533999351e+001,-1.39105344890284e+001

4.40173381804713e+005,-4.05177901377520e+001,-1.41029661191047e+001

4.46317973232124e+005,-4.05207049743211e+001,-1.42980109058225e+001

4.52548339959385e+005,-4.05237000132135e+001,-1.44957023165447e+001

4.58865679365059e+005,-4.05267774120719e+001,-1.46960741644341e+001

4.65271205542494e+005,-4.05299393838570e+001,-1.48991606085727e+001

4.71766149533147e+005,-4.05331881981149e+001,-1.51049961539118e+001

4.78351759563174e+005,-4.05365261822650e+001,-1.53136156510468e+001

4.85029301283321e+005,-4.05399557229080e+001,-1.55250542958092e+001

4.91800058012158e+005,-4.05434792671545e+001,-1.57393476286658e+001

4.98665330982714e+005,-4.05470993239735e+001,-1.59565315339201e+001

5.05626439592555e+005,-4.05508184655604e+001,-1.61766422387042e+001

5.12684721657352e+005,-4.05546393287244e+001,-1.63997163117552e+001

5.19841533667984e+005,-4.05585646162951e+001,-1.66257906619659e+001

5.27098251051240e+005,-4.05625970985474e+001,-1.68549025367018e+001

5.34456268434150e+005,-4.05667396146443e+001,-1.70870895198742e+001

5.41916999912011e+005,-4.05709950740975e+001,-1.73223895297612e+001

