Freq.,VOut,OutRef

1.00000000000000e+004,-2.56856031237609e+001,-5.39366863979465e-001

1.01395947979003e+004,-2.56856070669253e+001,-5.46896051359415e-001

1.02811382665607e+004,-2.56856111209440e+001,-5.54530338309161e-001

1.04246576084112e+004,-2.56856152889330e+001,-5.62271191796482e-001

1.05701804056138e+004,-2.56856195740964e+001,-5.70120099258656e-001

1.07177346253629e+004,-2.56856239797282e+001,-5.78078568889688e-001

1.08673486252606e+004,-2.56856285092149e+001,-5.86148129930126e-001

1.10190511587661e+004,-2.56856331660384e+001,-5.94330332958943e-001

1.11728713807222e+004,-2.56856379537783e+001,-6.02626750191787e-001

1.13288388529580e+004,-2.56856428761149e+001,-6.11038975783924e-001

1.14869835499703e+004,-2.56856479368320e+001,-6.19568626134403e-001

1.16473358646846e+004,-2.56856531398197e+001,-6.28217340195889e-001

1.18099266142953e+004,-2.56856584890774e+001,-6.36986779791205e-001

1.19747870461893e+004,-2.56856639887170e+001,-6.45878629930736e-001

1.21419488439505e+004,-2.56856696429660e+001,-6.54894599135573e-001

1.23114441334492e+004,-2.56856754561706e+001,-6.64036419766216e-001

1.24833054890161e+004,-2.56856814327993e+001,-6.73305848353196e-001

1.26575659397028e+004,-2.56856875774462e+001,-6.82704665935302e-001

1.28342589756290e+004,-2.56856938948345e+001,-6.92234678401843e-001

1.30134185544193e+004,-2.56857003898200e+001,-7.01897716837193e-001

1.31950791077289e+004,-2.56857070673954e+001,-7.11695637872531e-001

1.33792755478611e+004,-2.56857139326932e+001,-7.21630324042650e-001

1.35660432744767e+004,-2.56857209909906e+001,-7.31703684146667e-001

1.37554181813974e+004,-2.56857282477130e+001,-7.41917653613044e-001

1.39474366635040e+004,-2.56857357084382e+001,-7.52274194872132e-001

1.41421356237309e+004,-2.56857433789009e+001,-7.62775297731022e-001

1.43395524801583e+004,-2.56857512649969e+001,-7.73422979755978e-001

1.45397251732031e+004,-2.56857593727878e+001,-7.84219286658431e-001

1.47426921729110e+004,-2.56857677085054e+001,-7.95166292688123e-001

1.49484924863494e+004,-2.56857762785569e+001,-8.06266101029281e-001

1.51571656651040e+004,-2.56857850895295e+001,-8.17520844205001e-001

1.53687518128801e+004,-2.56857941481953e+001,-8.28932684485169e-001

1.55832915932100e+004,-2.56858034615172e+001,-8.40503814300305e-001

1.58008262372675e+004,-2.56858130366534e+001,-8.52236456663026e-001

1.60213975517924e+004,-2.56858228809634e+001,-8.64132865592806e-001

1.62450479271247e+004,-2.56858330020136e+001,-8.76195326548291e-001

1.64718203453514e+004,-2.56858434075832e+001,-8.88426156864054e-001

1.67017583885674e+004,-2.56858541056696e+001,-9.00827706196397e-001

1.69349062472505e+004,-2.56858651044954e+001,-9.13402356971470e-001

1.71713087287550e+004,-2.56858764125140e+001,-9.26152524842213e-001

1.74110112659224e+004,-2.56858880384167e+001,-9.39080659150875e-001

1.76540599258131e+004,-2.56858999911386e+001,-9.52189243398760e-001

1.79005014185594e+004,-2.56859122798664e+001,-9.65480795719108e-001

1.81503831063432e+004,-2.56859249140446e+001,-9.78957869362275e-001

1.84037530124975e+004,-2.56859379033833e+001,-9.92623053182077e-001

1.86606598307361e+004,-2.56859512578655e+001,-1.00647897213270e+000

1.89211529345119e+004,-2.56859649877545e+001,-1.02052828777010e+000

1.91852823865052e+004,-2.56859791036025e+001,-1.03477369876041e+000

1.94530989482457e+004,-2.56859936162578e+001,-1.04921794139867e+000

1.97246540898671e+004,-2.56860085368738e+001,-1.06386379012961e+000

1.99999999999999e+004,-2.56860238769172e+001,-1.07871405807950e+000

2.02791895958005e+004,-2.56860396481769e+001,-1.09377159759450e+000

2.05622765331213e+004,-2.56860558627731e+001,-1.10903930078512e+000

2.08493152168224e+004,-2.56860725331668e+001,-1.12452010007833e+000

2.11403608112276e+004,-2.56860896721688e+001,-1.14021696878084e+000

2.14354692507258e+004,-2.56861072929500e+001,-1.15613292164425e+000

2.17346972505211e+004,-2.56861254090516e+001,-1.17227101544251e+000

2.20381023175322e+004,-2.56861440343951e+001,-1.18863434955551e+000

2.23457427614443e+004,-2.56861631832930e+001,-1.20522606656244e+000

2.26576777059159e+004,-2.56861828704602e+001,-1.22204935283989e+000

2.29739670999406e+004,-2.56862031110251e+001,-1.23910743917112e+000

2.32946717293690e+004,-2.56862239205410e+001,-1.25640360136296e+000

2.36198532285905e+004,-2.56862453149982e+001,-1.27394116087149e+000

2.39495740923785e+004,-2.56862673108363e+001,-1.29172348543534e+000

2.42838976879009e+004,-2.56862899249567e+001,-1.30975398971756e+000

2.46228882668982e+004,-2.56863131747358e+001,-1.32803613595852e+000

2.49666109780322e+004,-2.56863370780381e+001,-1.34657343463523e+000

2.53151318794055e+004,-2.56863616532298e+001,-1.36536944513087e+000

2.56685179512580e+004,-2.56863869191933e+001,-1.38442777641352e+000

2.60268371088386e+004,-2.56864128953414e+001,-1.40375208772340e+000

2.63901582154578e+004,-2.56864396016324e+001,-1.42334608927062e+000

2.67585510957221e+004,-2.56864670585848e+001,-1.44321354294267e+000

2.71320865489533e+004,-2.56864952872938e+001,-1.46335826301948e+000

2.75108363627948e+004,-2.56865243094472e+001,-1.48378411690031e+000

2.78948733270080e+004,-2.56865541473420e+001,-1.50449502584004e+000

2.82842712474618e+004,-2.56865848239012e+001,-1.52549496569531e+000

2.86791049603164e+004,-2.56866163626920e+001,-1.54678796768100e+000

2.90794503464061e+004,-2.56866487879434e+001,-1.56837811913638e+000

2.94853843458219e+004,-2.56866821245650e+001,-1.59026956430301e+000

2.98969849726987e+004,-2.56867163981657e+001,-1.61246650511260e+000

3.03143313302078e+004,-2.56867516350739e+001,-1.63497320198436e+000

3.07375036257601e+004,-2.56867878623575e+001,-1.65779397463499e+000

3.11665831864199e+004,-2.56868251078444e+001,-1.68093320289985e+000

3.16016524745350e+004,-2.56868634001438e+001,-1.70439532756268e+000

3.20427951035848e+004,-2.56869027686685e+001,-1.72818485119976e+000

3.24900958542493e+004,-2.56869432436574e+001,-1.75230633903289e+000

3.29436406907028e+004,-2.56869848561982e+001,-1.77676441979621e+000

3.34035167771346e+004,-2.56870276382515e+001,-1.80156378661328e+000

3.38698124945009e+004,-2.56870716226756e+001,-1.82670919788537e+000

3.43426174575100e+004,-2.56871168432509e+001,-1.85220547819412e+000

3.48220225318448e+004,-2.56871633347066e+001,-1.87805751921449e+000

3.53081198516260e+004,-2.56872111327468e+001,-1.90427028064025e+000

3.58010028371187e+004,-2.56872602740777e+001,-1.93084879112222e+000

3.63007662126863e+004,-2.56873107964364e+001,-1.95779814921966e+000

3.68075060249948e+004,-2.56873627386188e+001,-1.98512352436351e+000

3.73213196614721e+004,-2.56874161405102e+001,-2.01283015783219e+000

3.78423058690237e+004,-2.56874710431152e+001,-2.04092336374310e+000

3.83705647730104e+004,-2.56875274885895e+001,-2.06940853005341e+000

3.89061978964912e+004,-2.56875855202718e+001,-2.09829111957777e+000

3.94493081797342e+004,-2.56876451827171e+001,-2.12757667101792e+000

3.99999999999998e+004,-2.56877065217309e+001,-2.15727080000554e+000

4.05583791916010e+004,-2.56877695844039e+001,-2.18737920016088e+000

4.11245530662425e+004,-2.56878344191483e+001,-2.21790764416361e+000

4.16986304336447e+004,-2.56879010757348e+001,-2.24886198483896e+000

4.22807216224550e+004,-2.56879696053304e+001,-2.28024815625700e+000

4.28709385014515e+004,-2.56880400605377e+001,-2.31207217484942e+000

4.34693945010421e+004,-2.56881124954349e+001,-2.34434014053711e+000

4.40762046350642e+004,-2.56881869656176e+001,-2.37705823787562e+000

4.46914855228886e+004,-2.56882635282406e+001,-2.41023273721410e+000

4.53153554118317e+004,-2.56883422420619e+001,-2.44386999587074e+000

4.59479341998812e+004,-2.56884231674876e+001,-2.47797645932241e+000

4.65893434587380e+004,-2.56885063666178e+001,-2.51255866241133e+000

4.72397064571810e+004,-2.56885919032943e+001,-2.54762323056515e+000

4.78991481847569e+004,-2.56886798431489e+001,-2.58317688103641e+000

4.85677953758016e+004,-2.56887702536539e+001,-2.61922642415456e+000

4.92457765337964e+004,-2.56888632041733e+001,-2.65577876459710e+000

4.99332219560642e+004,-2.56889587660156e+001,-2.69284090267574e+000

5.06302637588109e+004,-2.56890570124885e+001,-2.73041993563942e+000

5.13370359025159e+004,-2.56891580189546e+001,-2.76852305899434e+000

5.20536742176771e+004,-2.56892618628886e+001,-2.80715756784159e+000

5.27803164309155e+004,-2.56893686239368e+001,-2.84633085823020e+000

5.35171021914442e+004,-2.56894783839773e+001,-2.88605042853006e+000

5.42641730979066e+004,-2.56895912271825e+001,-2.92632388082036e+000

5.50216727255895e+004,-2.56897072400833e+001,-2.96715892229718e+000

5.57897466540159e+004,-2.56898265116349e+001,-3.00856336669727e+000

5.65685424949235e+004,-2.56899491332843e+001,-3.05054513574169e+000

5.73582099206328e+004,-2.56900751990400e+001,-3.09311226059739e+000

5.81589006928121e+004,-2.56902048055435e+001,-3.13627288335582e+000

5.89707686916437e+004,-2.56903380521426e+001,-3.18003525853260e+000

5.97939699453972e+004,-2.56904750409672e+001,-3.22440775458305e+000

6.06286626604156e+004,-2.56906158770063e+001,-3.26939885543954e+000

6.14750072515201e+004,-2.56907606681884e+001,-3.31501716206632e+000

6.23331663728396e+004,-2.56909095254630e+001,-3.36127139403304e+000

6.32033049490698e+004,-2.56910625628848e+001,-3.40817039111084e+000

6.40855902071694e+004,-2.56912198977004e+001,-3.45572311488373e+000

6.49801917084985e+004,-2.56913816504371e+001,-3.50393865038375e+000

6.58872813814055e+004,-2.56915479449941e+001,-3.55282620774352e+000

6.68070335542691e+004,-2.56917189087367e+001,-3.60239512387010e+000

6.77396249890018e+004,-2.56918946725924e+001,-3.65265486413894e+000

6.86852349150199e+004,-2.56920753711503e+001,-3.70361502410807e+000

6.96440450636895e+004,-2.56922611427626e+001,-3.75528533125318e+000

7.06162397032520e+004,-2.56924521296496e+001,-3.80767564672318e+000

7.16020056742374e+004,-2.56926484780072e+001,-3.86079596711676e+000

7.26015324253724e+004,-2.56928503381167e+001,-3.91465642628030e+000

7.36150120499896e+004,-2.56930578644594e+001,-3.96926729712648e+000

7.46426393229441e+004,-2.56932712158322e+001,-4.02463899347434e+000

7.56846117380472e+004,-2.56934905554680e+001,-4.08078207191079e+000

7.67411295460207e+004,-2.56937160511586e+001,-4.13770723367386e+000

7.78123957929823e+004,-2.56939478753810e+001,-4.19542532655778e+000

7.88986163594682e+004,-2.56941862054276e+001,-4.25394734683872e+000

7.99999999999995e+004,-2.56944312235396e+001,-4.31328444122398e+000

8.11167583832018e+004,-2.56946831170439e+001,-4.37344790882183e+000

8.22491061324848e+004,-2.56949420784940e+001,-4.43444920313469e+000

8.33972608672892e+004,-2.56952083058150e+001,-4.49629993407295e+000

8.45614432449099e+004,-2.56954820024517e+001,-4.55901186999284e+000

8.57418770029029e+004,-2.56957633775219e+001,-4.62259693975428e+000

8.69387890020841e+004,-2.56960526459724e+001,-4.68706723480394e+000

8.81524092701283e+004,-2.56963500287410e+001,-4.75243501127796e+000

8.93829710457770e+004,-2.56966557529211e+001,-4.81871269212841e+000

9.06307108236633e+004,-2.56969700519323e+001,-4.88591286927301e+000

9.18958683997622e+004,-2.56972931656943e+001,-4.95404830576543e+000

9.31786869174758e+004,-2.56976253408068e+001,-5.02313193798929e+000

9.44794129143618e+004,-2.56979668307330e+001,-5.09317687787459e+000

9.57982963695136e+004,-2.56983178959891e+001,-5.16419641513629e+000

9.71355907516031e+004,-2.56986788043380e+001,-5.23620401953517e+000

9.84915530675926e+004,-2.56990498309893e+001,-5.30921334316141e+000

9.98664439121282e+004,-2.56994312588031e+001,-5.38323822273992e+000

1.01260527517622e+005,-2.56998233785013e+001,-5.45829268195903e+000

1.02674071805032e+005,-2.57002264888825e+001,-5.53439093381999e+000

1.04107348435354e+005,-2.57006408970442e+001,-5.61154738300809e+000

1.05560632861831e+005,-2.57010669186105e+001,-5.68977662828790e+000

1.07034204382888e+005,-2.57015048779648e+001,-5.76909346491832e+000

1.08528346195813e+005,-2.57019551084909e+001,-5.84951288708852e+000

1.10043345451179e+005,-2.57024179528183e+001,-5.93105009037784e+000

1.11579493308032e+005,-2.57028937630754e+001,-6.01372047423368e+000

1.13137084989847e+005,-2.57033829011489e+001,-6.09753964447285e+000

1.14716419841265e+005,-2.57038857389501e+001,-6.18252341580167e+000

1.16317801385624e+005,-2.57044026586884e+001,-6.26868781435713e+000

1.17941537383287e+005,-2.57049340531518e+001,-6.35604908026770e+000

1.19587939890794e+005,-2.57054803259949e+001,-6.44462367023425e+000

1.21257325320831e+005,-2.57060418920345e+001,-6.53442826012960e+000

1.22950014503040e+005,-2.57066191775530e+001,-6.62547974761674e+000

1.24666332745679e+005,-2.57072126206092e+001,-6.71779525478627e+000

1.26406609898139e+005,-2.57078226713584e+001,-6.81139213081061e+000

1.28171180414339e+005,-2.57084497923794e+001,-6.90628795461658e+000

1.29960383416997e+005,-2.57090944590112e+001,-7.00250053757370e+000

1.31774562762811e+005,-2.57097571596974e+001,-7.10004792619969e+000

1.33614067108538e+005,-2.57104383963409e+001,-7.19894840488064e+000

1.35479249978003e+005,-2.57111386846659e+001,-7.29922049860714e+000

1.37370469830040e+005,-2.57118585545911e+001,-7.40088297572324e+000

1.39288090127379e+005,-2.57125985506107e+001,-7.50395485069021e+000

1.41232479406504e+005,-2.57133592321870e+001,-7.60845538686168e+000

1.43204011348474e+005,-2.57141411741514e+001,-7.71440409927115e+000

1.45203064850745e+005,-2.57149449671167e+001,-7.82182075743071e+000

1.47230024099979e+005,-2.57157712178988e+001,-7.93072538813845e+000

1.49285278645888e+005,-2.57166205499508e+001,-8.04113827829589e+000

1.51369223476094e+005,-2.57174936038057e+001,-8.15307997773221e+000

1.53482259092041e+005,-2.57183910375325e+001,-8.26657130203613e+000

1.55624791585964e+005,-2.57193135272022e+001,-8.38163333539221e+000

1.57797232718936e+005,-2.57202617673660e+001,-8.49828743342181e+000

1.59999999999999e+005,-2.57212364715453e+001,-8.61655522602708e+000

1.62233516766403e+005,-2.57222383727340e+001,-8.73645862023567e+000

1.64498212264969e+005,-2.57232682239130e+001,-8.85801980304567e+000

1.66794521734578e+005,-2.57243267985772e+001,-8.98126124427017e+000

1.69122886489819e+005,-2.57254148912759e+001,-9.10620569937594e+000

1.71483754005805e+005,-2.57265333181657e+001,-9.23287621231967e+000

1.73877578004168e+005,-2.57276829175776e+001,-9.36129611837651e+000

1.76304818540256e+005,-2.57288645505966e+001,-9.49148904695949e+000

1.78765942091554e+005,-2.57300791016568e+001,-9.62347892442942e+000

1.81261421647326e+005,-2.57313274791491e+001,-9.75728997689109e+000

1.83791736799524e+005,-2.57326106160449e+001,-9.89294673297566e+000

1.86357373834951e+005,-2.57339294705329e+001,-1.00304740266052e+001

1.88958825828723e+005,-2.57352850266725e+001,-1.01698969997382e+001

1.91596592739027e+005,-2.57366782950610e+001,-1.03112411050931e+001

1.94271181503206e+005,-2.57381103135175e+001,-1.04545321088476e+001

1.96983106135185e+005,-2.57395821477818e+001,-1.05997960933106e+001

1.99732887824256e+005,-2.57410948922299e+001,-1.07470594595641e+001

2.02521055035243e+005,-2.57426496706048e+001,-1.08963489300727e+001

2.05348143610063e+005,-2.57442476367654e+001,-1.10476915512566e+001

2.08214696870707e+005,-2.57458899754508e+001,-1.12011146960263e+001

2.11121265723661e+005,-2.57475779030621e+001,-1.13566460662742e+001

2.14068408765776e+005,-2.57493126684619e+001,-1.15143136953209e+001

2.17056692391625e+005,-2.57510955537905e+001,-1.16741459503119e+001

2.20086690902357e+005,-2.57529278753006e+001,-1.18361715345612e+001

2.23158986616063e+005,-2.57548109842097e+001,-1.20004194898385e+001

2.26274169979693e+005,-2.57567462675704e+001,-1.21669191985944e+001

2.29432839682530e+005,-2.57587351491595e+001,-1.23357003861218e+001

2.32635602771247e+005,-2.57607790903852e+001,-1.25067931226467e+001

2.35883074766574e+005,-2.57628795912141e+001,-1.26802278253459e+001

2.39175879781588e+005,-2.57650381911156e+001,-1.28560352602857e+001

2.42514650641661e+005,-2.57672564700269e+001,-1.30342465442782e+001

2.45900029006080e+005,-2.57695360493362e+001,-1.32148931466476e+001

2.49332665491357e+005,-2.57718785928860e+001,-1.33980068909046e+001

2.52813219796278e+005,-2.57742858079955e+001,-1.35836199563213e+001

2.56342360828676e+005,-2.57767594465027e+001,-1.37717648794024e+001

2.59920766833993e+005,-2.57793013058262e+001,-1.39624745552451e+001

2.63549125525621e+005,-2.57819132300471e+001,-1.41557822387851e+001

2.67228134217075e+005,-2.57845971110102e+001,-1.43517215459188e+001

2.70958499956006e+005,-2.57873548894451e+001,-1.45503264544987e+001

2.74740939660078e+005,-2.57901885561074e+001,-1.47516313051934e+001

2.78576180254757e+005,-2.57931001529395e+001,-1.49556708022069e+001

2.82464958813007e+005,-2.57960917742511e+001,-1.51624800138493e+001

2.86408022696948e+005,-2.57991655679193e+001,-1.53720943729526e+001

2.90406129701488e+005,-2.58023237366084e+001,-1.55845496771246e+001

2.94460048199957e+005,-2.58055685390084e+001,-1.57998820888323e+001

2.98570557291775e+005,-2.58089022910936e+001,-1.60181281353080e+001

3.02738446952187e+005,-2.58123273673993e+001,-1.62393247082711e+001

3.06964518184081e+005,-2.58158462023175e+001,-1.64635090634555e+001

3.11249583171928e+005,-2.58194612914106e+001,-1.66907188199361e+001

3.15594465437872e+005,-2.58231751927434e+001,-1.69209919592456e+001

3.19999999999997e+005,-2.58269905282323e+001,-1.71543668242726e+001

3.24467033532806e+005,-2.58309099850118e+001,-1.73908821179328e+001

3.28996424529938e+005,-2.58349363168171e+001,-1.76305769016031e+001

3.33589043469155e+005,-2.58390723453833e+001,-1.78734905933120e+001

3.38245772979638e+005,-2.58433209618588e+001,-1.81196629656743e+001

3.42967508011610e+005,-2.58476851282349e+001,-1.83691341435618e+001

3.47755156008335e+005,-2.58521678787878e+001,-1.86219446015006e+001

3.52609637080511e+005,-2.58567723215338e+001,-1.88781351607855e+001

3.57531884183106e+005,-2.58615016396977e+001,-1.91377469862999e+001

3.62522843294651e+005,-2.58663590931909e+001,-1.94008215830334e+001

3.67583473599047e+005,-2.58713480201002e+001,-1.96674007922863e+001

3.72714747669902e+005,-2.58764718381854e+001,-1.99375267875490e+001

3.77917651657445e+005,-2.58817340463847e+001,-2.02112420700494e+001

3.83193185478053e+005,-2.58871382263263e+001,-2.04885894639545e+001

3.88542363006410e+005,-2.58926880438445e+001,-2.07696121112190e+001

3.93966212270369e+005,-2.58983872505000e+001,-2.10543534660674e+001

3.99465775648511e+005,-2.59042396851016e+001,-2.13428572891022e+001

4.05042110070485e+005,-2.59102492752277e+001,-2.16351676410250e+001

4.10696287220124e+005,-2.59164200387467e+001,-2.19313288759632e+001

4.16429393741414e+005,-2.59227560853331e+001,-2.22313856343893e+001

4.22242531447321e+005,-2.59292616179785e+001,-2.25353828356246e+001

4.28136817531551e+005,-2.59359409344943e+001,-2.28433656699164e+001

4.34113384783250e+005,-2.59427984290041e+001,-2.31553795900794e+001

4.40173381804713e+005,-2.59498385934246e+001,-2.34714703026918e+001

4.46317973232124e+005,-2.59570660189299e+001,-2.37916837588361e+001

4.52548339959385e+005,-2.59644853973994e+001,-2.41160661443771e+001

4.58865679365059e+005,-2.59721015228445e+001,-2.44446638697667e+001

4.65271205542494e+005,-2.59799192928118e+001,-2.47775235593688e+001

4.71766149533147e+005,-2.59879437097605e+001,-2.51146920402955e+001

4.78351759563174e+005,-2.59961798824090e+001,-2.54562163307484e+001

4.85029301283321e+005,-2.60046330270499e+001,-2.58021436278566e+001

4.91800058012158e+005,-2.60133084688270e+001,-2.61525212950077e+001

4.98665330982714e+005,-2.60222116429731e+001,-2.65073968486641e+001

5.05626439592555e+005,-2.60313480960041e+001,-2.68668179446611e+001

5.12684721657352e+005,-2.60407234868641e+001,-2.72308323639832e+001

5.19841533667984e+005,-2.60503435880202e+001,-2.75994879980146e+001

5.27098251051240e+005,-2.60602142865002e+001,-2.79728328332625e+001

5.34456268434150e+005,-2.60703415848703e+001,-2.83509149355527e+001

5.41916999912011e+005,-2.60807316021478e+001,-2.87337824336961e+001

