Freq.,VOut,OutRef

1.00000000000000e+004,-1.88829040940340e+000,-6.60052970452904e-002

1.01395947979003e+004,-1.88829038778595e+000,-6.69266967365190e-002

1.02811382665607e+004,-1.88829036556075e+000,-6.78609586916442e-002

1.04246576084112e+004,-1.88829034271072e+000,-6.88082624609359e-002

1.05701804056138e+004,-1.88829031921844e+000,-6.97687901008895e-002

1.07177346253629e+004,-1.88829029506548e+000,-7.07427262124941e-002

1.08673486252606e+004,-1.88829027023380e+000,-7.17302579675025e-002

1.10190511587661e+004,-1.88829024470364e+000,-7.27315751585158e-002

1.11728713807222e+004,-1.88829021845584e+000,-7.37468702206026e-002

1.13288388529580e+004,-1.88829019147020e+000,-7.47763382773849e-002

1.14869835499703e+004,-1.88829016372583e+000,-7.58201771781152e-002

1.16473358646846e+004,-1.88829013520155e+000,-7.68785875310460e-002

1.18099266142953e+004,-1.88829010587536e+000,-7.79517727471293e-002

1.19747870461893e+004,-1.88829007572456e+000,-7.90399390768377e-002

1.21419488439505e+004,-1.88829004472613e+000,-8.01432956480418e-002

1.23114441334492e+004,-1.88829001285615e+000,-8.12620545091400e-002

1.24833054890161e+004,-1.88828998009042e+000,-8.23964306667730e-002

1.26575659397028e+004,-1.88828994640336e+000,-8.35466421327465e-002

1.28342589756290e+004,-1.88828991176915e+000,-8.47129099596517e-002

1.30134185544193e+004,-1.88828987616139e+000,-8.58954582846664e-002

1.31950791077289e+004,-1.88828983955264e+000,-8.70945143759146e-002

1.33792755478611e+004,-1.88828980191445e+000,-8.83103086755348e-002

1.35660432744767e+004,-1.88828976321828e+000,-8.95430748376686e-002

1.37554181813974e+004,-1.88828972343408e+000,-9.07930497835015e-002

1.39474366635040e+004,-1.88828968253141e+000,-9.20604737373648e-002

1.41421356237309e+004,-1.88828964047886e+000,-9.33455902793173e-002

1.43395524801583e+004,-1.88828959724417e+000,-9.46486463880943e-002

1.45397251732031e+004,-1.88828955279388e+000,-9.59698924927957e-002

1.47426921729110e+004,-1.88828950709394e+000,-9.73095825154407e-002

1.49484924863494e+004,-1.88828946010909e+000,-9.86679739255794e-002

1.51571656651040e+004,-1.88828941180343e+000,-1.00045327783135e-001

1.53687518128801e+004,-1.88828936213971e+000,-1.01441908795670e-001

1.55832915932100e+004,-1.88828931107973e+000,-1.02857985364603e-001

1.58008262372675e+004,-1.88828925858431e+000,-1.04293829638051e-001

1.60213975517924e+004,-1.88828920461310e+000,-1.05749717563276e-001

1.62450479271247e+004,-1.88828914912436e+000,-1.07225928941155e-001

1.64718203453514e+004,-1.88828909207570e+000,-1.08722747475676e-001

1.67017583885674e+004,-1.88828903342314e+000,-1.10240460833204e-001

1.69349062472505e+004,-1.88828897312164e+000,-1.11779360694876e-001

1.71713087287550e+004,-1.88828891112489e+000,-1.13339742813863e-001

1.74110112659224e+004,-1.88828884738525e+000,-1.14921907071498e-001

1.76540599258131e+004,-1.88828878185355e+000,-1.16526157537377e-001

1.79005014185594e+004,-1.88828871447953e+000,-1.18152802523107e-001

1.81503831063432e+004,-1.88828864521140e+000,-1.19802154645297e-001

1.84037530124975e+004,-1.88828857399583e+000,-1.21474530885007e-001

1.86606598307361e+004,-1.88828850077817e+000,-1.23170252647512e-001

1.89211529345119e+004,-1.88828842550212e+000,-1.24889645824534e-001

1.91852823865052e+004,-1.88828834810969e+000,-1.26633040858970e-001

1.94530989482457e+004,-1.88828826854143e+000,-1.28400772804385e-001

1.97246540898671e+004,-1.88828818673634e+000,-1.30193181391721e-001

1.99999999999999e+004,-1.88828810263122e+000,-1.32010611096705e-001

2.02791895958005e+004,-1.88828801616177e+000,-1.33853411200234e-001

2.05622765331213e+004,-1.88828792726121e+000,-1.35721935862693e-001

2.08493152168224e+004,-1.88828783586134e+000,-1.37616544186230e-001

2.11403608112276e+004,-1.88828774189197e+000,-1.39537600285262e-001

2.14354692507258e+004,-1.88828764528076e+000,-1.41485473359323e-001

2.17346972505211e+004,-1.88828754595327e+000,-1.43460537761714e-001

2.20381023175322e+004,-1.88828744383341e+000,-1.45463173068968e-001

2.23457427614443e+004,-1.88828733884259e+000,-1.47493764158384e-001

2.26576777059159e+004,-1.88828723090010e+000,-1.49552701279739e-001

2.29739670999406e+004,-1.88828711992302e+000,-1.51640380129876e-001

2.32946717293690e+004,-1.88828700582576e+000,-1.53757201931952e-001

2.36198532285905e+004,-1.88828688852087e+000,-1.55903573506502e-001

2.39495740923785e+004,-1.88828676791819e+000,-1.58079907354189e-001

2.42838976879009e+004,-1.88828664392491e+000,-1.60286621735610e-001

2.46228882668982e+004,-1.88828651644560e+000,-1.62524140749736e-001

2.49666109780322e+004,-1.88828638538249e+000,-1.64792894413679e-001

2.53151318794055e+004,-1.88828625063466e+000,-1.67093318749908e-001

2.56685179512580e+004,-1.88828611209849e+000,-1.69425855867151e-001

2.60268371088386e+004,-1.88828596966763e+000,-1.71790954044349e-001

2.63901582154578e+004,-1.88828582323248e+000,-1.74189067819824e-001

2.67585510957221e+004,-1.88828567268052e+000,-1.76620658076510e-001

2.71320865489533e+004,-1.88828551789588e+000,-1.79086192131772e-001

2.75108363627948e+004,-1.88828535875975e+000,-1.81586143824992e-001

2.78948733270080e+004,-1.88828519514971e+000,-1.84120993612020e-001

2.82842712474618e+004,-1.88828502693998e+000,-1.86691228654880e-001

2.86791049603164e+004,-1.88828485400122e+000,-1.89297342916667e-001

2.90794503464061e+004,-1.88828467620059e+000,-1.91939837254732e-001

2.94853843458219e+004,-1.88828449340129e+000,-1.94619219520325e-001

2.98969849726987e+004,-1.88828430546274e+000,-1.97336004653432e-001

3.03143313302078e+004,-1.88828411224059e+000,-2.00090714781216e-001

3.07375036257601e+004,-1.88828391358628e+000,-2.02883879320932e-001

3.11665831864199e+004,-1.88828370934707e+000,-2.05716035080123e-001

3.16016524745350e+004,-1.88828349936586e+000,-2.08587726360492e-001

3.20427951035848e+004,-1.88828328348139e+000,-2.11499505060466e-001

3.24900958542493e+004,-1.88828306152759e+000,-2.14451930784823e-001

3.29436406907028e+004,-1.88828283333373e+000,-2.17445570950141e-001

3.34035167771346e+004,-1.88828259872468e+000,-2.20481000891365e-001

3.38698124945009e+004,-1.88828235751975e+000,-2.23558803978919e-001

3.43426174575100e+004,-1.88828210953375e+000,-2.26679571723900e-001

3.48220225318448e+004,-1.88828185457604e+000,-2.29843903896065e-001

3.53081198516260e+004,-1.88828159245033e+000,-2.33052408639255e-001

3.58010028371187e+004,-1.88828132295544e+000,-2.36305702583727e-001

3.63007662126863e+004,-1.88828104588407e+000,-2.39604410970148e-001

3.68075060249948e+004,-1.88828076102314e+000,-2.42949167767583e-001

3.73213196614721e+004,-1.88828046815375e+000,-2.46340615793945e-001

3.78423058690237e+004,-1.88828016705076e+000,-2.49779406841223e-001

3.83705647730104e+004,-1.88827985748265e+000,-2.53266201801455e-001

3.89061978964912e+004,-1.88827953921142e+000,-2.56801670791210e-001

3.94493081797342e+004,-1.88827921199240e+000,-2.60386493282990e-001

3.99999999999998e+004,-1.88827887557417e+000,-2.64021358233498e-001

4.05583791916010e+004,-1.88827852969804e+000,-2.67706964218016e-001

4.11245530662425e+004,-1.88827817409797e+000,-2.71444019565273e-001

4.16986304336447e+004,-1.88827780850076e+000,-2.75233242489387e-001

4.22807216224550e+004,-1.88827743262527e+000,-2.79075361233241e-001

4.28709385014515e+004,-1.88827704618258e+000,-2.82971114204740e-001

4.34693945010421e+004,-1.88827664887559e+000,-2.86921250120529e-001

4.40762046350642e+004,-1.88827624039882e+000,-2.90926528149501e-001

4.46914855228886e+004,-1.88827582043841e+000,-2.94987718057099e-001

4.53153554118317e+004,-1.88827538867137e+000,-2.99105600357457e-001

4.59479341998812e+004,-1.88827494476577e+000,-3.03280966458952e-001

4.65893434587380e+004,-1.88827448838048e+000,-3.07514618818166e-001

4.72397064571810e+004,-1.88827401916459e+000,-3.11807371094378e-001

4.78991481847569e+004,-1.88827353675736e+000,-3.16160048306596e-001

4.85677953758016e+004,-1.88827304078794e+000,-3.20573486989997e-001

4.92457765337964e+004,-1.88827253087503e+000,-3.25048535358878e-001

4.99332219560642e+004,-1.88827200662672e+000,-3.29586053467807e-001

5.06302637588109e+004,-1.88827146763995e+000,-3.34186913378843e-001

5.13370359025159e+004,-1.88827091350035e+000,-3.38851999328058e-001

5.20536742176771e+004,-1.88827034378207e+000,-3.43582207894985e-001

5.27803164309155e+004,-1.88826975804693e+000,-3.48378448177544e-001

5.35171021914442e+004,-1.88826915584478e+000,-3.53241641962975e-001

5.42641730979066e+004,-1.88826853671256e+000,-3.58172723908947e-001

5.50216727255895e+004,-1.88826790017449e+000,-3.63172641718983e-001

5.57897466540159e+004,-1.88826724574117e+000,-3.68242356328491e-001

5.65685424949235e+004,-1.88826657290940e+000,-3.73382842088738e-001

5.73582099206328e+004,-1.88826588116210e+000,-3.78595086951487e-001

5.81589006928121e+004,-1.88826516996738e+000,-3.83880092662547e-001

5.89707686916437e+004,-1.88826443877861e+000,-3.89238874950769e-001

5.97939699453972e+004,-1.88826368703363e+000,-3.94672463727388e-001

6.06286626604156e+004,-1.88826291415459e+000,-4.00181903280196e-001

6.14750072515201e+004,-1.88826211954723e+000,-4.05768252476855e-001

6.23331663728396e+004,-1.88826130260092e+000,-4.11432584966507e-001

6.32033049490698e+004,-1.88826046268755e+000,-4.17175989387909e-001

6.40855902071694e+004,-1.88825959916131e+000,-4.22999569578728e-001

6.49801917084985e+004,-1.88825871135855e+000,-4.28904444785654e-001

6.58872813814055e+004,-1.88825779859678e+000,-4.34891749881313e-001

6.68070335542691e+004,-1.88825686017433e+000,-4.40962635582663e-001

6.77396249890018e+004,-1.88825589536970e+000,-4.47118268671992e-001

6.86852349150199e+004,-1.88825490344130e+000,-4.53359832219954e-001

6.96440450636895e+004,-1.88825388362666e+000,-4.59688525814101e-001

7.06162397032520e+004,-1.88825283514167e+000,-4.66105565790878e-001

7.16020056742374e+004,-1.88825175718047e+000,-4.72612185466264e-001

7.26015324253724e+004,-1.88825064891444e+000,-4.79209635375226e-001

7.36150120499896e+004,-1.88824950949148e+000,-4.85899183512787e-001

7.46426393229441e+004,-1.88824833803582e+000,-4.92682115575037e-001

7.56846117380472e+004,-1.88824713364683e+000,-4.99559735209381e-001

7.67411295460207e+004,-1.88824589539878e+000,-5.06533364262461e-001

7.78123957929823e+004,-1.88824462233980e+000,-5.13604343036764e-001

7.88986163594682e+004,-1.88824331349133e+000,-5.20774030546549e-001

7.99999999999995e+004,-1.88824196784705e+000,-5.28043804781072e-001

8.11167583832018e+004,-1.88824058437271e+000,-5.35415062967012e-001

8.22491061324848e+004,-1.88823916200475e+000,-5.42889221839525e-001

8.33972608672892e+004,-1.88823769964984e+000,-5.50467717912652e-001

8.45614432449099e+004,-1.88823619618391e+000,-5.58152007757268e-001

8.57418770029029e+004,-1.88823465045115e+000,-5.65943568280900e-001

8.69387890020841e+004,-1.88823306126342e+000,-5.73843897010370e-001

8.81524092701283e+004,-1.88823142739903e+000,-5.81854512382136e-001

8.93829710457770e+004,-1.88822974760219e+000,-5.89976954031162e-001

9.06307108236633e+004,-1.88822802058145e+000,-5.98212783091075e-001

9.18958683997622e+004,-1.88822624500946e+000,-6.06563582489748e-001

9.31786869174758e+004,-1.88822441952123e+000,-6.15030957258180e-001

9.44794129143618e+004,-1.88822254271364e+000,-6.23616534835658e-001

9.57982963695136e+004,-1.88822061314396e+000,-6.32321965385446e-001

9.71355907516031e+004,-1.88821862932890e+000,-6.41148922110656e-001

9.84915530675926e+004,-1.88821658974373e+000,-6.50099101575756e-001

9.98664439121282e+004,-1.88821449282049e+000,-6.59174224034857e-001

1.01260527517622e+005,-1.88821233694746e+000,-6.68376033760037e-001

1.02674071805032e+005,-1.88821012046741e+000,-6.77706299379425e-001

1.04107348435354e+005,-1.88820784167663e+000,-6.87166814215408e-001

1.05560632861831e+005,-1.88820549882351e+000,-6.96759396630153e-001

1.07034204382888e+005,-1.88820309010720e+000,-7.06485890376493e-001

1.08528346195813e+005,-1.88820061367626e+000,-7.16348164950977e-001

1.10043345451179e+005,-1.88819806762709e+000,-7.26348115955025e-001

1.11579493308032e+005,-1.88819545000273e+000,-7.36487665458571e-001

1.13137084989847e+005,-1.88819275879116e+000,-7.46768762369944e-001

1.14716419841265e+005,-1.88818999192367e+000,-7.57193382812216e-001

1.16317801385624e+005,-1.88818714727377e+000,-7.67763530500566e-001

1.17941537383287e+005,-1.88818422265481e+000,-7.78481237131441e-001

1.19587939890794e+005,-1.88818121581884e+000,-7.89348562770463e-001

1.21257325320831e+005,-1.88817812445472e+000,-8.00367596250767e-001

1.22950014503040e+005,-1.88817494618641e+000,-8.11540455573566e-001

1.24666332745679e+005,-1.88817167857105e+000,-8.22869288316579e-001

1.26406609898139e+005,-1.88816831909708e+000,-8.34356272047607e-001

1.28171180414339e+005,-1.88816486518230e+000,-8.46003614743376e-001

1.29960383416997e+005,-1.88816131417214e+000,-8.57813555212827e-001

1.31774562762811e+005,-1.88815766333722e+000,-8.69788363531474e-001

1.33614067108538e+005,-1.88815390987149e+000,-8.81930341475297e-001

1.35479249978003e+005,-1.88815005089022e+000,-8.94241822964477e-001

1.37370469830040e+005,-1.88814608342729e+000,-9.06725174514315e-001

1.39288090127379e+005,-1.88814200443343e+000,-9.19382795688957e-001

1.41232479406504e+005,-1.88813781077368e+000,-9.32217119563713e-001

1.43204011348474e+005,-1.88813349922491e+000,-9.45230613193734e-001

1.45203064850745e+005,-1.88812906647341e+000,-9.58425778089733e-001

1.47230024099979e+005,-1.88812450911237e+000,-9.71805150698236e-001

1.49285278645888e+005,-1.88811982363919e+000,-9.85371302891059e-001

1.51369223476094e+005,-1.88811500645290e+000,-9.99126842459999e-001

1.53482259092041e+005,-1.88811005385131e+000,-1.01307441361903e+000

1.55624791585964e+005,-1.88810496202825e+000,-1.02721669751373e+000

1.57797232718936e+005,-1.88809972707038e+000,-1.04155641273859e+000

1.59999999999999e+005,-1.88809434495468e+000,-1.05609631585829e+000

1.62233516766403e+005,-1.88808881154489e+000,-1.07083920194086e+000

1.64498212264969e+005,-1.88808312258854e+000,-1.08578790509568e+000

1.66794521734578e+005,-1.88807727371372e+000,-1.10094529901819e+000

1.69122886489819e+005,-1.88807126042565e+000,-1.11631429754514e+000

1.71483754005805e+005,-1.88806507810324e+000,-1.13189785521505e+000

1.73877578004168e+005,-1.88805872199554e+000,-1.14769896783792e+000

1.76304818540256e+005,-1.88805218721812e+000,-1.16372067307259e+000

1.78765942091554e+005,-1.88804546874930e+000,-1.17996605101159e+000

1.81261421647326e+005,-1.88803856142635e+000,-1.19643822477503e+000

1.83791736799524e+005,-1.88803145994134e+000,-1.21314036111346e+000

1.86357373834951e+005,-1.88802415883738e+000,-1.23007567101656e+000

1.88958825828723e+005,-1.88801665250420e+000,-1.24724741033355e+000

1.91596592739027e+005,-1.88800893517383e+000,-1.26465888040041e+000

1.94271181503206e+005,-1.88800100091631e+000,-1.28231342867654e+000

1.96983106135185e+005,-1.88799284363513e+000,-1.30021444938989e+000

1.99732887824256e+005,-1.88798445706235e+000,-1.31836538419219e+000

2.02521055035243e+005,-1.88797583475404e+000,-1.33676972282228e+000

2.05348143610063e+005,-1.88796697008537e+000,-1.35543100377837e+000

2.08214696870707e+005,-1.88795785624512e+000,-1.37435281500308e+000

2.11121265723661e+005,-1.88794848623096e+000,-1.39353879457259e+000

2.14068408765776e+005,-1.88793885284369e+000,-1.41299263140160e+000

2.17056692391625e+005,-1.88792894868200e+000,-1.43271806595261e+000

2.20086690902357e+005,-1.88791876613668e+000,-1.45271889095878e+000

2.23158986616063e+005,-1.88790829738467e+000,-1.47299895215686e+000

2.26274169979693e+005,-1.88789753438318e+000,-1.49356214902851e+000

2.29432839682530e+005,-1.88788646886369e+000,-1.51441243555264e+000

2.32635602771247e+005,-1.88787509232528e+000,-1.53555382097027e+000

2.35883074766574e+005,-1.88786339602827e+000,-1.55699037055821e+000

2.39175879781588e+005,-1.88785137098755e+000,-1.57872620641337e+000

2.42514650641661e+005,-1.88783900796568e+000,-1.60076550825033e+000

2.45900029006080e+005,-1.88782629746580e+000,-1.62311251420773e+000

2.49332665491357e+005,-1.88781322972429e+000,-1.64577152166778e+000

2.52813219796278e+005,-1.88779979470340e+000,-1.66874688808646e+000

2.56342360828676e+005,-1.88778598208341e+000,-1.69204303183589e+000

2.59920766833993e+005,-1.88777178125498e+000,-1.71566443305806e+000

2.63549125525621e+005,-1.88775718131072e+000,-1.73961563453133e+000

2.67228134217075e+005,-1.88774217103699e+000,-1.76390124254888e+000

2.70958499956006e+005,-1.88772673890536e+000,-1.78852592780932e+000

2.74740939660078e+005,-1.88771087306364e+000,-1.81349442632091e+000

2.78576180254757e+005,-1.88769456132694e+000,-1.83881154031627e+000

2.82464958813007e+005,-1.88767779116830e+000,-1.86448213918359e+000

2.86408022696948e+005,-1.88766054970893e+000,-1.89051116040793e+000

2.90406129701488e+005,-1.88764282370872e+000,-1.91690361052683e+000

2.94460048199957e+005,-1.88762459955567e+000,-1.94366456610091e+000

2.98570557291775e+005,-1.88760586325588e+000,-1.97079917469578e+000

3.02738446952187e+005,-1.88758660042254e+000,-1.99831265587954e+000

3.06964518184081e+005,-1.88756679626511e+000,-2.02621030223423e+000

3.11249583171928e+005,-1.88754643557784e+000,-2.05449748038159e+000

3.15594465437872e+005,-1.88752550272825e+000,-2.08317963202325e+000

3.19999999999997e+005,-1.88750398164527e+000,-2.11226227499488e+000

3.24467033532806e+005,-1.88748185580671e+000,-2.14175100433805e+000

3.28996424529938e+005,-1.88745910822674e+000,-2.17165149338400e+000

3.33589043469155e+005,-1.88743572144302e+000,-2.20196949485524e+000

3.38245772979638e+005,-1.88741167750324e+000,-2.23271084198122e+000

3.42967508011610e+005,-1.88738695795131e+000,-2.26388144963242e+000

3.47755156008335e+005,-1.88736154381349e+000,-2.29548731546700e+000

3.52609637080511e+005,-1.88733541558362e+000,-2.32753452109717e+000

3.57531884183106e+005,-1.88730855320852e+000,-2.36002923327028e+000

3.62522843294651e+005,-1.88728093607249e+000,-2.39297770506729e+000

3.67583473599047e+005,-1.88725254298155e+000,-2.42638627711950e+000

3.72714747669902e+005,-1.88722335214735e+000,-2.46026137884029e+000

3.77917651657445e+005,-1.88719334117049e+000,-2.49460952967718e+000

3.83193185478053e+005,-1.88716248702356e+000,-2.52943734037974e+000

3.88542363006410e+005,-1.88713076603323e+000,-2.56475151428756e+000

3.93966212270369e+005,-1.88709815386261e+000,-2.60055884863495e+000

3.99465775648511e+005,-1.88706462549247e+000,-2.63686623587530e+000

4.05042110070485e+005,-1.88703015520220e+000,-2.67368066502504e+000

4.10696287220124e+005,-1.88699471655020e+000,-2.71100922302585e+000

4.16429393741414e+005,-1.88695828235368e+000,-2.74885909612700e+000

4.22242531447321e+005,-1.88692082466815e+000,-2.78723757128792e+000

4.28136817531551e+005,-1.88688231476589e+000,-2.82615203760078e+000

4.34113384783250e+005,-1.88684272311420e+000,-2.86560998773303e+000

4.40173381804713e+005,-1.88680201935293e+000,-2.90561901939246e+000

4.46317973232124e+005,-1.88676017227135e+000,-2.94618683681140e+000

4.52548339959385e+005,-1.88671714978441e+000,-2.98732125225393e+000

4.58865679365059e+005,-1.88667291890833e+000,-3.02903018754440e+000

4.65271205542494e+005,-1.88662744573552e+000,-3.07132167561856e+000

4.71766149533147e+005,-1.88658069540879e+000,-3.11420386209663e+000

4.78351759563174e+005,-1.88653263209505e+000,-3.15768500687909e+000

4.85029301283321e+005,-1.88648321895764e+000,-3.20177348576793e+000

4.91800058012158e+005,-1.88643241812895e+000,-3.24647779210758e+000

4.98665330982714e+005,-1.88638019068121e+000,-3.29180653845390e+000

5.05626439592555e+005,-1.88632649659716e+000,-3.33776845826505e+000

5.12684721657352e+005,-1.88627129473965e+000,-3.38437240761810e+000

5.19841533667984e+005,-1.88621454282045e+000,-3.43162736695027e+000

5.27098251051240e+005,-1.88615619736830e+000,-3.47954244282604e+000

5.34456268434150e+005,-1.88609621369577e+000,-3.52812686973087e+000

5.41916999912011e+005,-1.88603454586559e+000,-3.57739001189002e+000

