Freq.,VOut,OutRef

1.00000000000000e+004,-1.75190039571388e+001,-1.39707745422038e-001

1.01395947979003e+004,-1.75190041099921e+001,-1.41657992015489e-001

1.02811382665607e+004,-1.75190042671428e+001,-1.43635463000728e-001

1.04246576084112e+004,-1.75190044287116e+001,-1.45640538414213e-001

1.05701804056138e+004,-1.75190045948226e+001,-1.47673603598481e-001

1.07177346253629e+004,-1.75190047656036e+001,-1.49735049273664e-001

1.08673486252606e+004,-1.75190049411860e+001,-1.51825271615070e-001

1.10190511587661e+004,-1.75190051217047e+001,-1.53944672328182e-001

1.11728713807222e+004,-1.75190053072985e+001,-1.56093658725232e-001

1.13288388529580e+004,-1.75190054981100e+001,-1.58272643807206e-001

1.14869835499703e+004,-1.75190056942858e+001,-1.60482046336389e-001

1.16473358646846e+004,-1.75190058959770e+001,-1.62722290922676e-001

1.18099266142953e+004,-1.75190061033383e+001,-1.64993808103552e-001

1.19747870461893e+004,-1.75190063165296e+001,-1.67297034424148e-001

1.21419488439505e+004,-1.75190065357143e+001,-1.69632412526909e-001

1.23114441334492e+004,-1.75190067610611e+001,-1.72000391230515e-001

1.24833054890161e+004,-1.75190069927433e+001,-1.74401425620096e-001

1.26575659397028e+004,-1.75190072309391e+001,-1.76835977132303e-001

1.28342589756290e+004,-1.75190074758313e+001,-1.79304513647131e-001

1.30134185544193e+004,-1.75190077276084e+001,-1.81807509573957e-001

1.31950791077289e+004,-1.75190079864639e+001,-1.84345445945084e-001

1.33792755478611e+004,-1.75190082525968e+001,-1.86918810507148e-001

1.35660432744767e+004,-1.75190085262117e+001,-1.89528097816609e-001

1.37554181813974e+004,-1.75190088075188e+001,-1.92173809333125e-001

1.39474366635040e+004,-1.75190090967346e+001,-1.94856453515086e-001

1.41421356237309e+004,-1.75190093940814e+001,-1.97576545919576e-001

1.43395524801583e+004,-1.75190096997876e+001,-2.00334609300808e-001

1.45397251732031e+004,-1.75190100140886e+001,-2.03131173708087e-001

1.47426921729110e+004,-1.75190103372256e+001,-2.05966776593997e-001

1.49484924863494e+004,-1.75190106694472e+001,-2.08841962909007e-001

1.51571656651040e+004,-1.75190110110087e+001,-2.11757285213423e-001

1.53687518128801e+004,-1.75190113621729e+001,-2.14713303778673e-001

1.55832915932100e+004,-1.75190117232096e+001,-2.17710586699138e-001

1.58008262372675e+004,-1.75190120943963e+001,-2.20749709998111e-001

1.60213975517924e+004,-1.75190124760186e+001,-2.23831257739693e-001

1.62450479271247e+004,-1.75190128683696e+001,-2.26955822141829e-001

1.64718203453514e+004,-1.75190132717511e+001,-2.30124003687827e-001

1.67017583885674e+004,-1.75190136864731e+001,-2.33336411244982e-001

1.69349062472505e+004,-1.75190141128544e+001,-2.36593662178049e-001

1.71713087287550e+004,-1.75190145512231e+001,-2.39896382469687e-001

1.74110112659224e+004,-1.75190150019158e+001,-2.43245206843097e-001

1.76540599258131e+004,-1.75190154652791e+001,-2.46640778878476e-001

1.79005014185594e+004,-1.75190159416693e+001,-2.50083751141465e-001

1.81503831063432e+004,-1.75190164314526e+001,-2.53574785306461e-001

1.84037530124975e+004,-1.75190169350056e+001,-2.57114552283250e-001

1.86606598307361e+004,-1.75190174527152e+001,-2.60703732349593e-001

1.89211529345119e+004,-1.75190179849796e+001,-2.64343015275432e-001

1.91852823865052e+004,-1.75190185322078e+001,-2.68033100462125e-001

1.94530989482457e+004,-1.75190190948208e+001,-2.71774697071781e-001

1.97246540898671e+004,-1.75190196732507e+001,-2.75568524168047e-001

1.99999999999999e+004,-1.75190202679424e+001,-2.79415310849625e-001

2.02791895958005e+004,-1.75190208793532e+001,-2.83315796392696e-001

2.05622765331213e+004,-1.75190215079528e+001,-2.87270730395183e-001

2.08493152168224e+004,-1.75190221542249e+001,-2.91280872915125e-001

2.11403608112276e+004,-1.75190228186659e+001,-2.95346994623514e-001

2.14354692507258e+004,-1.75190235017867e+001,-2.99469876946631e-001

2.17346972505211e+004,-1.75190242041126e+001,-3.03650312218796e-001

2.20381023175322e+004,-1.75190249261833e+001,-3.07889103835308e-001

2.23457427614443e+004,-1.75190256685542e+001,-3.12187066404455e-001

2.26576777059159e+004,-1.75190264317957e+001,-3.16545025907067e-001

2.29739670999406e+004,-1.75190272164947e+001,-3.20963819851980e-001

2.32946717293690e+004,-1.75190280232544e+001,-3.25444297438693e-001

2.36198532285905e+004,-1.75190288526950e+001,-3.29987319722173e-001

2.39495740923785e+004,-1.75190297054543e+001,-3.34593759773591e-001

2.42838976879009e+004,-1.75190305821876e+001,-3.39264502853706e-001

2.46228882668982e+004,-1.75190314835689e+001,-3.44000446578868e-001

2.49666109780322e+004,-1.75190324102914e+001,-3.48802501094317e-001

2.53151318794055e+004,-1.75190333630674e+001,-3.53671589250350e-001

2.56685179512580e+004,-1.75190343426292e+001,-3.58608646779526e-001

2.60268371088386e+004,-1.75190353497300e+001,-3.63614622473697e-001

2.63901582154578e+004,-1.75190363851440e+001,-3.68690478370811e-001

2.67585510957221e+004,-1.75190374496671e+001,-3.73837189935471e-001

2.71320865489533e+004,-1.75190385441177e+001,-3.79055746248258e-001

2.75108363627948e+004,-1.75190396693372e+001,-3.84347150197085e-001

2.78948733270080e+004,-1.75190408261906e+001,-3.89712418666650e-001

2.82842712474618e+004,-1.75190420155670e+001,-3.95152582737347e-001

2.86791049603164e+004,-1.75190432383811e+001,-4.00668687879921e-001

2.90794503464061e+004,-1.75190444955726e+001,-4.06261794159658e-001

2.94853843458219e+004,-1.75190457881082e+001,-4.11932976436451e-001

2.98969849726987e+004,-1.75190471169815e+001,-4.17683324574139e-001

3.03143313302078e+004,-1.75190484832139e+001,-4.23513943650017e-001

3.07375036257601e+004,-1.75190498878558e+001,-4.29425954164919e-001

3.11665831864199e+004,-1.75190513319871e+001,-4.35420492259118e-001

3.16016524745350e+004,-1.75190528167178e+001,-4.41498709931757e-001

3.20427951035848e+004,-1.75190543431892e+001,-4.47661775262560e-001

3.24900958542493e+004,-1.75190559125750e+001,-4.53910872632883e-001

3.29436406907028e+004,-1.75190575260816e+001,-4.60247202956867e-001

3.34035167771346e+004,-1.75190591849492e+001,-4.66671983910496e-001

3.38698124945009e+004,-1.75190608904532e+001,-4.73186450165636e-001

3.43426174575100e+004,-1.75190626439046e+001,-4.79791853626960e-001

3.48220225318448e+004,-1.75190644466513e+001,-4.86489463673826e-001

3.53081198516260e+004,-1.75190663000791e+001,-4.93280567402390e-001

3.58010028371187e+004,-1.75190682056130e+001,-5.00166469872268e-001

3.63007662126863e+004,-1.75190701647177e+001,-5.07148494360185e-001

3.68075060249948e+004,-1.75190721788992e+001,-5.14227982611558e-001

3.73213196614721e+004,-1.75190742497058e+001,-5.21406295098900e-001

3.78423058690237e+004,-1.75190763787297e+001,-5.28684811283260e-001

3.83705647730104e+004,-1.75190785676071e+001,-5.36064929879765e-001

3.89061978964912e+004,-1.75190808180209e+001,-5.43548069124652e-001

3.94493081797342e+004,-1.75190831317010e+001,-5.51135667049374e-001

3.99999999999998e+004,-1.75190855104259e+001,-5.58829181755308e-001

4.05583791916010e+004,-1.75190879560244e+001,-5.66630091694537e-001

4.11245530662425e+004,-1.75190904703761e+001,-5.74539895954768e-001

4.16986304336447e+004,-1.75190930554142e+001,-5.82560114544615e-001

4.22807216224550e+004,-1.75190957131256e+001,-5.90692288688447e-001

4.28709385014515e+004,-1.75190984455535e+001,-5.98937981119476e-001

4.34693945010421e+004,-1.75191012547982e+001,-6.07298776383102e-001

4.40762046350642e+004,-1.75191041430194e+001,-6.15776281137509e-001

4.46914855228886e+004,-1.75191071124369e+001,-6.24372124466211e-001

4.53153554118317e+004,-1.75191101653338e+001,-6.33087958185979e-001

4.59479341998812e+004,-1.75191133040565e+001,-6.41925457169549e-001

4.65893434587380e+004,-1.75191165310180e+001,-6.50886319661980e-001

4.72397064571810e+004,-1.75191198486986e+001,-6.59972267611032e-001

4.78991481847569e+004,-1.75191232596488e+001,-6.69185046994431e-001

4.85677953758016e+004,-1.75191267664906e+001,-6.78526428157354e-001

4.92457765337964e+004,-1.75191303719196e+001,-6.87998206151121e-001

4.99332219560642e+004,-1.75191340787071e+001,-6.97602201078777e-001

5.06302637588109e+004,-1.75191378897029e+001,-7.07340258441871e-001

5.13370359025159e+004,-1.75191418078360e+001,-7.17214249499768e-001

5.20536742176771e+004,-1.75191458361186e+001,-7.27226071622838e-001

5.27803164309155e+004,-1.75191499776468e+001,-7.37377648661874e-001

5.35171021914442e+004,-1.75191542356044e+001,-7.47670931313504e-001

5.42641730979066e+004,-1.75191586132643e+001,-7.58107897497272e-001

5.50216727255895e+004,-1.75191631139915e+001,-7.68690552733257e-001

5.57897466540159e+004,-1.75191677412455e+001,-7.79420930529271e-001

5.65685424949235e+004,-1.75191724985831e+001,-7.90301092768835e-001

5.73582099206328e+004,-1.75191773896613e+001,-8.01333130107607e-001

5.81589006928121e+004,-1.75191824182395e+001,-8.12519162375573e-001

5.89707686916437e+004,-1.75191875881831e+001,-8.23861338982656e-001

5.97939699453972e+004,-1.75191929034658e+001,-8.35361839331508e-001

6.06286626604156e+004,-1.75191983681735e+001,-8.47022873235850e-001

6.14750072515201e+004,-1.75192039865064e+001,-8.58846681344507e-001

6.23331663728396e+004,-1.75192097627831e+001,-8.70835535571182e-001

6.32033049490698e+004,-1.75192157014435e+001,-8.82991739530031e-001

6.40855902071694e+004,-1.75192218070522e+001,-8.95317628978121e-001

6.49801917084985e+004,-1.75192280843023e+001,-9.07815572263077e-001

6.58872813814055e+004,-1.75192345380185e+001,-9.20487970778168e-001

6.68070335542691e+004,-1.75192411731616e+001,-9.33337259420865e-001

6.77396249890018e+004,-1.75192479948313e+001,-9.46365907063045e-001

6.86852349150199e+004,-1.75192550082708e+001,-9.59576417022033e-001

6.96440450636895e+004,-1.75192622188708e+001,-9.72971327541317e-001

7.06162397032520e+004,-1.75192696321736e+001,-9.86553212277002e-001

7.16020056742374e+004,-1.75192772538768e+001,-1.00032468079309e+000

7.26015324253724e+004,-1.75192850898387e+001,-1.01428837905919e+000

7.36150120499896e+004,-1.75192931460819e+001,-1.02844698995992e+000

7.46426393229441e+004,-1.75193014287982e+001,-1.04280323380825e+000

7.56846117380472e+004,-1.75193099443538e+001,-1.05735986886738e+000

7.67411295460207e+004,-1.75193186992933e+001,-1.07211969187941e+000

7.78123957929823e+004,-1.75193277003458e+001,-1.08708553860096e+000

7.88986163594682e+004,-1.75193369544291e+001,-1.10226028434777e+000

7.99999999999995e+004,-1.75193464686555e+001,-1.11764684454424e+000

8.11167583832018e+004,-1.75193562503373e+001,-1.13324817528422e+000

8.22491061324848e+004,-1.75193663069922e+001,-1.14906727389511e+000

8.33972608672892e+004,-1.75193766463490e+001,-1.16510717951448e+000

8.45614432449099e+004,-1.75193872763542e+001,-1.18137097366938e+000

8.57418770029029e+004,-1.75193982051771e+001,-1.19786178087029e+000

8.69387890020841e+004,-1.75194094412168e+001,-1.21458276920651e+000

8.81524092701283e+004,-1.75194209931083e+001,-1.23153715095531e+000

8.93829710457770e+004,-1.75194328697295e+001,-1.24872818319511e+000

9.06307108236633e+004,-1.75194450802075e+001,-1.26615916843116e+000

9.18958683997622e+004,-1.75194576339260e+001,-1.28383345522582e+000

9.31786869174758e+004,-1.75194705405325e+001,-1.30175443884180e+000

9.44794129143618e+004,-1.75194838099452e+001,-1.31992556189092e+000

9.57982963695136e+004,-1.75194974523614e+001,-1.33835031499308e+000

9.71355907516031e+004,-1.75195114782648e+001,-1.35703223744477e+000

9.84915530675926e+004,-1.75195258984336e+001,-1.37597491789660e+000

9.98664439121282e+004,-1.75195407239489e+001,-1.39518199503890e+000

1.01260527517622e+005,-1.75195559662032e+001,-1.41465715829923e+000

1.02674071805032e+005,-1.75195716369090e+001,-1.43440414854815e+000

1.04107348435354e+005,-1.75195877481079e+001,-1.45442675881302e+000

1.05560632861831e+005,-1.75196043121797e+001,-1.47472883500626e+000

1.07034204382888e+005,-1.75196213418525e+001,-1.49531427665766e+000

1.08528346195813e+005,-1.75196388502113e+001,-1.51618703766307e+000

1.10043345451179e+005,-1.75196568507092e+001,-1.53735112703800e+000

1.11579493308032e+005,-1.75196753571771e+001,-1.55881060968467e+000

1.13137084989847e+005,-1.75196943838344e+001,-1.58056960716982e+000

1.14716419841265e+005,-1.75197139453000e+001,-1.60263229851059e+000

1.16317801385624e+005,-1.75197340566037e+001,-1.62500292097414e+000

1.17941537383287e+005,-1.75197547331971e+001,-1.64768577088731e+000

1.19587939890794e+005,-1.75197759909661e+001,-1.67068520445564e+000

1.21257325320831e+005,-1.75197978462427e+001,-1.69400563859729e+000

1.22950014503040e+005,-1.75198203158179e+001,-1.71765155178479e+000

1.24666332745679e+005,-1.75198434169540e+001,-1.74162748490073e+000

1.26406609898139e+005,-1.75198671673986e+001,-1.76593804210375e+000

1.28171180414339e+005,-1.75198915853972e+001,-1.79058789170833e+000

1.29960383416997e+005,-1.75199166897083e+001,-1.81558176707396e+000

1.31774562762811e+005,-1.75199424996170e+001,-1.84092446750904e+000

1.33614067108538e+005,-1.75199690349500e+001,-1.86662085918521e+000

1.35479249978003e+005,-1.75199963160908e+001,-1.89267587606630e+000

1.37370469830040e+005,-1.75200243639956e+001,-1.91909452084733e+000

1.39288090127379e+005,-1.75200532002088e+001,-1.94588186590957e+000

1.41232479406504e+005,-1.75200828468798e+001,-1.97304305428587e+000

1.43204011348474e+005,-1.75201133267803e+001,-2.00058330063991e+000

1.45203064850745e+005,-1.75201446633210e+001,-2.02850789226048e+000

1.47230024099979e+005,-1.75201768805703e+001,-2.05682219006757e+000

1.49285278645888e+005,-1.75202100032721e+001,-2.08553162963219e+000

1.51369223476094e+005,-1.75202440568653e+001,-2.11464172221147e+000

1.53482259092041e+005,-1.75202790675029e+001,-2.14415805579650e+000

1.55624791585964e+005,-1.75203150620721e+001,-2.17408629617477e+000

1.57797232718936e+005,-1.75203520682148e+001,-2.20443218800870e+000

1.59999999999999e+005,-1.75203901143493e+001,-2.23520155592575e+000

1.62233516766403e+005,-1.75204292296911e+001,-2.26640030562604e+000

1.64498212264969e+005,-1.75204694442762e+001,-2.29803442500416e+000

1.66794521734578e+005,-1.75205107889836e+001,-2.33010998528493e+000

1.69122886489819e+005,-1.75205532955588e+001,-2.36263314217760e+000

1.71483754005805e+005,-1.75205969966385e+001,-2.39561013704228e+000

1.73877578004168e+005,-1.75206419257752e+001,-2.42904729807457e+000

1.76304818540256e+005,-1.75206881174631e+001,-2.46295104150532e+000

1.78765942091554e+005,-1.75207356071644e+001,-2.49732787281654e+000

1.81261421647326e+005,-1.75207844313364e+001,-2.53218438797358e+000

1.83791736799524e+005,-1.75208346274591e+001,-2.56752727467520e+000

1.86357373834951e+005,-1.75208862340647e+001,-2.60336331361821e+000

1.88958825828723e+005,-1.75209392907658e+001,-2.63969937978212e+000

1.91596592739027e+005,-1.75209938382867e+001,-2.67654244372786e+000

1.94271181503206e+005,-1.75210499184941e+001,-2.71389957291718e+000

1.96983106135185e+005,-1.75211075744290e+001,-2.75177793304631e+000

1.99732887824256e+005,-1.75211668503398e+001,-2.79018478940104e+000

2.02521055035243e+005,-1.75212277917159e+001,-2.82912750822693e+000

2.05348143610063e+005,-1.75212904453225e+001,-2.86861355812066e+000

2.08214696870707e+005,-1.75213548592362e+001,-2.90865051143702e+000

2.11121265723661e+005,-1.75214210828820e+001,-2.94924604571666e+000

2.14068408765776e+005,-1.75214891670704e+001,-2.99040794513332e+000

2.17056692391625e+005,-1.75215591640369e+001,-3.03214410195792e+000

2.20086690902357e+005,-1.75216311274812e+001,-3.07446251804490e+000

2.23158986616063e+005,-1.75217051126085e+001,-3.11737130633580e+000

2.26274169979693e+005,-1.75217811761714e+001,-3.16087869238526e+000

2.29432839682530e+005,-1.75218593765133e+001,-3.20499301590470e+000

2.32635602771247e+005,-1.75219397736127e+001,-3.24972273232843e+000

2.35883074766574e+005,-1.75220224291289e+001,-3.29507641439936e+000

2.39175879781588e+005,-1.75221074064492e+001,-3.34106275377617e+000

2.42514650641661e+005,-1.75221947707367e+001,-3.38769056266042e+000

2.45900029006080e+005,-1.75222845889803e+001,-3.43496877544733e+000

2.49332665491357e+005,-1.75223769300453e+001,-3.48290645039560e+000

2.52813219796278e+005,-1.75224718647262e+001,-3.53151277132079e+000

2.56342360828676e+005,-1.75225694658001e+001,-3.58079704930999e+000

2.59920766833993e+005,-1.75226698080823e+001,-3.63076872445964e+000

2.63549125525621e+005,-1.75227729684833e+001,-3.68143736763475e+000

2.67228134217075e+005,-1.75228790260664e+001,-3.73281268225231e+000

2.70958499956006e+005,-1.75229880621090e+001,-3.78490450608631e+000

2.74740939660078e+005,-1.75231001601631e+001,-3.83772281309804e+000

2.78576180254757e+005,-1.75232154061194e+001,-3.89127771528743e+000

2.82464958813007e+005,-1.75233338882722e+001,-3.94557946457063e+000

2.86408022696948e+005,-1.75234556973867e+001,-4.00063845468004e+000

2.90406129701488e+005,-1.75235809267671e+001,-4.05646522308954e+000

2.94460048199957e+005,-1.75237096723280e+001,-4.11307045296378e+000

2.98570557291775e+005,-1.75238420326664e+001,-4.17046497513310e+000

3.02738446952187e+005,-1.75239781091371e+001,-4.22865977009123e+000

3.06964518184081e+005,-1.75241180059286e+001,-4.28766597002217e+000

3.11249583171928e+005,-1.75242618301424e+001,-4.34749486084863e+000

3.15594465437872e+005,-1.75244096918738e+001,-4.40815788430882e+000

3.19999999999997e+005,-1.75245617042954e+001,-4.46966664005788e+000

3.24467033532806e+005,-1.75247179837417e+001,-4.53203288779704e+000

3.28996424529938e+005,-1.75248786497980e+001,-4.59526854942738e+000

3.33589043469155e+005,-1.75250438253900e+001,-4.65938571123217e+000

3.38245772979638e+005,-1.75252136368767e+001,-4.72439662608454e+000

3.42967508011610e+005,-1.75253882141452e+001,-4.79031371568387e+000

3.47755156008335e+005,-1.75255676907094e+001,-4.85714957281843e+000

3.52609637080511e+005,-1.75257522038097e+001,-4.92491696365625e+000

3.57531884183106e+005,-1.75259418945167e+001,-4.99362883006385e+000

3.62522843294651e+005,-1.75261369078371e+001,-5.06329829195311e+000

3.67583473599047e+005,-1.75263373928225e+001,-5.13393864965608e+000

3.72714747669902e+005,-1.75265435026818e+001,-5.20556338632815e+000

3.77917651657445e+005,-1.75267553948959e+001,-5.27818617038156e+000

3.83193185478053e+005,-1.75269732313356e+001,-5.35182085794507e+000

3.88542363006410e+005,-1.75271971783832e+001,-5.42648149535578e+000

3.93966212270369e+005,-1.75274274070570e+001,-5.50218232167738e+000

3.99465775648511e+005,-1.75276640931394e+001,-5.57893777125064e+000

4.05042110070485e+005,-1.75279074173078e+001,-5.65676247627120e+000

4.10696287220124e+005,-1.75281575652706e+001,-5.73567126939856e+000

4.16429393741414e+005,-1.75284147279047e+001,-5.81567918639481e+000

4.22242531447321e+005,-1.75286791013987e+001,-5.89680146879325e+000

4.28136817531551e+005,-1.75289508873987e+001,-5.97905356659756e+000

4.34113384783250e+005,-1.75292302931587e+001,-6.06245114101146e+000

4.40173381804713e+005,-1.75295175316946e+001,-6.14701006719835e+000

4.46317973232124e+005,-1.75298128219425e+001,-6.23274643707254e+000

4.52548339959385e+005,-1.75301163889214e+001,-6.31967656212023e+000

4.58865679365059e+005,-1.75304284639000e+001,-6.40781697625217e+000

4.65271205542494e+005,-1.75307492845682e+001,-6.49718443868736e+000

4.71766149533147e+005,-1.75310790952130e+001,-6.58779593686634e+000

4.78351759563174e+005,-1.75314181468990e+001,-6.67966868939750e+000

4.85029301283321e+005,-1.75317666976541e+001,-6.77282014903308e+000

4.91800058012158e+005,-1.75321250126596e+001,-6.86726800567696e+000

4.98665330982714e+005,-1.75324933644459e+001,-6.96303018942339e+000

5.05626439592555e+005,-1.75328720330928e+001,-7.06012487362637e+000

5.12684721657352e+005,-1.75332613064357e+001,-7.15857047800134e+000

5.19841533667984e+005,-1.75336614802766e+001,-7.25838567175678e+000

5.27098251051240e+005,-1.75340728586012e+001,-7.35958937675684e+000

5.34456268434150e+005,-1.75344957538014e+001,-7.46220077071566e+000

5.41916999912011e+005,-1.75349304869039e+001,-7.56623929042181e+000

