Freq.,VOut,OutRef

1.00000000000000e+004,-2.36477960738493e+001,-3.20737762849664e-001

1.01395947979003e+004,-2.36477973931718e+001,-3.25215076711482e-001

1.02811382665607e+004,-2.36477987495850e+001,-3.29754890762499e-001

1.04246576084112e+004,-2.36478001441319e+001,-3.34358077438346e-001

1.05701804056138e+004,-2.36478015778843e+001,-3.39025521353965e-001

1.07177346253629e+004,-2.36478030519446e+001,-3.43758119470724e-001

1.08673486252606e+004,-2.36478045674458e+001,-3.48556781269938e-001

1.10190511587661e+004,-2.36478061255532e+001,-3.53422428926096e-001

1.11728713807222e+004,-2.36478077274642e+001,-3.58355997487377e-001

1.13288388529580e+004,-2.36478093744106e+001,-3.63358435049632e-001

1.14869835499703e+004,-2.36478110676583e+001,-3.68430702945379e-001

1.16473358646846e+004,-2.36478128085091e+001,-3.73573775922728e-001

1.18099266142953e+004,-2.36478145983011e+001,-3.78788642335400e-001

1.19747870461893e+004,-2.36478164384104e+001,-3.84076304331913e-001

1.21419488439505e+004,-2.36478183302515e+001,-3.89437778047693e-001

1.23114441334492e+004,-2.36478202752786e+001,-3.94874093802275e-001

1.24833054890161e+004,-2.36478222749870e+001,-4.00386296293651e-001

1.26575659397028e+004,-2.36478243309139e+001,-4.05975444801975e-001

1.28342589756290e+004,-2.36478264446399e+001,-4.11642613391087e-001

1.30134185544193e+004,-2.36478286177898e+001,-4.17388891116505e-001

1.31950791077289e+004,-2.36478308520343e+001,-4.23215382232628e-001

1.33792755478611e+004,-2.36478331490907e+001,-4.29123206406728e-001

1.35660432744767e+004,-2.36478355107251e+001,-4.35113498931777e-001

1.37554181813974e+004,-2.36478379387528e+001,-4.41187410947918e-001

1.39474366635040e+004,-2.36478404350403e+001,-4.47346109659030e-001

1.41421356237309e+004,-2.36478430015067e+001,-4.53590778560159e-001

1.43395524801583e+004,-2.36478456401247e+001,-4.59922617664501e-001

1.45397251732031e+004,-2.36478483529228e+001,-4.66342843732228e-001

1.47426921729110e+004,-2.36478511419864e+001,-4.72852690505101e-001

1.49484924863494e+004,-2.36478540094595e+001,-4.79453408943445e-001

1.51571656651040e+004,-2.36478569575465e+001,-4.86146267466055e-001

1.53687518128801e+004,-2.36478599885135e+001,-4.92932552193591e-001

1.55832915932100e+004,-2.36478631046906e+001,-4.99813567196814e-001

1.58008262372675e+004,-2.36478663084730e+001,-5.06790634745238e-001

1.60213975517924e+004,-2.36478696023239e+001,-5.13865095560890e-001

1.62450479271247e+004,-2.36478729887750e+001,-5.21038309077535e-001

1.64718203453514e+004,-2.36478764704298e+001,-5.28311653700078e-001

1.67017583885674e+004,-2.36478800499643e+001,-5.35686527070257e-001

1.69349062472505e+004,-2.36478837301305e+001,-5.43164346333659e-001

1.71713087287550e+004,-2.36478875137572e+001,-5.50746548412551e-001

1.74110112659224e+004,-2.36478914037529e+001,-5.58434590281784e-001

1.76540599258131e+004,-2.36478954031079e+001,-5.66229949247884e-001

1.79005014185594e+004,-2.36478995148965e+001,-5.74134123233376e-001

1.81503831063432e+004,-2.36479037422795e+001,-5.82148631063746e-001

1.84037530124975e+004,-2.36479080885064e+001,-5.90275012759093e-001

1.86606598307361e+004,-2.36479125569181e+001,-5.98514829828937e-001

1.89211529345119e+004,-2.36479171509495e+001,-6.06869665574013e-001

1.91852823865052e+004,-2.36479218741320e+001,-6.15341125386952e-001

1.94530989482457e+004,-2.36479267300962e+001,-6.23930837062990e-001

1.97246540898671e+004,-2.36479317225750e+001,-6.32640451111243e-001

1.99999999999999e+004,-2.36479368554058e+001,-6.41471641071766e-001

2.02791895958005e+004,-2.36479421325342e+001,-6.50426103835868e-001

2.05622765331213e+004,-2.36479475580168e+001,-6.59505559971688e-001

2.08493152168224e+004,-2.36479531360238e+001,-6.68711754056393e-001

2.11403608112276e+004,-2.36479588708430e+001,-6.78046455008339e-001

2.14354692507258e+004,-2.36479647668826e+001,-6.87511456426325e-001

2.17346972505211e+004,-2.36479708286745e+001,-6.97108576936329e-001

2.20381023175322e+004,-2.36479770608785e+001,-7.06839660537046e-001

2.23457427614443e+004,-2.36479834682850e+001,-7.16706576955826e-001

2.26576777059159e+004,-2.36479900558189e+001,-7.26711222007385e-001

2.29739670999406e+004,-2.36479968285440e+001,-7.36855517954577e-001

2.32946717293690e+004,-2.36480037916660e+001,-7.47141413880654e-001

2.36198532285905e+004,-2.36480109505371e+001,-7.57570886060083e-001

2.39495740923785e+004,-2.36480183106601e+001,-7.68145938339384e-001

2.42838976879009e+004,-2.36480258776923e+001,-7.78868602520090e-001

2.46228882668982e+004,-2.36480336574499e+001,-7.89740938749300e-001

2.49666109780322e+004,-2.36480416559127e+001,-8.00765035914061e-001

2.53151318794055e+004,-2.36480498792286e+001,-8.11943012041270e-001

2.56685179512580e+004,-2.36480583337183e+001,-8.23277014704460e-001

2.60268371088386e+004,-2.36480670258800e+001,-8.34769221435067e-001

2.63901582154578e+004,-2.36480759623949e+001,-8.46421840139394e-001

2.67585510957221e+004,-2.36480851501315e+001,-8.58237109522889e-001

2.71320865489533e+004,-2.36480945961517e+001,-8.70217299517779e-001

2.75108363627948e+004,-2.36481043077157e+001,-8.82364711718224e-001

2.78948733270080e+004,-2.36481142922880e+001,-8.94681679821262e-001

2.82842712474618e+004,-2.36481245575424e+001,-9.07170570075064e-001

2.86791049603164e+004,-2.36481351113690e+001,-9.19833781730475e-001

2.90794503464061e+004,-2.36481459618790e+001,-9.32673747501501e-001

2.94853843458219e+004,-2.36481571174121e+001,-9.45692934030289e-001

2.98969849726987e+004,-2.36481685865422e+001,-9.58893842360611e-001

3.03143313302078e+004,-2.36481803780840e+001,-9.72279008416706e-001

3.07375036257601e+004,-2.36481925011001e+001,-9.85851003486982e-001

3.11665831864199e+004,-2.36482049649078e+001,-9.99612434718042e-001

3.16016524745350e+004,-2.36482177790861e+001,-1.01356594561357e+000

3.20427951035848e+004,-2.36482309534833e+001,-1.02771421653979e+000

3.24900958542493e+004,-2.36482444982245e+001,-1.04205996523773e+000

3.29436406907028e+004,-2.36482584237191e+001,-1.05660594734445e+000

3.34035167771346e+004,-2.36482727406694e+001,-1.07135495691946e+000

3.38698124945009e+004,-2.36482874600782e+001,-1.08630982697949e+000

3.43426174575100e+004,-2.36483025932575e+001,-1.10147343004010e+000

3.48220225318448e+004,-2.36483181518372e+001,-1.11684867866615e+000

3.53081198516260e+004,-2.36483341477741e+001,-1.13243852602631e+000

3.58010028371187e+004,-2.36483505933608e+001,-1.14824596645984e+000

3.63007662126863e+004,-2.36483675012354e+001,-1.16427403604819e+000

3.68075060249948e+004,-2.36483848843912e+001,-1.18052581319497e+000

3.73213196614721e+004,-2.36484027561866e+001,-1.19700441921473e+000

3.78423058690237e+004,-2.36484211303552e+001,-1.21371301892960e+000

3.83705647730104e+004,-2.36484400210166e+001,-1.23065482127259e+000

3.89061978964912e+004,-2.36484594426870e+001,-1.24783307990203e+000

3.94493081797342e+004,-2.36484794102906e+001,-1.26525109382161e+000

3.99999999999998e+004,-2.36484999391710e+001,-1.28291220801100e+000

4.05583791916010e+004,-2.36485210451026e+001,-1.30081981406516e+000

4.11245530662425e+004,-2.36485427443031e+001,-1.31897735083926e+000

4.16986304336447e+004,-2.36485650534461e+001,-1.33738830510772e+000

4.22807216224550e+004,-2.36485879896733e+001,-1.35605621222744e+000

4.28709385014515e+004,-2.36486115706080e+001,-1.37498465681307e+000

4.34693945010421e+004,-2.36486358143689e+001,-1.39417727342032e+000

4.40762046350642e+004,-2.36486607395834e+001,-1.41363774723926e+000

4.46914855228886e+004,-2.36486863654023e+001,-1.43336981479624e+000

4.53153554118317e+004,-2.36487127115143e+001,-1.45337726466675e+000

4.59479341998812e+004,-2.36487397981612e+001,-1.47366393819663e+000

4.65893434587380e+004,-2.36487676461536e+001,-1.49423373023387e+000

4.72397064571810e+004,-2.36487962768864e+001,-1.51509058987054e+000

4.78991481847569e+004,-2.36488257123556e+001,-1.53623852119519e+000

4.85677953758016e+004,-2.36488559751749e+001,-1.55768158405346e+000

4.92457765337964e+004,-2.36488870885932e+001,-1.57942389482258e+000

4.99332219560642e+004,-2.36489190765126e+001,-1.60146962719248e+000

5.06302637588109e+004,-2.36489519635062e+001,-1.62382301296122e+000

5.13370359025159e+004,-2.36489857748375e+001,-1.64648834283903e+000

5.20536742176771e+004,-2.36490205364793e+001,-1.66946996726285e+000

5.27803164309155e+004,-2.36490562751340e+001,-1.69277229722434e+000

5.35171021914442e+004,-2.36490930182537e+001,-1.71639980510685e+000

5.42641730979066e+004,-2.36491307940616e+001,-1.74035702553527e+000

5.50216727255895e+004,-2.36491696315732e+001,-1.76464855623651e+000

5.57897466540159e+004,-2.36492095606190e+001,-1.78927905891145e+000

5.65685424949235e+004,-2.36492506118669e+001,-1.81425326012010e+000

5.73582099206328e+004,-2.36492928168460e+001,-1.83957595217659e+000

5.81589006928121e+004,-2.36493362079708e+001,-1.86525199405931e+000

5.89707686916437e+004,-2.36493808185655e+001,-1.89128631232992e+000

5.97939699453972e+004,-2.36494266828902e+001,-1.91768390206670e+000

6.06286626604156e+004,-2.36494738361667e+001,-1.94444982781098e+000

6.14750072515201e+004,-2.36495223146056e+001,-1.97158922452456e+000

6.23331663728396e+004,-2.36495721554340e+001,-1.99910729856162e+000

6.32033049490698e+004,-2.36496233969239e+001,-2.02700932865305e+000

6.40855902071694e+004,-2.36496760784217e+001,-2.05530066690326e+000

6.49801917084985e+004,-2.36497302403781e+001,-2.08398673980156e+000

6.58872813814055e+004,-2.36497859243790e+001,-2.11307304924773e+000

6.68070335542691e+004,-2.36498431731777e+001,-2.14256517358819e+000

6.77396249890018e+004,-2.36499020307271e+001,-2.17246876866925e+000

6.86852349150199e+004,-2.36499625422137e+001,-2.20278956890349e+000

6.96440450636895e+004,-2.36500247540918e+001,-2.23353338834947e+000

7.06162397032520e+004,-2.36500887141193e+001,-2.26470612180661e+000

7.16020056742374e+004,-2.36501544713943e+001,-2.29631374592469e+000

7.26015324253724e+004,-2.36502220763919e+001,-2.32836232032772e+000

7.36150120499896e+004,-2.36502915810039e+001,-2.36085798875258e+000

7.46426393229441e+004,-2.36503630385775e+001,-2.39380698020385e+000

7.56846117380472e+004,-2.36504365039563e+001,-2.42721561012194e+000

7.67411295460207e+004,-2.36505120335225e+001,-2.46109028156892e+000

7.78123957929823e+004,-2.36505896852396e+001,-2.49543748642767e+000

7.88986163594682e+004,-2.36506695186967e+001,-2.53026380661908e+000

7.99999999999995e+004,-2.36507515951543e+001,-2.56557591533331e+000

8.11167583832018e+004,-2.36508359775904e+001,-2.60138057827850e+000

8.22491061324848e+004,-2.36509227307492e+001,-2.63768465494513e+000

8.33972608672892e+004,-2.36510119211903e+001,-2.67449509988621e+000

8.45614432449099e+004,-2.36511036173391e+001,-2.71181896401706e+000

8.57418770029029e+004,-2.36511978895395e+001,-2.74966339592801e+000

8.69387890020841e+004,-2.36512948101071e+001,-2.78803564321666e+000

8.81524092701283e+004,-2.36513944533845e+001,-2.82694305383739e+000

8.93829710457770e+004,-2.36514968957981e+001,-2.86639307746713e+000

9.06307108236633e+004,-2.36516022159158e+001,-2.90639326688919e+000

9.18958683997622e+004,-2.36517104945075e+001,-2.94695127939529e+000

9.31786869174758e+004,-2.36518218146060e+001,-2.98807487820553e+000

9.44794129143618e+004,-2.36519362615705e+001,-3.02977193390625e+000

9.57982963695136e+004,-2.36520539231516e+001,-3.07205042590563e+000

9.71355907516031e+004,-2.36521748895578e+001,-3.11491844390906e+000

9.84915530675926e+004,-2.36522992535241e+001,-3.15838418941291e+000

9.98664439121282e+004,-2.36524271103828e+001,-3.20245597721645e+000

1.01260527517622e+005,-2.36525585581359e+001,-3.24714223695320e+000

1.02674071805032e+005,-2.36526936975290e+001,-3.29245151464228e+000

1.04107348435354e+005,-2.36528326321284e+001,-3.33839247425850e+000

1.05560632861831e+005,-2.36529754683998e+001,-3.38497389932118e+000

1.07034204382888e+005,-2.36531223157883e+001,-3.43220469450547e+000

1.08528346195813e+005,-2.36532732868024e+001,-3.48009388727058e+000

1.10043345451179e+005,-2.36534284970988e+001,-3.52865062950995e+000

1.11579493308032e+005,-2.36535880655698e+001,-3.57788419922156e+000

1.13137084989847e+005,-2.36537521144342e+001,-3.62780400219815e+000

1.14716419841265e+005,-2.36539207693291e+001,-3.67841957373846e+000

1.16317801385624e+005,-2.36540941594054e+001,-3.72974058037958e+000

1.17941537383287e+005,-2.36542724174254e+001,-3.78177682164956e+000

1.19587939890794e+005,-2.36544556798633e+001,-3.83453823184172e+000

1.21257325320831e+005,-2.36546440870085e+001,-3.88803488181029e+000

1.22950014503040e+005,-2.36548377830712e+001,-3.94227698078711e+000

1.24666332745679e+005,-2.36550369162920e+001,-3.99727487822024e+000

1.26406609898139e+005,-2.36552416390530e+001,-4.05303906563417e+000

1.28171180414339e+005,-2.36554521079936e+001,-4.10958017851229e+000

1.29960383416997e+005,-2.36556684841280e+001,-4.16690899820040e+000

1.31774562762811e+005,-2.36558909329669e+001,-4.22503645383380e+000

1.33614067108538e+005,-2.36561196246421e+001,-4.28397362428541e+000

1.35479249978003e+005,-2.36563547340348e+001,-4.34373174013699e+000

1.37370469830040e+005,-2.36565964409068e+001,-4.40432218567245e+000

1.39288090127379e+005,-2.36568449300360e+001,-4.46575650089387e+000

1.41232479406504e+005,-2.36571003913551e+001,-4.52804638356123e+000

1.43204011348474e+005,-2.36573630200943e+001,-4.59120369125269e+000

1.45203064850745e+005,-2.36576330169282e+001,-4.65524044345020e+000

1.47230024099979e+005,-2.36579105881256e+001,-4.72016882364619e+000

1.49285278645888e+005,-2.36581959457047e+001,-4.78600118147493e+000

1.51369223476094e+005,-2.36584893075917e+001,-4.85275003486521e+000

1.53482259092041e+005,-2.36587908977839e+001,-4.92042807221755e+000

1.55624791585964e+005,-2.36591009465172e+001,-4.98904815460433e+000

1.57797232718936e+005,-2.36594196904384e+001,-5.05862331799225e+000

1.59999999999999e+005,-2.36597473727816e+001,-5.12916677548863e+000

1.62233516766403e+005,-2.36600842435498e+001,-5.20069191961164e+000

1.64498212264969e+005,-2.36604305597013e+001,-5.27321232458224e+000

1.66794521734578e+005,-2.36607865853411e+001,-5.34674174863990e+000

1.69122886489819e+005,-2.36611525919173e+001,-5.42129413638222e+000

1.71483754005805e+005,-2.36615288584231e+001,-5.49688362112629e+000

1.73877578004168e+005,-2.36619156716040e+001,-5.57352452729365e+000

1.76304818540256e+005,-2.36623133261703e+001,-5.65123137281883e+000

1.78765942091554e+005,-2.36627221250160e+001,-5.73001887157922e+000

1.81261421647326e+005,-2.36631423794426e+001,-5.80990193584887e+000

1.83791736799524e+005,-2.36635744093900e+001,-5.89089567877418e+000

1.86357373834951e+005,-2.36640185436722e+001,-5.97301541687227e+000

1.88958825828723e+005,-2.36644751202207e+001,-6.05627667255084e+000

1.91596592739027e+005,-2.36649444863329e+001,-6.14069517665111e+000

1.94271181503206e+005,-2.36654269989287e+001,-6.22628687101129e+000

1.96983106135185e+005,-2.36659230248119e+001,-6.31306791105256e+000

1.99732887824256e+005,-2.36664329409408e+001,-6.40105466838551e+000

2.02521055035243e+005,-2.36669571347037e+001,-6.49026373343738e+000

2.05348143610063e+005,-2.36674960042035e+001,-6.58071191810060e+000

2.08214696870707e+005,-2.36680499585483e+001,-6.67241625840058e+000

2.11121265723661e+005,-2.36686194181507e+001,-6.76539401718400e+000

2.14068408765776e+005,-2.36692048150344e+001,-6.85966268682581e+000

2.17056692391625e+005,-2.36698065931485e+001,-6.95523999195551e+000

2.20086690902357e+005,-2.36704252086909e+001,-7.05214389220130e+000

2.23158986616063e+005,-2.36710611304393e+001,-7.15039258495279e+000

2.26274169979693e+005,-2.36717148400909e+001,-7.25000450814028e+000

2.29432839682530e+005,-2.36723868326112e+001,-7.35099834303072e+000

2.32635602771247e+005,-2.36730776165914e+001,-7.45339301704039e+000

2.35883074766574e+005,-2.36737877146154e+001,-7.55720770656113e+000

2.39175879781588e+005,-2.36745176636357e+001,-7.66246183980360e+000

2.42514650641661e+005,-2.36752680153594e+001,-7.76917509965158e+000

2.45900029006080e+005,-2.36760393366437e+001,-7.87736742653080e+000

2.49332665491357e+005,-2.36768322099014e+001,-7.98705902128994e+000

2.52813219796278e+005,-2.36776472335174e+001,-8.09827034809102e+000

2.56342360828676e+005,-2.36784850222741e+001,-8.21102213731162e+000

2.59920766833993e+005,-2.36793462077900e+001,-8.32533538845449e+000

2.63549125525621e+005,-2.36802314389663e+001,-8.44123137306697e+000

2.67228134217075e+005,-2.36811413824474e+001,-8.55873163766456e+000

2.70958499956006e+005,-2.36820767230910e+001,-8.67785800666233e+000

2.74740939660078e+005,-2.36830381644508e+001,-8.79863258530829e+000

2.78576180254757e+005,-2.36840264292707e+001,-8.92107776262141e+000

2.82464958813007e+005,-2.36850422599915e+001,-9.04521621432936e+000

2.86408022696948e+005,-2.36860864192695e+001,-9.17107090580718e+000

2.90406129701488e+005,-2.36871596905084e+001,-9.29866509501280e+000

2.94460048199957e+005,-2.36882628784036e+001,-9.42802233542021e+000

2.98570557291775e+005,-2.36893968095000e+001,-9.55916647894677e+000

3.02738446952187e+005,-2.36905623327628e+001,-9.69212167887278e+000

3.06964518184081e+005,-2.36917603201626e+001,-9.82691239275333e+000

3.11249583171928e+005,-2.36929916672734e+001,-9.96356338531751e+000

3.15594465437872e+005,-2.36942572938865e+001,-1.01020997313550e+001

3.19999999999997e+005,-2.36955581446364e+001,-1.02425468185870e+001

3.24467033532806e+005,-2.36968951896438e+001,-1.03849303505198e+001

3.28996424529938e+005,-2.36982694251724e+001,-1.05292763492767e+001

3.33589043469155e+005,-2.36996818743001e+001,-1.06756111584091e+001

3.38245772979638e+005,-2.37011335876076e+001,-1.08239614456796e+001

3.42967508011610e+005,-2.37026256438808e+001,-1.09743542058195e+001

3.47755156008335e+005,-2.37041591508306e+001,-1.11268167632525e+001

3.52609637080511e+005,-2.37057352458278e+001,-1.12813767747866e+001

3.57531884183106e+005,-2.37073550966549e+001,-1.14380622322667e+001

3.62522843294651e+005,-2.37090199022746e+001,-1.15969014651880e+001

3.67583473599047e+005,-2.37107308936151e+001,-1.17579231432645e+001

3.72714747669902e+005,-2.37124893343727e+001,-1.19211562789509e+001

3.77917651657445e+005,-2.37142965218310e+001,-1.20866302299117e+001

3.83193185478053e+005,-2.37161537876987e+001,-1.22543747014375e+001

3.88542363006410e+005,-2.37180624989646e+001,-1.24244197487999e+001

3.93966212270369e+005,-2.37200240587699e+001,-1.25967957795453e+001

3.99465775648511e+005,-2.37220399073004e+001,-1.27715335557197e+001

4.05042110070485e+005,-2.37241115226946e+001,-1.29486641960231e+001

4.10696287220124e+005,-2.37262404219727e+001,-1.31282191778859e+001

4.16429393741414e+005,-2.37284281619821e+001,-1.33102303394654e+001

4.22242531447321e+005,-2.37306763403631e+001,-1.34947298815555e+001

4.28136817531551e+005,-2.37329865965328e+001,-1.36817503694051e+001

4.34113384783250e+005,-2.37353606126879e+001,-1.38713247344404e+001

4.40173381804713e+005,-2.37378001148270e+001,-1.40634862758848e+001

4.46317973232124e+005,-2.37403068737913e+001,-1.42582686622712e+001

4.52548339959385e+005,-2.37428827063253e+001,-1.44557059328409e+001

4.58865679365059e+005,-2.37455294761561e+001,-1.46558324988233e+001

4.65271205542494e+005,-2.37482490950919e+001,-1.48586831445892e+001

4.71766149533147e+005,-2.37510435241398e+001,-1.50642930286732e+001

4.78351759563174e+005,-2.37539147746427e+001,-1.52726976846556e+001

4.85029301283321e+005,-2.37568649094352e+001,-1.54839330219014e+001

4.91800058012158e+005,-2.37598960440180e+001,-1.56980353261441e+001

4.98665330982714e+005,-2.37630103477516e+001,-1.59150412599124e+001

5.05626439592555e+005,-2.37662100450687e+001,-1.61349878627880e+001

5.12684721657352e+005,-2.37694974167037e+001,-1.63579125514908e+001

5.19841533667984e+005,-2.37728748009418e+001,-1.65838531197795e+001

5.27098251051240e+005,-2.37763445948848e+001,-1.68128477381649e+001

5.34456268434150e+005,-2.37799092557351e+001,-1.70449349534220e+001

5.41916999912011e+005,-2.37835713020960e+001,-1.72801536878977e+001

