Freq.,VOut,OutRef

1.00000000000000e+004,-2.50970608748998e+001,-1.19757389917928e-001

1.01395947979003e+004,-2.50970610667102e+001,-1.21429139774744e-001

1.02811382665607e+004,-2.50970612639132e+001,-1.23124226346459e-001

1.04246576084112e+004,-2.50970614666602e+001,-1.24842975401793e-001

1.05701804056138e+004,-2.50970616751073e+001,-1.26585717251596e-001

1.07177346253629e+004,-2.50970618894146e+001,-1.28352786823749e-001

1.08673486252606e+004,-2.50970621097468e+001,-1.30144523716956e-001

1.10190511587661e+004,-2.50970623362736e+001,-1.31961272271424e-001

1.11728713807222e+004,-2.50970625691687e+001,-1.33803381637456e-001

1.13288388529580e+004,-2.50970628086116e+001,-1.35671205833214e-001

1.14869835499703e+004,-2.50970630547858e+001,-1.37565103824793e-001

1.16473358646846e+004,-2.50970633078811e+001,-1.39485439583994e-001

1.18099266142953e+004,-2.50970635680919e+001,-1.41432582166398e-001

1.19747870461893e+004,-2.50970638356181e+001,-1.43406905779556e-001

1.21419488439505e+004,-2.50970641106656e+001,-1.45408789851852e-001

1.23114441334492e+004,-2.50970643934455e+001,-1.47438619112062e-001

1.24833054890161e+004,-2.50970646841756e+001,-1.49496783655219e-001

1.26575659397028e+004,-2.50970649830791e+001,-1.51583679025581e-001

1.28342589756290e+004,-2.50970652903860e+001,-1.53699706285827e-001

1.30134185544193e+004,-2.50970656063324e+001,-1.55845272099568e-001

1.31950791077289e+004,-2.50970659311613e+001,-1.58020788804980e-001

1.33792755478611e+004,-2.50970662651222e+001,-1.60226674498166e-001

1.35660432744767e+004,-2.50970666084723e+001,-1.62463353108871e-001

1.37554181813974e+004,-2.50970669614749e+001,-1.64731254488382e-001

1.39474366635040e+004,-2.50970673244019e+001,-1.67030814483573e-001

1.41421356237309e+004,-2.50970676975322e+001,-1.69362475028451e-001

1.43395524801583e+004,-2.50970680811525e+001,-1.71726684225846e-001

1.45397251732031e+004,-2.50970684755577e+001,-1.74123896433421e-001

1.47426921729110e+004,-2.50970688810514e+001,-1.76554572348837e-001

1.49484924863494e+004,-2.50970692979448e+001,-1.79019179105073e-001

1.51571656651040e+004,-2.50970697265587e+001,-1.81518190351987e-001

1.53687518128801e+004,-2.50970701672225e+001,-1.84052086353688e-001

1.55832915932100e+004,-2.50970706202751e+001,-1.86621354075296e-001

1.58008262372675e+004,-2.50970710860646e+001,-1.89226487283253e-001

1.60213975517924e+004,-2.50970715649492e+001,-1.91867986633283e-001

1.62450479271247e+004,-2.50970720572971e+001,-1.94546359770923e-001

1.64718203453514e+004,-2.50970725634867e+001,-1.97262121428646e-001

1.67017583885674e+004,-2.50970730839071e+001,-2.00015793523025e-001

1.69349062472505e+004,-2.50970736189585e+001,-2.02807905256439e-001

1.71713087287550e+004,-2.50970741690522e+001,-2.05638993217200e-001

1.74110112659224e+004,-2.50970747346109e+001,-2.08509601486114e-001

1.76540599258131e+004,-2.50970753160698e+001,-2.11420281735407e-001

1.79005014185594e+004,-2.50970759138756e+001,-2.14371593341747e-001

1.81503831063432e+004,-2.50970765284878e+001,-2.17364103487425e-001

1.84037530124975e+004,-2.50970771603792e+001,-2.20398387271968e-001

1.86606598307361e+004,-2.50970778100352e+001,-2.23475027824517e-001

1.89211529345119e+004,-2.50970784779556e+001,-2.26594616411612e-001

1.91852823865052e+004,-2.50970791646537e+001,-2.29757752553973e-001

1.94530989482457e+004,-2.50970798706573e+001,-2.32965044142516e-001

1.97246540898671e+004,-2.50970805965093e+001,-2.36217107550454e-001

1.99999999999999e+004,-2.50970813427676e+001,-2.39514567757258e-001

2.02791895958005e+004,-2.50970821100061e+001,-2.42858058463929e-001

2.05622765331213e+004,-2.50970828988144e+001,-2.46248222220179e-001

2.08493152168224e+004,-2.50970837097989e+001,-2.49685710541877e-001

2.11403608112276e+004,-2.50970845435833e+001,-2.53171184039846e-001

2.14354692507258e+004,-2.50970854008082e+001,-2.56705312547530e-001

2.17346972505211e+004,-2.50970862821330e+001,-2.60288775245816e-001

2.20381023175322e+004,-2.50970871882350e+001,-2.63922260798309e-001

2.23457427614443e+004,-2.50970881198108e+001,-2.67606467479007e-001

2.26576777059159e+004,-2.50970890775766e+001,-2.71342103310998e-001

2.29739670999406e+004,-2.50970900622686e+001,-2.75129886198494e-001

2.32946717293690e+004,-2.50970910746439e+001,-2.78970544066452e-001

2.36198532285905e+004,-2.50970921154807e+001,-2.82864815001984e-001

2.39495740923785e+004,-2.50970931855791e+001,-2.86813447392633e-001

2.42838976879009e+004,-2.50970942857619e+001,-2.90817200073591e-001

2.46228882668982e+004,-2.50970954168748e+001,-2.94876842471561e-001

2.49666109780322e+004,-2.50970965797873e+001,-2.98993154752557e-001

2.53151318794055e+004,-2.50970977753934e+001,-3.03166927973198e-001

2.56685179512580e+004,-2.50970990046123e+001,-3.07398964230630e-001

2.60268371088386e+004,-2.50971002683889e+001,-3.11690076818752e-001

2.63901582154578e+004,-2.50971015676947e+001,-3.16041090382839e-001

2.67585510957221e+004,-2.50971029035287e+001,-3.20452841077919e-001

2.71320865489533e+004,-2.50971042769175e+001,-3.24926176732054e-001

2.75108363627948e+004,-2.50971056889174e+001,-3.29461957004039e-001

2.78948733270080e+004,-2.50971071406134e+001,-3.34061053555191e-001

2.82842712474618e+004,-2.50971086331217e+001,-3.38724350210691e-001

2.86791049603164e+004,-2.50971101675896e+001,-3.43452743132505e-001

2.90794503464061e+004,-2.50971117451968e+001,-3.48247140992309e-001

2.94853843458219e+004,-2.50971133671561e+001,-3.53108465141784e-001

2.98969849726987e+004,-2.50971150347142e+001,-3.58037649795952e-001

3.03143313302078e+004,-2.50971167491531e+001,-3.63035642207342e-001

3.07375036257601e+004,-2.50971185117909e+001,-3.68103402848325e-001

3.11665831864199e+004,-2.50971203239824e+001,-3.73241905600710e-001

3.16016524745350e+004,-2.50971221871210e+001,-3.78452137934875e-001

3.20427951035848e+004,-2.50971241026387e+001,-3.83735101107028e-001

3.24900958542493e+004,-2.50971260720081e+001,-3.89091810346767e-001

3.29436406907028e+004,-2.50971280967432e+001,-3.94523295052674e-001

3.34035167771346e+004,-2.50971301784003e+001,-4.00030598992975e-001

3.38698124945009e+004,-2.50971323185801e+001,-4.05614780500490e-001

3.43426174575100e+004,-2.50971345189273e+001,-4.11276912683190e-001

3.48220225318448e+004,-2.50971367811337e+001,-4.17018083622354e-001

3.53081198516260e+004,-2.50971391069383e+001,-4.22839396588531e-001

3.58010028371187e+004,-2.50971414981289e+001,-4.28741970248964e-001

3.63007662126863e+004,-2.50971439565439e+001,-4.34726938883139e-001

3.68075060249948e+004,-2.50971464840730e+001,-4.40795452602865e-001

3.73213196614721e+004,-2.50971490826591e+001,-4.46948677570920e-001

3.78423058690237e+004,-2.50971517543000e+001,-4.53187796224697e-001

3.83705647730104e+004,-2.50971545010494e+001,-4.59514007504940e-001

3.89061978964912e+004,-2.50971573250188e+001,-4.65928527085213e-001

3.94493081797342e+004,-2.50971602283790e+001,-4.72432587604620e-001

3.99999999999998e+004,-2.50971632133620e+001,-4.79027438905582e-001

4.05583791916010e+004,-2.50971662822623e+001,-4.85714348272880e-001

4.11245530662425e+004,-2.50971694374391e+001,-4.92494600678592e-001

4.16986304336447e+004,-2.50971726813178e+001,-4.99369499026071e-001

4.22807216224550e+004,-2.50971760163921e+001,-5.06340364401874e-001

4.28709385014515e+004,-2.50971794452256e+001,-5.13408536329858e-001

4.34693945010421e+004,-2.50971829704542e+001,-5.20575373027234e-001

4.40762046350642e+004,-2.50971865947877e+001,-5.27842251665719e-001

4.46914855228886e+004,-2.50971903210122e+001,-5.35210568635001e-001

4.53153554118317e+004,-2.50971941519922e+001,-5.42681739812198e-001

4.59479341998812e+004,-2.50971980906725e+001,-5.50257200833533e-001

4.65893434587380e+004,-2.50972021400807e+001,-5.57938407368481e-001

4.72397064571810e+004,-2.50972063033298e+001,-5.65726835399868e-001

4.78991481847569e+004,-2.50972105836199e+001,-5.73623981508701e-001

4.85677953758016e+004,-2.50972149842413e+001,-5.81631363158626e-001

4.92457765337964e+004,-2.50972195085769e+001,-5.89750518988600e-001

4.99332219560642e+004,-2.50972241601043e+001,-5.97983009109115e-001

5.06302637588109e+004,-2.50972289423992e+001,-6.06330415398979e-001

5.13370359025159e+004,-2.50972338591379e+001,-6.14794341811228e-001

5.20536742176771e+004,-2.50972389140995e+001,-6.23376414680676e-001

5.27803164309155e+004,-2.50972441111698e+001,-6.32078283034025e-001

5.35171021914442e+004,-2.50972494543438e+001,-6.40901618908168e-001

5.42641730979066e+004,-2.50972549477287e+001,-6.49848117670119e-001

5.50216727255895e+004,-2.50972605955471e+001,-6.58919498342920e-001

5.57897466540159e+004,-2.50972664021402e+001,-6.68117503934595e-001

5.65685424949235e+004,-2.50972723719716e+001,-6.77443901772713e-001

5.73582099206328e+004,-2.50972785096300e+001,-6.86900483843635e-001

5.81589006928121e+004,-2.50972848198332e+001,-6.96489067136040e-001

5.89707686916437e+004,-2.50972913074316e+001,-7.06211493989356e-001

5.97939699453972e+004,-2.50972979774122e+001,-7.16069632447476e-001

6.06286626604156e+004,-2.50973048349016e+001,-7.26065376616495e-001

6.14750072515201e+004,-2.50973118851711e+001,-7.36200647027406e-001

6.23331663728396e+004,-2.50973191336398e+001,-7.46477391006128e-001

6.32033049490698e+004,-2.50973265858792e+001,-7.56897583044985e-001

6.40855902071694e+004,-2.50973342476175e+001,-7.67463225182235e-001

6.49801917084985e+004,-2.50973421247437e+001,-7.78176347385558e-001

6.58872813814055e+004,-2.50973502233126e+001,-7.89039007941087e-001

6.68070335542691e+004,-2.50973585495488e+001,-8.00053293849209e-001

6.77396249890018e+004,-2.50973671098524e+001,-8.11221321221248e-001

6.86852349150199e+004,-2.50973759108028e+001,-8.22545235689494e-001

6.96440450636895e+004,-2.50973849591647e+001,-8.34027212814525e-001

7.06162397032520e+004,-2.50973942618929e+001,-8.45669458503945e-001

7.16020056742374e+004,-2.50974038261373e+001,-8.57474209435956e-001

7.26015324253724e+004,-2.50974136592494e+001,-8.69443733483939e-001

7.36150120499896e+004,-2.50974237687867e+001,-8.81580330156716e-001

7.46426393229441e+004,-2.50974341625196e+001,-8.93886331033227e-001

7.56846117380472e+004,-2.50974448484364e+001,-9.06364100213404e-001

7.67411295460207e+004,-2.50974558347504e+001,-9.19016034768943e-001

7.78123957929823e+004,-2.50974671299053e+001,-9.31844565201905e-001

7.88986163594682e+004,-2.50974787425824e+001,-9.44852155912005e-001

7.99999999999995e+004,-2.50974906817068e+001,-9.58041305665906e-001

8.11167583832018e+004,-2.50975029564546e+001,-9.71414548078192e-001

8.22491061324848e+004,-2.50975155762597e+001,-9.84974452093745e-001

8.33972608672892e+004,-2.50975285508210e+001,-9.98723622482469e-001

8.45614432449099e+004,-2.50975418901101e+001,-1.01266470033397e+000

8.57418770029029e+004,-2.50975556043789e+001,-1.02680036356634e+000

8.69387890020841e+004,-2.50975697041672e+001,-1.04113332743647e+000

8.81524092701283e+004,-2.50975842003111e+001,-1.05566634506077e+000

8.93829710457770e+004,-2.50975991039512e+001,-1.07040220794042e+000

9.06307108236633e+004,-2.50976144265411e+001,-1.08534374649607e+000

9.18958683997622e+004,-2.50976301798565e+001,-1.10049383060907e+000

9.31786869174758e+004,-2.50976463760037e+001,-1.11585537016954e+000

9.44794129143618e+004,-2.50976630274292e+001,-1.13143131563387e+000

9.57982963695136e+004,-2.50976801469296e+001,-1.14722465858716e+000

9.71355907516031e+004,-2.50976977476607e+001,-1.16323843231573e+000

9.84915530675926e+004,-2.50977158431480e+001,-1.17947571238749e+000

9.98664439121282e+004,-2.50977344472973e+001,-1.19593961723735e+000

1.01260527517622e+005,-2.50977535744048e+001,-1.21263330876505e+000

1.02674071805032e+005,-2.50977732391687e+001,-1.22955999293795e+000

1.04107348435354e+005,-2.50977934566999e+001,-1.24672292040316e+000

1.05560632861831e+005,-2.50978142425340e+001,-1.26412538710850e+000

1.07034204382888e+005,-2.50978356126432e+001,-1.28177073493158e+000

1.08528346195813e+005,-2.50978575834483e+001,-1.29966235231718e+000

1.10043345451179e+005,-2.50978801718314e+001,-1.31780367492426e+000

1.11579493308032e+005,-2.50979033951490e+001,-1.33619818628150e+000

1.13137084989847e+005,-2.50979272712453e+001,-1.35484941844978e+000

1.14716419841265e+005,-2.50979518184655e+001,-1.37376095269917e+000

1.16317801385624e+005,-2.50979770556705e+001,-1.39293642018844e+000

1.17941537383287e+005,-2.50980030022509e+001,-1.41237950265839e+000

1.19587939890794e+005,-2.50980296781420e+001,-1.43209393313426e+000

1.21257325320831e+005,-2.50980571038391e+001,-1.45208349663487e+000

1.22950014503040e+005,-2.50980853004134e+001,-1.47235203089560e+000

1.24666332745679e+005,-2.50981142895278e+001,-1.49290342709748e+000

1.26406609898139e+005,-2.50981440934536e+001,-1.51374163060943e+000

1.28171180414339e+005,-2.50981747350880e+001,-1.53487064173717e+000

1.29960383416997e+005,-2.50982062379710e+001,-1.55629451648650e+000

1.31774562762811e+005,-2.50982386263040e+001,-1.57801736733277e+000

1.33614067108538e+005,-2.50982719249680e+001,-1.60004336400397e+000

1.35479249978003e+005,-2.50983061595429e+001,-1.62237673427333e+000

1.37370469830040e+005,-2.50983413563267e+001,-1.64502176476272e+000

1.39288090127379e+005,-2.50983775423566e+001,-1.66798280175565e+000

1.41232479406504e+005,-2.50984147454284e+001,-1.69126425202477e+000

1.43204011348474e+005,-2.50984529941188e+001,-1.71487058366672e+000

1.45203064850745e+005,-2.50984923178069e+001,-1.73880632695153e+000

1.47230024099979e+005,-2.50985327466968e+001,-1.76307607518056e+000

1.49285278645888e+005,-2.50985743118408e+001,-1.78768448555845e+000

1.51369223476094e+005,-2.50986170451630e+001,-1.81263628007557e+000

1.53482259092041e+005,-2.50986609794838e+001,-1.83793624640392e+000

1.55624791585964e+005,-2.50987061485452e+001,-1.86358923880186e+000

1.57797232718936e+005,-2.50987525870363e+001,-1.88960017903574e+000

1.59999999999999e+005,-2.50988003306205e+001,-1.91597405730902e+000

1.62233516766403e+005,-2.50988494159620e+001,-1.94271593320803e+000

1.64498212264969e+005,-2.50988998807544e+001,-1.96983093665746e+000

1.66794521734578e+005,-2.50989517637493e+001,-1.99732426889167e+000

1.69122886489819e+005,-2.50990051047862e+001,-2.02520120343501e+000

1.71483754005805e+005,-2.50990599448228e+001,-2.05346708709945e+000

1.73877578004168e+005,-2.50991163259662e+001,-2.08212734099269e+000

1.76304818540256e+005,-2.50991742915055e+001,-2.11118746154113e+000

1.78765942091554e+005,-2.50992338859445e+001,-2.14065302152629e+000

1.81261421647326e+005,-2.50992951550361e+001,-2.17052967113469e+000

1.83791736799524e+005,-2.50993581458169e+001,-2.20082313902167e+000

1.86357373834951e+005,-2.50994229066436e+001,-2.23153923338995e+000

1.88958825828723e+005,-2.50994894872296e+001,-2.26268384308244e+000

1.91596592739027e+005,-2.50995579386830e+001,-2.29426293868875e+000

1.94271181503206e+005,-2.50996283135460e+001,-2.32628257366740e+000

1.96983106135185e+005,-2.50997006658348e+001,-2.35874888548149e+000

1.99732887824256e+005,-2.50997750510807e+001,-2.39166809675203e+000

2.02521055035243e+005,-2.50998515263728e+001,-2.42504651642257e+000

2.05348143610063e+005,-2.50999301504015e+001,-2.45889054094289e+000

2.08214696870707e+005,-2.51000109835033e+001,-2.49320665546590e+000

2.11121265723661e+005,-2.51000940877067e+001,-2.52800143506127e+000

2.14068408765776e+005,-2.51001795267800e+001,-2.56328154594448e+000

2.17056692391625e+005,-2.51002673662793e+001,-2.59905374672198e+000

2.20086690902357e+005,-2.51003576735989e+001,-2.63532488965375e+000

2.23158986616063e+005,-2.51004505180230e+001,-2.67210192192941e+000

2.26274169979693e+005,-2.51005459707776e+001,-2.70939188696432e+000

2.29432839682530e+005,-2.51006441050858e+001,-2.74720192571068e+000

2.32635602771247e+005,-2.51007449962231e+001,-2.78553927798481e+000

2.35883074766574e+005,-2.51008487215746e+001,-2.82441128381379e+000

2.39175879781588e+005,-2.51009553606944e+001,-2.86382538479782e+000

2.42514650641661e+005,-2.51010649953660e+001,-2.90378912548972e+000

2.45900029006080e+005,-2.51011777096644e+001,-2.94431015479403e+000

2.49332665491357e+005,-2.51012935900201e+001,-2.98539622738167e+000

2.52813219796278e+005,-2.51014127252853e+001,-3.02705520512473e+000

2.56342360828676e+005,-2.51015352068010e+001,-3.06929505854749e+000

2.59920766833993e+005,-2.51016611284666e+001,-3.11212386829756e+000

2.63549125525621e+005,-2.51017905868114e+001,-3.15554982663459e+000

2.67228134217075e+005,-2.51019236810678e+001,-3.19958123893819e+000

2.70958499956006e+005,-2.51020605132469e+001,-3.24422652523405e+000

2.74740939660078e+005,-2.51022011882159e+001,-3.28949422173993e+000

2.78576180254757e+005,-2.51023458137776e+001,-3.33539298243122e+000

2.82464958813007e+005,-2.51024945007521e+001,-3.38193158062470e+000

2.86408022696948e+005,-2.51026473630615e+001,-3.42911891058266e+000

2.90406129701488e+005,-2.51028045178156e+001,-3.47696398913719e+000

2.94460048199957e+005,-2.51029660854011e+001,-3.52547595733319e+000

2.98570557291775e+005,-2.51031321895724e+001,-3.57466408209396e+000

3.02738446952187e+005,-2.51033029575462e+001,-3.62453775790292e+000

3.06964518184081e+005,-2.51034785200967e+001,-3.67510650851063e+000

3.11249583171928e+005,-2.51036590116557e+001,-3.72637998865812e+000

3.15594465437872e+005,-2.51038445704133e+001,-3.77836798582436e+000

3.19999999999997e+005,-2.51040353384231e+001,-3.83108042199211e+000

3.24467033532806e+005,-2.51042314617093e+001,-3.88452735543636e+000

3.28996424529938e+005,-2.51044330903773e+001,-3.93871898253292e+000

3.33589043469155e+005,-2.51046403787263e+001,-3.99366563958964e+000

3.38245772979638e+005,-2.51048534853667e+001,-4.04937780469752e+000

3.42967508011610e+005,-2.51050725733393e+001,-4.10586609960434e+000

3.47755156008335e+005,-2.51052978102379e+001,-4.16314129161017e+000

3.52609637080511e+005,-2.51055293683363e+001,-4.22121429548400e+000

3.57531884183106e+005,-2.51057674247174e+001,-4.28009617540281e+000

3.62522843294651e+005,-2.51060121614071e+001,-4.33979814691256e+000

3.67583473599047e+005,-2.51062637655105e+001,-4.40033157891102e+000

3.72714747669902e+005,-2.51065224293531e+001,-4.46170799565361e+000

3.77917651657445e+005,-2.51067883506253e+001,-4.52393907878078e+000

3.83193185478053e+005,-2.51070617325304e+001,-4.58703666936782e+000

3.88542363006410e+005,-2.51073427839374e+001,-4.65101276999773e+000

3.93966212270369e+005,-2.51076317195375e+001,-4.71587954685610e+000

3.99465775648511e+005,-2.51079287600051e+001,-4.78164933184885e+000

4.05042110070485e+005,-2.51082341321627e+001,-4.84833462474198e+000

4.10696287220124e+005,-2.51085480691509e+001,-4.91594809532483e+000

4.16429393741414e+005,-2.51088708106025e+001,-4.98450258559545e+000

4.22242531447321e+005,-2.51092026028217e+001,-5.05401111196854e+000

4.28136817531551e+005,-2.51095436989676e+001,-5.12448686750616e+000

4.34113384783250e+005,-2.51098943592434e+001,-5.19594322417132e+000

4.40173381804713e+005,-2.51102548510898e+001,-5.26839373510380e+000

4.46317973232124e+005,-2.51106254493845e+001,-5.34185213691850e+000

4.52548339959385e+005,-2.51110064366464e+001,-5.41633235202673e+000

4.58865679365059e+005,-2.51113981032458e+001,-5.49184849097908e+000

4.65271205542494e+005,-2.51118007476193e+001,-5.56841485483120e+000

4.71766149533147e+005,-2.51122146764921e+001,-5.64604593753166e+000

4.78351759563174e+005,-2.51126402051042e+001,-5.72475642833158e+000

4.85029301283321e+005,-2.51130776574446e+001,-5.80456121421634e+000

4.91800058012158e+005,-2.51135273664899e+001,-5.88547538235878e+000

4.98665330982714e+005,-2.51139896744512e+001,-5.96751422259433e+000

5.05626439592555e+005,-2.51144649330255e+001,-6.05069322991663e+000

5.12684721657352e+005,-2.51149535036555e+001,-6.13502810699534e+000

5.19841533667984e+005,-2.51154557577953e+001,-6.22053476671333e+000

5.27098251051240e+005,-2.51159720771831e+001,-6.30722933472552e+000

5.34456268434150e+005,-2.51165028541219e+001,-6.39512815203706e+000

5.41916999912011e+005,-2.51170484917669e+001,-6.48424777760158e+000

