Freq.,VOut,OutRef

1.00000000000000e+004,-2.99753871874312e+001,-2.85684372173940e-001

1.01395947979003e+004,-2.99753883598123e+001,-2.89672362565045e-001

1.02811382665607e+004,-2.99753895651534e+001,-2.93716022596971e-001

1.04246576084112e+004,-2.99753908043808e+001,-2.97816129363515e-001

1.05701804056138e+004,-2.99753920784473e+001,-3.01973470803077e-001

1.07177346253629e+004,-2.99753933883324e+001,-3.06188845852991e-001

1.08673486252606e+004,-2.99753947350430e+001,-3.10463064602056e-001

1.10190511587661e+004,-2.99753961196145e+001,-3.14796948446029e-001

1.11728713807222e+004,-2.99753975431112e+001,-3.19191330245342e-001

1.13288388529580e+004,-2.99753990066272e+001,-3.23647054486942e-001

1.14869835499703e+004,-2.99754005112880e+001,-3.28164977442205e-001

1.16473358646846e+004,-2.99754020582500e+001,-3.32745967336010e-001

1.18099266142953e+004,-2.99754036487025e+001,-3.37390904511485e-001

1.19747870461893e+004,-2.99754052838683e+001,-3.42100681597959e-001

1.21419488439505e+004,-2.99754069650043e+001,-3.46876203685747e-001

1.23114441334492e+004,-2.99754086934027e+001,-3.51718388496176e-001

1.24833054890161e+004,-2.99754104703926e+001,-3.56628166560137e-001

1.26575659397028e+004,-2.99754122973397e+001,-3.61606481397177e-001

1.28342589756290e+004,-2.99754141756485e+001,-3.66654289694475e-001

1.30134185544193e+004,-2.99754161067631e+001,-3.71772561492640e-001

1.31950791077289e+004,-2.99754180921679e+001,-3.76962280370973e-001

1.33792755478611e+004,-2.99754201333892e+001,-3.82224443637532e-001

1.35660432744767e+004,-2.99754222319962e+001,-3.87560062519483e-001

1.37554181813974e+004,-2.99754243896021e+001,-3.92970162356961e-001

1.39474366635040e+004,-2.99754266078656e+001,-3.98455782801830e-001

1.41421356237309e+004,-2.99754288884920e+001,-4.04017978015046e-001

1.43395524801583e+004,-2.99754312332344e+001,-4.09657816871878e-001

1.45397251732031e+004,-2.99754336438953e+001,-4.15376383164015e-001

1.47426921729110e+004,-2.99754361223279e+001,-4.21174775809924e-001

1.49484924863494e+004,-2.99754386704374e+001,-4.27054109065123e-001

1.51571656651040e+004,-2.99754412901828e+001,-4.33015512736028e-001

1.53687518128801e+004,-2.99754439835776e+001,-4.39060132398495e-001

1.55832915932100e+004,-2.99754467526927e+001,-4.45189129613596e-001

1.58008262372675e+004,-2.99754495996566e+001,-4.51403682155522e-001

1.60213975517924e+004,-2.99754525266577e+001,-4.57704984235220e-001

1.62450479271247e+004,-2.99754555359463e+001,-4.64094246730067e-001

1.64718203453514e+004,-2.99754586298356e+001,-4.70572697415940e-001

1.67017583885674e+004,-2.99754618107040e+001,-4.77141581203160e-001

1.69349062472505e+004,-2.99754650809967e+001,-4.83802160376793e-001

1.71713087287550e+004,-2.99754684432275e+001,-4.90555714837343e-001

1.74110112659224e+004,-2.99754718999811e+001,-4.97403542346738e-001

1.76540599258131e+004,-2.99754754539148e+001,-5.04346958777286e-001

1.79005014185594e+004,-2.99754791077606e+001,-5.11387298365599e-001

1.81503831063432e+004,-2.99754828643271e+001,-5.18525913967293e-001

1.84037530124975e+004,-2.99754867265021e+001,-5.25764177317631e-001

1.86606598307361e+004,-2.99754906972545e+001,-5.33103479293806e-001

1.89211529345119e+004,-2.99754947796366e+001,-5.40545230182424e-001

1.91852823865052e+004,-2.99754989767867e+001,-5.48090859950478e-001

1.94530989482457e+004,-2.99755032919309e+001,-5.55741818519296e-001

1.97246540898671e+004,-2.99755077283865e+001,-5.63499576042800e-001

1.99999999999999e+004,-2.99755122895638e+001,-5.71365623190210e-001

2.02791895958005e+004,-2.99755169789687e+001,-5.79341471431789e-001

2.05622765331213e+004,-2.99755218002062e+001,-5.87428653328019e-001

2.08493152168224e+004,-2.99755267569822e+001,-5.95628722825575e-001

2.11403608112276e+004,-2.99755318531071e+001,-6.03943255552442e-001

2.14354692507258e+004,-2.99755370924981e+001,-6.12373849124259e-001

2.17346972505211e+004,-2.99755424791826e+001,-6.20922123447572e-001

2.20381023175322e+004,-2.99755480173013e+001,-6.29589721031792e-001

2.23457427614443e+004,-2.99755537111113e+001,-6.38378307304267e-001

2.26576777059159e+004,-2.99755595649894e+001,-6.47289570929013e-001

2.29739670999406e+004,-2.99755655834351e+001,-6.56325224132976e-001

2.32946717293690e+004,-2.99755717710747e+001,-6.65487003030780e-001

2.36198532285905e+004,-2.99755781326646e+001,-6.74776667960438e-001

2.39495740923785e+004,-2.99755846730946e+001,-6.84196003820622e-001

2.42838976879009e+004,-2.99755913973922e+001,-6.93746820412154e-001

2.46228882668982e+004,-2.99755983107260e+001,-7.03430952784987e-001

2.49666109780322e+004,-2.99756054184100e+001,-7.13250261591218e-001

2.53151318794055e+004,-2.99756127259077e+001,-7.23206633439766e-001

2.56685179512580e+004,-2.99756202388359e+001,-7.33301981261159e-001

2.60268371088386e+004,-2.99756279629694e+001,-7.43538244671155e-001

2.63901582154578e+004,-2.99756359042452e+001,-7.53917390344798e-001

2.67585510957221e+004,-2.99756440687676e+001,-7.64441412391147e-001

2.71320865489533e+004,-2.99756524628119e+001,-7.75112332738478e-001

2.75108363627948e+004,-2.99756610928302e+001,-7.85932201518281e-001

2.78948733270080e+004,-2.99756699654556e+001,-7.96903097461962e-001

2.82842712474618e+004,-2.99756790875080e+001,-8.08027128295908e-001

2.86791049603164e+004,-2.99756884659987e+001,-8.19306431146213e-001

2.90794503464061e+004,-2.99756981081363e+001,-8.30743172949689e-001

2.94853843458219e+004,-2.99757080213317e+001,-8.42339550867171e-001

2.98969849726987e+004,-2.99757182132043e+001,-8.54097792705417e-001

3.03143313302078e+004,-2.99757286915877e+001,-8.66020157342419e-001

3.07375036257601e+004,-2.99757394645356e+001,-8.78108935162182e-001

3.11665831864199e+004,-2.99757505403278e+001,-8.90366448491901e-001

3.16016524745350e+004,-2.99757619274772e+001,-9.02795052046480e-001

3.20427951035848e+004,-2.99757736347358e+001,-9.15397133380120e-001

3.24900958542493e+004,-2.99757856711014e+001,-9.28175113343012e-001

3.29436406907028e+004,-2.99757980458250e+001,-9.41131446545087e-001

3.34035167771346e+004,-2.99758107684172e+001,-9.54268621825108e-001

3.38698124945009e+004,-2.99758238486563e+001,-9.67589162727048e-001

3.43426174575100e+004,-2.99758372965950e+001,-9.81095627984353e-001

3.48220225318448e+004,-2.99758511225688e+001,-9.94790612008371e-001

3.53081198516260e+004,-2.99758653372035e+001,-1.00867674538315e+000

3.58010028371187e+004,-2.99758799514236e+001,-1.02275669537237e+000

3.63007662126863e+004,-2.99758949764606e+001,-1.03703316642569e+000

3.68075060249948e+004,-2.99759104238614e+001,-1.05150890069895e+000

3.73213196614721e+004,-2.99759263054978e+001,-1.06618667857595e+000

3.78423058690237e+004,-2.99759426335748e+001,-1.08106931920198e+000

3.83705647730104e+004,-2.99759594206406e+001,-1.09615968102123e+000

3.89061978964912e+004,-2.99759766795959e+001,-1.11146066232401e+000

3.94493081797342e+004,-2.99759944237040e+001,-1.12697520180020e+000

3.99999999999998e+004,-2.99760126666009e+001,-1.14270627910026e+000

4.05583791916010e+004,-2.99760314223055e+001,-1.15865691540639e+000

4.11245530662425e+004,-2.99760507052310e+001,-1.17483017400619e+000

4.16986304336447e+004,-2.99760705301953e+001,-1.19122916088095e+000

4.22807216224550e+004,-2.99760909124327e+001,-1.20785702529653e+000

4.28709385014515e+004,-2.99761118676057e+001,-1.22471696040526e+000

4.34693945010421e+004,-2.99761334118166e+001,-1.24181220385579e+000

4.40762046350642e+004,-2.99761555616204e+001,-1.25914603840939e+000

4.46914855228886e+004,-2.99761783340369e+001,-1.27672179256848e+000

4.53153554118317e+004,-2.99762017465645e+001,-1.29454284120911e+000

4.59479341998812e+004,-2.99762258171928e+001,-1.31261260622631e+000

4.65893434587380e+004,-2.99762505644170e+001,-1.33093455718587e+000

4.72397064571810e+004,-2.99762760072518e+001,-1.34951221198546e+000

4.78991481847569e+004,-2.99763021652464e+001,-1.36834913752465e+000

4.85677953758016e+004,-2.99763290584986e+001,-1.38744895038640e+000

4.92457765337964e+004,-2.99763567076714e+001,-1.40681531752331e+000

4.99332219560642e+004,-2.99763851340079e+001,-1.42645195695760e+000

5.06302637588109e+004,-2.99764143593479e+001,-1.44636263848865e+000

5.13370359025159e+004,-2.99764444061448e+001,-1.46655118441027e+000

5.20536742176771e+004,-2.99764752974828e+001,-1.48702147023760e+000

5.27803164309155e+004,-2.99765070570943e+001,-1.50777742544575e+000

5.35171021914442e+004,-2.99765397093784e+001,-1.52882303421476e+000

5.42641730979066e+004,-2.99765732794194e+001,-1.55016233618959e+000

5.50216727255895e+004,-2.99766077930064e+001,-1.57179942724547e+000

5.57897466540159e+004,-2.99766432766523e+001,-1.59373846026812e+000

5.65685424949235e+004,-2.99766797576153e+001,-1.61598364594083e+000

5.73582099206328e+004,-2.99767172639185e+001,-1.63853925354538e+000

5.81589006928121e+004,-2.99767558243722e+001,-1.66140961177105e+000

5.89707686916437e+004,-2.99767954685959e+001,-1.68459910953667e+000

5.97939699453972e+004,-2.99768362270408e+001,-1.70811219682298e+000

6.06286626604156e+004,-2.99768781310129e+001,-1.73195338551593e+000

6.14750072515201e+004,-2.99769212126976e+001,-1.75612725026276e+000

6.23331663728396e+004,-2.99769655051840e+001,-1.78063842933682e+000

6.32033049490698e+004,-2.99770110424900e+001,-1.80549162551784e+000

6.40855902071694e+004,-2.99770578595890e+001,-1.83069160698094e+000

6.49801917084985e+004,-2.99771059924359e+001,-1.85624320819956e+000

6.58872813814055e+004,-2.99771554779953e+001,-1.88215133085906e+000

6.68070335542691e+004,-2.99772063542693e+001,-1.90842094478356e+000

6.77396249890018e+004,-2.99772586603271e+001,-1.93505708887540e+000

6.86852349150199e+004,-2.99773124363343e+001,-1.96206487206656e+000

6.96440450636895e+004,-2.99773677235841e+001,-1.98944947428223e+000

7.06162397032520e+004,-2.99774245645289e+001,-2.01721614741961e+000

7.16020056742374e+004,-2.99774830028122e+001,-2.04537021633721e+000

7.26015324253724e+004,-2.99775430833029e+001,-2.07391707985865e+000

7.36150120499896e+004,-2.99776048521288e+001,-2.10286221178999e+000

7.46426393229441e+004,-2.99776683567123e+001,-2.13221116194922e+000

7.56846117380472e+004,-2.99777336458066e+001,-2.16196955721241e+000

7.67411295460207e+004,-2.99778007695328e+001,-2.19214310256887e+000

7.78123957929823e+004,-2.99778697794187e+001,-2.22273758219591e+000

7.88986163594682e+004,-2.99779407284374e+001,-2.25375886054387e+000

7.99999999999995e+004,-2.99780136710485e+001,-2.28521288343679e+000

8.11167583832018e+004,-2.99780886632393e+001,-2.31710567918746e+000

8.22491061324848e+004,-2.99781657625676e+001,-2.34944335972805e+000

8.33972608672892e+004,-2.99782450282061e+001,-2.38223212175319e+000

8.45614432449099e+004,-2.99783265209869e+001,-2.41547824788158e+000

8.57418770029029e+004,-2.99784103034483e+001,-2.44918810782946e+000

8.69387890020841e+004,-2.99784964398828e+001,-2.48336815960130e+000

8.81524092701283e+004,-2.99785849963855e+001,-2.51802495069592e+000

8.93829710457770e+004,-2.99786760409051e+001,-2.55316511932747e+000

9.06307108236633e+004,-2.99787696432957e+001,-2.58879539566294e+000

9.18958683997622e+004,-2.99788658753695e+001,-2.62492260307602e+000

9.31786869174758e+004,-2.99789648109525e+001,-2.66155365941580e+000

9.44794129143618e+004,-2.99790665259399e+001,-2.69869557829386e+000

9.57982963695136e+004,-2.99791710983543e+001,-2.73635547038606e+000

9.71355907516031e+004,-2.99792786084055e+001,-2.77454054475210e+000

9.84915530675926e+004,-2.99793891385508e+001,-2.81325811017220e+000

9.98664439121282e+004,-2.99795027735585e+001,-2.85251557649952e+000

1.01260527517622e+005,-2.99796196005722e+001,-2.89232045603158e+000

1.02674071805032e+005,-2.99797397091772e+001,-2.93268036489778e+000

1.04107348435354e+005,-2.99798631914683e+001,-2.97360302446538e+000

1.05560632861831e+005,-2.99799901421205e+001,-3.01509626276255e+000

1.07034204382888e+005,-2.99801206584604e+001,-3.05716801591986e+000

1.08528346195813e+005,-2.99802548405406e+001,-3.09982632962946e+000

1.10043345451179e+005,-2.99803927912155e+001,-3.14307936062325e+000

1.11579493308032e+005,-2.99805346162196e+001,-3.18693537816843e+000

1.13137084989847e+005,-2.99806804242479e+001,-3.23140276558309e+000

1.14716419841265e+005,-2.99808303270379e+001,-3.27649002176904e+000

1.16317801385624e+005,-2.99809844394552e+001,-3.32220576276417e+000

1.17941537383287e+005,-2.99811428795801e+001,-3.36855872331495e+000

1.19587939890794e+005,-2.99813057687973e+001,-3.41555775846618e+000

1.21257325320831e+005,-2.99814732318878e+001,-3.46321184517232e+000

1.22950014503040e+005,-2.99816453971239e+001,-3.51153008392600e+000

1.24666332745679e+005,-2.99818223963658e+001,-3.56052170040923e+000

1.26406609898139e+005,-2.99820043651621e+001,-3.61019604716094e+000

1.28171180414339e+005,-2.99821914428516e+001,-3.66056260526806e+000

1.29960383416997e+005,-2.99823837726695e+001,-3.71163098607398e+000

1.31774562762811e+005,-2.99825815018553e+001,-3.76341093290900e+000

1.33614067108538e+005,-2.99827847817641e+001,-3.81591232284029e+000

1.35479249978003e+005,-2.99829937679811e+001,-3.86914516844311e+000

1.37370469830040e+005,-2.99832086204391e+001,-3.92311961959197e+000

1.39288090127379e+005,-2.99834295035391e+001,-3.97784596527316e+000

1.41232479406504e+005,-2.99836565862744e+001,-4.03333463541800e+000

1.43204011348474e+005,-2.99838900423581e+001,-4.08959620275695e+000

1.45203064850745e+005,-2.99841300503537e+001,-4.14664138469505e+000

1.47230024099979e+005,-2.99843767938099e+001,-4.20448104520911e+000

1.49285278645888e+005,-2.99846304613988e+001,-4.26312619676466e+000

1.51369223476094e+005,-2.99848912470577e+001,-4.32258800225574e+000

1.53482259092041e+005,-2.99851593501346e+001,-4.38287777696627e+000

1.55624791585964e+005,-2.99854349755386e+001,-4.44400699055136e+000

1.57797232718936e+005,-2.99857183338934e+001,-4.50598726904218e+000

1.59999999999999e+005,-2.99860096416953e+001,-4.56883039687079e+000

1.62233516766403e+005,-2.99863091214758e+001,-4.63254831891784e+000

1.64498212264969e+005,-2.99866170019679e+001,-4.69715314258167e+000

1.66794521734578e+005,-2.99869335182779e+001,-4.76265713986868e+000

1.69122886489819e+005,-2.99872589120609e+001,-4.82907274950598e+000

1.71483754005805e+005,-2.99875934317018e+001,-4.89641257907546e+000

1.73877578004168e+005,-2.99879373325004e+001,-4.96468940717001e+000

1.76304818540256e+005,-2.99882908768627e+001,-5.03391618557046e+000

1.78765942091554e+005,-2.99886543344956e+001,-5.10410604144600e+000

1.81261421647326e+005,-2.99890279826089e+001,-5.17527227957334e+000

1.83791736799524e+005,-2.99894121061209e+001,-5.24742838458090e+000

1.86357373834951e+005,-2.99898069978708e+001,-5.32058802321100e+000

1.88958825828723e+005,-2.99902129588362e+001,-5.39476504660570e+000

1.91596592739027e+005,-2.99906302983563e+001,-5.46997349261308e+000

1.94271181503206e+005,-2.99910593343619e+001,-5.54622758811422e+000

1.96983106135185e+005,-2.99915003936105e+001,-5.62354175137112e+000

1.99732887824256e+005,-2.99919538119280e+001,-5.70193059439672e+000

2.02521055035243e+005,-2.99924199344577e+001,-5.78140892534271e+000

2.05348143610063e+005,-2.99928991159144e+001,-5.86199175091000e+000

2.08214696870707e+005,-2.99933917208467e+001,-5.94369427877824e+000

2.11121265723661e+005,-2.99938981239051e+001,-6.02653192005507e+000

2.14068408765776e+005,-2.99944187101184e+001,-6.11052029174445e+000

2.17056692391625e+005,-2.99949538751757e+001,-6.19567521923520e+000

2.20086690902357e+005,-2.99955040257179e+001,-6.28201273880676e+000

2.23158986616063e+005,-2.99960695796352e+001,-6.36954910015494e+000

2.26274169979693e+005,-2.99966509663730e+001,-6.45830076893374e+000

2.29432839682530e+005,-2.99972486272465e+001,-6.54828442931645e+000

2.32635602771247e+005,-2.99978630157620e+001,-6.63951698657252e+000

2.35883074766574e+005,-2.99984945979483e+001,-6.73201556966141e+000

2.39175879781588e+005,-2.99991438526953e+001,-6.82579753384171e+000

2.42514650641661e+005,-2.99998112721025e+001,-6.92088046329704e+000

2.45900029006080e+005,-3.00004973618357e+001,-7.01728217377444e+000

2.49332665491357e+005,-3.00012026414934e+001,-7.11502071523903e+000

2.52813219796278e+005,-3.00019276449825e+001,-7.21411437454020e+000

2.56342360828676e+005,-3.00026729209041e+001,-7.31458167809077e+000

2.59920766833993e+005,-3.00034390329479e+001,-7.41644139455886e+000

2.63549125525621e+005,-3.00042265602986e+001,-7.51971253756893e+000

2.67228134217075e+005,-3.00050360980511e+001,-7.62441436841373e+000

2.70958499956006e+005,-3.00058682576369e+001,-7.73056639877501e+000

2.74740939660078e+005,-3.00067236672616e+001,-7.83818839345223e+000

2.78576180254757e+005,-3.00076029723526e+001,-7.94730037309784e+000

2.82464958813007e+005,-3.00085068360189e+001,-8.05792261695851e+000

2.86408022696948e+005,-3.00094359395224e+001,-8.17007566562030e+000

2.90406129701488e+005,-3.00103909827602e+001,-8.28378032375838e+000

2.94460048199957e+005,-3.00113726847600e+001,-8.39905766288683e+000

2.98570557291775e+005,-3.00123817841871e+001,-8.51592902411013e+000

3.02738446952187e+005,-3.00134190398642e+001,-8.63441602087369e+000

3.06964518184081e+005,-3.00144852313039e+001,-8.75454054171116e+000

3.11249583171928e+005,-3.00155811592544e+001,-8.87632475298798e+000

3.15594465437872e+005,-3.00167076462587e+001,-8.99979110163910e+000

3.19999999999997e+005,-3.00178655372271e+001,-9.12496231789885e+000

3.24467033532806e+005,-3.00190557000236e+001,-9.25186141802120e+000

3.28996424529938e+005,-3.00202790260666e+001,-9.38051170698917e+000

3.33589043469155e+005,-3.00215364309442e+001,-9.51093678120942e+000

3.38245772979638e+005,-3.00228288550435e+001,-9.64316053119261e+000

3.42967508011610e+005,-3.00241572641959e+001,-9.77720714421426e+000

3.47755156008335e+005,-3.00255226503367e+001,-9.91310110695674e+000

3.52609637080511e+005,-3.00269260321806e+001,-1.00508672081271e+001

3.57531884183106e+005,-3.00283684559132e+001,-1.01905305410512e+001

3.62522843294651e+005,-3.00298509958980e+001,-1.03321165062373e+001

3.67583473599047e+005,-3.00313747554003e+001,-1.04756508139121e+001

3.72714747669902e+005,-3.00329408673271e+001,-1.06211594865201e+001

3.77917651657445e+005,-3.00345504949846e+001,-1.07686688611873e+001

3.83193185478053e+005,-3.00362048328521e+001,-1.09182055921459e+001

3.88542363006410e+005,-3.00379051073737e+001,-1.10697966531138e+001

3.93966212270369e+005,-3.00396525777674e+001,-1.12234693396293e+001

3.99465775648511e+005,-3.00414485368522e+001,-1.13792512713342e+001

4.05042110070485e+005,-3.00432943118934e+001,-1.15371703942041e+001

4.10696287220124e+005,-3.00451912654661e+001,-1.16972549827195e+001

4.16429393741414e+005,-3.00471407963373e+001,-1.18595336419766e+001

4.22242531447321e+005,-3.00491443403671e+001,-1.20240353097309e+001

4.28136817531551e+005,-3.00512033714284e+001,-1.21907892583718e+001

4.34113384783250e+005,-3.00533194023464e+001,-1.23598250968214e+001

4.40173381804713e+005,-3.00554939858571e+001,-1.25311727723541e+001

4.46317973232124e+005,-3.00577287155859e+001,-1.27048625723326e+001

4.52548339959385e+005,-3.00600252270453e+001,-1.28809251258545e+001

4.58865679365059e+005,-3.00623851986529e+001,-1.30593914053041e+001

4.65271205542494e+005,-3.00648103527699e+001,-1.32402927278058e+001

4.71766149533147e+005,-3.00673024567590e+001,-1.34236607565709e+001

4.78351759563174e+005,-3.00698633240633e+001,-1.36095275021353e+001

4.85029301283321e+005,-3.00724948153050e+001,-1.37979253234785e+001

4.91800058012158e+005,-3.00751988394049e+001,-1.39888869290221e+001

4.98665330982714e+005,-3.00779773547227e+001,-1.41824453774978e+001

5.05626439592555e+005,-3.00808323702168e+001,-1.43786340786802e+001

5.12684721657352e+005,-3.00837659466260e+001,-1.45774867939782e+001

5.19841533667984e+005,-3.00867801976705e+001,-1.47790376368769e+001

5.27098251051240e+005,-3.00898772912741e+001,-1.49833210732239e+001

5.34456268434150e+005,-3.00930594508060e+001,-1.51903719213521e+001

5.41916999912011e+005,-3.00963289563437e+001,-1.54002253520322e+001

