Freq.,VOut,OutRef

1.00000000000000e+004,-1.42465709043860e+001,-1.34896250146968e-001

1.01395947979003e+004,-1.42465709511477e+001,-1.36779331481703e-001

1.02811382665607e+004,-1.42465709992240e+001,-1.38688699646554e-001

1.04246576084112e+004,-1.42465710486520e+001,-1.40624721590837e-001

1.05701804056138e+004,-1.42465710994694e+001,-1.42587769388288e-001

1.07177346253629e+004,-1.42465711517156e+001,-1.44578220305248e-001

1.08673486252606e+004,-1.42465712054306e+001,-1.46596456873681e-001

1.10190511587661e+004,-1.42465712606557e+001,-1.48642866967694e-001

1.11728713807222e+004,-1.42465713174336e+001,-1.50717843873216e-001

1.13288388529580e+004,-1.42465713758076e+001,-1.52821786369871e-001

1.14869835499703e+004,-1.42465714358227e+001,-1.54955098800545e-001

1.16473358646846e+004,-1.42465714975250e+001,-1.57118191154692e-001

1.18099266142953e+004,-1.42465715609620e+001,-1.59311479143740e-001

1.19747870461893e+004,-1.42465716261825e+001,-1.61535384281372e-001

1.21419488439505e+004,-1.42465716932367e+001,-1.63790333968549e-001

1.23114441334492e+004,-1.42465717621759e+001,-1.66076761570038e-001

1.24833054890161e+004,-1.42465718330532e+001,-1.68395106500564e-001

1.26575659397028e+004,-1.42465719059232e+001,-1.70745814309133e-001

1.28342589756290e+004,-1.42465719808419e+001,-1.73129336763491e-001

1.30134185544193e+004,-1.42465720578668e+001,-1.75546131939584e-001

1.31950791077289e+004,-1.42465721370572e+001,-1.77996664306177e-001

1.33792755478611e+004,-1.42465722184740e+001,-1.80481404815742e-001

1.35660432744767e+004,-1.42465723021796e+001,-1.83000830997563e-001

1.37554181813974e+004,-1.42465723882386e+001,-1.85555427042944e-001

1.39474366635040e+004,-1.42465724767170e+001,-1.88145683904815e-001

1.41421356237309e+004,-1.42465725676829e+001,-1.90772099389894e-001

1.43395524801583e+004,-1.42465726612061e+001,-1.93435178252464e-001

1.45397251732031e+004,-1.42465727573587e+001,-1.96135432292782e-001

1.47426921729110e+004,-1.42465728562145e+001,-1.98873380457141e-001

1.49484924863494e+004,-1.42465729578495e+001,-2.01649548934683e-001

1.51571656651040e+004,-1.42465730623418e+001,-2.04464471261471e-001

1.53687518128801e+004,-1.42465731697718e+001,-2.07318688418600e-001

1.55832915932100e+004,-1.42465732802220e+001,-2.10212748941897e-001

1.58008262372675e+004,-1.42465733937775e+001,-2.13147209022166e-001

1.60213975517924e+004,-1.42465735105255e+001,-2.16122632615343e-001

1.62450479271247e+004,-1.42465736305556e+001,-2.19139591551046e-001

1.64718203453514e+004,-1.42465737539604e+001,-2.22198665638027e-001

1.67017583885674e+004,-1.42465738808344e+001,-2.25300442782374e-001

1.69349062472505e+004,-1.42465740112753e+001,-2.28445519095520e-001

1.71713087287550e+004,-1.42465741453835e+001,-2.31634499008954e-001

1.74110112659224e+004,-1.42465742832619e+001,-2.34867995394088e-001

1.76540599258131e+004,-1.42465744250166e+001,-2.38146629676189e-001

1.79005014185594e+004,-1.42465745707567e+001,-2.41471031954537e-001

1.81503831063432e+004,-1.42465747205939e+001,-2.44841841126690e-001

1.84037530124975e+004,-1.42465748746437e+001,-2.48259705006230e-001

1.86606598307361e+004,-1.42465750330244e+001,-2.51725280451311e-001

1.89211529345119e+004,-1.42465751958579e+001,-2.55239233488573e-001

1.91852823865052e+004,-1.42465753632692e+001,-2.58802239443277e-001

1.94530989482457e+004,-1.42465755353870e+001,-2.62414983066572e-001

1.97246540898671e+004,-1.42465757123437e+001,-2.66078158668668e-001

1.99999999999999e+004,-1.42465758942754e+001,-2.69792470251811e-001

2.02791895958005e+004,-1.42465760813218e+001,-2.73558631646050e-001

2.05622765331213e+004,-1.42465762736269e+001,-2.77377366645486e-001

2.08493152168224e+004,-1.42465764713384e+001,-2.81249409148336e-001

2.11403608112276e+004,-1.42465766746082e+001,-2.85175503298007e-001

2.14354692507258e+004,-1.42465768835929e+001,-2.89156403624112e-001

2.17346972505211e+004,-1.42465770984527e+001,-2.93192875191155e-001

2.20381023175322e+004,-1.42465773193531e+001,-2.97285693741868e-001

2.23457427614443e+004,-1.42465775464641e+001,-3.01435645847196e-001

2.26576777059159e+004,-1.42465777799598e+001,-3.05643529060961e-001

2.29739670999406e+004,-1.42465780200199e+001,-3.09910152068210e-001

2.32946717293690e+004,-1.42465782668291e+001,-3.14236334841904e-001

2.36198532285905e+004,-1.42465785205772e+001,-3.18622908802809e-001

2.39495740923785e+004,-1.42465787814590e+001,-3.23070716977939e-001

2.42838976879009e+004,-1.42465790496750e+001,-3.27580614162263e-001

2.46228882668982e+004,-1.42465793254317e+001,-3.32153467081294e-001

2.49666109780322e+004,-1.42465796089411e+001,-3.36790154560937e-001

2.53151318794055e+004,-1.42465799004208e+001,-3.41491567696363e-001

2.56685179512580e+004,-1.42465802000953e+001,-3.46258610018090e-001

2.60268371088386e+004,-1.42465805081946e+001,-3.51092197673445e-001

2.63901582154578e+004,-1.42465808249559e+001,-3.55993259594805e-001

2.67585510957221e+004,-1.42465811506225e+001,-3.60962737684192e-001

2.71320865489533e+004,-1.42465814854448e+001,-3.66001586990987e-001

2.75108363627948e+004,-1.42465818296803e+001,-3.71110775896774e-001

2.78948733270080e+004,-1.42465821835934e+001,-3.76291286301666e-001

2.82842712474618e+004,-1.42465825474565e+001,-3.81544113809421e-001

2.86791049603164e+004,-1.42465829215490e+001,-3.86870267925975e-001

2.90794503464061e+004,-1.42465833061588e+001,-3.92270772245345e-001

2.94853843458219e+004,-1.42465837015814e+001,-3.97746664652949e-001

2.98969849726987e+004,-1.42465841081208e+001,-4.03298997521298e-001

3.03143313302078e+004,-1.42465845260896e+001,-4.08928837912423e-001

3.07375036257601e+004,-1.42465849558090e+001,-4.14637267784669e-001

3.11665831864199e+004,-1.42465853976095e+001,-4.20425384199439e-001

3.16016524745350e+004,-1.42465858518307e+001,-4.26294299532335e-001

3.20427951035848e+004,-1.42465863188217e+001,-4.32245141687096e-001

3.24900958542493e+004,-1.42465867989416e+001,-4.38279054311265e-001

3.29436406907028e+004,-1.42465872925595e+001,-4.44397197017098e-001

3.34035167771346e+004,-1.42465878000549e+001,-4.50600745604522e-001

3.38698124945009e+004,-1.42465883218178e+001,-4.56890892286341e-001

3.43426174575100e+004,-1.42465888582495e+001,-4.63268845918113e-001

3.48220225318448e+004,-1.42465894097622e+001,-4.69735832229061e-001

3.53081198516260e+004,-1.42465899767801e+001,-4.76293094058785e-001

3.58010028371187e+004,-1.42465905597390e+001,-4.82941891596730e-001

3.63007662126863e+004,-1.42465911590870e+001,-4.89683502623262e-001

3.68075060249948e+004,-1.42465917752850e+001,-4.96519222754140e-001

3.73213196614721e+004,-1.42465924088066e+001,-5.03450365692337e-001

3.78423058690237e+004,-1.42465930601389e+001,-5.10478263477498e-001

3.83705647730104e+004,-1.42465937297825e+001,-5.17604266745095e-001

3.89061978964912e+004,-1.42465944182524e+001,-5.24829744982643e-001

3.94493081797342e+004,-1.42465951260776e+001,-5.32156086795721e-001

3.99999999999998e+004,-1.42465958538025e+001,-5.39584700172116e-001

4.05583791916010e+004,-1.42465966019865e+001,-5.47117012754403e-001

4.11245530662425e+004,-1.42465973712048e+001,-5.54754472114079e-001

4.16986304336447e+004,-1.42465981620486e+001,-5.62498546028822e-001

4.22807216224550e+004,-1.42465989751260e+001,-5.70350722765861e-001

4.28709385014515e+004,-1.42465998110620e+001,-5.78312511365484e-001

4.34693945010421e+004,-1.42466006704993e+001,-5.86385441933966e-001

4.40762046350642e+004,-1.42466015540986e+001,-5.94571065936509e-001

4.46914855228886e+004,-1.42466024625391e+001,-6.02870956493466e-001

4.53153554118317e+004,-1.42466033965193e+001,-6.11286708686021e-001

4.59479341998812e+004,-1.42466043567571e+001,-6.19819939860520e-001

4.65893434587380e+004,-1.42466053439908e+001,-6.28472289938602e-001

4.72397064571810e+004,-1.42466063589792e+001,-6.37245421735308e-001

4.78991481847569e+004,-1.42466074025027e+001,-6.46141021275130e-001

4.85677953758016e+004,-1.42466084753636e+001,-6.55160798117347e-001

4.92457765337964e+004,-1.42466095783864e+001,-6.64306485686609e-001

4.99332219560642e+004,-1.42466107124194e+001,-6.73579841601896e-001

5.06302637588109e+004,-1.42466118783342e+001,-6.82982648018062e-001

5.13370359025159e+004,-1.42466130770272e+001,-6.92516711965716e-001

5.20536742176771e+004,-1.42466143094197e+001,-7.02183865699835e-001

5.27803164309155e+004,-1.42466155764595e+001,-7.11985967050412e-001

5.35171021914442e+004,-1.42466168791203e+001,-7.21924899782447e-001

5.42641730979066e+004,-1.42466182184037e+001,-7.32002573953674e-001

5.50216727255895e+004,-1.42466195953393e+001,-7.42220926284714e-001

5.57897466540159e+004,-1.42466210109855e+001,-7.52581920530221e-001

5.65685424949235e+004,-1.42466224664307e+001,-7.63087547856155e-001

5.73582099206328e+004,-1.42466239627938e+001,-7.73739827221528e-001

5.81589006928121e+004,-1.42466255012252e+001,-7.84540805768133e-001

5.89707686916437e+004,-1.42466270829073e+001,-7.95492559213205e-001

5.97939699453972e+004,-1.42466287090563e+001,-8.06597192246591e-001

6.06286626604156e+004,-1.42466303809223e+001,-8.17856838937386e-001

6.14750072515201e+004,-1.42466320997905e+001,-8.29273663142651e-001

6.23331663728396e+004,-1.42466338669822e+001,-8.40849858923887e-001

6.32033049490698e+004,-1.42466356838561e+001,-8.52587650968346e-001

6.40855902071694e+004,-1.42466375518088e+001,-8.64489295015445e-001

6.49801917084985e+004,-1.42466394722764e+001,-8.76557078291855e-001

6.58872813814055e+004,-1.42466414467353e+001,-8.88793319949628e-001

6.68070335542691e+004,-1.42466434767032e+001,-9.01200371512489e-001

6.77396249890018e+004,-1.42466455637409e+001,-9.13780617327038e-001

6.86852349150199e+004,-1.42466477094525e+001,-9.26536475021844e-001

6.96440450636895e+004,-1.42466499154877e+001,-9.39470395970267e-001

7.06162397032520e+004,-1.42466521835424e+001,-9.52584865762764e-001

7.16020056742374e+004,-1.42466545153602e+001,-9.65882404683569e-001

7.26015324253724e+004,-1.42466569127336e+001,-9.79365568196316e-001

7.36150120499896e+004,-1.42466593775057e+001,-9.93036947432040e-001

7.46426393229441e+004,-1.42466619115711e+001,-1.00689916969062e+000

7.56846117380472e+004,-1.42466645168780e+001,-1.02095489894283e+000

7.67411295460207e+004,-1.42466671954292e+001,-1.03520683634240e+000

7.78123957929823e+004,-1.42466699492838e+001,-1.04965772074651e+000

7.88986163594682e+004,-1.42466727805588e+001,-1.06431032924028e+000

7.99999999999995e+004,-1.42466756914309e+001,-1.07916747766994e+000

8.11167583832018e+004,-1.42466786841376e+001,-1.09423202118613e+000

8.22491061324848e+004,-1.42466817609796e+001,-1.10950685479006e+000

8.33972608672892e+004,-1.42466849243222e+001,-1.12499491388956e+000

8.45614432449099e+004,-1.42466881765973e+001,-1.14069917486437e+000

8.57418770029029e+004,-1.42466915203049e+001,-1.15662265563721e+000

8.69387890020841e+004,-1.42466949580155e+001,-1.17276841625303e+000

8.81524092701283e+004,-1.42466984923719e+001,-1.18913955946716e+000

8.93829710457770e+004,-1.42467021260909e+001,-1.20573923134093e+000

9.06307108236633e+004,-1.42467058619661e+001,-1.22257062184677e+000

9.18958683997622e+004,-1.42467097028692e+001,-1.23963696547989e+000

9.31786869174758e+004,-1.42467136517529e+001,-1.25694154187958e+000

9.44794129143618e+004,-1.42467177116530e+001,-1.27448767646006e+000

9.57982963695136e+004,-1.42467218856903e+001,-1.29227874104766e+000

9.71355907516031e+004,-1.42467261770735e+001,-1.31031815453023e+000

9.84915530675926e+004,-1.42467305891017e+001,-1.32860938351155e+000

9.98664439121282e+004,-1.42467351251664e+001,-1.34715594297914e+000

1.01260527517622e+005,-1.42467397887546e+001,-1.36596139697755e+000

1.02674071805032e+005,-1.42467445834514e+001,-1.38502935929347e+000

1.04107348435354e+005,-1.42467495129426e+001,-1.40436349415073e+000

1.05560632861831e+005,-1.42467545810176e+001,-1.42396751691197e+000

1.07034204382888e+005,-1.42467597915724e+001,-1.44384519479333e+000

1.08528346195813e+005,-1.42467651486124e+001,-1.46400034758728e+000

1.10043345451179e+005,-1.42467706562556e+001,-1.48443684839681e+000

1.11579493308032e+005,-1.42467763187360e+001,-1.50515862437797e+000

1.13137084989847e+005,-1.42467821404063e+001,-1.52616965749486e+000

1.14716419841265e+005,-1.42467881257418e+001,-1.54747398528361e+000

1.16317801385624e+005,-1.42467942793435e+001,-1.56907570162766e+000

1.17941537383287e+005,-1.42468006059417e+001,-1.59097895754323e+000

1.19587939890794e+005,-1.42468071103998e+001,-1.61318796197815e+000

1.21257325320831e+005,-1.42468137977177e+001,-1.63570698261676e+000

1.22950014503040e+005,-1.42468206730362e+001,-1.65854034670208e+000

1.24666332745679e+005,-1.42468277416402e+001,-1.68169244186487e+000

1.26406609898139e+005,-1.42468350089634e+001,-1.70516771696604e+000

1.28171180414339e+005,-1.42468424805921e+001,-1.72897068295137e+000

1.29960383416997e+005,-1.42468501622701e+001,-1.75310591371551e+000

1.31774562762811e+005,-1.42468580599019e+001,-1.77757804698284e+000

1.33614067108538e+005,-1.42468661795585e+001,-1.80239178519483e+000

1.35479249978003e+005,-1.42468745274814e+001,-1.82755189641313e+000

1.37370469830040e+005,-1.42468831100877e+001,-1.85306321523638e+000

1.39288090127379e+005,-1.42468919339746e+001,-1.87893064372561e+000

1.41232479406504e+005,-1.42469010059250e+001,-1.90515915234618e+000

1.43204011348474e+005,-1.42469103329121e+001,-1.93175378092225e+000

1.45203064850745e+005,-1.42469199221057e+001,-1.95871963960154e+000

1.47230024099979e+005,-1.42469297808766e+001,-1.98606190983821e+000

1.49285278645888e+005,-1.42469399168031e+001,-2.01378584538599e+000

1.51369223476094e+005,-1.42469503376763e+001,-2.04189677330551e+000

1.53482259092041e+005,-1.42469610515065e+001,-2.07040009498748e+000

1.55624791585964e+005,-1.42469720665291e+001,-2.09930128718835e+000

1.57797232718936e+005,-1.42469833912107e+001,-2.12860590308066e+000

1.59999999999999e+005,-1.42469950342564e+001,-2.15831957331837e+000

1.62233516766403e+005,-1.42470070046156e+001,-2.18844800711686e+000

1.64498212264969e+005,-1.42470193114893e+001,-2.21899699334846e+000

1.66794521734578e+005,-1.42470319643374e+001,-2.24997240165141e+000

1.69122886489819e+005,-1.42470449728852e+001,-2.28138018355717e+000

1.71483754005805e+005,-1.42470583471318e+001,-2.31322637362998e+000

1.73877578004168e+005,-1.42470720973572e+001,-2.34551709062518e+000

1.76304818540256e+005,-1.42470862341302e+001,-2.37825853866191e+000

1.78765942091554e+005,-1.42471007683168e+001,-2.41145700841265e+000

1.81261421647326e+005,-1.42471157110885e+001,-2.44511887830952e+000

1.83791736799524e+005,-1.42471310739305e+001,-2.47925061576658e+000

1.86357373834951e+005,-1.42471468686511e+001,-2.51385877841933e+000

1.88958825828723e+005,-1.42471631073903e+001,-2.54895001538258e+000

1.91596592739027e+005,-1.42471798026295e+001,-2.58453106852371e+000

1.94271181503206e+005,-1.42471969672006e+001,-2.62060877375549e+000

1.96983106135185e+005,-1.42472146142964e+001,-2.65719006234545e+000

1.99732887824256e+005,-1.42472327574804e+001,-2.69428196224453e+000

2.02521055035243e+005,-1.42472514106973e+001,-2.73189159943300e+000

2.05348143610063e+005,-1.42472705882837e+001,-2.77002619928616e+000

2.08214696870707e+005,-1.42472903049791e+001,-2.80869308795763e+000

2.11121265723661e+005,-1.42473105759372e+001,-2.84789969378420e+000

2.14068408765776e+005,-1.42473314167379e+001,-2.88765354870638e+000

2.17056692391625e+005,-1.42473528433985e+001,-2.92796228971277e+000

2.20086690902357e+005,-1.42473748723867e+001,-2.96883366030144e+000

2.23158986616063e+005,-1.42473975206330e+001,-3.01027551196216e+000

2.26274169979693e+005,-1.42474208055434e+001,-3.05229580568118e+000

2.29432839682530e+005,-1.42474447450136e+001,-3.09490261346305e+000

2.32635602771247e+005,-1.42474693574416e+001,-3.13810411987727e+000

2.35883074766574e+005,-1.42474946617429e+001,-3.18190862362396e+000

2.39175879781588e+005,-1.42475206773642e+001,-3.22632453912224e+000

2.42514650641661e+005,-1.42475474242989e+001,-3.27136039811963e+000

2.45900029006080e+005,-1.42475749231021e+001,-3.31702485132483e+000

2.49332665491357e+005,-1.42476031949067e+001,-3.36332667006256e+000

2.52813219796278e+005,-1.42476322614391e+001,-3.41027474795082e+000

2.56342360828676e+005,-1.42476621450364e+001,-3.45787810260184e+000

2.59920766833993e+005,-1.42476928686635e+001,-3.50614587734630e+000

2.63549125525621e+005,-1.42477244559303e+001,-3.55508734298131e+000

2.67228134217075e+005,-1.42477569311102e+001,-3.60471189954299e+000

2.70958499956006e+005,-1.42477903191588e+001,-3.65502907810278e+000

2.74740939660078e+005,-1.42478246457326e+001,-3.70604854258823e+000

2.78576180254757e+005,-1.42478599372091e+001,-3.75778009163040e+000

2.82464958813007e+005,-1.42478962207070e+001,-3.81023366043556e+000

2.86408022696948e+005,-1.42479335241069e+001,-3.86341932268208e+000

2.90406129701488e+005,-1.42479718760725e+001,-3.91734729244477e+000

2.94460048199957e+005,-1.42480113060730e+001,-3.97202792614553e+000

2.98570557291775e+005,-1.42480518444056e+001,-4.02747172452890e+000

3.02738446952187e+005,-1.42480935222185e+001,-4.08368933466822e+000

3.06964518184081e+005,-1.42481363715350e+001,-4.14069155199559e+000

3.11249583171928e+005,-1.42481804252780e+001,-4.19848932236271e+000

3.15594465437872e+005,-1.42482257172953e+001,-4.25709374412833e+000

3.19999999999997e+005,-1.42482722823856e+001,-4.31651607027446e+000

3.24467033532806e+005,-1.42483201563250e+001,-4.37676771055252e+000

3.28996424529938e+005,-1.42483693758946e+001,-4.43786023365780e+000

3.33589043469155e+005,-1.42484199789086e+001,-4.49980536943473e+000

3.38245772979638e+005,-1.42484720042437e+001,-4.56261501111116e+000

3.42967508011610e+005,-1.42485254918680e+001,-4.62630121756454e+000

3.47755156008335e+005,-1.42485804828727e+001,-4.69087621561760e+000

3.52609637080511e+005,-1.42486370195028e+001,-4.75635240236714e+000

3.57531884183106e+005,-1.42486951451900e+001,-4.82274234754264e+000

3.62522843294651e+005,-1.42487549045856e+001,-4.89005879589948e+000

3.67583473599047e+005,-1.42488163435950e+001,-4.95831466964156e+000

3.72714747669902e+005,-1.42488795094129e+001,-5.02752307088064e+000

3.77917651657445e+005,-1.42489444505589e+001,-5.09769728412651e+000

3.83193185478053e+005,-1.42490112169156e+001,-5.16885077881123e+000

3.88542363006410e+005,-1.42490798597662e+001,-5.24099721184972e+000

3.93966212270369e+005,-1.42491504318338e+001,-5.31415043023304e+000

3.99465775648511e+005,-1.42492229873220e+001,-5.38832447365743e+000

4.05042110070485e+005,-1.42492975819562e+001,-5.46353357718943e+000

4.10696287220124e+005,-1.42493742730266e+001,-5.53979217396715e+000

4.16429393741414e+005,-1.42494531194316e+001,-5.61711489793799e+000

4.22242531447321e+005,-1.42495341817234e+001,-5.69551658663249e+000

4.28136817531551e+005,-1.42496175221540e+001,-5.77501228397756e+000

4.34113384783250e+005,-1.42497032047229e+001,-5.85561724314616e+000

4.40173381804713e+005,-1.42497912952262e+001,-5.93734692944567e+000

4.46317973232124e+005,-1.42498818613069e+001,-6.02021702324645e+000

4.52548339959385e+005,-1.42499749725066e+001,-6.10424342294759e+000

4.58865679365059e+005,-1.42500707003189e+001,-6.18944224798531e+000

4.65271205542494e+005,-1.42501691182437e+001,-6.27582984187923e+000

4.71766149533147e+005,-1.42502703018439e+001,-6.36342277532083e+000

4.78351759563174e+005,-1.42503743288026e+001,-6.45223784930391e+000

4.85029301283321e+005,-1.42504812789833e+001,-6.54229209829518e+000

4.91800058012158e+005,-1.42505912344902e+001,-6.63360279344902e+000

4.98665330982714e+005,-1.42507042797311e+001,-6.72618744586447e+000

5.05626439592555e+005,-1.42508205014824e+001,-6.82006380988516e+000

5.12684721657352e+005,-1.42509399889548e+001,-6.91524988644427e+000

5.19841533667984e+005,-1.42510628338618e+001,-7.01176392645352e+000

5.27098251051240e+005,-1.42511891304898e+001,-7.10962443423660e+000

5.34456268434150e+005,-1.42513189757696e+001,-7.20885017100928e+000

5.41916999912011e+005,-1.42514524693511e+001,-7.30946015840486e+000

