Freq.,VOut,OutRef

1.00000000000000e+004,-2.03921405216133e+001,-2.00018419417448e-001

1.01395947979003e+004,-2.03921409552635e+001,-2.02810568809839e-001

1.02811382665607e+004,-2.03921414011050e+001,-2.05641694999739e-001

1.04246576084112e+004,-2.03921418594809e+001,-2.08512342074166e-001

1.05701804056138e+004,-2.03921423307434e+001,-2.11423061718739e-001

1.07177346253629e+004,-2.03921428152550e+001,-2.14374413316937e-001

1.08673486252606e+004,-2.03921433133879e+001,-2.17366964063936e-001

1.10190511587661e+004,-2.03921438255252e+001,-2.20401289068886e-001

1.11728713807222e+004,-2.03921443520605e+001,-2.23477971471880e-001

1.13288388529580e+004,-2.03921448933987e+001,-2.26597602550926e-001

1.14869835499703e+004,-2.03921454499559e+001,-2.29760781838272e-001

1.16473358646846e+004,-2.03921460221600e+001,-2.32968117235359e-001

1.18099266142953e+004,-2.03921466104509e+001,-2.36220225127494e-001

1.19747870461893e+004,-2.03921472152808e+001,-2.39517730507548e-001

1.21419488439505e+004,-2.03921478371146e+001,-2.42861267089127e-001

1.23114441334492e+004,-2.03921484764305e+001,-2.46251477432583e-001

1.24833054890161e+004,-2.03921491337199e+001,-2.49689013068254e-001

1.26575659397028e+004,-2.03921498094881e+001,-2.53174534620959e-001

1.28342589756290e+004,-2.03921505042547e+001,-2.56708711936435e-001

1.30134185544193e+004,-2.03921512185538e+001,-2.60292224210196e-001

1.31950791077289e+004,-2.03921519529342e+001,-2.63925760120826e-001

1.33792755478611e+004,-2.03921527079610e+001,-2.67610017956108e-001

1.35660432744767e+004,-2.03921534842142e+001,-2.71345705754872e-001

1.37554181813974e+004,-2.03921542822906e+001,-2.75133541436966e-001

1.39474366635040e+004,-2.03921551028040e+001,-2.78974252942793e-001

1.41421356237309e+004,-2.03921559463850e+001,-2.82868578375267e-001

1.43395524801583e+004,-2.03921568136820e+001,-2.86817266140134e-001

1.45397251732031e+004,-2.03921577053618e+001,-2.90821075088938e-001

1.47426921729110e+004,-2.03921586221101e+001,-2.94880774665201e-001

1.49484924863494e+004,-2.03921595646314e+001,-2.98997145054413e-001

1.51571656651040e+004,-2.03921605336505e+001,-3.03170977330263e-001

1.53687518128801e+004,-2.03921615299121e+001,-3.07403073610290e-001

1.55832915932100e+004,-2.03921625541822e+001,-3.11694247206762e-001

1.58008262372675e+004,-2.03921636072482e+001,-3.16045322785781e-001

1.60213975517924e+004,-2.03921646899196e+001,-3.20457136522833e-001

1.62450479271247e+004,-2.03921658030288e+001,-3.24930536267144e-001

1.64718203453514e+004,-2.03921669474314e+001,-3.29466381699668e-001

1.67017583885674e+004,-2.03921681240073e+001,-3.34065544503087e-001

1.69349062472505e+004,-2.03921693336609e+001,-3.38728908526111e-001

1.71713087287550e+004,-2.03921705773221e+001,-3.43457369954832e-001

1.74110112659224e+004,-2.03921718559470e+001,-3.48251837484637e-001

1.76540599258131e+004,-2.03921731705186e+001,-3.53113232493061e-001

1.79005014185594e+004,-2.03921745220472e+001,-3.58042489220382e-001

1.81503831063432e+004,-2.03921759115722e+001,-3.63040554944156e-001

1.84037530124975e+004,-2.03921773401616e+001,-3.68108390167047e-001

1.86606598307361e+004,-2.03921788089135e+001,-3.73246968796326e-001

1.89211529345119e+004,-2.03921803189572e+001,-3.78457278332895e-001

1.91852823865052e+004,-2.03921818714534e+001,-3.83740320062248e-001

1.94530989482457e+004,-2.03921834675956e+001,-3.89097109244005e-001

1.97246540898671e+004,-2.03921851086109e+001,-3.94528675309277e-001

1.99999999999999e+004,-2.03921867957607e+001,-4.00036062057826e-001

2.02791895958005e+004,-2.03921885303421e+001,-4.05620327857519e-001

2.05622765331213e+004,-2.03921903136885e+001,-4.11282545848625e-001

2.08493152168224e+004,-2.03921921471708e+001,-4.17023804151083e-001

2.11403608112276e+004,-2.03921940321984e+001,-4.22845206069934e-001

2.14354692507258e+004,-2.03921959702205e+001,-4.28747870311183e-001

2.17346972505211e+004,-2.03921979627269e+001,-4.34732931193820e-001

2.20381023175322e+004,-2.03922000112494e+001,-4.40801538869408e-001

2.23457427614443e+004,-2.03922021173626e+001,-4.46954859541711e-001

2.26576777059159e+004,-2.03922042826856e+001,-4.53194075692909e-001

2.29739670999406e+004,-2.03922065088830e+001,-4.59520386306919e-001

2.32946717293690e+004,-2.03922087976661e+001,-4.65935007103063e-001

2.36198532285905e+004,-2.03922111507944e+001,-4.72439170768219e-001

2.39495740923785e+004,-2.03922135700768e+001,-4.79034127194065e-001

2.42838976879009e+004,-2.03922160573730e+001,-4.85721143715508e-001

2.46228882668982e+004,-2.03922186145951e+001,-4.92501505355942e-001

2.49666109780322e+004,-2.03922212437090e+001,-4.99376515073171e-001

2.53151318794055e+004,-2.03922239467355e+001,-5.06347494011016e-001

2.56685179512580e+004,-2.03922267257527e+001,-5.13415781749156e-001

2.60268371088386e+004,-2.03922295828969e+001,-5.20582736564394e-001

2.63901582154578e+004,-2.03922325203643e+001,-5.27849735690370e-001

2.67585510957221e+004,-2.03922355404130e+001,-5.35218175580918e-001

2.71320865489533e+004,-2.03922386453647e+001,-5.42689472178718e-001

2.75108363627948e+004,-2.03922418376060e+001,-5.50265061187744e-001

2.78948733270080e+004,-2.03922451195910e+001,-5.57946398348862e-001

2.82842712474618e+004,-2.03922484938425e+001,-5.65734959717502e-001

2.86791049603164e+004,-2.03922519629543e+001,-5.73632241949708e-001

2.90794503464061e+004,-2.03922555295932e+001,-5.81639762587535e-001

2.94853843458219e+004,-2.03922591965008e+001,-5.89759060351238e-001

2.98969849726987e+004,-2.03922629664960e+001,-5.97991695434615e-001

3.03143313302078e+004,-2.03922668424767e+001,-6.06339249803513e-001

3.07375036257601e+004,-2.03922708274223e+001,-6.14803327501603e-001

3.11665831864199e+004,-2.03922749243962e+001,-6.23385554955349e-001

3.16016524745350e+004,-2.03922791365475e+001,-6.32087581288834e-001

3.20427951035848e+004,-2.03922834671142e+001,-6.40911078639067e-001

3.24900958542493e+004,-2.03922879194251e+001,-6.49857742476548e-001

3.29436406907028e+004,-2.03922924969026e+001,-6.58929291931225e-001

3.34035167771346e+004,-2.03922972030655e+001,-6.68127470122328e-001

3.38698124945009e+004,-2.03923020415312e+001,-6.77454044493416e-001

3.43426174575100e+004,-2.03923070160189e+001,-6.86910807150367e-001

3.48220225318448e+004,-2.03923121303525e+001,-6.96499575205370e-001

3.53081198516260e+004,-2.03923173884631e+001,-7.06222191126939e-001

3.58010028371187e+004,-2.03923227943926e+001,-7.16080523092051e-001

3.63007662126863e+004,-2.03923283522963e+001,-7.26076465345312e-001

3.68075060249948e+004,-2.03923340664464e+001,-7.36211938561921e-001

3.73213196614721e+004,-2.03923399412352e+001,-7.46488890215290e-001

3.78423058690237e+004,-2.03923459811783e+001,-7.56909294953759e-001

3.83705647730104e+004,-2.03923521909183e+001,-7.67475154975385e-001

3.89061978964912e+004,-2.03923585752286e+001,-7.78188500413918e-001

3.94493081797342e+004,-2.03923651390162e+001,-7.89051389729201e-001

3.99999999999998e+004,-2.03923718873264e+001,-8.00065910099903e-001

4.05583791916010e+004,-2.03923788253464e+001,-8.11234177824171e-001

4.11245530662425e+004,-2.03923859584088e+001,-8.22558338727288e-001

4.16986304336447e+004,-2.03923932919965e+001,-8.34040568570714e-001

4.22807216224550e+004,-2.03924008317463e+001,-8.45683073470527e-001

4.28709385014515e+004,-2.03924085834533e+001,-8.57488090321056e-001

4.34693945010421e+004,-2.03924165530759e+001,-8.69457887221348e-001

4.40762046350642e+004,-2.03924247467394e+001,-8.81594763913166e-001

4.46914855228886e+004,-2.03924331707418e+001,-8.93901052218046e-001

4.53153554118317e+004,-2.03924418315578e+001,-9.06379116488298e-001

4.59479341998812e+004,-2.03924507358441e+001,-9.19031354056974e-001

4.65893434587380e+004,-2.03924598904445e+001,-9.31860195699182e-001

4.72397064571810e+004,-2.03924693023953e+001,-9.44868106096496e-001

4.78991481847569e+004,-2.03924789789304e+001,-9.58057584309624e-001

4.85677953758016e+004,-2.03924889274870e+001,-9.71431164258937e-001

4.92457765337964e+004,-2.03924991557114e+001,-9.84991415206833e-001

4.99332219560642e+004,-2.03925096714647e+001,-9.98740942252458e-001

5.06302637588109e+004,-2.03925204828291e+001,-1.01268238682911e+000

5.13370359025159e+004,-2.03925315981137e+001,-1.02681842721179e+000

5.20536742176771e+004,-2.03925430258613e+001,-1.04115177902742e+000

5.27803164309155e+004,-2.03925547748545e+001,-1.05568519577831e+000

5.35171021914442e+004,-2.03925668541232e+001,-1.07042146936631e+000

5.42641730979066e+004,-2.03925792729507e+001,-1.08536343062896e+000

5.50216727255895e+004,-2.03925920408813e+001,-1.10051394988099e+000

5.57897466540159e+004,-2.03926051677272e+001,-1.11587593746402e+000

5.65685424949235e+004,-2.03926186635769e+001,-1.13145234430288e+000

5.73582099206328e+004,-2.03926325388021e+001,-1.14724616247020e+000

5.81589006928121e+004,-2.03926468040659e+001,-1.16326042575997e+000

5.89707686916437e+004,-2.03926614703310e+001,-1.17949821026715e+000

5.97939699453972e+004,-2.03926765488683e+001,-1.19596263497673e+000

6.06286626604156e+004,-2.03926920512654e+001,-1.21265686235889e+000

6.14750072515201e+004,-2.03927079894354e+001,-1.22958409897529e+000

6.23331663728396e+004,-2.03927243756262e+001,-1.24674759609139e+000

6.32033049490698e+004,-2.03927412224298e+001,-1.26415065029874e+000

6.40855902071694e+004,-2.03927585427922e+001,-1.28179660414364e+000

6.49801917084985e+004,-2.03927763500228e+001,-1.29968884676780e+000

6.58872813814055e+004,-2.03927946578053e+001,-1.31783081455508e+000

6.68070335542691e+004,-2.03928134802075e+001,-1.33622599178832e+000

6.77396249890018e+004,-2.03928328316929e+001,-1.35487791131397e+000

6.86852349150199e+004,-2.03928527271309e+001,-1.37379015521900e+000

6.96440450636895e+004,-2.03928731818091e+001,-1.39296635551258e+000

7.06162397032520e+004,-2.03928942114441e+001,-1.41241019482099e+000

7.16020056742374e+004,-2.03929158321945e+001,-1.43212540709079e+000

7.26015324253724e+004,-2.03929380606725e+001,-1.45211577830053e+000

7.36150120499896e+004,-2.03929609139573e+001,-1.47238514718336e+000

7.46426393229441e+004,-2.03929844096076e+001,-1.49293740596017e+000

7.56846117380472e+004,-2.03930085656755e+001,-1.51377650108187e+000

7.67411295460207e+004,-2.03930334007201e+001,-1.53490643398100e+000

7.78123957929823e+004,-2.03930589338220e+001,-1.55633126183632e+000

7.88986163594682e+004,-2.03930851845977e+001,-1.57805509834413e+000

7.99999999999995e+004,-2.03931121732144e+001,-1.60008211450467e+000

8.11167583832018e+004,-2.03931399204063e+001,-1.62241653941445e+000

8.22491061324848e+004,-2.03931684474897e+001,-1.64506266107391e+000

8.33972608672892e+004,-2.03931977763794e+001,-1.66802482720241e+000

8.45614432449099e+004,-2.03932279296060e+001,-1.69130744606760e+000

8.57418770029029e+004,-2.03932589303328e+001,-1.71491498732246e+000

8.69387890020841e+004,-2.03932908023735e+001,-1.73885198285758e+000

8.81524092701283e+004,-2.03933235702108e+001,-1.76312302766281e+000

8.93829710457770e+004,-2.03933572590147e+001,-1.78773278070107e+000

9.06307108236633e+004,-2.03933918946622e+001,-1.81268596579366e+000

9.18958683997622e+004,-2.03934275037568e+001,-1.83798737251894e+000

9.31786869174758e+004,-2.03934641136491e+001,-1.86364185712214e+000

9.44794129143618e+004,-2.03935017524577e+001,-1.88965434343677e+000

9.57982963695136e+004,-2.03935404490907e+001,-1.91602982382145e+000

9.71355907516031e+004,-2.03935802332678e+001,-1.94277336010641e+000

9.84915530675926e+004,-2.03936211355432e+001,-1.96989008455350e+000

9.98664439121282e+004,-2.03936631873288e+001,-1.99738520083143e+000

1.01260527517622e+005,-2.03937064209184e+001,-2.02526398500049e+000

1.02674071805032e+005,-2.03937508695125e+001,-2.05353178651411e+000

1.04107348435354e+005,-2.03937965672432e+001,-2.08219402923164e+000

1.05560632861831e+005,-2.03938435492013e+001,-2.11125621244536e+000

1.07034204382888e+005,-2.03938918514620e+001,-2.14072391192302e+000

1.08528346195813e+005,-2.03939415111133e+001,-2.17060278096093e+000

1.10043345451179e+005,-2.03939925662842e+001,-2.20089855145501e+000

1.11579493308032e+005,-2.03940450561737e+001,-2.23161703498301e+000

1.13137084989847e+005,-2.03940990210808e+001,-2.26276412390447e+000

1.14716419841265e+005,-2.03941545024356e+001,-2.29434579247253e+000

1.16317801385624e+005,-2.03942115428305e+001,-2.32636809796179e+000

1.17941537383287e+005,-2.03942701860534e+001,-2.35883718181169e+000

1.19587939890794e+005,-2.03943304771203e+001,-2.39175927078558e+000

1.21257325320831e+005,-2.03943924623106e+001,-2.42514067814288e+000

1.22950014503040e+005,-2.03944561892019e+001,-2.45898780482961e+000

1.24666332745679e+005,-2.03945217067066e+001,-2.49330714068327e+000

1.26406609898139e+005,-2.03945890651089e+001,-2.52810526565430e+000

1.28171180414339e+005,-2.03946583161038e+001,-2.56338885104345e+000

1.29960383416997e+005,-2.03947295128360e+001,-2.59916466075600e+000

1.31774562762811e+005,-2.03948027099408e+001,-2.63543955257161e+000

1.33614067108538e+005,-2.03948779635857e+001,-2.67222047943210e+000

1.35479249978003e+005,-2.03949553315130e+001,-2.70951449074634e+000

1.37370469830040e+005,-2.03950348730847e+001,-2.74732873371024e+000

1.39288090127379e+005,-2.03951166493266e+001,-2.78567045464695e+000

1.41232479406504e+005,-2.03952007229757e+001,-2.82454700036320e+000

1.43204011348474e+005,-2.03952871585276e+001,-2.86396581952280e+000

1.45203064850745e+005,-2.03953760222861e+001,-2.90393446403939e+000

1.47230024099979e+005,-2.03954673824131e+001,-2.94446059048675e+000

1.49285278645888e+005,-2.03955613089811e+001,-2.98555196152780e+000

1.51369223476094e+005,-2.03956578740262e+001,-3.02721644736157e+000

1.53482259092041e+005,-2.03957571516031e+001,-3.06946202718993e+000

1.55624791585964e+005,-2.03958592178416e+001,-3.11229679070196e+000

1.57797232718936e+005,-2.03959641510043e+001,-3.15572893957896e+000

1.59999999999999e+005,-2.03960720315461e+001,-3.19976678901773e+000

1.62233516766403e+005,-2.03961829421758e+001,-3.24441876927452e+000

1.64498212264969e+005,-2.03962969679186e+001,-3.28969342722751e+000

1.66794521734578e+005,-2.03964141961806e+001,-3.33559942796031e+000

1.69122886489819e+005,-2.03965347168161e+001,-3.38214555636486e+000

1.71483754005805e+005,-2.03966586221945e+001,-3.42934071876610e+000

1.73877578004168e+005,-2.03967860072717e+001,-3.47719394456517e+000

1.76304818540256e+005,-2.03969169696612e+001,-3.52571438790593e+000

1.78765942091554e+005,-2.03970516097092e+001,-3.57491132935960e+000

1.81261421647326e+005,-2.03971900305695e+001,-3.62479417763345e+000

1.83791736799524e+005,-2.03973323382829e+001,-3.67537247129883e+000

1.86357373834951e+005,-2.03974786418566e+001,-3.72665588054231e+000

1.88958825828723e+005,-2.03976290533475e+001,-3.77865420893714e+000

1.91596592739027e+005,-2.03977836879467e+001,-3.83137739523791e+000

1.94271181503206e+005,-2.03979426640668e+001,-3.88483551519704e+000

1.96983106135185e+005,-2.03981061034315e+001,-3.93903878340330e+000

1.99732887824256e+005,-2.03982741311677e+001,-3.99399755514304e+000

2.02521055035243e+005,-2.03984468759000e+001,-4.04972232828525e+000

2.05348143610063e+005,-2.03986244698480e+001,-4.10622374518734e+000

2.08214696870707e+005,-2.03988070489261e+001,-4.16351259462620e+000

2.11121265723661e+005,-2.03989947528462e+001,-4.22159981375112e+000

2.14068408765776e+005,-2.03991877252230e+001,-4.28049649006130e+000

2.17056692391625e+005,-2.03993861136824e+001,-4.34021386340595e+000

2.20086690902357e+005,-2.03995900699727e+001,-4.40076332800853e+000

2.23158986616063e+005,-2.03997997500789e+001,-4.46215643451571e+000

2.26274169979693e+005,-2.04000153143403e+001,-4.52440489206910e+000

2.29432839682530e+005,-2.04002369275708e+001,-4.58752057040238e+000

2.32635602771247e+005,-2.04004647591832e+001,-4.65151550196226e+000

2.35883074766574e+005,-2.04006989833164e+001,-4.71640188405409e+000

2.39175879781588e+005,-2.04009397789661e+001,-4.78219208101214e+000

2.42514650641661e+005,-2.04011873301191e+001,-4.84889862639479e+000

2.45900029006080e+005,-2.04014418258915e+001,-4.91653422520432e+000

2.49332665491357e+005,-2.04017034606702e+001,-4.98511175613279e+000

2.52813219796278e+005,-2.04019724342587e+001,-5.05464427383090e+000

2.56342360828676e+005,-2.04022489520265e+001,-5.12514501120441e+000

2.59920766833993e+005,-2.04025332250625e+001,-5.19662738173495e+000

2.63549125525621e+005,-2.04028254703333e+001,-5.26910498182507e+000

2.67228134217075e+005,-2.04031259108446e+001,-5.34259159317086e+000

2.70958499956006e+005,-2.04034347758077e+001,-5.41710118515853e+000

2.74740939660078e+005,-2.04037523008106e+001,-5.49264791728693e+000

2.78576180254757e+005,-2.04040787279933e+001,-5.56924614161624e+000

2.82464958813007e+005,-2.04044143062277e+001,-5.64691040524064e+000

2.86408022696948e+005,-2.04047592913031e+001,-5.72565545278878e+000

2.90406129701488e+005,-2.04051139461157e+001,-5.80549622894787e+000

2.94460048199957e+005,-2.04054785408640e+001,-5.88644788101477e+000

2.98570557291775e+005,-2.04058533532487e+001,-5.96852576147142e+000

3.02738446952187e+005,-2.04062386686786e+001,-6.05174543058617e+000

3.06964518184081e+005,-2.04066347804817e+001,-6.13612265904103e+000

3.11249583171928e+005,-2.04070419901214e+001,-6.22167343058372e+000

3.15594465437872e+005,-2.04074606074199e+001,-6.30841394470424e+000

3.19999999999997e+005,-2.04078909507855e+001,-6.39636061933769e+000

3.24467033532806e+005,-2.04083333474477e+001,-6.48553009359110e+000

3.28996424529938e+005,-2.04087881336976e+001,-6.57593923049555e+000

3.33589043469155e+005,-2.04092556551349e+001,-6.66760511978203e+000

3.38245772979638e+005,-2.04097362669214e+001,-6.76054508068196e+000

3.42967508011610e+005,-2.04102303340408e+001,-6.85477666475268e+000

3.47755156008335e+005,-2.04107382315660e+001,-6.95031765872422e+000

3.52609637080511e+005,-2.04112603449330e+001,-7.04718608737257e+000

3.57531884183106e+005,-2.04117970702218e+001,-7.14540021641351e+000

3.62522843294651e+005,-2.04123488144448e+001,-7.24497855542066e+000

3.67583473599047e+005,-2.04129159958430e+001,-7.34593986076496e+000

3.72714747669902e+005,-2.04134990441894e+001,-7.44830313857692e+000

3.77917651657445e+005,-2.04140984011002e+001,-7.55208764772955e+000

3.83193185478053e+005,-2.04147145203548e+001,-7.65731290284260e+000

3.88542363006410e+005,-2.04153478682231e+001,-7.76399867730696e+000

3.93966212270369e+005,-2.04159989238018e+001,-7.87216500632941e+000

3.99465775648511e+005,-2.04166681793592e+001,-7.98183218999565e+000

4.05042110070485e+005,-2.04173561406884e+001,-8.09302079635248e+000

4.10696287220124e+005,-2.04180633274704e+001,-8.20575166450814e+000

4.16429393741414e+005,-2.04187902736452e+001,-8.32004590774846e+000

4.22242531447321e+005,-2.04195375277935e+001,-8.43592491667041e+000

4.28136817531551e+005,-2.04203056535274e+001,-8.55341036233088e+000

4.34113384783250e+005,-2.04210952298904e+001,-8.67252419940914e+000

4.40173381804713e+005,-2.04219068517688e+001,-8.79328866938388e+000

4.46317973232124e+005,-2.04227411303122e+001,-8.91572630372201e+000

4.52548339959385e+005,-2.04235986933647e+001,-9.03985992707922e+000

4.58865679365059e+005,-2.04244801859075e+001,-9.16571266051036e+000

4.65271205542494e+005,-2.04253862705110e+001,-9.29330792468989e+000

4.71766149533147e+005,-2.04263176277997e+001,-9.42266944313863e+000

4.78351759563174e+005,-2.04272749569269e+001,-9.55382124545874e+000

4.85029301283321e+005,-2.04282589760624e+001,-9.68678767057198e+000

4.91800058012158e+005,-2.04292704228908e+001,-9.82159336996255e+000

4.98665330982714e+005,-2.04303100551225e+001,-9.95826331092197e+000

5.05626439592555e+005,-2.04313786510171e+001,-1.00968227797937e+001

5.12684721657352e+005,-2.04324770099184e+001,-1.02372973852170e+001

5.19841533667984e+005,-2.04336059528036e+001,-1.03797130613668e+001

5.27098251051240e+005,-2.04347663228439e+001,-1.05240960711899e+001

5.34456268434150e+005,-2.04359589859795e+001,-1.06704730096321e+001

5.41916999912011e+005,-2.04371848315073e+001,-1.08188708068577e+001

