Freq.,VOut,OutRef

1.00000000000000e+004,-1.38413841484522e+001,-1.38897724962324e-001

1.01395947979003e+004,-1.38413841830157e+001,-1.40836664891972e-001

1.02811382665607e+004,-1.38413842185511e+001,-1.42802671410655e-001

1.04246576084112e+004,-1.38413842550853e+001,-1.44796122356819e-001

1.05701804056138e+004,-1.38413842926466e+001,-1.46817400838466e-001

1.07177346253629e+004,-1.38413843312641e+001,-1.48866895312812e-001

1.08673486252606e+004,-1.38413843709672e+001,-1.50944999661111e-001

1.10190511587661e+004,-1.38413844117864e+001,-1.53052113262931e-001

1.11728713807222e+004,-1.38413844537533e+001,-1.55188641070924e-001

1.13288388529580e+004,-1.38413844969000e+001,-1.57354993692458e-001

1.14869835499703e+004,-1.38413845412599e+001,-1.59551587465754e-001

1.16473358646846e+004,-1.38413845868667e+001,-1.61778844543000e-001

1.18099266142953e+004,-1.38413846337557e+001,-1.64037192967106e-001

1.19747870461893e+004,-1.38413846819630e+001,-1.66327066755813e-001

1.21419488439505e+004,-1.38413847315256e+001,-1.68648905988041e-001

1.23114441334492e+004,-1.38413847824815e+001,-1.71003156884513e-001

1.24833054890161e+004,-1.38413848348699e+001,-1.73390271894525e-001

1.26575659397028e+004,-1.38413848887314e+001,-1.75810709782782e-001

1.28342589756290e+004,-1.38413849441071e+001,-1.78264935720928e-001

1.30134185544193e+004,-1.38413850010394e+001,-1.80753421371999e-001

1.31950791077289e+004,-1.38413850595724e+001,-1.83276644983484e-001

1.33792755478611e+004,-1.38413851197511e+001,-1.85835091478117e-001

1.35660432744767e+004,-1.38413851816216e+001,-1.88429252549584e-001

1.37554181813974e+004,-1.38413852452315e+001,-1.91059626754618e-001

1.39474366635040e+004,-1.38413853106297e+001,-1.93726719609447e-001

1.41421356237309e+004,-1.38413853778665e+001,-1.96431043686587e-001

1.43395524801583e+004,-1.38413854469936e+001,-1.99173118715065e-001

1.45397251732031e+004,-1.38413855180641e+001,-2.01953471678006e-001

1.47426921729110e+004,-1.38413855911326e+001,-2.04772636915080e-001

1.49484924863494e+004,-1.38413856662556e+001,-2.07631156224229e-001

1.51571656651040e+004,-1.38413857434904e+001,-2.10529578968705e-001

1.53687518128801e+004,-1.38413858228966e+001,-2.13468462179862e-001

1.55832915932100e+004,-1.38413859045351e+001,-2.16448370663464e-001

1.58008262372675e+004,-1.38413859884689e+001,-2.19469877110245e-001

1.60213975517924e+004,-1.38413860747624e+001,-2.22533562206827e-001

1.62450479271247e+004,-1.38413861634820e+001,-2.25640014743941e-001

1.64718203453514e+004,-1.38413862546958e+001,-2.28789831732590e-001

1.67017583885674e+004,-1.38413863484739e+001,-2.31983618518473e-001

1.69349062472505e+004,-1.38413864448885e+001,-2.35221988896083e-001

1.71713087287550e+004,-1.38413865440137e+001,-2.38505565228276e-001

1.74110112659224e+004,-1.38413866459257e+001,-2.41834978566455e-001

1.76540599258131e+004,-1.38413867507028e+001,-2.45210868771180e-001

1.79005014185594e+004,-1.38413868584257e+001,-2.48633884633995e-001

1.81503831063432e+004,-1.38413869691769e+001,-2.52104684005981e-001

1.84037530124975e+004,-1.38413870830419e+001,-2.55623933917351e-001

1.86606598307361e+004,-1.38413872001082e+001,-2.59192310711923e-001

1.89211529345119e+004,-1.38413873204655e+001,-2.62810500177185e-001

1.91852823865052e+004,-1.38413874442065e+001,-2.66479197668915e-001

1.94530989482457e+004,-1.38413875714265e+001,-2.70199108253610e-001

1.97246540898671e+004,-1.38413877022230e+001,-2.73970946838347e-001

1.99999999999999e+004,-1.38413878366967e+001,-2.77795438310683e-001

2.02791895958005e+004,-1.38413879749511e+001,-2.81673317675792e-001

2.05622765331213e+004,-1.38413881170923e+001,-2.85605330200945e-001

2.08493152168224e+004,-1.38413882632296e+001,-2.89592231556675e-001

2.11403608112276e+004,-1.38413884134755e+001,-2.93634787959657e-001

2.14354692507258e+004,-1.38413885679453e+001,-2.97733776326654e-001

2.17346972505211e+004,-1.38413887267578e+001,-3.01889984416986e-001

2.20381023175322e+004,-1.38413888900352e+001,-3.06104210986799e-001

2.23457427614443e+004,-1.38413890579030e+001,-3.10377265943019e-001

2.26576777059159e+004,-1.38413892304901e+001,-3.14709970498716e-001

2.29739670999406e+004,-1.38413894079295e+001,-3.19103157329409e-001

2.32946717293690e+004,-1.38413895903573e+001,-3.23557670735882e-001

2.36198532285905e+004,-1.38413897779138e+001,-3.28074366804591e-001

2.39495740923785e+004,-1.38413899707433e+001,-3.32654113570319e-001

2.42838976879009e+004,-1.38413901689940e+001,-3.37297791187387e-001

2.46228882668982e+004,-1.38413903728183e+001,-3.42006292096509e-001

2.49666109780322e+004,-1.38413905823728e+001,-3.46780521195957e-001

2.53151318794055e+004,-1.38413907978189e+001,-3.51621396014288e-001

2.56685179512580e+004,-1.38413910193219e+001,-3.56529846890283e-001

2.60268371088386e+004,-1.38413912470523e+001,-3.61506817149175e-001

2.63901582154578e+004,-1.38413914811849e+001,-3.66553263284722e-001

2.67585510957221e+004,-1.38413917219001e+001,-3.71670155141012e-001

2.71320865489533e+004,-1.38413919693826e+001,-3.76858476103527e-001

2.75108363627948e+004,-1.38413922238229e+001,-3.82119223282136e-001

2.78948733270080e+004,-1.38413924854166e+001,-3.87453407707638e-001

2.82842712474618e+004,-1.38413927543645e+001,-3.92862054524787e-001

2.86791049603164e+004,-1.38413930308738e+001,-3.98346203186759e-001

2.90794503464061e+004,-1.38413933151568e+001,-4.03906907657629e-001

2.94853843458219e+004,-1.38413936074320e+001,-4.09545236615501e-001

2.98969849726987e+004,-1.38413939079244e+001,-4.15262273654499e-001

3.03143313302078e+004,-1.38413942168646e+001,-4.21059117497058e-001

3.07375036257601e+004,-1.38413945344906e+001,-4.26936882200523e-001

3.11665831864199e+004,-1.38413948610461e+001,-4.32896697377173e-001

3.16016524745350e+004,-1.38413951967824e+001,-4.38939708405089e-001

3.20427951035848e+004,-1.38413955419577e+001,-4.45067076652029e-001

3.24900958542493e+004,-1.38413958968372e+001,-4.51279979698408e-001

3.29436406907028e+004,-1.38413962616938e+001,-4.57579611562108e-001

3.34035167771346e+004,-1.38413966368079e+001,-4.63967182929259e-001

3.38698124945009e+004,-1.38413970224680e+001,-4.70443921385709e-001

3.43426174575100e+004,-1.38413974189705e+001,-4.77011071654991e-001

3.48220225318448e+004,-1.38413978266203e+001,-4.83669895834245e-001

3.53081198516260e+004,-1.38413982457308e+001,-4.90421673640214e-001

3.58010028371187e+004,-1.38413986766241e+001,-4.97267702653093e-001

3.63007662126863e+004,-1.38413991196316e+001,-5.04209298566784e-001

3.68075060249948e+004,-1.38413995750937e+001,-5.11247795440659e-001

3.73213196614721e+004,-1.38414000433608e+001,-5.18384545956774e-001

3.78423058690237e+004,-1.38414005247927e+001,-5.25620921681361e-001

3.83705647730104e+004,-1.38414010197597e+001,-5.32958313324393e-001

3.89061978964912e+004,-1.38414015286421e+001,-5.40398131011015e-001

3.94493081797342e+004,-1.38414020518313e+001,-5.47941804549953e-001

3.99999999999998e+004,-1.38414025897294e+001,-5.55590783708896e-001

4.05583791916010e+004,-1.38414031427501e+001,-5.63346538493960e-001

4.11245530662425e+004,-1.38414037113184e+001,-5.71210559431231e-001

4.16986304336447e+004,-1.38414042958714e+001,-5.79184357853947e-001

4.22807216224550e+004,-1.38414048968586e+001,-5.87269466191416e-001

4.28709385014515e+004,-1.38414055147422e+001,-5.95467438264840e-001

4.34693945010421e+004,-1.38414061499968e+001,-6.03779849587173e-001

4.40762046350642e+004,-1.38414068031111e+001,-6.12208297662498e-001

4.46914855228886e+004,-1.38414074745871e+001,-6.20754402296315e-001

4.53153554118317e+004,-1.38414081649410e+001,-6.29419805903865e-001

4.59479341998812e+004,-1.38414088747036e+001,-6.38206173829125e-001

4.65893434587380e+004,-1.38414096044206e+001,-6.47115194661757e-001

4.72397064571810e+004,-1.38414103546530e+001,-6.56148580563270e-001

4.78991481847569e+004,-1.38414111259775e+001,-6.65308067595764e-001

4.85677953758016e+004,-1.38414119189871e+001,-6.74595416054918e-001

4.92457765337964e+004,-1.38414127342916e+001,-6.84012410810178e-001

4.99332219560642e+004,-1.38414135725176e+001,-6.93560861644758e-001

5.06302637588109e+004,-1.38414144343096e+001,-7.03242603605873e-001

5.13370359025159e+004,-1.38414153203303e+001,-7.13059497356509e-001

5.20536742176771e+004,-1.38414162312607e+001,-7.23013429532944e-001

5.27803164309155e+004,-1.38414171678012e+001,-7.33106313107136e-001

5.35171021914442e+004,-1.38414181306718e+001,-7.43340087755607e-001

5.42641730979066e+004,-1.38414191206128e+001,-7.53716720229206e-001

5.50216727255895e+004,-1.38414201383853e+001,-7.64238204735087e-001

5.57897466540159e+004,-1.38414211847716e+001,-7.74906563317071e-001

5.65685424949235e+004,-1.38414222605763e+001,-7.85723846244498e-001

5.73582099206328e+004,-1.38414233666264e+001,-7.96692132407628e-001

5.81589006928121e+004,-1.38414245037725e+001,-8.07813529715369e-001

5.89707686916437e+004,-1.38414256728885e+001,-8.19090175501716e-001

5.97939699453972e+004,-1.38414268748735e+001,-8.30524236935975e-001

6.06286626604156e+004,-1.38414281106515e+001,-8.42117911439404e-001

6.14750072515201e+004,-1.38414293811726e+001,-8.53873427106547e-001

6.23331663728396e+004,-1.38414306874135e+001,-8.65793043134873e-001

6.32033049490698e+004,-1.38414320303786e+001,-8.77879050257474e-001

6.40855902071694e+004,-1.38414334111004e+001,-8.90133771184902e-001

6.49801917084985e+004,-1.38414348306403e+001,-9.02559561049276e-001

6.58872813814055e+004,-1.38414362900898e+001,-9.15158807859594e-001

6.68070335542691e+004,-1.38414377905709e+001,-9.27933932958151e-001

6.77396249890018e+004,-1.38414393332372e+001,-9.40887391486869e-001

6.86852349150199e+004,-1.38414409192747e+001,-9.54021672859095e-001

6.96440450636895e+004,-1.38414425499029e+001,-9.67339301238416e-001

7.06162397032520e+004,-1.38414442263754e+001,-9.80842836022544e-001

7.16020056742374e+004,-1.38414459499812e+001,-9.94534872335560e-001

7.26015324253724e+004,-1.38414477220453e+001,-1.00841804152753e+000

7.36150120499896e+004,-1.38414495439302e+001,-1.02249501167911e+000

7.46426393229441e+004,-1.38414514170368e+001,-1.03676848811345e+000

7.56846117380472e+004,-1.38414533428050e+001,-1.05124121391923e+000

7.67411295460207e+004,-1.38414553227154e+001,-1.06591597047326e+000

7.78123957929823e+004,-1.38414573582904e+001,-1.08079557797843e+000

7.88986163594682e+004,-1.38414594510949e+001,-1.09588289600455e+000

7.99999999999995e+004,-1.38414616027380e+001,-1.11118082403748e+000

8.11167583832018e+004,-1.38414638148740e+001,-1.12669230203662e+000

8.22491061324848e+004,-1.38414660892036e+001,-1.14242031099894e+000

8.33972608672892e+004,-1.38414684274755e+001,-1.15836787353343e+000

8.45614432449099e+004,-1.38414708314875e+001,-1.17453805444060e+000

8.57418770029029e+004,-1.38414733030879e+001,-1.19093396130154e+000

8.69387890020841e+004,-1.38414758441769e+001,-1.20755874507575e+000

8.81524092701283e+004,-1.38414784567085e+001,-1.22441560070513e+000

8.93829710457770e+004,-1.38414811426912e+001,-1.24150776772948e+000

9.06307108236633e+004,-1.38414839041902e+001,-1.25883853090807e+000

9.18958683997622e+004,-1.38414867433286e+001,-1.27641122085111e+000

9.31786869174758e+004,-1.38414896622895e+001,-1.29422921465917e+000

9.44794129143618e+004,-1.38414926633172e+001,-1.31229593657192e+000

9.57982963695136e+004,-1.38414957487190e+001,-1.33061485862785e+000

9.71355907516031e+004,-1.38414989208672e+001,-1.34918950132856e+000

9.84915530675926e+004,-1.38415021822009e+001,-1.36802343431729e+000

9.98664439121282e+004,-1.38415055352277e+001,-1.38712027706449e+000

1.01260527517622e+005,-1.38415089825255e+001,-1.40648369956192e+000

1.02674071805032e+005,-1.38415125267452e+001,-1.42611742302891e+000

1.04107348435354e+005,-1.38415161706117e+001,-1.44602522062734e+000

1.05560632861831e+005,-1.38415199169268e+001,-1.46621091818642e+000

1.07034204382888e+005,-1.38415237685709e+001,-1.48667839493700e+000

1.08528346195813e+005,-1.38415277285059e+001,-1.50743158425738e+000

1.10043345451179e+005,-1.38415317997763e+001,-1.52847447442926e+000

1.11579493308032e+005,-1.38415359855127e+001,-1.54981110940393e+000

1.13137084989847e+005,-1.38415402889335e+001,-1.57144558957857e+000

1.14716419841265e+005,-1.38415447133477e+001,-1.59338207258427e+000

1.16317801385624e+005,-1.38415492621574e+001,-1.61562477408517e+000

1.17941537383287e+005,-1.38415539388602e+001,-1.63817796858768e+000

1.19587939890794e+005,-1.38415587470523e+001,-1.66104599026241e+000

1.21257325320831e+005,-1.38415636904306e+001,-1.68423323377644e+000

1.22950014503040e+005,-1.38415687727966e+001,-1.70774415513626e+000

1.24666332745679e+005,-1.38415739980582e+001,-1.73158327254623e+000

1.26406609898139e+005,-1.38415793702333e+001,-1.75575516727476e+000

1.28171180414339e+005,-1.38415848934529e+001,-1.78026448453508e+000

1.29960383416997e+005,-1.38415905719642e+001,-1.80511593437669e+000

1.31774562762811e+005,-1.38415964101338e+001,-1.83031429259124e+000

1.33614067108538e+005,-1.38416024124509e+001,-1.85586440162956e+000

1.35479249978003e+005,-1.38416085835312e+001,-1.88177117153108e+000

1.37370469830040e+005,-1.38416149281203e+001,-1.90803958086748e+000

1.39288090127379e+005,-1.38416214510969e+001,-1.93467467770015e+000

1.41232479406504e+005,-1.38416281574773e+001,-1.96168158054727e+000

1.43204011348474e+005,-1.38416350524185e+001,-1.98906547936892e+000

1.45203064850745e+005,-1.38416421412229e+001,-2.01683163656356e+000

1.47230024099979e+005,-1.38416494293418e+001,-2.04498538797809e+000

1.49285278645888e+005,-1.38416569223800e+001,-2.07353214393360e+000

1.51369223476094e+005,-1.38416646260996e+001,-2.10247739026354e+000

1.53482259092041e+005,-1.38416725464252e+001,-2.13182668936821e+000

1.55624791585964e+005,-1.38416806894479e+001,-2.16158568128187e+000

1.57797232718936e+005,-1.38416890614299e+001,-2.19176008475714e+000

1.59999999999999e+005,-1.38416976688098e+001,-2.22235569836279e+000

1.62233516766403e+005,-1.38417065182071e+001,-2.25337840159725e+000

1.64498212264969e+005,-1.38417156164278e+001,-2.28483415601698e+000

1.66794521734578e+005,-1.38417249704690e+001,-2.31672900638325e+000

1.69122886489819e+005,-1.38417345875249e+001,-2.34906908182070e+000

1.71483754005805e+005,-1.38417444749918e+001,-2.38186059699531e+000

1.73877578004168e+005,-1.38417546404743e+001,-2.41510985330783e+000

1.76304818540256e+005,-1.38417650917907e+001,-2.44882324010422e+000

1.78765942091554e+005,-1.38417758369795e+001,-2.48300723590039e+000

1.81261421647326e+005,-1.38417868843051e+001,-2.51766840962907e+000

1.83791736799524e+005,-1.38417982422646e+001,-2.55281342189816e+000

1.86357373834951e+005,-1.38418099195938e+001,-2.58844902627213e+000

1.88958825828723e+005,-1.38418219252747e+001,-2.62458207056667e+000

1.91596592739027e+005,-1.38418342685417e+001,-2.66121949816444e+000

1.94271181503206e+005,-1.38418469588891e+001,-2.69836834934711e+000

1.96983106135185e+005,-1.38418600060783e+001,-2.73603576264851e+000

1.99732887824256e+005,-1.38418734201452e+001,-2.77422897622300e+000

2.02521055035243e+005,-1.38418872114084e+001,-2.81295532923664e+000

2.05348143610063e+005,-1.38419013904766e+001,-2.85222226327451e+000

2.08214696870707e+005,-1.38419159682570e+001,-2.89203732377069e+000

2.11121265723661e+005,-1.38419309559637e+001,-2.93240816145499e+000

2.14068408765776e+005,-1.38419463651263e+001,-2.97334253382239e+000

2.17056692391625e+005,-1.38419622075990e+001,-3.01484830662153e+000

2.20086690902357e+005,-1.38419784955695e+001,-3.05693345536400e+000

2.23158986616063e+005,-1.38419952415683e+001,-3.09960606685597e+000

2.26274169979693e+005,-1.38420124584789e+001,-3.14287434074899e+000

2.29432839682530e+005,-1.38420301595469e+001,-3.18674659111392e+000

2.32635602771247e+005,-1.38420483583910e+001,-3.23123124803641e+000

2.35883074766574e+005,-1.38420670690130e+001,-3.27633685923435e+000

2.39175879781588e+005,-1.38420863058089e+001,-3.32207209169763e+000

2.42514650641661e+005,-1.38421060835798e+001,-3.36844573335160e+000

2.45900029006080e+005,-1.38421264175434e+001,-3.41546669474247e+000

2.49332665491357e+005,-1.38421473233457e+001,-3.46314401074753e+000

2.52813219796278e+005,-1.38421688170732e+001,-3.51148684230734e+000

2.56342360828676e+005,-1.38421909152651e+001,-3.56050447818353e+000

2.59920766833993e+005,-1.38422136349262e+001,-3.61020633674065e+000

2.63549125525621e+005,-1.38422369935400e+001,-3.66060196775254e+000

2.67228134217075e+005,-1.38422610090823e+001,-3.71170105423373e+000

2.70958499956006e+005,-1.38422857000349e+001,-3.76351341429650e+000

2.74740939660078e+005,-1.38423110853997e+001,-3.81604900303398e+000

2.78576180254757e+005,-1.38423371847140e+001,-3.86931791442853e+000

2.82464958813007e+005,-1.38423640180649e+001,-3.92333038328799e+000

2.86408022696948e+005,-1.38423916061052e+001,-3.97809678720737e+000

2.90406129701488e+005,-1.38424199700693e+001,-4.03362764855854e+000

2.94460048199957e+005,-1.38424491317894e+001,-4.08993363650760e+000

2.98570557291775e+005,-1.38424791137127e+001,-4.14702556906062e+000

3.02738446952187e+005,-1.38425099389185e+001,-4.20491441513572e+000

3.06964518184081e+005,-1.38425416311361e+001,-4.26361129666693e+000

3.11249583171928e+005,-1.38425742147629e+001,-4.32312749073502e+000

3.15594465437872e+005,-1.38426077148839e+001,-4.38347443172866e+000

3.19999999999997e+005,-1.38426421572904e+001,-4.44466371353509e+000

3.24467033532806e+005,-1.38426775685004e+001,-4.50670709176222e+000

3.28996424529938e+005,-1.38427139757787e+001,-4.56961648599033e+000

3.33589043469155e+005,-1.38427514071585e+001,-4.63340398205590e+000

3.38245772979638e+005,-1.38427898914627e+001,-4.69808183436578e+000

3.42967508011610e+005,-1.38428294583261e+001,-4.76366246824520e+000

3.47755156008335e+005,-1.38428701382189e+001,-4.83015848231700e+000

3.52609637080511e+005,-1.38429119624698e+001,-4.89758265091417e+000

3.57531884183106e+005,-1.38429549632900e+001,-4.96594792652581e+000

3.62522843294651e+005,-1.38429991737992e+001,-5.03526744227682e+000

3.67583473599047e+005,-1.38430446280500e+001,-5.10555451444217e+000

3.72714747669902e+005,-1.38430913610551e+001,-5.17682264499581e+000

3.77917651657445e+005,-1.38431394088141e+001,-5.24908552419400e+000

3.83193185478053e+005,-1.38431888083414e+001,-5.32235703319635e+000

3.88542363006410e+005,-1.38432395976950e+001,-5.39665124672093e+000

3.93966212270369e+005,-1.38432918160061e+001,-5.47198243573723e+000

3.99465775648511e+005,-1.38433455035090e+001,-5.54836507019586e+000

4.05042110070485e+005,-1.38434007015729e+001,-5.62581382179669e+000

4.10696287220124e+005,-1.38434574527335e+001,-5.70434356679377e+000

4.16429393741414e+005,-1.38435158007261e+001,-5.78396938884061e+000

4.22242531447321e+005,-1.38435757905200e+001,-5.86470658187343e+000

4.28136817531551e+005,-1.38436374683527e+001,-5.94657065303421e+000

4.34113384783250e+005,-1.38437008817664e+001,-6.02957732563524e+000

4.40173381804713e+005,-1.38437660796446e+001,-6.11374254216357e+000

4.46317973232124e+005,-1.38438331122501e+001,-6.19908246732587e+000

4.52548339959385e+005,-1.38439020312643e+001,-6.28561349113748e+000

4.58865679365059e+005,-1.38439728898271e+001,-6.37335223205242e+000

4.65271205542494e+005,-1.38440457425785e+001,-6.46231554013631e+000

4.71766149533147e+005,-1.38441206457006e+001,-6.55252050028361e+000

4.78351759563174e+005,-1.38441976569621e+001,-6.64398443547883e+000

4.85029301283321e+005,-1.38442768357626e+001,-6.73672491010250e+000

4.91800058012158e+005,-1.38443582431792e+001,-6.83075973328240e+000

4.98665330982714e+005,-1.38444419420138e+001,-6.92610696229068e+000

5.05626439592555e+005,-1.38445279968424e+001,-7.02278490598789e+000

5.12684721657352e+005,-1.38446164740650e+001,-7.12081212831411e+000

5.19841533667984e+005,-1.38447074419580e+001,-7.22020745182733e+000

5.27098251051240e+005,-1.38448009707268e+001,-7.32098996129134e+000

5.34456268434150e+005,-1.38448971325609e+001,-7.42317900731149e+000

5.41916999912011e+005,-1.38449960016903e+001,-7.52679421002070e+000

