Freq.,VOut,OutRef

1.00000000000000e+004,-1.10694868345143e+000,-1.82238256206140e-001

1.01395947979003e+004,-1.10694858275013e+000,-1.84782208512687e-001

1.02811382665607e+004,-1.10694847921795e+000,-1.87361673113434e-001

1.04246576084112e+004,-1.10694837277492e+000,-1.89977145745987e-001

1.05701804056138e+004,-1.10694826333950e+000,-1.92629129063404e-001

1.07177346253629e+004,-1.10694815082730e+000,-1.95318132740014e-001

1.08673486252606e+004,-1.10694803515212e+000,-1.98044673560887e-001

1.10190511587661e+004,-1.10694791622479e+000,-2.00809275528674e-001

1.11728713807222e+004,-1.10694779395402e+000,-2.03612469958794e-001

1.13288388529580e+004,-1.10694766824564e+000,-2.06454795585514e-001

1.14869835499703e+004,-1.10694753900324e+000,-2.09336798660898e-001

1.16473358646846e+004,-1.10694740612740e+000,-2.12259033064621e-001

1.18099266142953e+004,-1.10694726951583e+000,-2.15222060408959e-001

1.19747870461893e+004,-1.10694712906368e+000,-2.18226450143536e-001

1.21419488439505e+004,-1.10694698466289e+000,-2.21272779669587e-001

1.23114441334492e+004,-1.10694683620238e+000,-2.24361634448399e-001

1.24833054890161e+004,-1.10694668356824e+000,-2.27493608111991e-001

1.26575659397028e+004,-1.10694652664295e+000,-2.30669302582361e-001

1.28342589756290e+004,-1.10694636530590e+000,-2.33889328182562e-001

1.30134185544193e+004,-1.10694619943308e+000,-2.37154303755298e-001

1.31950791077289e+004,-1.10694602889692e+000,-2.40464856783482e-001

1.33792755478611e+004,-1.10694585356644e+000,-2.43821623507609e-001

1.35660432744767e+004,-1.10694567330669e+000,-2.47225249052252e-001

1.37554181813974e+004,-1.10694548797930e+000,-2.50676387545069e-001

1.39474366635040e+004,-1.10694529744161e+000,-2.54175702247905e-001

1.41421356237309e+004,-1.10694510154719e+000,-2.57723865679985e-001

1.43395524801583e+004,-1.10694490014558e+000,-2.61321559748198e-001

1.45397251732031e+004,-1.10694469308174e+000,-2.64969475881161e-001

1.47426921729110e+004,-1.10694448019666e+000,-2.68668315156768e-001

1.49484924863494e+004,-1.10694426132657e+000,-2.72418788441956e-001

1.51571656651040e+004,-1.10694403630320e+000,-2.76221616526673e-001

1.53687518128801e+004,-1.10694380495370e+000,-2.80077530262033e-001

1.55832915932100e+004,-1.10694356710018e+000,-2.83987270702307e-001

1.58008262372675e+004,-1.10694332255963e+000,-2.87951589248090e-001

1.60213975517924e+004,-1.10694307114430e+000,-2.91971247786641e-001

1.62450479271247e+004,-1.10694281266069e+000,-2.96047018844153e-001

1.64718203453514e+004,-1.10694254691021e+000,-3.00179685728906e-001

1.67017583885674e+004,-1.10694227368859e+000,-3.04370042684629e-001

1.69349062472505e+004,-1.10694199278568e+000,-3.08618895043695e-001

1.71713087287550e+004,-1.10694170398565e+000,-3.12927059379116e-001

1.74110112659224e+004,-1.10694140706639e+000,-3.17295363664417e-001

1.76540599258131e+004,-1.10694110179968e+000,-3.21724647431396e-001

1.79005014185594e+004,-1.10694078795087e+000,-3.26215761931374e-001

1.81503831063432e+004,-1.10694046527869e+000,-3.30769570298774e-001

1.84037530124975e+004,-1.10694013353509e+000,-3.35386947718253e-001

1.86606598307361e+004,-1.10693979246499e+000,-3.40068781591617e-001

1.89211529345119e+004,-1.10693944180628e+000,-3.44815971708398e-001

1.91852823865052e+004,-1.10693908128932e+000,-3.49629430420020e-001

1.94530989482457e+004,-1.10693871063698e+000,-3.54510082813903e-001

1.97246540898671e+004,-1.10693832956431e+000,-3.59458866891596e-001

1.99999999999999e+004,-1.10693793777834e+000,-3.64476733749525e-001

2.02791895958005e+004,-1.10693753497805e+000,-3.69564647760553e-001

2.05622765331213e+004,-1.10693712085362e+000,-3.74723586762056e-001

2.08493152168224e+004,-1.10693669508677e+000,-3.79954542240364e-001

2.11403608112276e+004,-1.10693625735013e+000,-3.85258519524545e-001

2.14354692507258e+004,-1.10693580730728e+000,-3.90636537977188e-001

2.17346972505211e+004,-1.10693534461217e+000,-3.96089631191636e-001

2.20381023175322e+004,-1.10693486890922e+000,-4.01618847190170e-001

2.23457427614443e+004,-1.10693437983268e+000,-4.07225248626216e-001

2.26576777059159e+004,-1.10693387700657e+000,-4.12909912987768e-001

2.29739670999406e+004,-1.10693336004436e+000,-4.18673932804954e-001

2.32946717293690e+004,-1.10693282854864e+000,-4.24518415859795e-001

2.36198532285905e+004,-1.10693228211088e+000,-4.30444485399017e-001

2.39495740923785e+004,-1.10693172031096e+000,-4.36453280350566e-001

2.42838976879009e+004,-1.10693114271704e+000,-4.42545955542450e-001

2.46228882668982e+004,-1.10693054888508e+000,-4.48723681924078e-001

2.49666109780322e+004,-1.10692993835862e+000,-4.54987646791716e-001

2.53151318794055e+004,-1.10692931066838e+000,-4.61339054016613e-001

2.56685179512580e+004,-1.10692866533166e+000,-4.67779124277861e-001

2.60268371088386e+004,-1.10692800185261e+000,-4.74309095293777e-001

2.63901582154578e+004,-1.10692731972103e+000,-4.80930222063672e-001

2.67585510957221e+004,-1.10692661841266e+000,-4.87643777106010e-001

2.71320865489533e+004,-1.10692589738840e+000,-4.94451050704612e-001

2.75108363627948e+004,-1.10692515609384e+000,-5.01353351157749e-001

2.78948733270080e+004,-1.10692439395934e+000,-5.08352005025853e-001

2.82842712474618e+004,-1.10692361039883e+000,-5.15448357391648e-001

2.86791049603164e+004,-1.10692280481020e+000,-5.22643772113659e-001

2.90794503464061e+004,-1.10692197657403e+000,-5.29939632092636e-001

2.94853843458219e+004,-1.10692112505376e+000,-5.37337339534621e-001

2.98969849726987e+004,-1.10692024959470e+000,-5.44838316222691e-001

3.03143313302078e+004,-1.10691934952402e+000,-5.52444003787560e-001

3.07375036257601e+004,-1.10691842414974e+000,-5.60155863987699e-001

3.11665831864199e+004,-1.10691747276061e+000,-5.67975378988290e-001

3.16016524745350e+004,-1.10691649462516e+000,-5.75904051647830e-001

3.20427951035848e+004,-1.10691548899174e+000,-5.83943405804265e-001

3.24900958542493e+004,-1.10691445508707e+000,-5.92094986572473e-001

3.29436406907028e+004,-1.10691339211665e+000,-6.00360360636261e-001

3.34035167771346e+004,-1.10691229926315e+000,-6.08741116554325e-001

3.38698124945009e+004,-1.10691117568672e+000,-6.17238865061391e-001

3.43426174575100e+004,-1.10691002052359e+000,-6.25855239381559e-001

3.48220225318448e+004,-1.10690883288585e+000,-6.34591895539670e-001

3.53081198516260e+004,-1.10690761186053e+000,-6.43450512681988e-001

3.58010028371187e+004,-1.10690635650917e+000,-6.52432793396429e-001

3.63007662126863e+004,-1.10690506586673e+000,-6.61540464042546e-001

3.68075060249948e+004,-1.10690373894118e+000,-6.70775275082142e-001

3.73213196614721e+004,-1.10690237471255e+000,-6.80139001416077e-001

3.78423058690237e+004,-1.10690097213225e+000,-6.89633442724976e-001

3.83705647730104e+004,-1.10689953012214e+000,-6.99260423816796e-001

3.89061978964912e+004,-1.10689804757385e+000,-7.09021794976557e-001

3.94493081797342e+004,-1.10689652334783e+000,-7.18919432322287e-001

3.99999999999998e+004,-1.10689495627241e+000,-7.28955238166472e-001

4.05583791916010e+004,-1.10689334514317e+000,-7.39131141380786e-001

4.11245530662425e+004,-1.10689168872174e+000,-7.49449097768137e-001

4.16986304336447e+004,-1.10688998573483e+000,-7.59911090438624e-001

4.22807216224550e+004,-1.10688823487362e+000,-7.70519130189844e-001

4.28709385014515e+004,-1.10688643479226e+000,-7.81275255895131e-001

4.34693945010421e+004,-1.10688458410712e+000,-7.92181534895483e-001

4.40762046350642e+004,-1.10688268139592e+000,-8.03240063394819e-001

4.46914855228886e+004,-1.10688072519602e+000,-8.14452966867519e-001

4.53153554118317e+004,-1.10687871400400e+000,-8.25822400462955e-001

4.59479341998812e+004,-1.10687664627403e+000,-8.37350549422700e-001

4.65893434587380e+004,-1.10687452041676e+000,-8.49039629500282e-001

4.72397064571810e+004,-1.10687233479839e+000,-8.60891887386560e-001

4.78991481847569e+004,-1.10687008773907e+000,-8.72909601142723e-001

4.85677953758016e+004,-1.10686777751167e+000,-8.85095080638718e-001

4.92457765337964e+004,-1.10686540234071e+000,-8.97450667996338e-001

4.99332219560642e+004,-1.10686296040056e+000,-9.09978738041869e-001

5.06302637588109e+004,-1.10686044981459e+000,-9.22681698760501e-001

5.13370359025159e+004,-1.10685786865317e+000,-9.35561991761983e-001

5.20536742176771e+004,-1.10685521493256e+000,-9.48622092748486e-001

5.27803164309155e+004,-1.10685248661325e+000,-9.61864511992257e-001

5.35171021914442e+004,-1.10684968159845e+000,-9.75291794817614e-001

5.42641730979066e+004,-1.10684679773233e+000,-9.88906522091666e-001

5.50216727255895e+004,-1.10684383279863e+000,-1.00271131072009e+000

5.57897466540159e+004,-1.10684078451874e+000,-1.01670881415095e+000

5.65685424949235e+004,-1.10683765054998e+000,-1.03090172288590e+000

5.73582099206328e+004,-1.10683442848385e+000,-1.04529276499710e+000

5.81589006928121e+004,-1.10683111584425e+000,-1.05988470665257e+000

5.89707686916437e+004,-1.10682771008541e+000,-1.07468035264880e+000

5.97939699453972e+004,-1.10682420859012e+000,-1.08968254694976e+000

6.06286626604156e+004,-1.10682060866752e+000,-1.10489417323586e+000

6.14750072515201e+004,-1.10681690755117e+000,-1.12031815545729e+000

6.23331663728396e+004,-1.10681310239697e+000,-1.13595745839756e+000

6.32033049490698e+004,-1.10680919028085e+000,-1.15181508824470e+000

6.40855902071694e+004,-1.10680516819656e+000,-1.16789409316906e+000

6.49801917084985e+004,-1.10680103305341e+000,-1.18419756391080e+000

6.58872813814055e+004,-1.10679678167388e+000,-1.20072863437468e+000

6.68070335542691e+004,-1.10679241079121e+000,-1.21749048223322e+000

6.77396249890018e+004,-1.10678791704670e+000,-1.23448632953939e+000

6.86852349150199e+004,-1.10678329698750e+000,-1.25171944334564e+000

6.96440450636895e+004,-1.10677854706363e+000,-1.26919313633428e+000

7.06162397032520e+004,-1.10677366362537e+000,-1.28691076745498e+000

7.16020056742374e+004,-1.10676864292054e+000,-1.30487574257116e+000

7.26015324253724e+004,-1.10676348109152e+000,-1.32309151511691e+000

7.36150120499896e+004,-1.10675817417222e+000,-1.34156158676173e+000

7.46426393229441e+004,-1.10675271808531e+000,-1.36028950808431e+000

7.56846117380472e+004,-1.10674710863879e+000,-1.37927887925773e+000

7.67411295460207e+004,-1.10674134152299e+000,-1.39853335074201e+000

7.78123957929823e+004,-1.10673541230709e+000,-1.41805662398816e+000

7.88986163594682e+004,-1.10672931643597e+000,-1.43785245215051e+000

7.99999999999995e+004,-1.10672304922636e+000,-1.45792464081101e+000

8.11167583832018e+004,-1.10671660586358e+000,-1.47827704871131e+000

8.22491061324848e+004,-1.10670998139772e+000,-1.49891358849740e+000

8.33972608672892e+004,-1.10670317073977e+000,-1.51983822747313e+000

8.45614432449099e+004,-1.10669616865787e+000,-1.54105498836513e+000

8.57418770029029e+004,-1.10668896977320e+000,-1.56256795009801e+000

8.69387890020841e+004,-1.10668156855583e+000,-1.58438124858128e+000

8.81524092701283e+004,-1.10667395932060e+000,-1.60649907750549e+000

8.93829710457770e+004,-1.10666613622274e+000,-1.62892568915210e+000

9.06307108236633e+004,-1.10665809325319e+000,-1.65166539521315e+000

9.18958683997622e+004,-1.10664982423433e+000,-1.67472256762198e+000

9.31786869174758e+004,-1.10664132281493e+000,-1.69810163939756e+000

9.44794129143618e+004,-1.10663258246559e+000,-1.72180710549810e+000

9.57982963695136e+004,-1.10662359647339e+000,-1.74584352368996e+000

9.71355907516031e+004,-1.10661435793715e+000,-1.77021551542524e+000

9.84915530675926e+004,-1.10660485976172e+000,-1.79492776673491e+000

9.98664439121282e+004,-1.10659509465289e+000,-1.81998502913177e+000

1.01260527517622e+005,-1.10658505511170e+000,-1.84539212052796e+000

1.02674071805032e+005,-1.10657473342857e+000,-1.87115392616550e+000

1.04107348435354e+005,-1.10656412167763e+000,-1.89727539955800e+000

1.05560632861831e+005,-1.10655321171044e+000,-1.92376156344810e+000

1.07034204382888e+005,-1.10654199514985e+000,-1.95061751077700e+000

1.08528346195813e+005,-1.10653046338369e+000,-1.97784840566732e+000

1.10043345451179e+005,-1.10651860755794e+000,-2.00545948442123e+000

1.11579493308032e+005,-1.10650641857022e+000,-2.03345605653145e+000

1.13137084989847e+005,-1.10649388706263e+000,-2.06184350570713e+000

1.14716419841265e+005,-1.10648100341473e+000,-2.09062729091408e+000

1.16317801385624e+005,-1.10646775773605e+000,-2.11981294742963e+000

1.17941537383287e+005,-1.10645413985874e+000,-2.14940608791203e+000

1.19587939890794e+005,-1.10644013932957e+000,-2.17941240348629e+000

1.21257325320831e+005,-1.10642574540200e+000,-2.20983766484392e+000

1.22950014503040e+005,-1.10641094702818e+000,-2.24068772335850e+000

1.24666332745679e+005,-1.10639573285015e+000,-2.27196851221824e+000

1.26406609898139e+005,-1.10638009119150e+000,-2.30368604757247e+000

1.28171180414339e+005,-1.10636401004821e+000,-2.33584642969676e+000

1.29960383416997e+005,-1.10634747707969e+000,-2.36845584417239e+000

1.31774562762811e+005,-1.10633047959921e+000,-2.40152056308386e+000

1.33614067108538e+005,-1.10631300456420e+000,-2.43504694623382e+000

1.35479249978003e+005,-1.10629503856648e+000,-2.46904144237302e+000

1.37370469830040e+005,-1.10627656782191e+000,-2.50351059044993e+000

1.39288090127379e+005,-1.10625757815976e+000,-2.53846102087786e+000

1.41232479406504e+005,-1.10623805501224e+000,-2.57389945681824e+000

1.43204011348474e+005,-1.10621798340296e+000,-2.60983271548491e+000

1.45203064850745e+005,-1.10619734793596e+000,-2.64626770946418e+000

1.47230024099979e+005,-1.10617613278360e+000,-2.68321144805630e+000

1.49285278645888e+005,-1.10615432167476e+000,-2.72067103863380e+000

1.51369223476094e+005,-1.10613189788237e+000,-2.75865368802030e+000

1.53482259092041e+005,-1.10610884421060e+000,-2.79716670388917e+000

1.55624791585964e+005,-1.10608514298186e+000,-2.83621749618165e+000

1.57797232718936e+005,-1.10606077602334e+000,-2.87581357854520e+000

1.59999999999999e+005,-1.10603572465321e+000,-2.91596256979209e+000

1.62233516766403e+005,-1.10600996966635e+000,-2.95667219538022e+000

1.64498212264969e+005,-1.10598349131971e+000,-2.99795028891382e+000

1.66794521734578e+005,-1.10595626931753e+000,-3.03980479366502e+000

1.69122886489819e+005,-1.10592828279557e+000,-3.08224376411983e+000

1.71483754005805e+005,-1.10589951030568e+000,-3.12527536754294e+000

1.73877578004168e+005,-1.10586992979911e+000,-3.16890788556777e+000

1.76304818540256e+005,-1.10583951861010e+000,-3.21314971580736e+000

1.78765942091554e+005,-1.10580825343850e+000,-3.25800937348965e+000

1.81261421647326e+005,-1.10577611033211e+000,-3.30349549311583e+000

1.83791736799524e+005,-1.10574306466870e+000,-3.34961683014171e+000

1.86357373834951e+005,-1.10570909113705e+000,-3.39638226268547e+000

1.88958825828723e+005,-1.10567416371810e+000,-3.44380079325706e+000

1.91596592739027e+005,-1.10563825566501e+000,-3.49188155051537e+000

1.94271181503206e+005,-1.10560133948299e+000,-3.54063379104872e+000

1.96983106135185e+005,-1.10556338690865e+000,-3.59006690118177e+000

1.99732887824256e+005,-1.10552436888837e+000,-3.64019039880890e+000

2.02521055035243e+005,-1.10548425555655e+000,-3.69101393525392e+000

2.05348143610063e+005,-1.10544301621290e+000,-3.74254729715619e+000

2.08214696870707e+005,-1.10540061929945e+000,-3.79480040838438e+000

2.11121265723661e+005,-1.10535703237652e+000,-3.84778333197858e+000

2.14068408765776e+005,-1.10531222209843e+000,-3.90150627211981e+000

2.17056692391625e+005,-1.10526615418824e+000,-3.95597957612865e+000

2.20086690902357e+005,-1.10521879341206e+000,-4.01121373649230e+000

2.23158986616063e+005,-1.10517010355232e+000,-4.06721939292266e+000

2.26274169979693e+005,-1.10512004738078e+000,-4.12400733444244e+000

2.29432839682530e+005,-1.10506858663030e+000,-4.18158850150327e+000

2.32635602771247e+005,-1.10501568196622e+000,-4.23997398813406e+000

2.35883074766574e+005,-1.10496129295673e+000,-4.29917504412128e+000

2.39175879781588e+005,-1.10490537804265e+000,-4.35920307722068e+000

2.42514650641661e+005,-1.10484789450609e+000,-4.42006965540193e+000

2.45900029006080e+005,-1.10478879843856e+000,-4.48178650912581e+000

2.49332665491357e+005,-1.10472804470811e+000,-4.54436553365542e+000

2.52813219796278e+005,-1.10466558692536e+000,-4.60781879140107e+000

2.56342360828676e+005,-1.10460137740902e+000,-4.67215851430000e+000

2.59920766833993e+005,-1.10453536715016e+000,-4.73739710623103e+000

2.63549125525621e+005,-1.10446750577571e+000,-4.80354714546506e+000

2.67228134217075e+005,-1.10439774151068e+000,-4.87062138715245e+000

2.70958499956006e+005,-1.10432602113979e+000,-4.93863276584623e+000

2.74740939660078e+005,-1.10425228996778e+000,-5.00759439806345e+000

2.78576180254757e+005,-1.10417649177861e+000,-5.07751958488531e+000

2.82464958813007e+005,-1.10409856879383e+000,-5.14842181459478e+000

2.86408022696948e+005,-1.10401846162956e+000,-5.22031476535444e+000

2.90406129701488e+005,-1.10393610925251e+000,-5.29321230792469e+000

2.94460048199957e+005,-1.10385144893469e+000,-5.36712850842194e+000

2.98570557291775e+005,-1.10376441620704e+000,-5.44207763111858e+000

3.02738446952187e+005,-1.10367494481175e+000,-5.51807414128556e+000

3.06964518184081e+005,-1.10358296665322e+000,-5.59513270807725e+000

3.11249583171928e+005,-1.10348841174791e+000,-5.67326820746004e+000

3.15594465437872e+005,-1.10339120817285e+000,-5.75249572518526e+000

3.19999999999997e+005,-1.10329128201248e+000,-5.83283055980789e+000

3.24467033532806e+005,-1.10318855730454e+000,-5.91428822574985e+000

3.28996424529938e+005,-1.10308295598422e+000,-5.99688445641125e+000

3.33589043469155e+005,-1.10297439782680e+000,-6.08063520732868e+000

3.38245772979638e+005,-1.10286280038922e+000,-6.16555665938122e+000

3.42967508011610e+005,-1.10274807894954e+000,-6.25166522204692e+000

3.47755156008335e+005,-1.10263014644517e+000,-6.33897753670847e+000

3.52609637080511e+005,-1.10250891340945e+000,-6.42751048000978e+000

3.57531884183106e+005,-1.10238428790654e+000,-6.51728116726492e+000

3.62522843294651e+005,-1.10225617546457e+000,-6.60830695591939e+000

3.67583473599047e+005,-1.10212447900723e+000,-6.70060544906575e+000

3.72714747669902e+005,-1.10198909878332e+000,-6.79419449901323e+000

3.77917651657445e+005,-1.10184993229468e+000,-6.88909221091376e+000

3.83193185478053e+005,-1.10170687422233e+000,-6.98531694644432e+000

3.88542363006410e+005,-1.10155981635056e+000,-7.08288732754703e+000

3.93966212270369e+005,-1.10140864748916e+000,-7.18182224022865e+000

3.99465775648511e+005,-1.10125325339352e+000,-7.28214083841958e+000

4.05042110070485e+005,-1.10109351668310e+000,-7.38386254789379e+000

4.10696287220124e+005,-1.10092931675736e+000,-7.48700707025166e+000

4.16429393741414e+005,-1.10076052970988e+000,-7.59159438696586e+000

4.22242531447321e+005,-1.10058702824021e+000,-7.69764476349152e+000

4.28136817531551e+005,-1.10040868156355e+000,-7.80517875344285e+000

4.34113384783250e+005,-1.10022535531808e+000,-7.91421720283682e+000

4.40173381804713e+005,-1.10003691147032e+000,-8.02478125440458e+000

4.46317973232124e+005,-1.09984320821760e+000,-8.13689235197375e+000

4.52548339959385e+005,-1.09964409988863e+000,-8.25057224492088e+000

4.58865679365059e+005,-1.09943943684143e+000,-8.36584299269717e+000

4.65271205542494e+005,-1.09922906535876e+000,-8.48272696942753e+000

4.71766149533147e+005,-1.09901282754094e+000,-8.60124686858553e+000

4.78351759563174e+005,-1.09879056119635e+000,-8.72142570774526e+000

4.85029301283321e+005,-1.09856209972904e+000,-8.84328683341138e+000

4.91800058012158e+005,-1.09832727202369e+000,-8.96685392592985e+000

4.98665330982714e+005,-1.09808590232805e+000,-9.09215100447959e+000

5.05626439592555e+005,-1.09783781013224e+000,-9.21920243214844e+000

5.12684721657352e+005,-1.09758281004556e+000,-9.34803292109358e+000

5.19841533667984e+005,-1.09732071167028e+000,-9.47866753778920e+000

5.27098251051240e+005,-1.09705131947242e+000,-9.61113170836262e+000

5.34456268434150e+005,-1.09677443264980e+000,-9.74545122402134e+000

5.41916999912011e+005,-1.09648984499675e+000,-9.88165224657233e+000

