Freq.,VOut,OutRef

1.00000000000000e+004,-2.29013852484317e+001,-5.66550304715610e-002

1.01395947979003e+004,-2.29013852884671e+001,-5.74459051252101e-002

1.02811382665607e+004,-2.29013853296279e+001,-5.82478199741987e-002

1.04246576084112e+004,-2.29013853719458e+001,-5.90609291334691e-002

1.05701804056138e+004,-2.29013854154537e+001,-5.98853888675062e-002

1.07177346253629e+004,-2.29013854601844e+001,-6.07213576283215e-002

1.08673486252606e+004,-2.29013855061730e+001,-6.15689960704379e-002

1.10190511587661e+004,-2.29013855534544e+001,-6.24284671002098e-002

1.11728713807222e+004,-2.29013856020650e+001,-6.32999358935959e-002

1.13288388529580e+004,-2.29013856520423e+001,-6.41835699316998e-002

1.14869835499703e+004,-2.29013857034245e+001,-6.50795390361442e-002

1.16473358646846e+004,-2.29013857562514e+001,-6.59880153966284e-002

1.18099266142953e+004,-2.29013858105636e+001,-6.69091736077146e-002

1.19747870461893e+004,-2.29013858664025e+001,-6.78431907022476e-002

1.21419488439505e+004,-2.29013859238113e+001,-6.87902461823590e-002

1.23114441334492e+004,-2.29013859828340e+001,-6.97505220578264e-002

1.24833054890161e+004,-2.29013860435162e+001,-7.07242028766696e-002

1.26575659397028e+004,-2.29013861059044e+001,-7.17114757655509e-002

1.28342589756290e+004,-2.29013861700464e+001,-7.27125304625844e-002

1.30134185544193e+004,-2.29013862359919e+001,-7.37275593536144e-002

1.31950791077289e+004,-2.29013863037912e+001,-7.47567575114782e-002

1.33792755478611e+004,-2.29013863734966e+001,-7.58003227309757e-002

1.35660432744767e+004,-2.29013864451619e+001,-7.68584555672615e-002

1.37554181813974e+004,-2.29013865188418e+001,-7.79313593788147e-002

1.39474366635040e+004,-2.29013865945931e+001,-7.90192403586378e-002

1.41421356237309e+004,-2.29013866724741e+001,-8.01223075804913e-002

1.43395524801583e+004,-2.29013867525446e+001,-8.12407730351925e-002

1.45397251732031e+004,-2.29013868348663e+001,-8.23748516738503e-002

1.47426921729110e+004,-2.29013869195022e+001,-8.35247614483522e-002

1.49484924863494e+004,-2.29013870065178e+001,-8.46907233510724e-002

1.51571656651040e+004,-2.29013870959796e+001,-8.58729614626971e-002

1.53687518128801e+004,-2.29013871879564e+001,-8.70717029902719e-002

1.55832915932100e+004,-2.29013872825192e+001,-8.82871783101231e-002

1.58008262372675e+004,-2.29013873797403e+001,-8.95196210195001e-002

1.60213975517924e+004,-2.29013874796948e+001,-9.07692679709790e-002

1.62450479271247e+004,-2.29013875824595e+001,-9.20363593270733e-002

1.64718203453514e+004,-2.29013876881132e+001,-9.33211386025092e-002

1.67017583885674e+004,-2.29013877967372e+001,-9.46238527106675e-002

1.69349062472505e+004,-2.29013879084151e+001,-9.59447520108497e-002

1.71713087287550e+004,-2.29013880232326e+001,-9.72840903593368e-002

1.74110112659224e+004,-2.29013881412782e+001,-9.86421251529678e-002

1.76540599258131e+004,-2.29013882626423e+001,-1.00019117385946e-001

1.79005014185594e+004,-2.29013883874186e+001,-1.01415331690882e-001

1.81503831063432e+004,-2.29013885157028e+001,-1.02831036399110e-001

1.84037530124975e+004,-2.29013886475935e+001,-1.04266503583794e-001

1.86606598307361e+004,-2.29013887831922e+001,-1.05722009119099e-001

1.89211529345119e+004,-2.29013889226030e+001,-1.07197832728463e-001

1.91852823865052e+004,-2.29013890659332e+001,-1.08694258041182e-001

1.94530989482457e+004,-2.29013892132929e+001,-1.10211572643770e-001

1.97246540898671e+004,-2.29013893647956e+001,-1.11750068138704e-001

1.99999999999999e+004,-2.29013895205575e+001,-1.13310040200674e-001

2.02791895958005e+004,-2.29013896806985e+001,-1.14891788628681e-001

2.05622765331213e+004,-2.29013898453417e+001,-1.16495617408007e-001

2.08493152168224e+004,-2.29013900146136e+001,-1.18121834767656e-001

2.11403608112276e+004,-2.29013901886444e+001,-1.19770753239736e-001

2.14354692507258e+004,-2.29013903675678e+001,-1.21442689718590e-001

2.17346972505211e+004,-2.29013905515215e+001,-1.23137965520051e-001

2.20381023175322e+004,-2.29013907406467e+001,-1.24856906449842e-001

2.23457427614443e+004,-2.29013909350891e+001,-1.26599842857165e-001

2.26576777059159e+004,-2.29013911349979e+001,-1.28367109705204e-001

2.29739670999406e+004,-2.29013913405271e+001,-1.30159046631842e-001

2.32946717293690e+004,-2.29013915518342e+001,-1.31975998018286e-001

2.36198532285905e+004,-2.29013917690821e+001,-1.33818313049711e-001

2.39495740923785e+004,-2.29013919924376e+001,-1.35686345787521e-001

2.42838976879009e+004,-2.29013922220725e+001,-1.37580455236038e-001

2.46228882668982e+004,-2.29013924581633e+001,-1.39501005409069e-001

2.49666109780322e+004,-2.29013927008916e+001,-1.41448365403137e-001

2.53151318794055e+004,-2.29013929504437e+001,-1.43422909468408e-001

2.56685179512580e+004,-2.29013932070118e+001,-1.45425017075081e-001

2.60268371088386e+004,-2.29013934707929e+001,-1.47455072995774e-001

2.63901582154578e+004,-2.29013937419899e+001,-1.49513467370041e-001

2.67585510957221e+004,-2.29013940208114e+001,-1.51600595784458e-001

2.71320865489533e+004,-2.29013943074716e+001,-1.53716859349008e-001

2.75108363627948e+004,-2.29013946021906e+001,-1.55862664772945e-001

2.78948733270080e+004,-2.29013949051956e+001,-1.58038424439255e-001

2.82842712474618e+004,-2.29013952167191e+001,-1.60244556492673e-001

2.86791049603164e+004,-2.29013955370007e+001,-1.62481484910549e-001

2.90794503464061e+004,-2.29013958662866e+001,-1.64749639590528e-001

2.94853843458219e+004,-2.29013962048301e+001,-1.67049456430928e-001

2.98969849726987e+004,-2.29013965528911e+001,-1.69381377416061e-001

3.03143313302078e+004,-2.29013969107374e+001,-1.71745850697997e-001

3.07375036257601e+004,-2.29013972786443e+001,-1.74143330684103e-001

3.11665831864199e+004,-2.29013976568942e+001,-1.76574278128173e-001

3.16016524745350e+004,-2.29013980457784e+001,-1.79039160211166e-001

3.20427951035848e+004,-2.29013984455954e+001,-1.81538450639600e-001

3.24900958542493e+004,-2.29013988566527e+001,-1.84072629730619e-001

3.29436406907028e+004,-2.29013992792665e+001,-1.86642184505117e-001

3.34035167771346e+004,-2.29013997137615e+001,-1.89247608784206e-001

3.38698124945009e+004,-2.29014001604719e+001,-1.91889403281207e-001

3.43426174575100e+004,-2.29014006197408e+001,-1.94568075699459e-001

3.48220225318448e+004,-2.29014010919215e+001,-1.97284140828500e-001

3.53081198516260e+004,-2.29014015773769e+001,-2.00038120644576e-001

3.58010028371187e+004,-2.29014020764804e+001,-2.02830544408603e-001

3.63007662126863e+004,-2.29014025896155e+001,-2.05661948772391e-001

3.68075060249948e+004,-2.29014031171767e+001,-2.08532877875620e-001

3.73213196614721e+004,-2.29014036595696e+001,-2.11443883455992e-001

3.78423058690237e+004,-2.29014042172112e+001,-2.14395524950643e-001

3.83705647730104e+004,-2.29014047905302e+001,-2.17388369607566e-001

3.89061978964912e+004,-2.29014053799673e+001,-2.20422992592619e-001

3.94493081797342e+004,-2.29014059859756e+001,-2.23499977099685e-001

3.99999999999998e+004,-2.29014066090211e+001,-2.26619914462805e-001

4.05583791916010e+004,-2.29014072495827e+001,-2.29783404271570e-001

4.11245530662425e+004,-2.29014079081527e+001,-2.32991054485116e-001

4.16986304336447e+004,-2.29014085852377e+001,-2.36243481547314e-001

4.22807216224550e+004,-2.29014092813580e+001,-2.39541310508054e-001

4.28709385014515e+004,-2.29014099970488e+001,-2.42885175142303e-001

4.34693945010421e+004,-2.29014107328602e+001,-2.46275718071576e-001

4.40762046350642e+004,-2.29014114893580e+001,-2.49713590886238e-001

4.46914855228886e+004,-2.29014122671238e+001,-2.53199454272714e-001

4.53153554118317e+004,-2.29014130667553e+001,-2.56733978141094e-001

4.59479341998812e+004,-2.29014138888675e+001,-2.60317841750130e-001

4.65893434587380e+004,-2.29014147340922e+001,-2.63951733841681e-001

4.72397064571810e+004,-2.29014156030793e+001,-2.67636352769638e-001

4.78991481847569e+004,-2.29014164964966e+001,-2.71372406638919e-001

4.85677953758016e+004,-2.29014174150313e+001,-2.75160613434559e-001

4.92457765337964e+004,-2.29014183593892e+001,-2.79001701167441e-001

4.99332219560642e+004,-2.29014193302964e+001,-2.82896408006970e-001

5.06302637588109e+004,-2.29014203284994e+001,-2.86845482428059e-001

5.13370359025159e+004,-2.29014213547654e+001,-2.90849683353265e-001

5.20536742176771e+004,-2.29014224098835e+001,-2.94909780296293e-001

5.27803164309155e+004,-2.29014234946648e+001,-2.99026553514510e-001

5.35171021914442e+004,-2.29014246099431e+001,-3.03200794155415e-001

5.42641730979066e+004,-2.29014257565758e+001,-3.07433304409183e-001

5.50216727255895e+004,-2.29014269354446e+001,-3.11724897661955e-001

5.57897466540159e+004,-2.29014281474555e+001,-3.16076398656191e-001

5.65685424949235e+004,-2.29014293935403e+001,-3.20488643642928e-001

5.73582099206328e+004,-2.29014306746570e+001,-3.24962480548418e-001

5.81589006928121e+004,-2.29014319917904e+001,-3.29498769131485e-001

5.89707686916437e+004,-2.29014333459531e+001,-3.34098381154080e-001

5.97939699453972e+004,-2.29014347381861e+001,-3.38762200544031e-001

6.06286626604156e+004,-2.29014361695596e+001,-3.43491123568910e-001

6.14750072515201e+004,-2.29014376411740e+001,-3.48286059004335e-001

6.23331663728396e+004,-2.29014391541607e+001,-3.53147928311339e-001

6.32033049490698e+004,-2.29014407096826e+001,-3.58077665812845e-001

6.40855902071694e+004,-2.29014423089357e+001,-3.63076218871502e-001

6.49801917084985e+004,-2.29014439531494e+001,-3.68144548073682e-001

6.58872813814055e+004,-2.29014456435876e+001,-3.73283627413765e-001

6.68070335542691e+004,-2.29014473815498e+001,-3.78494444480279e-001

6.77396249890018e+004,-2.29014491683722e+001,-3.83778000644583e-001

6.86852349150199e+004,-2.29014510054282e+001,-3.89135311256783e-001

6.96440450636895e+004,-2.29014528941300e+001,-3.94567405838091e-001

7.06162397032520e+004,-2.29014548359297e+001,-4.00075328277480e-001

7.16020056742374e+004,-2.29014568323200e+001,-4.05660137035286e-001

7.26015324253724e+004,-2.29014588848356e+001,-4.11322905344037e-001

7.36150120499896e+004,-2.29014609950543e+001,-4.17064721416852e-001

7.46426393229441e+004,-2.29014631645982e+001,-4.22886688653832e-001

7.56846117380472e+004,-2.29014653951353e+001,-4.28789925855174e-001

7.67411295460207e+004,-2.29014676883803e+001,-4.34775567436269e-001

7.78123957929823e+004,-2.29014700460959e+001,-4.40844763645803e-001

7.88986163594682e+004,-2.29014724700946e+001,-4.46998680786360e-001

7.99999999999995e+004,-2.29014749622399e+001,-4.53238501437250e-001

8.11167583832018e+004,-2.29014775244476e+001,-4.59565424682519e-001

8.22491061324848e+004,-2.29014801586872e+001,-4.65980666342956e-001

8.33972608672892e+004,-2.29014828669837e+001,-4.72485459206202e-001

8.45614432449099e+004,-2.29014856514192e+001,-4.79081053265269e-001

8.57418770029029e+004,-2.29014885141341e+001,-4.85768715958901e-001

8.69387890020841e+004,-2.29014914573290e+001,-4.92549732414632e-001

8.81524092701283e+004,-2.29014944832664e+001,-4.99425405694482e-001

8.93829710457770e+004,-2.29014975942724e+001,-5.06397057047135e-001

9.06307108236633e+004,-2.29015007927385e+001,-5.13466026158797e-001

9.18958683997622e+004,-2.29015040811234e+001,-5.20633671413956e-001

9.31786869174758e+004,-2.29015074619549e+001,-5.27901370152898e-001

9.44794129143618e+004,-2.29015109378319e+001,-5.35270518938015e-001

9.57982963695136e+004,-2.29015145114265e+001,-5.42742533820899e-001

9.71355907516031e+004,-2.29015181854855e+001,-5.50318850615805e-001

9.84915530675926e+004,-2.29015219628332e+001,-5.58000925173057e-001

9.98664439121282e+004,-2.29015258463736e+001,-5.65790233659085e-001

1.01260527517622e+005,-2.29015298390916e+001,-5.73688272841771e-001

1.02674071805032e+005,-2.29015339440567e+001,-5.81696560374445e-001

1.04107348435354e+005,-2.29015381644240e+001,-5.89816635090917e-001

1.05560632861831e+005,-2.29015425034382e+001,-5.98050057296358e-001

1.07034204382888e+005,-2.29015469644343e+001,-6.06398409071030e-001

1.08528346195813e+005,-2.29015515508415e+001,-6.14863294571750e-001

1.10043345451179e+005,-2.29015562661855e+001,-6.23446340338863e-001

1.11579493308032e+005,-2.29015611140908e+001,-6.32149195611022e-001

1.13137084989847e+005,-2.29015660982839e+001,-6.40973532639226e-001

1.14716419841265e+005,-2.29015712225961e+001,-6.49921047008635e-001

1.16317801385624e+005,-2.29015764909664e+001,-6.58993457964177e-001

1.17941537383287e+005,-2.29015819074445e+001,-6.68192508739936e-001

1.19587939890794e+005,-2.29015874761939e+001,-6.77519966893247e-001

1.21257325320831e+005,-2.29015932014950e+001,-6.86977624645616e-001

1.22950014503040e+005,-2.29015990877488e+001,-6.96567299223666e-001

1.24666332745679e+005,-2.29016051394800e+001,-7.06290833209123e-001

1.26406609898139e+005,-2.29016113613400e+001,-7.16150094893977e-001

1.28171180414339e+005,-2.29016177581117e+001,-7.26146978635559e-001

1.29960383416997e+005,-2.29016243347118e+001,-7.36283405221406e-001

1.31774562762811e+005,-2.29016310961954e+001,-7.46561322238930e-001

1.33614067108538e+005,-2.29016380477599e+001,-7.56982704446536e-001

1.35479249978003e+005,-2.29016451947484e+001,-7.67549554153688e-001

1.37370469830040e+005,-2.29016525426546e+001,-7.78263901604319e-001

1.39288090127379e+005,-2.29016600971264e+001,-7.89127805365983e-001

1.41232479406504e+005,-2.29016678639703e+001,-8.00143352725950e-001

1.43204011348474e+005,-2.29016758491562e+001,-8.11312660088917e-001

1.45203064850745e+005,-2.29016840588217e+001,-8.22637873384615e-001

1.47230024099979e+005,-2.29016924992771e+001,-8.34121168478161e-001

1.49285278645888e+005,-2.29017011770099e+001,-8.45764751587015e-001

1.51369223476094e+005,-2.29017100986898e+001,-8.57570859705262e-001

1.53482259092041e+005,-2.29017192711742e+001,-8.69541761029997e-001

1.55624791585964e+005,-2.29017287015132e+001,-8.81679755397392e-001

1.57797232718936e+005,-2.29017383969550e+001,-8.93987174723638e-001

1.59999999999999e+005,-2.29017483649514e+001,-9.06466383450253e-001

1.62233516766403e+005,-2.29017586131637e+001,-9.19119778998908e-001

1.64498212264969e+005,-2.29017691494688e+001,-9.31949792227951e-001

1.66794521734578e+005,-2.29017799819645e+001,-9.44958887901370e-001

1.69122886489819e+005,-2.29017911189764e+001,-9.58149565158125e-001

1.71483754005805e+005,-2.29018025690643e+001,-9.71524357991441e-001

1.73877578004168e+005,-2.29018143410282e+001,-9.85085835735690e-001

1.76304818540256e+005,-2.29018264439157e+001,-9.98836603554260e-001

1.78765942091554e+005,-2.29018388870284e+001,-1.01277930294319e+000

1.81261421647326e+005,-2.29018516799295e+001,-1.02691661223317e+000

1.83791736799524e+005,-2.29018648324509e+001,-1.04125124710380e+000

1.86357373834951e+005,-2.29018783547007e+001,-1.05578596110230e+000

1.88958825828723e+005,-2.29018922570714e+001,-1.07052354617107e+000

1.91596592739027e+005,-2.29019065502469e+001,-1.08546683318277e+000

1.94271181503206e+005,-2.29019212452120e+001,-1.10061869247840e+000

1.96983106135185e+005,-2.29019363532598e+001,-1.11598203442104e+000

1.99732887824256e+005,-2.29019518860009e+001,-1.13155980994871e+000

2.02521055035243e+005,-2.29019678553721e+001,-1.14735501114010e+000

2.05348143610063e+005,-2.29019842736455e+001,-1.16337067178660e+000

2.08214696870707e+005,-2.29020011534383e+001,-1.17960986797238e+000

2.11121265723661e+005,-2.29020185077221e+001,-1.19607571866153e+000

2.14068408765776e+005,-2.29020363498329e+001,-1.21277138629479e+000

2.17056692391625e+005,-2.29020546934814e+001,-1.22970007739410e+000

2.20086690902357e+005,-2.29020735527639e+001,-1.24686504317363e+000

2.23158986616063e+005,-2.29020929421722e+001,-1.26426958016326e+000

2.26274169979693e+005,-2.29021128766057e+001,-1.28191703083598e+000

2.29432839682530e+005,-2.29021333713823e+001,-1.29981078424640e+000

2.32635602771247e+005,-2.29021544422503e+001,-1.31795427667865e+000

2.35883074766574e+005,-2.29021761054002e+001,-1.33635099230272e+000

2.39175879781588e+005,-2.29021983774778e+001,-1.35500446383669e+000

2.42514650641661e+005,-2.29022212755962e+001,-1.37391827322351e+000

2.45900029006080e+005,-2.29022448173494e+001,-1.39309605231375e+000

2.49332665491357e+005,-2.29022690208257e+001,-1.41254148355646e+000

2.52813219796278e+005,-2.29022939046214e+001,-1.43225830070368e+000

2.56342360828676e+005,-2.29023194878554e+001,-1.45225028952068e+000

2.59920766833993e+005,-2.29023457901836e+001,-1.47252128850803e+000

2.63549125525621e+005,-2.29023728318140e+001,-1.49307518963321e+000

2.67228134217075e+005,-2.29024006335222e+001,-1.51391593907146e+000

2.70958499956006e+005,-2.29024292166675e+001,-1.53504753795741e+000

2.74740939660078e+005,-2.29024586032091e+001,-1.55647404314758e+000

2.78576180254757e+005,-2.29024888157230e+001,-1.57819956799181e+000

2.82464958813007e+005,-2.29025198774192e+001,-1.60022828311647e+000

2.86408022696948e+005,-2.29025518121598e+001,-1.62256441721759e+000

2.90406129701488e+005,-2.29025846444767e+001,-1.64521225786561e+000

2.94460048199957e+005,-2.29026183995913e+001,-1.66817615232012e+000

2.98570557291775e+005,-2.29026531034329e+001,-1.69146050835610e+000

3.02738446952187e+005,-2.29026887826591e+001,-1.71506979510229e+000

3.06964518184081e+005,-2.29027254646762e+001,-1.73900854388947e+000

3.11249583171928e+005,-2.29027631776600e+001,-1.76328134911062e+000

3.15594465437872e+005,-2.29028019505774e+001,-1.78789286909387e+000

3.19999999999997e+005,-2.29028418132090e+001,-1.81284782698643e+000

3.24467033532806e+005,-2.29028827961712e+001,-1.83815101164988e+000

3.28996424529938e+005,-2.29029249309405e+001,-1.86380727856812e+000

3.33589043469155e+005,-2.29029682498767e+001,-1.88982155076986e+000

3.38245772979638e+005,-2.29030127862483e+001,-1.91619881975845e+000

3.42967508011610e+005,-2.29030585742579e+001,-1.94294414645922e+000

3.47755156008335e+005,-2.29031056490681e+001,-1.97006266217739e+000

3.52609637080511e+005,-2.29031540468288e+001,-1.99755956956871e+000

3.57531884183106e+005,-2.29032038047045e+001,-2.02544014362407e+000

3.62522843294651e+005,-2.29032549609030e+001,-2.05370973266656e+000

3.67583473599047e+005,-2.29033075547044e+001,-2.08237375936227e+000

3.72714747669902e+005,-2.29033616264915e+001,-2.11143772174521e+000

3.77917651657445e+005,-2.29034172177802e+001,-2.14090719425466e+000

3.83193185478053e+005,-2.29034743712519e+001,-2.17078782878724e+000

3.88542363006410e+005,-2.29035331307856e+001,-2.20108535576403e+000

3.93966212270369e+005,-2.29035935414915e+001,-2.23180558520915e+000

3.99465775648511e+005,-2.29036556497459e+001,-2.26295440784588e+000

4.05042110070485e+005,-2.29037195032260e+001,-2.29453779620565e+000

4.10696287220124e+005,-2.29037851509470e+001,-2.32656180575139e+000

4.16429393741414e+005,-2.29038526432993e+001,-2.35903257601713e+000

4.22242531447321e+005,-2.29039220320868e+001,-2.39195633176238e+000

4.28136817531551e+005,-2.29039933705665e+001,-2.42533938414062e+000

4.34113384783250e+005,-2.29040667134897e+001,-2.45918813188487e+000

4.40173381804713e+005,-2.29041421171431e+001,-2.49350906250739e+000

4.46317973232124e+005,-2.29042196393923e+001,-2.52830875351735e+000

4.52548339959385e+005,-2.29042993397254e+001,-2.56359387365159e+000

4.58865679365059e+005,-2.29043812792993e+001,-2.59937118412388e+000

4.65271205542494e+005,-2.29044655209854e+001,-2.63564753989024e+000

4.71766149533147e+005,-2.29045521294181e+001,-2.67242989092896e+000

4.78351759563174e+005,-2.29046411710440e+001,-2.70972528354061e+000

4.85029301283321e+005,-2.29047327141727e+001,-2.74754086166109e+000

4.91800058012158e+005,-2.29048268290283e+001,-2.78588386819552e+000

4.98665330982714e+005,-2.29049235878038e+001,-2.82476164636728e+000

5.05626439592555e+005,-2.29050230647154e+001,-2.86418164108398e+000

5.12684721657352e+005,-2.29051253360593e+001,-2.90415140032374e+000

5.19841533667984e+005,-2.29052304802699e+001,-2.94467857653612e+000

5.27098251051240e+005,-2.29053385779793e+001,-2.98577092806424e+000

5.34456268434150e+005,-2.29054497120788e+001,-3.02743632058183e+000

5.41916999912011e+005,-2.29055639677820e+001,-3.06968272855185e+000

