Freq.,VOut,OutRef

1.00000000000000e+004,-9.61432004883693e+000,-1.15620419324501e-002

1.01395947979003e+004,-9.61432004795239e+000,-1.17234420234591e-002

1.02811382665607e+004,-9.61432004704284e+000,-1.18870951768267e-002

1.04246576084112e+004,-9.61432004610816e+000,-1.20530328400404e-002

1.05701804056138e+004,-9.61432004514657e+000,-1.22212869111149e-002

1.07177346253629e+004,-9.61432004415821e+000,-1.23918897196622e-002

1.08673486252606e+004,-9.61432004314195e+000,-1.25648740553693e-002

1.10190511587661e+004,-9.61432004209760e+000,-1.27402731594798e-002

1.11728713807222e+004,-9.61432004102345e+000,-1.29181207465895e-002

1.13288388529580e+004,-9.61432003991934e+000,-1.30984509920119e-002

1.14869835499703e+004,-9.61432003878386e+000,-1.32812985560501e-002

1.16473358646846e+004,-9.61432003761676e+000,-1.34666985751912e-002

1.18099266142953e+004,-9.61432003641685e+000,-1.36546866818637e-002

1.19747870461893e+004,-9.61432003518287e+000,-1.38452990071576e-002

1.21419488439505e+004,-9.61432003391446e+000,-1.40385721796978e-002

1.23114441334492e+004,-9.61432003261049e+000,-1.42345433444382e-002

1.24833054890161e+004,-9.61432003126979e+000,-1.44332501651894e-002

1.26575659397028e+004,-9.61432002989120e+000,-1.46347308312191e-002

1.28342589756290e+004,-9.61432002847431e+000,-1.48390240598105e-002

1.30134185544193e+004,-9.61432002701683e+000,-1.50461691202198e-002

1.31950791077289e+004,-9.61432002551892e+000,-1.52562058144502e-002

1.33792755478611e+004,-9.61432002397873e+000,-1.54691745130687e-002

1.35660432744767e+004,-9.61432002239542e+000,-1.56851161425610e-002

1.37554181813974e+004,-9.61432002076734e+000,-1.59040722067336e-002

1.39474366635040e+004,-9.61432001909404e+000,-1.61260847801152e-002

1.41421356237309e+004,-9.61432001737277e+000,-1.63511965396752e-002

1.43395524801583e+004,-9.61432001560367e+000,-1.65794507384041e-002

1.45397251732031e+004,-9.61432001378498e+000,-1.68108912463579e-002

1.47426921729110e+004,-9.61432001191517e+000,-1.70455625435788e-002

1.49484924863494e+004,-9.61432000999240e+000,-1.72835097323876e-002

1.51571656651040e+004,-9.61432000801573e+000,-1.75247785393321e-002

1.53687518128801e+004,-9.61432000598320e+000,-1.77694153352447e-002

1.55832915932100e+004,-9.61432000389433e+000,-1.80174671284899e-002

1.58008262372675e+004,-9.61432000174598e+000,-1.82689816007317e-002

1.60213975517924e+004,-9.61431999953749e+000,-1.85240070825497e-002

1.62450479271247e+004,-9.61431999726721e+000,-1.87825925855303e-002

1.64718203453514e+004,-9.61431999493283e+000,-1.90447878095308e-002

1.67017583885674e+004,-9.61431999253257e+000,-1.93106431441441e-002

1.69349062472505e+004,-9.61431999006512e+000,-1.95802096792086e-002

1.71713087287550e+004,-9.61431998752784e+000,-1.98535392260405e-002

1.74110112659224e+004,-9.61431998491999e+000,-2.01306843063849e-002

1.76540599258131e+004,-9.61431998223849e+000,-2.04116981899711e-002

1.79005014185594e+004,-9.61431997948135e+000,-2.06966348830730e-002

1.81503831063432e+004,-9.61431997664696e+000,-2.09855491425436e-002

1.84037530124975e+004,-9.61431997373303e+000,-2.12784964941200e-002

1.86606598307361e+004,-9.61431997073703e+000,-2.15755332393796e-002

1.89211529345119e+004,-9.61431996765664e+000,-2.18767164643249e-002

1.91852823865052e+004,-9.61431996448971e+000,-2.21821040499867e-002

1.94530989482457e+004,-9.61431996123381e+000,-2.24917546873683e-002

1.97246540898671e+004,-9.61431995788630e+000,-2.28057278873191e-002

1.99999999999999e+004,-9.61431995444500e+000,-2.31240839877653e-002

2.02791895958005e+004,-9.61431995090662e+000,-2.34468841761719e-002

2.05622765331213e+004,-9.61431994726873e+000,-2.37741904876457e-002

2.08493152168224e+004,-9.61431994352890e+000,-2.41060658229371e-002

2.11403608112276e+004,-9.61431993968347e+000,-2.44425739685971e-002

2.14354692507258e+004,-9.61431993573026e+000,-2.47837795908666e-002

2.17346972505211e+004,-9.61431993166594e+000,-2.51297482664824e-002

2.20381023175322e+004,-9.61431992748712e+000,-2.54805464862499e-002

2.23457427614443e+004,-9.61431992319112e+000,-2.58362416651778e-002

2.26576777059159e+004,-9.61431991877406e+000,-2.61969021657635e-002

2.29739670999406e+004,-9.61431991423287e+000,-2.65625972993562e-002

2.32946717293690e+004,-9.61431990956402e+000,-2.69333973468872e-002

2.36198532285905e+004,-9.61431990476413e+000,-2.73093735690938e-002

2.39495740923785e+004,-9.61431989982879e+000,-2.76905982273666e-002

2.42838976879009e+004,-9.61431989475526e+000,-2.80771445804083e-002

2.46228882668982e+004,-9.61431988953857e+000,-2.84690869231078e-002

2.49666109780322e+004,-9.61431988417571e+000,-2.88665005742605e-002

2.53151318794055e+004,-9.61431987866206e+000,-2.92694619135424e-002

2.56685179512580e+004,-9.61431987299285e+000,-2.96780483876351e-002

2.60268371088386e+004,-9.61431986716475e+000,-3.00923385135301e-002

2.63901582154578e+004,-9.61431986117263e+000,-3.05124119155314e-002

2.67585510957221e+004,-9.61431985501200e+000,-3.09383493244748e-002

2.71320865489533e+004,-9.61431984867841e+000,-3.13702325971224e-002

2.75108363627948e+004,-9.61431984216658e+000,-3.18081447370736e-002

2.78948733270080e+004,-9.61431983547176e+000,-3.22521699027401e-002

2.82842712474618e+004,-9.61431982858874e+000,-3.27023934290323e-002

2.86791049603164e+004,-9.61431982151217e+000,-3.31589018424100e-002

2.90794503464061e+004,-9.61431981423669e+000,-3.36217828761056e-002

2.94853843458219e+004,-9.61431980675641e+000,-3.40911254906335e-002

2.98969849726987e+004,-9.61431979906607e+000,-3.45670198827461e-002

3.03143313302078e+004,-9.61431979115949e+000,-3.50495575139965e-002

3.07375036257601e+004,-9.61431978303066e+000,-3.55388311198988e-002

3.11665831864199e+004,-9.61431977467308e+000,-3.60349347329941e-002

3.16016524745350e+004,-9.61431976608087e+000,-3.65379636930570e-002

3.20427951035848e+004,-9.61431975724689e+000,-3.70480146777550e-002

3.24900958542493e+004,-9.61431974816467e+000,-3.75651857090733e-002

3.29436406907028e+004,-9.61431973882683e+000,-3.80895761815337e-002

3.34035167771346e+004,-9.61431972922681e+000,-3.86212868708756e-002

3.38698124945009e+004,-9.61431971935690e+000,-3.91604199655546e-002

3.43426174575100e+004,-9.61431970920942e+000,-3.97070790794014e-002

3.48220225318448e+004,-9.61431969877656e+000,-4.02613692716883e-002

3.53081198516260e+004,-9.61431968805049e+000,-4.08233970671665e-002

3.58010028371187e+004,-9.61431967702267e+000,-4.13932704805275e-002

3.63007662126863e+004,-9.61431966568506e+000,-4.19710990298937e-002

3.68075060249948e+004,-9.61431965402858e+000,-4.25569937671179e-002

3.73213196614721e+004,-9.61431964204444e+000,-4.31510672910943e-002

3.78423058690237e+004,-9.61431962972319e+000,-4.37534337747610e-002

3.83705647730104e+004,-9.61431961705581e+000,-4.43642089808099e-002

3.89061978964912e+004,-9.61431960403225e+000,-4.49835102927449e-002

3.94493081797342e+004,-9.61431959064248e+000,-4.56114567307296e-002

3.99999999999998e+004,-9.61431957687636e+000,-4.62481689752583e-002

4.05583791916010e+004,-9.61431956272303e+000,-4.68937693942186e-002

4.11245530662425e+004,-9.61431954817213e+000,-4.75483820586138e-002

4.16986304336447e+004,-9.61431953321208e+000,-4.82121327774211e-002

4.22807216224550e+004,-9.61431951783119e+000,-4.88851491143803e-002

4.28709385014515e+004,-9.61431950201791e+000,-4.95675604108362e-002

4.34693945010421e+004,-9.61431948576021e+000,-5.02594978150192e-002

4.40762046350642e+004,-9.61431946904542e+000,-5.09610943075282e-002

4.46914855228886e+004,-9.61431945186071e+000,-5.16724847242026e-002

4.53153554118317e+004,-9.61431943419281e+000,-5.23938057835364e-002

4.59479341998812e+004,-9.61431941602812e+000,-5.31251961125093e-002

4.65893434587380e+004,-9.61431939735292e+000,-5.38667962711165e-002

4.72397064571810e+004,-9.61431937815270e+000,-5.46187487844163e-002

4.78991481847569e+004,-9.61431935841249e+000,-5.53811981675537e-002

4.85677953758016e+004,-9.61431933811767e+000,-5.61542909479821e-002

4.92457765337964e+004,-9.61431931725182e+000,-5.69381757070192e-002

4.99332219560642e+004,-9.61431929579973e+000,-5.77330030900488e-002

5.06302637588109e+004,-9.61431927374439e+000,-5.85389258536449e-002

5.13370359025159e+004,-9.61431925106896e+000,-5.93560988833328e-002

5.20536742176771e+004,-9.61431922775614e+000,-6.01846792258329e-002

5.27803164309155e+004,-9.61431920378777e+000,-6.10248261231446e-002

5.35171021914442e+004,-9.61431917914577e+000,-6.18767010364772e-002

5.42641730979066e+004,-9.61431915381083e+000,-6.27404676849723e-002

5.50216727255895e+004,-9.61431912776351e+000,-6.36162920712869e-002

5.57897466540159e+004,-9.61431910098419e+000,-6.45043425125129e-002

5.65685424949235e+004,-9.61431907345177e+000,-6.54047896816641e-002

5.73582099206328e+004,-9.61431904514531e+000,-6.63178066292203e-002

5.81589006928121e+004,-9.61431901604329e+000,-6.72435688212974e-002

5.89707686916437e+004,-9.61431898612281e+000,-6.81822541788480e-002

5.97939699453972e+004,-9.61431895536133e+000,-6.91340430991965e-002

6.06286626604156e+004,-9.61431892373510e+000,-7.00991185025957e-002

6.14750072515201e+004,-9.61431889121945e+000,-7.10776658637916e-002

6.23331663728396e+004,-9.61431885778989e+000,-7.20698732411604e-002

6.32033049490698e+004,-9.61431882342044e+000,-7.30759313235941e-002

6.40855902071694e+004,-9.61431878808473e+000,-7.40960334598202e-002

6.49801917084985e+004,-9.61431875175564e+000,-7.51303756969856e-002

6.58872813814055e+004,-9.61431871440514e+000,-7.61791568208688e-002

6.68070335542691e+004,-9.61431867600449e+000,-7.72425783912390e-002

6.77396249890018e+004,-9.61431863652444e+000,-7.83208447793532e-002

6.86852349150199e+004,-9.61431859593441e+000,-7.94141632130594e-002

6.96440450636895e+004,-9.61431855420308e+000,-8.05227438123319e-002

7.06162397032520e+004,-9.61431851129882e+000,-8.16467996262361e-002

7.16020056742374e+004,-9.61431846718807e+000,-8.27865466849075e-002

7.26015324253724e+004,-9.61431842183733e+000,-8.39422040276603e-002

7.36150120499896e+004,-9.61431837521163e+000,-8.51139937548654e-002

7.46426393229441e+004,-9.61431832727495e+000,-8.63021410677508e-002

7.56846117380472e+004,-9.61431827799077e+000,-8.75068743078583e-002

7.67411295460207e+004,-9.61431822732099e+000,-8.87284250079290e-002

7.78123957929823e+004,-9.61431817522648e+000,-8.99670279325299e-002

7.88986163594682e+004,-9.61431812166774e+000,-9.12229211188467e-002

7.99999999999995e+004,-9.61431806660297e+000,-9.24963459343746e-002

8.11167583832018e+004,-9.61431800999039e+000,-9.37875471088073e-002

8.22491061324848e+004,-9.61431795178595e+000,-9.50967727941138e-002

8.33972608672892e+004,-9.61431789194527e+000,-9.64242746017353e-002

8.45614432449099e+004,-9.61431783042223e+000,-9.77703076584087e-002

8.57418770029029e+004,-9.61431776716961e+000,-9.91351306501701e-002

8.69387890020841e+004,-9.61431770213860e+000,-1.00519005876966e-001

8.81524092701283e+004,-9.61431763527949e+000,-1.01922199296850e-001

8.93829710457770e+004,-9.61431756654050e+000,-1.03344980584900e-001

9.06307108236633e+004,-9.61431749586908e+000,-1.04787623176172e-001

9.18958683997622e+004,-9.61431742321080e+000,-1.06250404325704e-001

9.31786869174758e+004,-9.61431734851006e+000,-1.07733605156261e-001

9.44794129143618e+004,-9.61431727170907e+000,-1.09237510719233e-001

9.57982963695136e+004,-9.61431719274872e+000,-1.10762410043176e-001

9.71355907516031e+004,-9.61431711156870e+000,-1.12308596188178e-001

9.84915530675926e+004,-9.61431702810625e+000,-1.13876366310676e-001

9.98664439121282e+004,-9.61431694229754e+000,-1.15466021710396e-001

1.01260527517622e+005,-9.61431685407630e+000,-1.17077867897258e-001

1.02674071805032e+005,-9.61431676337479e+000,-1.18712214643703e-001

1.04107348435354e+005,-9.61431667012338e+000,-1.20369376046348e-001

1.05560632861831e+005,-9.61431657425021e+000,-1.22049670587982e-001

1.07034204382888e+005,-9.61431647568186e+000,-1.23753421194577e-001

1.08528346195813e+005,-9.61431637434227e+000,-1.25480955303790e-001

1.10043345451179e+005,-9.61431627015376e+000,-1.27232604920447e-001

1.11579493308032e+005,-9.61431616303593e+000,-1.29008706687813e-001

1.13137084989847e+005,-9.61431605290678e+000,-1.30809601944540e-001

1.14716419841265e+005,-9.61431593968136e+000,-1.32635636797925e-001

1.16317801385624e+005,-9.61431582327288e+000,-1.34487162183428e-001

1.17941537383287e+005,-9.61431570359151e+000,-1.36364533939567e-001

1.19587939890794e+005,-9.61431558054568e+000,-1.38268112866980e-001

1.21257325320831e+005,-9.61431545404054e+000,-1.40198264807347e-001

1.22950014503040e+005,-9.61431532397864e+000,-1.42155360709024e-001

1.24666332745679e+005,-9.61431519026048e+000,-1.44139776694802e-001

1.26406609898139e+005,-9.61431505278289e+000,-1.46151894142680e-001

1.28171180414339e+005,-9.61431491144022e+000,-1.48192099752771e-001

1.29960383416997e+005,-9.61431476612382e+000,-1.50260785622927e-001

1.31774562762811e+005,-9.61431461672222e+000,-1.52358349323526e-001

1.33614067108538e+005,-9.61431446312035e+000,-1.54485193977615e-001

1.35479249978003e+005,-9.61431430520016e+000,-1.56641728334341e-001

1.37370469830040e+005,-9.61431414284012e+000,-1.58828366849399e-001

1.39288090127379e+005,-9.61431397591562e+000,-1.61045529762867e-001

1.41232479406504e+005,-9.61431380429820e+000,-1.63293643182702e-001

1.43204011348474e+005,-9.61431362785597e+000,-1.65573139164305e-001

1.45203064850745e+005,-9.61431344645333e+000,-1.67884455794794e-001

1.47230024099979e+005,-9.61431325995076e+000,-1.70228037276969e-001

1.49285278645888e+005,-9.61431306820496e+000,-1.72604334014297e-001

1.51369223476094e+005,-9.61431287106840e+000,-1.75013802698461e-001

1.53482259092041e+005,-9.61431266838960e+000,-1.77456906395898e-001

1.55624791585964e+005,-9.61431246001277e+000,-1.79934114637229e-001

1.57797232718936e+005,-9.61431224577768e+000,-1.82445903507922e-001

1.59999999999999e+005,-9.61431202551957e+000,-1.84992755739813e-001

1.62233516766403e+005,-9.61431179906927e+000,-1.87575160802402e-001

1.64498212264969e+005,-9.61431156625267e+000,-1.90193614999042e-001

1.66794521734578e+005,-9.61431132689053e+000,-1.92848621562670e-001

1.69122886489819e+005,-9.61431108079924e+000,-1.95540690747684e-001

1.71483754005805e+005,-9.61431082778932e+000,-1.98270339935199e-001

1.73877578004168e+005,-9.61431056766635e+000,-2.01038093727344e-001

1.76304818540256e+005,-9.61431030023024e+000,-2.03844484050261e-001

1.78765942091554e+005,-9.61431002527572e+000,-2.06690050253223e-001

1.81261421647326e+005,-9.61430974259116e+000,-2.09575339218078e-001

1.83791736799524e+005,-9.61430945195918e+000,-2.12500905460740e-001

1.86357373834951e+005,-9.61430915315655e+000,-2.15467311235321e-001

1.88958825828723e+005,-9.61430884595349e+000,-2.18475126647635e-001

1.91596592739027e+005,-9.61430853011372e+000,-2.21524929761910e-001

1.94271181503206e+005,-9.61430820539464e+000,-2.24617306710207e-001

1.96983106135185e+005,-9.61430787154655e+000,-2.27752851808959e-001

1.99732887824256e+005,-9.61430752831258e+000,-2.30932167671660e-001

2.02521055035243e+005,-9.61430717542923e+000,-2.34155865321188e-001

2.05348143610063e+005,-9.61430681262497e+000,-2.37424564313856e-001

2.08214696870707e+005,-9.61430643962088e+000,-2.40738892853583e-001

2.11121265723661e+005,-9.61430605613036e+000,-2.44099487912901e-001

2.14068408765776e+005,-9.61430566185848e+000,-2.47506995358664e-001

2.17056692391625e+005,-9.61430525650217e+000,-2.50962070072560e-001

2.20086690902357e+005,-9.61430483974990e+000,-2.54465376078562e-001

2.23158986616063e+005,-9.61430441128114e+000,-2.58017586671612e-001

2.26274169979693e+005,-9.61430397076661e+000,-2.61619384544832e-001

2.29432839682530e+005,-9.61430351786762e+000,-2.65271461922325e-001

2.32635602771247e+005,-9.61430305223594e+000,-2.68974520692178e-001

2.35883074766574e+005,-9.61430257351372e+000,-2.72729272539883e-001

2.39175879781588e+005,-9.61430208133296e+000,-2.76536439086258e-001

2.42514650641661e+005,-9.61430157531507e+000,-2.80396752028624e-001

2.45900029006080e+005,-9.61430105507130e+000,-2.84310953275076e-001

2.49332665491357e+005,-9.61430052020153e+000,-2.88279795094365e-001

2.52813219796278e+005,-9.61429997029479e+000,-2.92304040253937e-001

2.56342360828676e+005,-9.61429940492805e+000,-2.96384462173807e-001

2.59920766833993e+005,-9.61429882366697e+000,-3.00521845066904e-001

2.63549125525621e+005,-9.61429822606442e+000,-3.04716984097636e-001

2.67228134217075e+005,-9.61429761166130e+000,-3.08970685527923e-001

2.70958499956006e+005,-9.61429697998508e+000,-3.13283766878317e-001

2.74740939660078e+005,-9.61429633055019e+000,-3.17657057081188e-001

2.78576180254757e+005,-9.61429566285738e+000,-3.22091396640924e-001

2.82464958813007e+005,-9.61429497639340e+000,-3.26587637795919e-001

2.86408022696948e+005,-9.61429427063050e+000,-3.31146644682609e-001

2.90406129701488e+005,-9.61429354502610e+000,-3.35769293501335e-001

2.94460048199957e+005,-9.61429279902247e+000,-3.40456472683765e-001

2.98570557291775e+005,-9.61429203204604e+000,-3.45209083065888e-001

3.02738446952187e+005,-9.61429124350723e+000,-3.50028038059293e-001

3.06964518184081e+005,-9.61429043279986e+000,-3.54914263827424e-001

3.11249583171928e+005,-9.61428959930085e+000,-3.59868699462913e-001

3.15594465437872e+005,-9.61428874236911e+000,-3.64892297171703e-001

3.19999999999997e+005,-9.61428786134618e+000,-3.69986022449419e-001

3.24467033532806e+005,-9.61428695555465e+000,-3.75150854273484e-001

3.28996424529938e+005,-9.61428602429822e+000,-3.80387785287931e-001

3.33589043469155e+005,-9.61428506686101e+000,-3.85697821994656e-001

3.38245772979638e+005,-9.61428408250705e+000,-3.91081984947400e-001

3.42967508011610e+005,-9.61428307047958e+000,-3.96541308948439e-001

3.47755156008335e+005,-9.61428203000049e+000,-4.02076843247151e-001

3.52609637080511e+005,-9.61428096027017e+000,-4.07689651739913e-001

3.57531884183106e+005,-9.61427986046604e+000,-4.13380813178369e-001

3.62522843294651e+005,-9.61427872974288e+000,-4.19151421372639e-001

3.67583473599047e+005,-9.61427756723129e+000,-4.25002585406110e-001

3.72714747669902e+005,-9.61427637203775e+000,-4.30935429844267e-001

3.77917651657445e+005,-9.61427514324331e+000,-4.36951094955079e-001

3.83193185478053e+005,-9.61427387990351e+000,-4.43050736924106e-001

3.88542363006410e+005,-9.61427258104702e+000,-4.49235528081077e-001

3.93966212270369e+005,-9.61427124567560e+000,-4.55506657120608e-001

3.99465775648511e+005,-9.61426987276253e+000,-4.61865329336083e-001

4.05042110070485e+005,-9.61426846125245e+000,-4.68312766846810e-001

4.10696287220124e+005,-9.61426701006045e+000,-4.74850208834811e-001

4.16429393741414e+005,-9.61426551807073e+000,-4.81478911785524e-001

4.22242531447321e+005,-9.61426398413657e+000,-4.88200149723937e-001

4.28136817531551e+005,-9.61426240707876e+000,-4.95015214464982e-001

4.34113384783250e+005,-9.61426078568483e+000,-5.01925415859979e-001

4.40173381804713e+005,-9.61425911870864e+000,-5.08932082046097e-001

4.46317973232124e+005,-9.61425740486855e+000,-5.16036559706832e-001

4.52548339959385e+005,-9.61425564284721e+000,-5.23240214326480e-001

4.58865679365059e+005,-9.61425383129017e+000,-5.30544430454507e-001

4.65271205542494e+005,-9.61425196880483e+000,-5.37950611972761e-001

4.71766149533147e+005,-9.61425005395946e+000,-5.45460182363946e-001

4.78351759563174e+005,-9.61424808528216e+000,-5.53074584986211e-001

4.85029301283321e+005,-9.61424606125960e+000,-5.60795283350354e-001

4.91800058012158e+005,-9.61424398033588e+000,-5.68623761402333e-001

4.98665330982714e+005,-9.61424184091145e+000,-5.76561523807126e-001

5.05626439592555e+005,-9.61423964134163e+000,-5.84610096240099e-001

5.12684721657352e+005,-9.61423737993578e+000,-5.92771025677645e-001

5.19841533667984e+005,-9.61423505495546e+000,-6.01045880698445e-001

5.27098251051240e+005,-9.61423266461354e+000,-6.09436251782155e-001

5.34456268434150e+005,-9.61423020707254e+000,-6.17943751617430e-001

5.41916999912011e+005,-9.61422768044349e+000,-6.26570015409900e-001

