Freq.,VOut,OutRef

1.00000000000000e+004,-2.29400260259195e+001,-2.88421018280955e-001

1.01395947979003e+004,-2.29400270651134e+001,-2.92447212631621e-001

1.02811382665607e+004,-2.29400281335229e+001,-2.96529610007121e-001

1.04246576084112e+004,-2.29400292319690e+001,-3.00668994950902e-001

1.05701804056138e+004,-2.29400303612965e+001,-3.04866162953359e-001

1.07177346253629e+004,-2.29400315223735e+001,-3.09121920610420e-001

1.08673486252606e+004,-2.29400327160923e+001,-3.13437085778235e-001

1.10190511587661e+004,-2.29400339433709e+001,-3.17812487725958e-001

1.11728713807222e+004,-2.29400352051526e+001,-3.22248967298867e-001

1.13288388529580e+004,-2.29400365024074e+001,-3.26747377078473e-001

1.14869835499703e+004,-2.29400378361328e+001,-3.31308581546815e-001

1.16473358646846e+004,-2.29400392073537e+001,-3.35933457253146e-001

1.18099266142953e+004,-2.29400406171246e+001,-3.40622892979647e-001

1.19747870461893e+004,-2.29400420665291e+001,-3.45377789915014e-001

1.21419488439505e+004,-2.29400435566813e+001,-3.50199061827856e-001

1.23114441334492e+004,-2.29400450887271e+001,-3.55087635238100e-001

1.24833054890161e+004,-2.29400466638438e+001,-3.60044449600289e-001

1.26575659397028e+004,-2.29400482832426e+001,-3.65070457480124e-001

1.28342589756290e+004,-2.29400499481684e+001,-3.70166624738986e-001

1.30134185544193e+004,-2.29400516599009e+001,-3.75333930720580e-001

1.31950791077289e+004,-2.29400534197561e+001,-3.80573368436112e-001

1.33792755478611e+004,-2.29400552290869e+001,-3.85885944757613e-001

1.35660432744767e+004,-2.29400570892841e+001,-3.91272680609997e-001

1.37554181813974e+004,-2.29400590017778e+001,-3.96734611168759e-001

1.39474366635040e+004,-2.29400609680382e+001,-4.02272786054761e-001

1.41421356237309e+004,-2.29400629895769e+001,-4.07888269541983e-001

1.43395524801583e+004,-2.29400650679477e+001,-4.13582140757279e-001

1.45397251732031e+004,-2.29400672047485e+001,-4.19355493887927e-001

1.47426921729110e+004,-2.29400694016220e+001,-4.25209438393966e-001

1.49484924863494e+004,-2.29400716602570e+001,-4.31145099219896e-001

1.51571656651040e+004,-2.29400739823896e+001,-4.37163617010341e-001

1.53687518128801e+004,-2.29400763698050e+001,-4.43266148331718e-001

1.55832915932100e+004,-2.29400788243386e+001,-4.49453865888992e-001

1.58008262372675e+004,-2.29400813478771e+001,-4.55727958756769e-001

1.60213975517924e+004,-2.29400839423604e+001,-4.62089632604049e-001

1.62450479271247e+004,-2.29400866097831e+001,-4.68540109927047e-001

1.64718203453514e+004,-2.29400893521957e+001,-4.75080630283207e-001

1.67017583885674e+004,-2.29400921717062e+001,-4.81712450529775e-001

1.69349062472505e+004,-2.29400950704822e+001,-4.88436845065152e-001

1.71713087287550e+004,-2.29400980507520e+001,-4.95255106073187e-001

1.74110112659224e+004,-2.29401011148066e+001,-5.02168543771536e-001

1.76540599258131e+004,-2.29401042650012e+001,-5.09178486663795e-001

1.79005014185594e+004,-2.29401075037577e+001,-5.16286281792632e-001

1.81503831063432e+004,-2.29401108335657e+001,-5.23493295000893e-001

1.84037530124975e+004,-2.29401142569848e+001,-5.30800911191417e-001

1.86606598307361e+004,-2.29401177766466e+001,-5.38210534595745e-001

1.89211529345119e+004,-2.29401213952568e+001,-5.45723589040420e-001

1.91852823865052e+004,-2.29401251155970e+001,-5.53341518222611e-001

1.94530989482457e+004,-2.29401289405271e+001,-5.61065785986697e-001

1.97246540898671e+004,-2.29401328729872e+001,-5.68897876605255e-001

1.99999999999999e+004,-2.29401369160004e+001,-5.76839295062046e-001

2.02791895958005e+004,-2.29401410726744e+001,-5.84891567345545e-001

2.05622765331213e+004,-2.29401453462046e+001,-5.93056240735817e-001

2.08493152168224e+004,-2.29401497398758e+001,-6.01334884107359e-001

2.11403608112276e+004,-2.29401542570657e+001,-6.09729088224952e-001

2.14354692507258e+004,-2.29401589012464e+001,-6.18240466052144e-001

2.17346972505211e+004,-2.29401636759879e+001,-6.26870653061168e-001

2.20381023175322e+004,-2.29401685849605e+001,-6.35621307543441e-001

2.23457427614443e+004,-2.29401736319376e+001,-6.44494110931644e-001

2.26576777059159e+004,-2.29401788207988e+001,-6.53490768119370e-001

2.29739670999406e+004,-2.29401841555326e+001,-6.62613007790363e-001

2.32946717293690e+004,-2.29401896402398e+001,-6.71862582747816e-001

2.36198532285905e+004,-2.29401952791362e+001,-6.81241270254052e-001

2.39495740923785e+004,-2.29402010765564e+001,-6.90750872367384e-001

2.42838976879009e+004,-2.29402070369567e+001,-7.00393216290682e-001

2.46228882668982e+004,-2.29402131649186e+001,-7.10170154721990e-001

2.49666109780322e+004,-2.29402194651524e+001,-7.20083566207207e-001

2.53151318794055e+004,-2.29402259425009e+001,-7.30135355503147e-001

2.56685179512580e+004,-2.29402326019429e+001,-7.40327453941923e-001

2.60268371088386e+004,-2.29402394485973e+001,-7.50661819799707e-001

2.63901582154578e+004,-2.29402464877268e+001,-7.61140438675456e-001

2.67585510957221e+004,-2.29402537247419e+001,-7.71765323868362e-001

2.71320865489533e+004,-2.29402611652052e+001,-7.82538516766929e-001

2.75108363627948e+004,-2.29402688148360e+001,-7.93462087237519e-001

2.78948733270080e+004,-2.29402766795139e+001,-8.04538134022665e-001

2.82842712474618e+004,-2.29402847652839e+001,-8.15768785143640e-001

2.86791049603164e+004,-2.29402930783610e+001,-8.27156198307641e-001

2.90794503464061e+004,-2.29403016251350e+001,-8.38702561321278e-001

2.94853843458219e+004,-2.29403104121748e+001,-8.50410092510435e-001

2.98969849726987e+004,-2.29403194462345e+001,-8.62281041145276e-001

3.03143313302078e+004,-2.29403287342577e+001,-8.74317687870544e-001

3.07375036257601e+004,-2.29403382833832e+001,-8.86522345143465e-001

3.11665831864199e+004,-2.29403481009505e+001,-8.98897357676535e-001

3.16016524745350e+004,-2.29403581945054e+001,-9.11445102886042e-001

3.20427951035848e+004,-2.29403685718056e+001,-9.24167991348761e-001

3.24900958542493e+004,-2.29403792408270e+001,-9.37068467262670e-001

3.29436406907028e+004,-2.29403902097697e+001,-9.50149008914461e-001

3.34035167771346e+004,-2.29404014870640e+001,-9.63412129155791e-001

3.38698124945009e+004,-2.29404130813774e+001,-9.76860375883615e-001

3.43426174575100e+004,-2.29404250016209e+001,-9.90496332528003e-001

3.48220225318448e+004,-2.29404372569558e+001,-1.00432261854604e+000

3.53081198516260e+004,-2.29404498568011e+001,-1.01834188992462e+000

3.58010028371187e+004,-2.29404628108402e+001,-1.03255683968820e+000

3.63007662126863e+004,-2.29404761290290e+001,-1.04697019841341e+000

3.68075060249948e+004,-2.29404898216027e+001,-1.06158473475297e+000

3.73213196614721e+004,-2.29405038990846e+001,-1.07640325596391e+000

3.78423058690237e+004,-2.29405183722936e+001,-1.09142860844562e+000

3.83705647730104e+004,-2.29405332523523e+001,-1.10666367828450e+000

3.89061978964912e+004,-2.29405485506963e+001,-1.12211139180494e+000

3.94493081797342e+004,-2.29405642790821e+001,-1.13777471613028e+000

3.99999999999998e+004,-2.29405804495971e+001,-1.15365665974793e+000

4.05583791916010e+004,-2.29405970746678e+001,-1.16976027308768e+000

4.11245530662425e+004,-2.29406141670703e+001,-1.18608864910139e+000

4.16986304336447e+004,-2.29406317399394e+001,-1.20264492385669e+000

4.22807216224550e+004,-2.29406498067791e+001,-1.21943227713527e+000

4.28709385014515e+004,-2.29406683814729e+001,-1.23645393303978e+000

4.34693945010421e+004,-2.29406874782942e+001,-1.25371316061099e+000

4.40762046350642e+004,-2.29407071119176e+001,-1.27121327445122e+000

4.46914855228886e+004,-2.29407272974299e+001,-1.28895763535767e+000

4.53153554118317e+004,-2.29407480503418e+001,-1.30694965096452e+000

4.59479341998812e+004,-2.29407693865999e+001,-1.32519277639139e+000

4.65893434587380e+004,-2.29407913225987e+001,-1.34369051490599e+000

4.72397064571810e+004,-2.29408138751934e+001,-1.36244641858971e+000

4.78991481847569e+004,-2.29408370617125e+001,-1.38146408901710e+000

4.85677953758016e+004,-2.29408608999716e+001,-1.40074717794159e+000

4.92457765337964e+004,-2.29408854082865e+001,-1.42029938799279e+000

4.99332219560642e+004,-2.29409106054879e+001,-1.44012447338206e+000

5.06302637588109e+004,-2.29409365109352e+001,-1.46022624061745e+000

5.13370359025159e+004,-2.29409631445316e+001,-1.48060854923120e+000

5.20536742176771e+004,-2.29409905267395e+001,-1.50127531251188e+000

5.27803164309155e+004,-2.29410186785963e+001,-1.52223049825270e+000

5.35171021914442e+004,-2.29410476217298e+001,-1.54347812950577e+000

5.42641730979066e+004,-2.29410773783757e+001,-1.56502228534714e+000

5.50216727255895e+004,-2.29411079713942e+001,-1.58686710165573e+000

5.57897466540159e+004,-2.29411394242874e+001,-1.60901677189711e+000

5.65685424949235e+004,-2.29411717612176e+001,-1.63147554792394e+000

5.73582099206328e+004,-2.29412050070256e+001,-1.65424774078289e+000

5.81589006928121e+004,-2.29412391872502e+001,-1.67733772153456e+000

5.89707686916437e+004,-2.29412743281468e+001,-1.70074992208459e+000

5.97939699453972e+004,-2.29413104567087e+001,-1.72448883602567e+000

6.06286626604156e+004,-2.29413476006869e+001,-1.74855901949005e+000

6.14750072515201e+004,-2.29413857886118e+001,-1.77296509201602e+000

6.23331663728396e+004,-2.29414250498150e+001,-1.79771173742321e+000

6.32033049490698e+004,-2.29414654144515e+001,-1.82280370470333e+000

6.40855902071694e+004,-2.29415069135232e+001,-1.84824580891834e+000

6.49801917084985e+004,-2.29415495789023e+001,-1.87404293211524e+000

6.58872813814055e+004,-2.29415934433560e+001,-1.90020002425086e+000

6.68070335542691e+004,-2.29416385405713e+001,-1.92672210412912e+000

6.77396249890018e+004,-2.29416849051810e+001,-1.95361426035197e+000

6.86852349150199e+004,-2.29417325727902e+001,-1.98088165228263e+000

6.96440450636895e+004,-2.29417815800034e+001,-2.00852951102153e+000

7.06162397032520e+004,-2.29418319644526e+001,-2.03656314039547e+000

7.16020056742374e+004,-2.29418837648262e+001,-2.06498791796114e+000

7.26015324253724e+004,-2.29419370208985e+001,-2.09380929602024e+000

7.36150120499896e+004,-2.29419917735600e+001,-2.12303280264955e+000

7.46426393229441e+004,-2.29420480648491e+001,-2.15266404274469e+000

7.56846117380472e+004,-2.29421059379836e+001,-2.18270869907753e+000

7.67411295460207e+004,-2.29421654373944e+001,-2.21317253336737e+000

7.78123957929823e+004,-2.29422266087590e+001,-2.24406138736773e+000

7.88986163594682e+004,-2.29422894990369e+001,-2.27538118396583e+000

7.99999999999995e+004,-2.29423541565049e+001,-2.30713792829838e+000

8.11167583832018e+004,-2.29424206307943e+001,-2.33933770888091e+000

8.22491061324848e+004,-2.29424889729290e+001,-2.37198669875282e+000

8.33972608672892e+004,-2.29425592353643e+001,-2.40509115663764e+000

8.45614432449099e+004,-2.29426314720268e+001,-2.43865742811847e+000

8.57418770029029e+004,-2.29427057383557e+001,-2.47269194682854e+000

8.69387890020841e+004,-2.29427820913456e+001,-2.50720123565777e+000

8.81524092701283e+004,-2.29428605895891e+001,-2.54219190797628e+000

8.93829710457770e+004,-2.29429412933222e+001,-2.57767066887146e+000

9.06307108236633e+004,-2.29430242644702e+001,-2.61364431640470e+000

9.18958683997622e+004,-2.29431095666947e+001,-2.65011974288067e+000

9.31786869174758e+004,-2.29431972654422e+001,-2.68710393613707e+000

9.44794129143618e+004,-2.29432874279943e+001,-2.72460398084836e+000

9.57982963695136e+004,-2.29433801235186e+001,-2.76262705984758e+000

9.71355907516031e+004,-2.29434754231217e+001,-2.80118045546576e+000

9.84915530675926e+004,-2.29435733999032e+001,-2.84027155088765e+000

9.98664439121282e+004,-2.29436741290118e+001,-2.87990783152561e+000

1.01260527517622e+005,-2.29437776877019e+001,-2.92009688641174e+000

1.02674071805032e+005,-2.29438841553928e+001,-2.96084640960714e+000

1.04107348435354e+005,-2.29439936137293e+001,-3.00216420162891e+000

1.05560632861831e+005,-2.29441061466435e+001,-3.04405817089702e+000

1.07034204382888e+005,-2.29442218404190e+001,-3.08653633519820e+000

1.08528346195813e+005,-2.29443407837562e+001,-3.12960682316886e+000

1.10043345451179e+005,-2.29444630678398e+001,-3.17327787579776e+000

1.11579493308032e+005,-2.29445887864085e+001,-3.21755784794596e+000

1.13137084989847e+005,-2.29447180358259e+001,-3.26245520988860e+000

1.14716419841265e+005,-2.29448509151534e+001,-3.30797854887235e+000

1.16317801385624e+005,-2.29449875262264e+001,-3.35413657069680e+000

1.17941537383287e+005,-2.29451279737304e+001,-3.40093810131256e+000

1.19587939890794e+005,-2.29452723652815e+001,-3.44839208843961e+000

1.21257325320831e+005,-2.29454208115073e+001,-3.49650760320791e+000

1.22950014503040e+005,-2.29455734261312e+001,-3.54529384181577e+000

1.24666332745679e+005,-2.29457303260584e+001,-3.59476012720995e+000

1.26406609898139e+005,-2.29458916314648e+001,-3.64491591078668e+000

1.28171180414339e+005,-2.29460574658875e+001,-3.69577077411295e+000

1.29960383416997e+005,-2.29462279563189e+001,-3.74733443066898e+000

1.31774562762811e+005,-2.29464032333023e+001,-3.79961672761154e+000

1.33614067108538e+005,-2.29465834310310e+001,-3.85262764755974e+000

1.35479249978003e+005,-2.29467686874497e+001,-3.90637731040104e+000

1.37370469830040e+005,-2.29469591443587e+001,-3.96087597511949e+000

1.39288090127379e+005,-2.29471549475208e+001,-4.01613404164608e+000

1.41232479406504e+005,-2.29473562467719e+001,-4.07216205272989e+000

1.43204011348474e+005,-2.29475631961335e+001,-4.12897069583331e+000

1.45203064850745e+005,-2.29477759539293e+001,-4.18657080504733e+000

1.47230024099979e+005,-2.29479946829041e+001,-4.24497336303106e+000

1.49285278645888e+005,-2.29482195503470e+001,-4.30418950297285e+000

1.51369223476094e+005,-2.29484507282169e+001,-4.36423051057350e+000

1.53482259092041e+005,-2.29486883932719e+001,-4.42510782605385e+000

1.55624791585964e+005,-2.29489327272025e+001,-4.48683304618400e+000

1.57797232718936e+005,-2.29491839167681e+001,-4.54941792633534e+000

1.59999999999999e+005,-2.29494421539371e+001,-4.61287438255728e+000

1.62233516766403e+005,-2.29497076360313e+001,-4.67721449367459e+000

1.64498212264969e+005,-2.29499805658736e+001,-4.74245050341063e+000

1.66794521734578e+005,-2.29502611519401e+001,-4.80859482253237e+000

1.69122886489819e+005,-2.29505496085165e+001,-4.87566003101851e+000

1.71483754005805e+005,-2.29508461558584e+001,-4.94365888025299e+000

1.73877578004168e+005,-2.29511510203557e+001,-5.01260429523906e+000

1.76304818540256e+005,-2.29514644347023e+001,-5.08250937684013e+000

1.78765942091554e+005,-2.29517866380696e+001,-5.15338740404111e+000

1.81261421647326e+005,-2.29521178762850e+001,-5.22525183623563e+000

1.83791736799524e+005,-2.29524584020153e+001,-5.29811631553570e+000

1.86357373834951e+005,-2.29528084749545e+001,-5.37199466910470e+000

1.88958825828723e+005,-2.29531683620175e+001,-5.44690091151520e+000

1.91596592739027e+005,-2.29535383375385e+001,-5.52284924712823e+000

1.94271181503206e+005,-2.29539186834746e+001,-5.59985407249767e+000

1.96983106135185e+005,-2.29543096896152e+001,-5.67792997879741e+000

1.99732887824256e+005,-2.29547116537967e+001,-5.75709175427135e+000

2.02521055035243e+005,-2.29551248821230e+001,-5.83735438670694e+000

2.05348143610063e+005,-2.29555496891924e+001,-5.91873306593176e+000

2.08214696870707e+005,-2.29559863983295e+001,-6.00124318633204e+000

2.11121265723661e+005,-2.29564353418243e+001,-6.08490034939561e+000

2.14068408765776e+005,-2.29568968611770e+001,-6.16972036627530e+000

2.17056692391625e+005,-2.29573713073493e+001,-6.25571926037608e+000

2.20086690902357e+005,-2.29578590410231e+001,-6.34291326996309e+000

2.23158986616063e+005,-2.29583604328650e+001,-6.43131885079256e+000

2.26274169979693e+005,-2.29588758637982e+001,-6.52095267876276e+000

2.29432839682530e+005,-2.29594057252819e+001,-6.61183165258758e+000

2.32635602771247e+005,-2.29599504195975e+001,-6.70397289648934e+000

2.35883074766574e+005,-2.29605103601425e+001,-6.79739376291341e+000

2.39175879781588e+005,-2.29610859717322e+001,-6.89211183526146e+000

2.42514650641661e+005,-2.29616776909092e+001,-6.98814493064537e+000

2.45900029006080e+005,-2.29622859662607e+001,-7.08551110265956e+000

2.49332665491357e+005,-2.29629112587445e+001,-7.18422864417132e+000

2.52813219796278e+005,-2.29635540420229e+001,-7.28431609013084e+000

2.56342360828676e+005,-2.29642148028060e+001,-7.38579222039638e+000

2.59920766833993e+005,-2.29648940412030e+001,-7.48867606257760e+000

2.63549125525621e+005,-2.29655922710828e+001,-7.59298689489504e+000

2.67228134217075e+005,-2.29663100204442e+001,-7.69874424905360e+000

2.70958499956006e+005,-2.29670478317955e+001,-7.80596791313224e+000

2.74740939660078e+005,-2.29678062625430e+001,-7.91467793448628e+000

2.78576180254757e+005,-2.29685858853904e+001,-8.02489462266265e+000

2.82464958813007e+005,-2.29693872887478e+001,-8.13663855232761e+000

2.86408022696948e+005,-2.29702110771508e+001,-8.24993056620550e+000

2.90406129701488e+005,-2.29710578716911e+001,-8.36479177802638e+000

2.94460048199957e+005,-2.29719283104564e+001,-8.48124357548395e+000

2.98570557291775e+005,-2.29728230489828e+001,-8.59930762319993e+000

3.02738446952187e+005,-2.29737427607176e+001,-8.71900586569618e+000

3.06964518184081e+005,-2.29746881374936e+001,-8.84036053037043e+000

3.11249583171928e+005,-2.29756598900155e+001,-8.96339413047787e+000

3.15594465437872e+005,-2.29766587483581e+001,-9.08812946811324e+000

3.19999999999997e+005,-2.29776854624766e+001,-9.21458963719503e+000

3.24467033532806e+005,-2.29787408027294e+001,-9.34279802644926e+000

3.28996424529938e+005,-2.29798255604138e+001,-9.47277832238974e+000

3.33589043469155e+005,-2.29809405483141e+001,-9.60455451229593e+000

3.38245772979638e+005,-2.29820866012639e+001,-9.73815088718376e+000

3.42967508011610e+005,-2.29832645767206e+001,-9.87359204476929e+000

3.47755156008335e+005,-2.29844753553546e+001,-1.00109028924228e+001

3.52609637080511e+005,-2.29857198416521e+001,-1.01501086501109e+001

3.57531884183106e+005,-2.29869989645317e+001,-1.02912348533246e+001

3.62522843294651e+005,-2.29883136779763e+001,-1.04343073559910e+001

3.67583473599047e+005,-2.29896649616789e+001,-1.05793523333678e+001

3.72714747669902e+005,-2.29910538217038e+001,-1.07263962849137e+001

3.77917651657445e+005,-2.29924812911630e+001,-1.08754660371385e+001

3.83193185478053e+005,-2.29939484309076e+001,-1.10265887464245e+001

3.88542363006410e+005,-2.29954563302355e+001,-1.11797919018192e+001

3.93966212270369e+005,-2.29970061076147e+001,-1.13351033277963e+001

3.99465775648511e+005,-2.29985989114226e+001,-1.14925511869811e+001

4.05042110070485e+005,-2.30002359207020e+001,-1.16521639828366e+001

4.10696287220124e+005,-2.30019183459337e+001,-1.18139705623091e+001

4.16429393741414e+005,-2.30036474298256e+001,-1.19780001184280e+001

4.22242531447321e+005,-2.30054244481194e+001,-1.21442821928561e+001

4.28136817531551e+005,-2.30072507104141e+001,-1.23128466783880e+001

4.34113384783250e+005,-2.30091275610070e+001,-1.24837238213915e+001

4.40173381804713e+005,-2.30110563797527e+001,-1.26569442241889e+001

4.46317973232124e+005,-2.30130385829396e+001,-1.28325388473722e+001

4.52548339959385e+005,-2.30150756241846e+001,-1.30105390120512e+001

4.58865679365059e+005,-2.30171689953458e+001,-1.31909764020259e+001

4.65271205542494e+005,-2.30193202274535e+001,-1.33738830658815e+001

4.71766149533147e+005,-2.30215308916601e+001,-1.35592914190004e+001

4.78351759563174e+005,-2.30238026002077e+001,-1.37472342454850e+001

4.85029301283321e+005,-2.30261370074152e+001,-1.39377446999882e+001

4.91800058012158e+005,-2.30285358106838e+001,-1.41308563094439e+001

4.98665330982714e+005,-2.30310007515212e+001,-1.43266029746946e+001

5.05626439592555e+005,-2.30335336165847e+001,-1.45250189720072e+001

5.12684721657352e+005,-2.30361362387436e+001,-1.47261389544741e+001

5.19841533667984e+005,-2.30388104981596e+001,-1.49299979532917e+001

5.27098251051240e+005,-2.30415583233869e+001,-1.51366313789103e+001

5.34456268434150e+005,-2.30443816924908e+001,-1.53460750220494e+001

5.41916999912011e+005,-2.30472826341847e+001,-1.55583650545719e+001

