Freq.,VOut,OutRef

1.00000000000000e+004,-2.29073665932899e+001,-2.04917418395650e-001

1.01395947979003e+004,-2.29073671171653e+001,-2.07777954292052e-001

1.02811382665607e+004,-2.29073676557687e+001,-2.10678421583641e-001

1.04246576084112e+004,-2.29073682095144e+001,-2.13619377682898e-001

1.05701804056138e+004,-2.29073687788278e+001,-2.16601387784802e-001

1.07177346253629e+004,-2.29073693641468e+001,-2.19625024971065e-001

1.08673486252606e+004,-2.29073699659213e+001,-2.22690870326181e-001

1.10190511587661e+004,-2.29073705846138e+001,-2.25799513043992e-001

1.11728713807222e+004,-2.29073712207001e+001,-2.28951550542117e-001

1.13288388529580e+004,-2.29073718746691e+001,-2.32147588579382e-001

1.14869835499703e+004,-2.29073725470237e+001,-2.35388241368474e-001

1.16473358646846e+004,-2.29073732382805e+001,-2.38674131696824e-001

1.18099266142953e+004,-2.29073739489711e+001,-2.42005891045095e-001

1.19747870461893e+004,-2.29073746796418e+001,-2.45384159706930e-001

1.21419488439505e+004,-2.29073754308544e+001,-2.48809586916173e-001

1.23114441334492e+004,-2.29073762031863e+001,-2.52282830966768e-001

1.24833054890161e+004,-2.29073769972312e+001,-2.55804559343631e-001

1.26575659397028e+004,-2.29073778135997e+001,-2.59375448846395e-001

1.28342589756290e+004,-2.29073786529192e+001,-2.62996185723917e-001

1.30134185544193e+004,-2.29073795158351e+001,-2.66667465802399e-001

1.31950791077289e+004,-2.29073804030107e+001,-2.70389994622541e-001

1.33792755478611e+004,-2.29073813151279e+001,-2.74164487572992e-001

1.35660432744767e+004,-2.29073822528882e+001,-2.77991670025264e-001

1.37554181813974e+004,-2.29073832170122e+001,-2.81872277479947e-001

1.39474366635040e+004,-2.29073842082413e+001,-2.85807055700659e-001

1.41421356237309e+004,-2.29073852273373e+001,-2.89796760863517e-001

1.43395524801583e+004,-2.29073862750839e+001,-2.93842159697316e-001

1.45397251732031e+004,-2.29073873522863e+001,-2.97944029634432e-001

1.47426921729110e+004,-2.29073884597727e+001,-3.02103158958047e-001

1.49484924863494e+004,-2.29073895983946e+001,-3.06320346954513e-001

1.51571656651040e+004,-2.29073907690272e+001,-3.10596404066541e-001

1.53687518128801e+004,-2.29073919725704e+001,-3.14932152049798e-001

1.55832915932100e+004,-2.29073932099495e+001,-3.19328424130396e-001

1.58008262372675e+004,-2.29073944821158e+001,-3.23786065162069e-001

1.60213975517924e+004,-2.29073957900470e+001,-3.28305931795277e-001

1.62450479271247e+004,-2.29073971347490e+001,-3.32888892633174e-001

1.64718203453514e+004,-2.29073985172552e+001,-3.37535828406074e-001

1.67017583885674e+004,-2.29073999386284e+001,-3.42247632136031e-001

1.69349062472505e+004,-2.29074013999615e+001,-3.47025209309722e-001

1.71713087287550e+004,-2.29074029023778e+001,-3.51869478052349e-001

1.74110112659224e+004,-2.29074044470322e+001,-3.56781369304795e-001

1.76540599258131e+004,-2.29074060351122e+001,-3.61761827000919e-001

1.79005014185594e+004,-2.29074076678387e+001,-3.66811808249825e-001

1.81503831063432e+004,-2.29074093464668e+001,-3.71932283520621e-001

1.84037530124975e+004,-2.29074110722867e+001,-3.77124236826674e-001

1.86606598307361e+004,-2.29074128466256e+001,-3.82388665915100e-001

1.89211529345119e+004,-2.29074146708471e+001,-3.87726582460639e-001

1.91852823865052e+004,-2.29074165463537e+001,-3.93139012256889e-001

1.94530989482457e+004,-2.29074184745872e+001,-3.98626995416295e-001

1.97246540898671e+004,-2.29074204570299e+001,-4.04191586566399e-001

1.99999999999999e+004,-2.29074224952058e+001,-4.09833855056572e-001

2.02791895958005e+004,-2.29074245906815e+001,-4.15554885159985e-001

2.05622765331213e+004,-2.29074267450682e+001,-4.21355776282618e-001

2.08493152168224e+004,-2.29074289600219e+001,-4.27237643175507e-001

2.11403608112276e+004,-2.29074312372453e+001,-4.33201616148665e-001

2.14354692507258e+004,-2.29074335784889e+001,-4.39248841287266e-001

2.17346972505211e+004,-2.29074359855527e+001,-4.45380480671087e-001

2.20381023175322e+004,-2.29074384602868e+001,-4.51597712600740e-001

2.23457427614443e+004,-2.29074410045939e+001,-4.57901731819778e-001

2.26576777059159e+004,-2.29074436204297e+001,-4.64293749748342e-001

2.29739670999406e+004,-2.29074463098051e+001,-4.70774994711552e-001

2.32946717293690e+004,-2.29074490747875e+001,-4.77346712178905e-001

2.36198532285905e+004,-2.29074519175024e+001,-4.84010165001858e-001

2.39495740923785e+004,-2.29074548401350e+001,-4.90766633656097e-001

2.42838976879009e+004,-2.29074578449321e+001,-4.97617416488225e-001

2.46228882668982e+004,-2.29074609342035e+001,-5.04563829963870e-001

2.49666109780322e+004,-2.29074641103240e+001,-5.11607208921500e-001

2.53151318794055e+004,-2.29074673757351e+001,-5.18748906828390e-001

2.56685179512580e+004,-2.29074707329469e+001,-5.25990296040866e-001

2.60268371088386e+004,-2.29074741845403e+001,-5.33332768066493e-001

2.63901582154578e+004,-2.29074777331685e+001,-5.40777733832037e-001

2.67585510957221e+004,-2.29074813815594e+001,-5.48326623954968e-001

2.71320865489533e+004,-2.29074851325174e+001,-5.55980889016743e-001

2.75108363627948e+004,-2.29074889889261e+001,-5.63741999842123e-001

2.78948733270080e+004,-2.29074929537498e+001,-5.71611447781323e-001

2.82842712474618e+004,-2.29074970300362e+001,-5.79590744996121e-001

2.86791049603164e+004,-2.29075012209189e+001,-5.87681424750033e-001

2.90794503464061e+004,-2.29075055296194e+001,-5.95885041702644e-001

2.94853843458219e+004,-2.29075099594497e+001,-6.04203172208867e-001

2.98969849726987e+004,-2.29075145138151e+001,-6.12637414619024e-001

3.03143313302078e+004,-2.29075191962164e+001,-6.21189389588752e-001

3.07375036257601e+004,-2.29075240102530e+001,-6.29860740387413e-001

3.11665831864199e+004,-2.29075289596252e+001,-6.38653133215089e-001

3.16016524745350e+004,-2.29075340481378e+001,-6.47568257520533e-001

3.20427951035848e+004,-2.29075392797020e+001,-6.56607826328301e-001

3.24900958542493e+004,-2.29075446583393e+001,-6.65773576562977e-001

3.29436406907028e+004,-2.29075501881842e+001,-6.75067269386708e-001

3.34035167771346e+004,-2.29075558734871e+001,-6.84490690535320e-001

3.38698124945009e+004,-2.29075617186184e+001,-6.94045650659873e-001

3.43426174575100e+004,-2.29075677280709e+001,-7.03733985675173e-001

3.48220225318448e+004,-2.29075739064639e+001,-7.13557557112342e-001

3.53081198516260e+004,-2.29075802585466e+001,-7.23518252473927e-001

3.58010028371187e+004,-2.29075867892014e+001,-7.33617985599082e-001

3.63007662126863e+004,-2.29075935034483e+001,-7.43858697026336e-001

3.68075060249948e+004,-2.29076004064481e+001,-7.54242354370164e-001

3.73213196614721e+004,-2.29076075035069e+001,-7.64770952694656e-001

3.78423058690237e+004,-2.29076148000797e+001,-7.75446514898988e-001

3.83705647730104e+004,-2.29076223017751e+001,-7.86271092102365e-001

3.89061978964912e+004,-2.29076300143590e+001,-7.97246764039982e-001

3.94493081797342e+004,-2.29076379437597e+001,-8.08375639459475e-001

3.99999999999998e+004,-2.29076460960719e+001,-8.19659856527307e-001

4.05583791916010e+004,-2.29076544775618e+001,-8.31101583236408e-001

4.11245530662425e+004,-2.29076630946715e+001,-8.42703017823100e-001

4.16986304336447e+004,-2.29076719540242e+001,-8.54466389188281e-001

4.22807216224550e+004,-2.29076810624295e+001,-8.66393957323834e-001

4.28709385014515e+004,-2.29076904268880e+001,-8.78488013747080e-001

4.34693945010421e+004,-2.29077000545976e+001,-8.90750881937213e-001

4.40762046350642e+004,-2.29077099529577e+001,-9.03184917783799e-001

4.46914855228886e+004,-2.29077201295765e+001,-9.15792510035576e-001

4.53153554118317e+004,-2.29077305922755e+001,-9.28576080758374e-001

4.59479341998812e+004,-2.29077413490961e+001,-9.41538085800907e-001

4.65893434587380e+004,-2.29077524083059e+001,-9.54681015262385e-001

4.72397064571810e+004,-2.29077637784046e+001,-9.68007393971211e-001

4.78991481847569e+004,-2.29077754681311e+001,-9.81519781967314e-001

4.85677953758016e+004,-2.29077874864694e+001,-9.95220774994167e-001

4.92457765337964e+004,-2.29077998426566e+001,-1.00911300499222e+000

4.99332219560642e+004,-2.29078125461888e+001,-1.02319914060723e+000

5.06302637588109e+004,-2.29078256068293e+001,-1.03748188769673e+000

5.13370359025159e+004,-2.29078390346157e+001,-1.05196398985071e+000

5.20536742176771e+004,-2.29078528398676e+001,-1.06664822891517e+000

5.27803164309155e+004,-2.29078670331949e+001,-1.08153742552491e+000

5.35171021914442e+004,-2.29078816255050e+001,-1.09663443964353e+000

5.42641730979066e+004,-2.29078966280128e+001,-1.11194217110833e+000

5.50216727255895e+004,-2.29079120522472e+001,-1.12746356018883e+000

5.57897466540159e+004,-2.29079279100621e+001,-1.14320158814460e+000

5.65685424949235e+004,-2.29079442136437e+001,-1.15915927779890e+000

5.73582099206328e+004,-2.29079609755211e+001,-1.17533969411354e+000

5.81589006928121e+004,-2.29079782085753e+001,-1.19174594477731e+000

5.89707686916437e+004,-2.29079959260493e+001,-1.20838118079800e+000

5.97939699453972e+004,-2.29080141415581e+001,-1.22524859710590e+000

6.06286626604156e+004,-2.29080328690993e+001,-1.24235143316335e+000

6.14750072515201e+004,-2.29080521230638e+001,-1.25969297358291e+000

6.23331663728396e+004,-2.29080719182468e+001,-1.27727654875628e+000

6.32033049490698e+004,-2.29080922698594e+001,-1.29510553548932e+000

6.40855902071694e+004,-2.29081131935396e+001,-1.31318335764656e+000

6.49801917084985e+004,-2.29081347053654e+001,-1.33151348680471e+000

6.58872813814055e+004,-2.29081568218659e+001,-1.35009944291632e+000

6.68070335542691e+004,-2.29081795600350e+001,-1.36894479497937e+000

6.77396249890018e+004,-2.29082029373438e+001,-1.38805316172055e+000

6.86852349150199e+004,-2.29082269717542e+001,-1.40742821228357e+000

6.96440450636895e+004,-2.29082516817329e+001,-1.42707366692913e+000

7.06162397032520e+004,-2.29082770862652e+001,-1.44699329774464e+000

7.16020056742374e+004,-2.29083032048697e+001,-1.46719092936358e+000

7.26015324253724e+004,-2.29083300576135e+001,-1.48767043969259e+000

7.36150120499896e+004,-2.29083576651271e+001,-1.50843576065269e+000

7.46426393229441e+004,-2.29083860486207e+001,-1.52949087892543e+000

7.56846117380472e+004,-2.29084152299003e+001,-1.55083983671466e+000

7.67411295460207e+004,-2.29084452313841e+001,-1.57248673251409e+000

7.78123957929823e+004,-2.29084760761204e+001,-1.59443572188779e+000

7.88986163594682e+004,-2.29085077878044e+001,-1.61669101826165e+000

7.99999999999995e+004,-2.29085403907973e+001,-1.63925689372353e+000

8.11167583832018e+004,-2.29085739101439e+001,-1.66213767983679e+000

8.22491061324848e+004,-2.29086083715928e+001,-1.68533776846258e+000

8.33972608672892e+004,-2.29086438016157e+001,-1.70886161259504e+000

8.45614432449099e+004,-2.29086802274273e+001,-1.73271372720787e+000

8.57418770029029e+004,-2.29087176770071e+001,-1.75689869011023e+000

8.69387890020841e+004,-2.29087561791197e+001,-1.78142114281719e+000

8.81524092701283e+004,-2.29087957633380e+001,-1.80628579142991e+000

8.93829710457770e+004,-2.29088364600647e+001,-1.83149740752885e+000

9.06307108236633e+004,-2.29088783005566e+001,-1.85706082907827e+000

9.18958683997622e+004,-2.29089213169478e+001,-1.88298096134392e+000

9.31786869174758e+004,-2.29089655422747e+001,-1.90926277782203e+000

9.44794129143618e+004,-2.29090110105013e+001,-1.93591132118160e+000

9.57982963695136e+004,-2.29090577565448e+001,-1.96293170421977e+000

9.71355907516031e+004,-2.29091058163030e+001,-1.99032911082836e+000

9.84915530675926e+004,-2.29091552266811e+001,-2.01810879697558e+000

9.98664439121282e+004,-2.29092060256204e+001,-2.04627609169980e+000

1.01260527517622e+005,-2.29092582521270e+001,-2.07483639811676e+000

1.02674071805032e+005,-2.29093119463020e+001,-2.10379519443961e+000

1.04107348435354e+005,-2.29093671493720e+001,-2.13315803501423e+000

1.05560632861831e+005,-2.29094239037205e+001,-2.16293055136822e+000

1.07034204382888e+005,-2.29094822529203e+001,-2.19311845327141e+000

1.08528346195813e+005,-2.29095422417674e+001,-2.22372752981382e+000

1.10043345451179e+005,-2.29096039163146e+001,-2.25476365049597e+000

1.11579493308032e+005,-2.29096673239066e+001,-2.28623276633510e+000

1.13137084989847e+005,-2.29097325132169e+001,-2.31814091098419e+000

1.14716419841265e+005,-2.29097995342844e+001,-2.35049420186792e+000

1.16317801385624e+005,-2.29098684385521e+001,-2.38329884133178e+000

1.17941537383287e+005,-2.29099392789056e+001,-2.41656111780930e+000

1.19587939890794e+005,-2.29100121097146e+001,-2.45028740700040e+000

1.21257325320831e+005,-2.29100869868735e+001,-2.48448417306959e+000

1.22950014503040e+005,-2.29101639678444e+001,-2.51915796985723e+000

1.24666332745679e+005,-2.29102431117011e+001,-2.55431544210820e+000

1.26406609898139e+005,-2.29103244791740e+001,-2.58996332671520e+000

1.28171180414339e+005,-2.29104081326966e+001,-2.62610845398042e+000

1.29960383416997e+005,-2.29104941364529e+001,-2.66275774889151e+000

1.31774562762811e+005,-2.29105825564266e+001,-2.69991823241654e+000

1.33614067108538e+005,-2.29106734604512e+001,-2.73759702281344e+000

1.35479249978003e+005,-2.29107669182618e+001,-2.77580133695880e+000

1.37370469830040e+005,-2.29108630015485e+001,-2.81453849169120e+000

1.39288090127379e+005,-2.29109617840105e+001,-2.85381590517568e+000

1.41232479406504e+005,-2.29110633414127e+001,-2.89364109828236e+000

1.43204011348474e+005,-2.29111677516433e+001,-2.93402169598374e+000

1.45203064850745e+005,-2.29112750947728e+001,-2.97496542877250e+000

1.47230024099979e+005,-2.29113854531156e+001,-3.01648013409347e+000

1.49285278645888e+005,-2.29114989112919e+001,-3.05857375779675e+000

1.51369223476094e+005,-2.29116155562926e+001,-3.10125435560873e+000

1.53482259092041e+005,-2.29117354775453e+001,-3.14453009462178e+000

1.55624791585964e+005,-2.29118587669821e+001,-3.18840925480271e+000

1.57797232718936e+005,-2.29119855191098e+001,-3.23290023051987e+000

1.59999999999999e+005,-2.29121158310818e+001,-3.27801153209109e+000

1.62233516766403e+005,-2.29122498027712e+001,-3.32375178734961e+000

1.64498212264969e+005,-2.29123875368474e+001,-3.37012974323035e+000

1.66794521734578e+005,-2.29125291388537e+001,-3.41715426737579e+000

1.69122886489819e+005,-2.29126747172874e+001,-3.46483434976249e+000

1.71483754005805e+005,-2.29128243836823e+001,-3.51317910434632e+000

1.73877578004168e+005,-2.29129782526927e+001,-3.56219777073019e+000

1.76304818540256e+005,-2.29131364421811e+001,-3.61189971585054e+000

1.78765942091554e+005,-2.29132990733070e+001,-3.66229443568531e+000

1.81261421647326e+005,-2.29134662706187e+001,-3.71339155698328e+000

1.83791736799524e+005,-2.29136381621476e+001,-3.76520083901345e+000

1.86357373834951e+005,-2.29138148795051e+001,-3.81773217533628e+000

1.88958825828723e+005,-2.29139965579825e+001,-3.87099559559654e+000

1.91596592739027e+005,-2.29141833366525e+001,-3.92500126733735e+000

1.94271181503206e+005,-2.29143753584750e+001,-3.97975949783572e+000

1.96983106135185e+005,-2.29145727704048e+001,-4.03528073596079e+000

1.99732887824256e+005,-2.29147757235024e+001,-4.09157557405311e+000

2.02521055035243e+005,-2.29149843730483e+001,-4.14865474982711e+000

2.05348143610063e+005,-2.29151988786597e+001,-4.20652914829508e+000

2.08214696870707e+005,-2.29154194044114e+001,-4.26520980371334e+000

2.11121265723661e+005,-2.29156461189585e+001,-4.32470790155283e+000

2.14068408765776e+005,-2.29158791956643e+001,-4.38503478048952e+000

2.17056692391625e+005,-2.29161188127301e+001,-4.44620193442046e+000

2.20086690902357e+005,-2.29163651533296e+001,-4.50822101450089e+000

2.23158986616063e+005,-2.29166184057462e+001,-4.57110383120490e+000

2.26274169979693e+005,-2.29168787635146e+001,-4.63486235640994e+000

2.29432839682530e+005,-2.29171464255660e+001,-4.69950872550265e+000

2.32635602771247e+005,-2.29174215963773e+001,-4.76505523951067e+000

2.35883074766574e+005,-2.29177044861245e+001,-4.83151436725551e+000

2.39175879781588e+005,-2.29179953108395e+001,-4.89889874753013e+000

2.42514650641661e+005,-2.29182942925729e+001,-4.96722119129892e+000

2.45900029006080e+005,-2.29186016595585e+001,-5.03649468392296e+000

2.49332665491357e+005,-2.29189176463855e+001,-5.10673238740652e+000

2.52813219796278e+005,-2.29192424941722e+001,-5.17794764266925e+000

2.56342360828676e+005,-2.29195764507468e+001,-5.25015397184043e+000

2.59920766833993e+005,-2.29199197708317e+001,-5.32336508057804e+000

2.63549125525621e+005,-2.29202727162333e+001,-5.39759486040999e+000

2.67228134217075e+005,-2.29206355560368e+001,-5.47285739109996e+000

2.70958499956006e+005,-2.29210085668061e+001,-5.54916694303687e+000

2.74740939660078e+005,-2.29213920327891e+001,-5.62653797964583e+000

2.78576180254757e+005,-2.29217862461292e+001,-5.70498515982505e+000

2.82464958813007e+005,-2.29221915070807e+001,-5.78452334040443e+000

2.86408022696948e+005,-2.29226081242321e+001,-5.86516757862701e+000

2.90406129701488e+005,-2.29230364147339e+001,-5.94693313465419e+000

2.94460048199957e+005,-2.29234767045327e+001,-6.02983547409369e+000

2.98570557291775e+005,-2.29239293286121e+001,-6.11389027054936e+000

3.02738446952187e+005,-2.29243946312394e+001,-6.19911340819430e+000

3.06964518184081e+005,-2.29248729662189e+001,-6.28552098436518e+000

3.11249583171928e+005,-2.29253646971523e+001,-6.37312931218010e+000

3.15594465437872e+005,-2.29258701977054e+001,-6.46195492317585e+000

3.19999999999997e+005,-2.29263898518825e+001,-6.55201456996885e+000

3.24467033532806e+005,-2.29269240543070e+001,-6.64332522893523e+000

3.28996424529938e+005,-2.29274732105108e+001,-6.73590410291269e+000

3.33589043469155e+005,-2.29280377372297e+001,-6.82976862392251e+000

3.38245772979638e+005,-2.29286180627079e+001,-6.92493645591066e+000

3.42967508011610e+005,-2.29292146270092e+001,-7.02142549750936e+000

3.47755156008335e+005,-2.29298278823376e+001,-7.11925388481662e+000

3.52609637080511e+005,-2.29304582933649e+001,-7.21843999419505e+000

3.57531884183106e+005,-2.29311063375677e+001,-7.31900244508725e+000

3.62522843294651e+005,-2.29317725055729e+001,-7.42096010284976e+000

3.67583473599047e+005,-2.29324573015117e+001,-7.52433208160255e+000

3.72714747669902e+005,-2.29331612433831e+001,-7.62913774709491e+000

3.77917651657445e+005,-2.29338848634269e+001,-7.73539671958587e+000

3.83193185478053e+005,-2.29346287085055e+001,-7.84312887674011e+000

3.88542363006410e+005,-2.29353933404959e+001,-7.95235435653599e+000

3.93966212270369e+005,-2.29361793366919e+001,-8.06309356018695e+000

3.99465775648511e+005,-2.29369872902158e+001,-8.17536715507465e+000

4.05042110070485e+005,-2.29378178104413e+001,-8.28919607769264e+000

4.10696287220124e+005,-2.29386715234259e+001,-8.40460153659921e+000

4.16429393741414e+005,-2.29395490723557e+001,-8.52160501538005e+000

4.22242531447321e+005,-2.29404511179995e+001,-8.64022827561682e+000

4.28136817531551e+005,-2.29413783391760e+001,-8.76049335986260e+000

4.34113384783250e+005,-2.29423314332310e+001,-8.88242259462263e+000

4.40173381804713e+005,-2.29433111165274e+001,-9.00603859333730e+000

4.46317973232124e+005,-2.29443181249468e+001,-9.13136425936806e+000

4.52548339959385e+005,-2.29453532144038e+001,-9.25842278898405e+000

4.58865679365059e+005,-2.29464171613720e+001,-9.38723767434684e+000

4.65271205542494e+005,-2.29475107634235e+001,-9.51783270649289e+000

4.71766149533147e+005,-2.29486348397813e+001,-9.65023197831156e+000

4.78351759563174e+005,-2.29497902318850e+001,-9.78445988751688e+000

4.85029301283321e+005,-2.29509778039694e+001,-9.92054113961047e+000

4.91800058012158e+005,-2.29521984436578e+001,-1.00585007508349e+001

4.98665330982714e+005,-2.29534530625686e+001,-1.01983640511144e+001

5.05626439592555e+005,-2.29547425969369e+001,-1.03401566869805e+001

5.12684721657352e+005,-2.29560680082494e+001,-1.04839046244816e+001

5.19841533667984e+005,-2.29574302838955e+001,-1.06296341520724e+001

5.27098251051240e+005,-2.29588304378327e+001,-1.07773718834824e+001

5.34456268434150e+005,-2.29602695112668e+001,-1.09271447605587e+001

5.41916999912011e+005,-2.29617485733488e+001,-1.10789800560824e+001

