Freq.,VOut,OutRef

1.00000000000000e+004,-3.06145295367989e+001,-3.30849976879792e-001

1.01395947979003e+004,-3.06145311166579e+001,-3.35468447289315e-001

1.02811382665607e+004,-3.06145327409322e+001,-3.40151388160036e-001

1.04246576084112e+004,-3.06145344108706e+001,-3.44899699423862e-001

1.05701804056138e+004,-3.06145361277567e+001,-3.49714293574258e-001

1.07177346253629e+004,-3.06145378929105e+001,-3.54596095840235e-001

1.08673486252606e+004,-3.06145397076888e+001,-3.59546044365130e-001

1.10190511587661e+004,-3.06145415734868e+001,-3.64565090385717e-001

1.11728713807222e+004,-3.06145434917388e+001,-3.69654198416056e-001

1.13288388529580e+004,-3.06145454639194e+001,-3.74814346431113e-001

1.14869835499703e+004,-3.06145474915447e+001,-3.80046526056846e-001

1.16473358646846e+004,-3.06145495761735e+001,-3.85351742758586e-001

1.18099266142953e+004,-3.06145517194083e+001,-3.90731016035062e-001

1.19747870461893e+004,-3.06145539228967e+001,-3.96185379614199e-001

1.21419488439505e+004,-3.06145561883325e+001,-4.01715881651889e-001

1.23114441334492e+004,-3.06145585174573e+001,-4.07323584932933e-001

1.24833054890161e+004,-3.06145609120617e+001,-4.13009567073613e-001

1.26575659397028e+004,-3.06145633739862e+001,-4.18774920732902e-001

1.28342589756290e+004,-3.06145659051238e+001,-4.24620753816291e-001

1.30134185544193e+004,-3.06145685074198e+001,-4.30548189695340e-001

1.31950791077289e+004,-3.06145711828750e+001,-4.36558367416473e-001

1.33792755478611e+004,-3.06145739335459e+001,-4.42652441924931e-001

1.35660432744767e+004,-3.06145767615471e+001,-4.48831584284771e-001

1.37554181813974e+004,-3.06145796690526e+001,-4.55096981901896e-001

1.39474366635040e+004,-3.06145826582975e+001,-4.61449838755545e-001

1.41421356237309e+004,-3.06145857315795e+001,-4.67891375627109e-001

1.43395524801583e+004,-3.06145888912613e+001,-4.74422830334294e-001

1.45397251732031e+004,-3.06145921397719e+001,-4.81045457969957e-001

1.47426921729110e+004,-3.06145954796081e+001,-4.87760531143560e-001

1.49484924863494e+004,-3.06145989133377e+001,-4.94569340222323e-001

1.51571656651040e+004,-3.06146024436001e+001,-5.01473193583304e-001

1.53687518128801e+004,-3.06146060731091e+001,-5.08473417861181e-001

1.55832915932100e+004,-3.06146098046547e+001,-5.15571358204325e-001

1.58008262372675e+004,-3.06146136411054e+001,-5.22768378532660e-001

1.60213975517924e+004,-3.06146175854104e+001,-5.30065861799732e-001

1.62450479271247e+004,-3.06146216406015e+001,-5.37465210258276e-001

1.64718203453514e+004,-3.06146258097962e+001,-5.44967845728330e-001

1.67017583885674e+004,-3.06146300961993e+001,-5.52575209870678e-001

1.69349062472505e+004,-3.06146345031057e+001,-5.60288764464491e-001

1.71713087287550e+004,-3.06146390339030e+001,-5.68109991686881e-001

1.74110112659224e+004,-3.06146436920741e+001,-5.76040394397254e-001

1.76540599258131e+004,-3.06146484811997e+001,-5.84081496424990e-001

1.79005014185594e+004,-3.06146534049612e+001,-5.92234842864356e-001

1.81503831063432e+004,-3.06146584671433e+001,-6.00502000368272e-001

1.84037530124975e+004,-3.06146636716374e+001,-6.08884557450937e-001

1.86606598307361e+004,-3.06146690224440e+001,-6.17384124789818e-001

1.89211529345119e+004,-3.06146745236764e+001,-6.26002335537911e-001

1.91852823865052e+004,-3.06146801795630e+001,-6.34740845635757e-001

1.94530989482457e+004,-3.06146859944516e+001,-6.43601334128099e-001

1.97246540898671e+004,-3.06146919728119e+001,-6.52585503486876e-001

1.99999999999999e+004,-3.06146981192393e+001,-6.61695079937790e-001

2.02791895958005e+004,-3.06147044384584e+001,-6.70931813791264e-001

2.05622765331213e+004,-3.06147109353266e+001,-6.80297479778451e-001

2.08493152168224e+004,-3.06147176148377e+001,-6.89793877390406e-001

2.11403608112276e+004,-3.06147244821262e+001,-6.99422831224636e-001

2.14354692507258e+004,-3.06147315424705e+001,-7.09186191333909e-001

2.17346972505211e+004,-3.06147388012977e+001,-7.19085833581406e-001

2.20381023175322e+004,-3.06147462641873e+001,-7.29123660000700e-001

2.23457427614443e+004,-3.06147539368756e+001,-7.39301599160000e-001

2.26576777059159e+004,-3.06147618252602e+001,-7.49621606530745e-001

2.29739670999406e+004,-3.06147699354045e+001,-7.60085664865156e-001

2.32946717293690e+004,-3.06147782735422e+001,-7.70695784573337e-001

2.36198532285905e+004,-3.06147868460823e+001,-7.81454004110760e-001

2.39495740923785e+004,-3.06147956596140e+001,-7.92362390367621e-001

2.42838976879009e+004,-3.06148047209114e+001,-8.03423039065657e-001

2.46228882668982e+004,-3.06148140369395e+001,-8.14638075159265e-001

2.49666109780322e+004,-3.06148236148586e+001,-8.26009653242119e-001

2.53151318794055e+004,-3.06148334620304e+001,-8.37539957961497e-001

2.56685179512580e+004,-3.06148435860237e+001,-8.49231204435560e-001

2.60268371088386e+004,-3.06148539946196e+001,-8.61085638677609e-001

2.63901582154578e+004,-3.06148646958184e+001,-8.73105538026436e-001

2.67585510957221e+004,-3.06148756978449e+001,-8.85293211583106e-001

2.71320865489533e+004,-3.06148870091551e+001,-8.97651000652238e-001

2.75108363627948e+004,-3.06148986384427e+001,-9.10181279190238e-001

2.78948733270080e+004,-3.06149105946458e+001,-9.22886454261215e-001

2.82842712474618e+004,-3.06149228869536e+001,-9.35768966495494e-001

2.86791049603164e+004,-3.06149355248137e+001,-9.48831290558276e-001

2.90794503464061e+004,-3.06149485179388e+001,-9.62075935623644e-001

2.94853843458219e+004,-3.06149618763152e+001,-9.75505445852344e-001

2.98969849726987e+004,-3.06149756102093e+001,-9.89122400882230e-001

3.03143313302078e+004,-3.06149897301762e+001,-1.00292941631827e+000

3.07375036257601e+004,-3.06150042470677e+001,-1.01692914423460e+000

3.11665831864199e+004,-3.06150191720405e+001,-1.03112427368189e+000

3.16016524745350e+004,-3.06150345165647e+001,-1.04551753120119e+000

3.20427951035848e+004,-3.06150502924330e+001,-1.06011168134469e+000

3.24900958542493e+004,-3.06150665117693e+001,-1.07490952720547e+000

3.29436406907028e+004,-3.06150831870381e+001,-1.08991391095230e+000

3.34035167771346e+004,-3.06151003310543e+001,-1.10512771437359e+000

3.38698124945009e+004,-3.06151179569929e+001,-1.12055385942682e+000

3.43426174575100e+004,-3.06151360783991e+001,-1.13619530879927e+000

3.48220225318448e+004,-3.06151547091986e+001,-1.15205506647105e+000

3.53081198516260e+004,-3.06151738637086e+001,-1.16813617829046e+000

3.58010028371187e+004,-3.06151935566485e+001,-1.18444173255564e+000

3.63007662126863e+004,-3.06152138031510e+001,-1.20097486060475e+000

3.68075060249948e+004,-3.06152346187744e+001,-1.21773873741163e+000

3.73213196614721e+004,-3.06152560195140e+001,-1.23473658219378e+000

3.78423058690237e+004,-3.06152780218145e+001,-1.25197165902605e+000

3.83705647730104e+004,-3.06153006425824e+001,-1.26944727746327e+000

3.89061978964912e+004,-3.06153238991997e+001,-1.28716679317123e+000

3.94493081797342e+004,-3.06153478095363e+001,-1.30513360856766e+000

3.99999999999998e+004,-3.06153723919643e+001,-1.32335117347009e+000

4.05583791916010e+004,-3.06153976653721e+001,-1.34182298575273e+000

4.11245530662425e+004,-3.06154236491783e+001,-1.36055259201528e+000

4.16986304336447e+004,-3.06154503633475e+001,-1.37954358825646e+000

4.22807216224550e+004,-3.06154778284048e+001,-1.39879962056033e+000

4.28709385014515e+004,-3.06155060654523e+001,-1.41832438578989e+000

4.34693945010421e+004,-3.06155350961843e+001,-1.43812163229174e+000

4.40762046350642e+004,-3.06155649429049e+001,-1.45819516060850e+000

4.46914855228886e+004,-3.06155956285446e+001,-1.47854882420277e+000

4.53153554118317e+004,-3.06156271766781e+001,-1.49918653018982e+000

4.59479341998812e+004,-3.06156596115421e+001,-1.52011224008104e+000

4.65893434587380e+004,-3.06156929580541e+001,-1.54132997053648e+000

4.72397064571810e+004,-3.06157272418314e+001,-1.56284379412887e+000

4.78991481847569e+004,-3.06157624892110e+001,-1.58465784011659e+000

4.85677953758016e+004,-3.06157987272693e+001,-1.60677629522958e+000

4.92457765337964e+004,-3.06158359838433e+001,-1.62920340446227e+000

4.99332219560642e+004,-3.06158742875518e+001,-1.65194347188082e+000

5.06302637588109e+004,-3.06159136678170e+001,-1.67500086143941e+000

5.13370359025159e+004,-3.06159541548878e+001,-1.69837999780762e+000

5.20536742176771e+004,-3.06159957798620e+001,-1.72208536721007e+000

5.27803164309155e+004,-3.06160385747109e+001,-1.74612151827611e+000

5.35171021914442e+004,-3.06160825723036e+001,-1.77049306290191e+000

5.42641730979066e+004,-3.06161278064320e+001,-1.79520467712345e+000

5.50216727255895e+004,-3.06161743118366e+001,-1.82026110200296e+000

5.57897466540159e+004,-3.06162221242336e+001,-1.84566714452426e+000

5.65685424949235e+004,-3.06162712803416e+001,-1.87142767850375e+000

5.73582099206328e+004,-3.06163218179104e+001,-1.89754764551004e+000

5.81589006928121e+004,-3.06163737757492e+001,-1.92403205579960e+000

5.89707686916437e+004,-3.06164271937568e+001,-1.95088598926166e+000

5.97939699453972e+004,-3.06164821129520e+001,-1.97811459637818e+000

6.06286626604156e+004,-3.06165385755047e+001,-2.00572309919491e+000

6.14750072515201e+004,-3.06165966247688e+001,-2.03371679230647e+000

6.23331663728396e+004,-3.06166563053147e+001,-2.06210104385539e+000

6.32033049490698e+004,-3.06167176629640e+001,-2.09088129654124e+000

6.40855902071694e+004,-3.06167807448237e+001,-2.12006306864806e+000

6.49801917084985e+004,-3.06168455993233e+001,-2.14965195507982e+000

6.58872813814055e+004,-3.06169122762509e+001,-2.17965362841549e+000

6.68070335542691e+004,-3.06169808267919e+001,-2.21007383997301e+000

6.77396249890018e+004,-3.06170513035677e+001,-2.24091842089059e+000

6.86852349150199e+004,-3.06171237606760e+001,-2.27219328322089e+000

6.96440450636895e+004,-3.06171982537324e+001,-2.30390442104004e+000

7.06162397032520e+004,-3.06172748399125e+001,-2.33605791157152e+000

7.16020056742374e+004,-3.06173535779960e+001,-2.36865991632387e+000

7.26015324253724e+004,-3.06174345284110e+001,-2.40171668224461e+000

7.36150120499896e+004,-3.06175177532809e+001,-2.43523454288802e+000

7.46426393229441e+004,-3.06176033164711e+001,-2.46921991959981e+000

7.56846117380472e+004,-3.06176912836381e+001,-2.50367932271530e+000

7.67411295460207e+004,-3.06177817222798e+001,-2.53861935277452e+000

7.78123957929823e+004,-3.06178747017863e+001,-2.57404670175298e+000

7.88986163594682e+004,-3.06179702934937e+001,-2.60996815430789e+000

7.99999999999995e+004,-3.06180685707378e+001,-2.64639058904162e+000

8.11167583832018e+004,-3.06181696089105e+001,-2.68332097977914e+000

8.22491061324848e+004,-3.06182734855169e+001,-2.72076639686513e+000

8.33972608672892e+004,-3.06183802802345e+001,-2.75873400847517e+000

8.45614432449099e+004,-3.06184900749739e+001,-2.79723108194487e+000

8.57418770029029e+004,-3.06186029539414e+001,-2.83626498511639e+000

8.69387890020841e+004,-3.06187190037026e+001,-2.87584318770041e+000

8.81524092701283e+004,-3.06188383132489e+001,-2.91597326265736e+000

8.93829710457770e+004,-3.06189609740648e+001,-2.95666288759576e+000

9.06307108236633e+004,-3.06190870801976e+001,-2.99791984618731e+000

9.18958683997622e+004,-3.06192167283291e+001,-3.03975202960023e+000

9.31786869174758e+004,-3.06193500178489e+001,-3.08216743795135e+000

9.44794129143618e+004,-3.06194870509300e+001,-3.12517418177598e+000

9.57982963695136e+004,-3.06196279326066e+001,-3.16878048351506e+000

9.71355907516031e+004,-3.06197727708536e+001,-3.21299467902305e+000

9.84915530675926e+004,-3.06199216766688e+001,-3.25782521909223e+000

9.98664439121282e+004,-3.06200747641574e+001,-3.30328067099716e+000

1.01260527517622e+005,-3.06202321506178e+001,-3.34936972005857e+000

1.02674071805032e+005,-3.06203939566314e+001,-3.39610117122470e+000

1.04107348435354e+005,-3.06205603061536e+001,-3.44348395067352e+000

1.05560632861831e+005,-3.06207313266079e+001,-3.49152710743390e+000

1.07034204382888e+005,-3.06209071489826e+001,-3.54023981502592e+000

1.08528346195813e+005,-3.06210879079294e+001,-3.58963137312244e+000

1.10043345451179e+005,-3.06212737418661e+001,-3.63971120922879e+000

1.11579493308032e+005,-3.06214647930809e+001,-3.69048888038370e+000

1.13137084989847e+005,-3.06216612078401e+001,-3.74197407487988e+000

1.14716419841265e+005,-3.06218631364987e+001,-3.79417661400511e+000

1.16317801385624e+005,-3.06220707336142e+001,-3.84710645380458e+000

1.17941537383287e+005,-3.06222841580628e+001,-3.90077368686205e+000

1.19587939890794e+005,-3.06225035731601e+001,-3.95518854410336e+000

1.21257325320831e+005,-3.06227291467837e+001,-4.01036139662038e+000

1.22950014503040e+005,-3.06229610515001e+001,-4.06630275751507e+000

1.24666332745679e+005,-3.06231994646946e+001,-4.12302328376609e+000

1.26406609898139e+005,-3.06234445687053e+001,-4.18053377811469e+000

1.28171180414339e+005,-3.06236965509599e+001,-4.23884519097369e+000

1.29960383416997e+005,-3.06239556041171e+001,-4.29796862235648e+000

1.31774562762811e+005,-3.06242219262110e+001,-4.35791532382831e+000

1.33614067108538e+005,-3.06244957208006e+001,-4.41869670047829e+000

1.35479249978003e+005,-3.06247771971221e+001,-4.48032431291293e+000

1.37370469830040e+005,-3.06250665702464e+001,-4.54280987927236e+000

1.39288090127379e+005,-3.06253640612398e+001,-4.60616527726686e+000

1.41232479406504e+005,-3.06256698973304e+001,-4.67040254623554e+000

1.43204011348474e+005,-3.06259843120777e+001,-4.73553388922697e+000

1.45203064850745e+005,-3.06263075455478e+001,-4.80157167510112e+000

1.47230024099979e+005,-3.06266398444927e+001,-4.86852844065285e+000

1.49285278645888e+005,-3.06269814625347e+001,-4.93641689275788e+000

1.51369223476094e+005,-3.06273326603558e+001,-5.00524991053911e+000

1.53482259092041e+005,-3.06276937058924e+001,-5.07504054755580e+000

1.55624791585964e+005,-3.06280648745345e+001,-5.14580203401358e+000

1.57797232718936e+005,-3.06284464493313e+001,-5.21754777899571e+000

1.59999999999999e+005,-3.06288387212017e+001,-5.29029137271678e+000

1.62233516766403e+005,-3.06292419891501e+001,-5.36404658879662e+000

1.64498212264969e+005,-3.06296565604892e+001,-5.43882738655553e+000

1.66794521734578e+005,-3.06300827510675e+001,-5.51464791333098e+000

1.69122886489819e+005,-3.06305208855034e+001,-5.59152250681521e+000

1.71483754005805e+005,-3.06309712974260e+001,-5.66946569741231e+000

1.73877578004168e+005,-3.06314343297214e+001,-5.74849221061815e+000

1.76304818540256e+005,-3.06319103347860e+001,-5.82861696941759e+000

1.78765942091554e+005,-3.06323996747871e+001,-5.90985509670406e+000

1.81261421647326e+005,-3.06329027219293e+001,-5.99222191771735e+000

1.83791736799524e+005,-3.06334198587287e+001,-6.07573296250271e+000

1.86357373834951e+005,-3.06339514782944e+001,-6.16040396838643e+000

1.88958825828723e+005,-3.06344979846168e+001,-6.24625088247242e+000

1.91596592739027e+005,-3.06350597928643e+001,-6.33328986415594e+000

1.94271181503206e+005,-3.06356373296871e+001,-6.42153728765591e+000

1.96983106135185e+005,-3.06362310335295e+001,-6.51100974456474e+000

1.99732887824256e+005,-3.06368413549499e+001,-6.60172404641413e+000

2.02521055035243e+005,-3.06374687569497e+001,-6.69369722725921e+000

2.05348143610063e+005,-3.06381137153101e+001,-6.78694654627732e+000

2.08214696870707e+005,-3.06387767189384e+001,-6.88148949038199e+000

2.11121265723661e+005,-3.06394582702229e+001,-6.97734377685334e+000

2.14068408765776e+005,-3.06401588853968e+001,-7.07452735598051e+000

2.17056692391625e+005,-3.06408790949117e+001,-7.17305841371905e+000

2.20086690902357e+005,-3.06416194438211e+001,-7.27295537436014e+000

2.23158986616063e+005,-3.06423804921732e+001,-7.37423690321180e+000

2.26274169979693e+005,-3.06431628154136e+001,-7.47692190929105e+000

2.29432839682530e+005,-3.06439670047992e+001,-7.58102954802649e+000

2.32635602771247e+005,-3.06447936678218e+001,-7.68657922396965e+000

2.35883074766574e+005,-3.06456434286428e+001,-7.79359059351415e+000

2.39175879781588e+005,-3.06465169285388e+001,-7.90208356762282e+000

2.42514650641661e+005,-3.06474148263586e+001,-8.01207831455991e+000

2.45900029006080e+005,-3.06483377989915e+001,-8.12359526262844e+000

2.49332665491357e+005,-3.06492865418474e+001,-8.23665510291084e+000

2.52813219796278e+005,-3.06502617693490e+001,-8.35127879201197e+000

2.56342360828676e+005,-3.06512642154364e+001,-8.46748755480256e+000

2.59920766833993e+005,-3.06522946340833e+001,-8.58530288716268e+000

2.63549125525621e+005,-3.06533537998276e+001,-8.70474655872209e+000

2.67228134217075e+005,-3.06544425083131e+001,-8.82584061559758e+000

2.70958499956006e+005,-3.06555615768463e+001,-8.94860738312411e+000

2.74740939660078e+005,-3.06567118449653e+001,-9.07306946857928e+000

2.78576180254757e+005,-3.06578941750236e+001,-9.19924976389870e+000

2.82464958813007e+005,-3.06591094527872e+001,-9.32717144837942e+000

2.86408022696948e+005,-3.06603585880466e+001,-9.45685799137159e+000

2.90406129701488e+005,-3.06616425152434e+001,-9.58833315495358e+000

2.94460048199957e+005,-3.06629621941111e+001,-9.72162099659062e+000

2.98570557291775e+005,-3.06643186103325e+001,-9.85674587177341e+000

3.02738446952187e+005,-3.06657127762109e+001,-9.99373243663408e+000

3.06964518184081e+005,-3.06671457313584e+001,-1.01326056505380e+001

3.11249583171928e+005,-3.06686185433993e+001,-1.02733907786477e+001

3.15594465437872e+005,-3.06701323086905e+001,-1.04161133944574e+001

3.19999999999997e+005,-3.06716881530575e+001,-1.05607993822934e+001

3.24467033532806e+005,-3.06732872325485e+001,-1.07074749397789e+001

3.28996424529938e+005,-3.06749307342043e+001,-1.08561665802607e+001

3.33589043469155e+005,-3.06766198768460e+001,-1.10069011351910e+001

3.38245772979638e+005,-3.06783559118811e+001,-1.11597057564664e+001

3.42967508011610e+005,-3.06801401241260e+001,-1.13146079187148e+001

3.47755156008335e+005,-3.06819738326475e+001,-1.14716354215311e+001

3.52609637080511e+005,-3.06838583916228e+001,-1.16308163916555e+001

3.57531884183106e+005,-3.06857951912173e+001,-1.17921792850904e+001

3.62522843294651e+005,-3.06877856584817e+001,-1.19557528891535e+001

3.67583473599047e+005,-3.06898312582681e+001,-1.21215663244608e+001

3.72714747669902e+005,-3.06919334941654e+001,-1.22896490468364e+001

3.77917651657445e+005,-3.06940939094537e+001,-1.24600308491442e+001

3.83193185478053e+005,-3.06963140880785e+001,-1.26327418630366e+001

3.88542363006410e+005,-3.06985956556453e+001,-1.28078125606145e+001

3.93966212270369e+005,-3.07009402804329e+001,-1.29852737559963e+001

3.99465775648511e+005,-3.07033496744279e+001,-1.31651566067860e+001

4.05042110070485e+005,-3.07058255943789e+001,-1.33474926154403e+001

4.10696287220124e+005,-3.07083698428712e+001,-1.35323136305240e+001

4.16429393741414e+005,-3.07109842694216e+001,-1.37196518478522e+001

4.22242531447321e+005,-3.07136707715945e+001,-1.39095398115097e+001

4.28136817531551e+005,-3.07164312961373e+001,-1.41020104147445e+001

4.34113384783250e+005,-3.07192678401375e+001,-1.42970969007259e+001

4.40173381804713e+005,-3.07221824522000e+001,-1.44948328631639e+001

4.46317973232124e+005,-3.07251772336446e+001,-1.46952522467805e+001

4.52548339959385e+005,-3.07282543397247e+001,-1.48983893476268e+001

4.58865679365059e+005,-3.07314159808656e+001,-1.51042788132392e+001

4.65271205542494e+005,-3.07346644239240e+001,-1.53129556426269e+001

4.71766149533147e+005,-3.07380019934667e+001,-1.55244551860822e+001

4.78351759563174e+005,-3.07414310730703e+001,-1.57388131448088e+001

4.85029301283321e+005,-3.07449541066393e+001,-1.59560655703554e+001

4.91800058012158e+005,-3.07485735997455e+001,-1.61762488638508e+001

4.98665330982714e+005,-3.07522921209843e+001,-1.63993997750302e+001

5.05626439592555e+005,-3.07561123033521e+001,-1.66255554010436e+001

5.12684721657352e+005,-3.07600368456403e+001,-1.68547531850389e+001

5.19841533667984e+005,-3.07640685138480e+001,-1.70870309145098e+001

5.27098251051240e+005,-3.07682101426123e+001,-1.73224267193998e+001

5.34456268434150e+005,-3.07724646366548e+001,-1.75609790699525e+001

5.41916999912011e+005,-3.07768349722451e+001,-1.78027267742997e+001

