Freq.,VOut,OutRef

1.00000000000000e+004,-2.47215961070236e+001,-3.59115033085687e-001

1.01395947979003e+004,-2.47215978154041e+001,-3.64128065255587e-001

1.02811382665607e+004,-2.47215995718129e+001,-3.69211075605707e-001

1.04246576084112e+004,-2.47216013776005e+001,-3.74365040946066e-001

1.05701804056138e+004,-2.47216032341551e+001,-3.79590951720840e-001

1.07177346253629e+004,-2.47216051429036e+001,-3.84889812198863e-001

1.08673486252606e+004,-2.47216071053136e+001,-3.90262640664367e-001

1.10190511587661e+004,-2.47216091228936e+001,-3.95710469615898e-001

1.11728713807222e+004,-2.47216111971946e+001,-4.01234345959993e-001

1.13288388529580e+004,-2.47216133298112e+001,-4.06835331217466e-001

1.14869835499703e+004,-2.47216155223829e+001,-4.12514501723346e-001

1.16473358646846e+004,-2.47216177765950e+001,-4.18272948836140e-001

1.18099266142953e+004,-2.47216200941806e+001,-4.24111779144927e-001

1.19747870461893e+004,-2.47216224769212e+001,-4.30032114684414e-001

1.21419488439505e+004,-2.47216249266485e+001,-4.36035093147564e-001

1.23114441334492e+004,-2.47216274452457e+001,-4.42121868108083e-001

1.24833054890161e+004,-2.47216300346489e+001,-4.48293609237212e-001

1.26575659397028e+004,-2.47216326968486e+001,-4.54551502532227e-001

1.28342589756290e+004,-2.47216354338914e+001,-4.60896750542341e-001

1.30134185544193e+004,-2.47216382478814e+001,-4.67330572598660e-001

1.31950791077289e+004,-2.47216411409816e+001,-4.73854205052156e-001

1.33792755478611e+004,-2.47216441154161e+001,-4.80468901504844e-001

1.35660432744767e+004,-2.47216471734714e+001,-4.87175933057589e-001

1.37554181813974e+004,-2.47216503174982e+001,-4.93976588548299e-001

1.39474366635040e+004,-2.47216535499136e+001,-5.00872174802145e-001

1.41421356237309e+004,-2.47216568732022e+001,-5.07864016882934e-001

1.43395524801583e+004,-2.47216602899188e+001,-5.14953458344810e-001

1.45397251732031e+004,-2.47216638026897e+001,-5.22141861494168e-001

1.47426921729110e+004,-2.47216674142154e+001,-5.29430607645914e-001

1.49484924863494e+004,-2.47216711272721e+001,-5.36821097394600e-001

1.51571656651040e+004,-2.47216749447139e+001,-5.44314750878985e-001

1.53687518128801e+004,-2.47216788694754e+001,-5.51913008055278e-001

1.55832915932100e+004,-2.47216829045736e+001,-5.59617328974685e-001

1.58008262372675e+004,-2.47216870531103e+001,-5.67429194063338e-001

1.60213975517924e+004,-2.47216913182746e+001,-5.75350104405590e-001

1.62450479271247e+004,-2.47216957033447e+001,-5.83381582034274e-001

1.64718203453514e+004,-2.47217002116919e+001,-5.91525170218280e-001

1.67017583885674e+004,-2.47217048467815e+001,-5.99782433764838e-001

1.69349062472505e+004,-2.47217096121765e+001,-6.08154959313989e-001

1.71713087287550e+004,-2.47217145115400e+001,-6.16644355647260e-001

1.74110112659224e+004,-2.47217195486380e+001,-6.25252253994445e-001

1.76540599258131e+004,-2.47217247273426e+001,-6.33980308346121e-001

1.79005014185594e+004,-2.47217300516345e+001,-6.42830195772780e-001

1.81503831063432e+004,-2.47217355256064e+001,-6.51803616744498e-001

1.84037530124975e+004,-2.47217411534661e+001,-6.60902295458871e-001

1.86606598307361e+004,-2.47217469395395e+001,-6.70127980171033e-001

1.89211529345119e+004,-2.47217528882741e+001,-6.79482443528645e-001

1.91852823865052e+004,-2.47217590042427e+001,-6.88967482912682e-001

1.94530989482457e+004,-2.47217652921464e+001,-6.98584920781275e-001

1.97246540898671e+004,-2.47217717568185e+001,-7.08336605020396e-001

1.99999999999999e+004,-2.47217784032280e+001,-7.18224409297596e-001

2.02791895958005e+004,-2.47217852364838e+001,-7.28250233420690e-001

2.05622765331213e+004,-2.47217922618384e+001,-7.38416003703118e-001

2.08493152168224e+004,-2.47217994846917e+001,-7.48723673332496e-001

2.11403608112276e+004,-2.47218069105957e+001,-7.59175222746312e-001

2.14354692507258e+004,-2.47218145452581e+001,-7.69772660010058e-001

2.17346972505211e+004,-2.47218223945473e+001,-7.80518021202711e-001

2.20381023175322e+004,-2.47218304644966e+001,-7.91413370807799e-001

2.23457427614443e+004,-2.47218387613086e+001,-8.02460802108644e-001

2.26576777059159e+004,-2.47218472913608e+001,-8.13662437588111e-001

2.29739670999406e+004,-2.47218560612094e+001,-8.25020429338431e-001

2.32946717293690e+004,-2.47218650775950e+001,-8.36536959470846e-001

2.36198532285905e+004,-2.47218743474480e+001,-8.48214240535009e-001

2.39495740923785e+004,-2.47218838778931e+001,-8.60054515943078e-001

2.42838976879009e+004,-2.47218936762557e+001,-8.72060060398086e-001

2.46228882668982e+004,-2.47219037500666e+001,-8.84233180331970e-001

2.49666109780322e+004,-2.47219141070686e+001,-8.96576214345502e-001

2.53151318794055e+004,-2.47219247552220e+001,-9.09091533657141e-001

2.56685179512580e+004,-2.47219357027109e+001,-9.21781542556077e-001

2.60268371088386e+004,-2.47219469579493e+001,-9.34648678864249e-001

2.63901582154578e+004,-2.47219585295878e+001,-9.47695414402414e-001

2.67585510957221e+004,-2.47219704265198e+001,-9.60924255462889e-001

2.71320865489533e+004,-2.47219826578891e+001,-9.74337743289006e-001

2.75108363627948e+004,-2.47219952330962e+001,-9.87938454563953e-001

2.78948733270080e+004,-2.47220081618058e+001,-1.00172900190085e+000

2.82842712474618e+004,-2.47220214539541e+001,-1.01571203434470e+000

2.86791049603164e+004,-2.47220351197569e+001,-1.02989023787887e+000

2.90794503464061e+004,-2.47220491697167e+001,-1.04426633593789e+000

2.94853843458219e+004,-2.47220636146313e+001,-1.05884308993117e+000

2.98969849726987e+004,-2.47220784656020e+001,-1.07362329976722e+000

3.03143313302078e+004,-2.47220937340419e+001,-1.08860980439269e+000

3.07375036257601e+004,-2.47221094316849e+001,-1.10380548233403e+000

3.11665831864199e+004,-2.47221255705947e+001,-1.11921325224701e+000

3.16016524745350e+004,-2.47221421631738e+001,-1.13483607347538e+000

3.20427951035848e+004,-2.47221592221734e+001,-1.15067694661659e+000

3.24900958542493e+004,-2.47221767607028e+001,-1.16673891409572e+000

3.29436406907028e+004,-2.47221947922400e+001,-1.18302506074535e+000

3.34035167771346e+004,-2.47222133306413e+001,-1.19953851439636e+000

3.38698124945009e+004,-2.47222323901527e+001,-1.21628244647439e+000

3.43426174575100e+004,-2.47222519854201e+001,-1.23326007260708e+000

3.48220225318448e+004,-2.47222721315011e+001,-1.25047465323591e+000

3.53081198516260e+004,-2.47222928438766e+001,-1.26792949424010e+000

3.58010028371187e+004,-2.47223141384621e+001,-1.28562794756706e+000

3.63007662126863e+004,-2.47223360316204e+001,-1.30357341187339e+000

3.68075060249948e+004,-2.47223585401740e+001,-1.32176933317110e+000

3.73213196614721e+004,-2.47223816814179e+001,-1.34021920548711e+000

3.78423058690237e+004,-2.47224054731332e+001,-1.35892657152818e+000

3.83705647730104e+004,-2.47224299336005e+001,-1.37789502335742e+000

3.89061978964912e+004,-2.47224550816139e+001,-1.39712820307839e+000

3.94493081797342e+004,-2.47224809364954e+001,-1.41662980353019e+000

3.99999999999998e+004,-2.47225075181100e+001,-1.43640356898973e+000

4.05583791916010e+004,-2.47225348468803e+001,-1.45645329588750e+000

4.11245530662425e+004,-2.47225629438030e+001,-1.47678283352728e+000

4.16986304336447e+004,-2.47225918304646e+001,-1.49739608482217e+000

4.22807216224550e+004,-2.47226215290576e+001,-1.51829700703588e+000

4.28709385014515e+004,-2.47226520623982e+001,-1.53948961253613e+000

4.34693945010421e+004,-2.47226834539433e+001,-1.56097796955843e+000

4.40762046350642e+004,-2.47227157278086e+001,-1.58276620298019e+000

4.46914855228886e+004,-2.47227489087872e+001,-1.60485849510380e+000

4.53153554118317e+004,-2.47227830223685e+001,-1.62725908645298e+000

4.59479341998812e+004,-2.47228180947578e+001,-1.64997227657804e+000

4.65893434587380e+004,-2.47228541528962e+001,-1.67300242487262e+000

4.72397064571810e+004,-2.47228912244816e+001,-1.69635395140207e+000

4.78991481847569e+004,-2.47229293379896e+001,-1.72003133774210e+000

4.85677953758016e+004,-2.47229685226954e+001,-1.74403912782974e+000

4.92457765337964e+004,-2.47230088086963e+001,-1.76838192882484e+000

4.99332219560642e+004,-2.47230502269347e+001,-1.79306441198475e+000

5.06302637588109e+004,-2.47230928092219e+001,-1.81809131354889e+000

5.13370359025159e+004,-2.47231365882622e+001,-1.84346743563737e+000

5.20536742176771e+004,-2.47231815976784e+001,-1.86919764715903e+000

5.27803164309155e+004,-2.47232278720370e+001,-1.89528688473531e+000

5.35171021914442e+004,-2.47232754468750e+001,-1.92174015363320e+000

5.42641730979066e+004,-2.47233243587271e+001,-1.94856252871309e+000

5.50216727255895e+004,-2.47233746451536e+001,-1.97575915538772e+000

5.57897466540159e+004,-2.47234263447692e+001,-2.00333525059552e+000

5.65685424949235e+004,-2.47234794972722e+001,-2.03129610378536e+000

5.73582099206328e+004,-2.47235341434757e+001,-2.05964707791642e+000

5.81589006928121e+004,-2.47235903253378e+001,-2.08839361046947e+000

5.89707686916437e+004,-2.47236480859944e+001,-2.11754121447406e+000

5.97939699453972e+004,-2.47237074697921e+001,-2.14709547954569e+000

6.06286626604156e+004,-2.47237685223218e+001,-2.17706207294216e+000

6.14750072515201e+004,-2.47238312904539e+001,-2.20744674062822e+000

6.23331663728396e+004,-2.47238958223739e+001,-2.23825530835860e+000

6.32033049490698e+004,-2.47239621676193e+001,-2.26949368277424e+000

6.40855902071694e+004,-2.47240303771177e+001,-2.30116785251157e+000

6.49801917084985e+004,-2.47241005032252e+001,-2.33328388932905e+000

6.58872813814055e+004,-2.47241725997669e+001,-2.36584794924645e+000

6.68070335542691e+004,-2.47242467220778e+001,-2.39886627370083e+000

6.77396249890018e+004,-2.47243229270450e+001,-2.43234519071535e+000

6.86852349150199e+004,-2.47244012731512e+001,-2.46629111608754e+000

6.96440450636895e+004,-2.47244818205195e+001,-2.50071055458832e+000

7.06162397032520e+004,-2.47245646309590e+001,-2.53561010118121e+000

7.16020056742374e+004,-2.47246497680121e+001,-2.57099644225336e+000

7.26015324253724e+004,-2.47247372970033e+001,-2.60687635686681e+000

7.36150120499896e+004,-2.47248272850883e+001,-2.64325671802312e+000

7.46426393229441e+004,-2.47249198013059e+001,-2.68014449394445e+000

7.56846117380472e+004,-2.47250149166305e+001,-2.71754674937422e+000

7.67411295460207e+004,-2.47251127040257e+001,-2.75547064689096e+000

7.78123957929823e+004,-2.47252132385008e+001,-2.79392344824150e+000

7.88986163594682e+004,-2.47253165971669e+001,-2.83291251569121e+000

7.99999999999995e+004,-2.47254228592968e+001,-2.87244531338919e+000

8.11167583832018e+004,-2.47255321063842e+001,-2.91252940875544e+000

8.22491061324848e+004,-2.47256444222066e+001,-2.95317247388161e+000

8.33972608672892e+004,-2.47257598928888e+001,-2.99438228695160e+000

8.45614432449099e+004,-2.47258786069683e+001,-3.03616673367996e+000

8.57418770029029e+004,-2.47260006554626e+001,-3.07853380876938e+000

8.69387890020841e+004,-2.47261261319389e+001,-3.12149161738483e+000

8.81524092701283e+004,-2.47262551325847e+001,-3.16504837664735e+000

8.93829710457770e+004,-2.47263877562811e+001,-3.20921241714764e+000

9.06307108236633e+004,-2.47265241046779e+001,-3.25399218447696e+000

9.18958683997622e+004,-2.47266642822710e+001,-3.29939624077790e+000

9.31786869174758e+004,-2.47268083964814e+001,-3.34543326631467e+000

9.44794129143618e+004,-2.47269565577370e+001,-3.39211206106251e+000

9.57982963695136e+004,-2.47271088795560e+001,-3.43944154631804e+000

9.71355907516031e+004,-2.47272654786338e+001,-3.48743076632650e+000

9.84915530675926e+004,-2.47274264749305e+001,-3.53608888993329e+000

9.98664439121282e+004,-2.47275919917623e+001,-3.58542521225154e+000

1.01260527517622e+005,-2.47277621558950e+001,-3.63544915635290e+000

1.02674071805032e+005,-2.47279370976397e+001,-3.68617027497744e+000

1.04107348435354e+005,-2.47281169509517e+001,-3.73759825226483e+000

1.05560632861831e+005,-2.47283018535317e+001,-3.78974290550609e+000

1.07034204382888e+005,-2.47284919469298e+001,-3.84261418691649e+000

1.08528346195813e+005,-2.47286873766528e+001,-3.89622218542923e+000

1.10043345451179e+005,-2.47288882922738e+001,-3.95057712851088e+000

1.11579493308032e+005,-2.47290948475456e+001,-4.00568938399784e+000

1.13137084989847e+005,-2.47293072005161e+001,-4.06156946195486e+000

1.14716419841265e+005,-2.47295255136480e+001,-4.11822801655417e+000

1.16317801385624e+005,-2.47297499539411e+001,-4.17567584797831e+000

1.17941537383287e+005,-2.47299806930585e+001,-4.23392390434210e+000

1.19587939890794e+005,-2.47302179074550e+001,-4.29298328364004e+000

1.21257325320831e+005,-2.47304617785110e+001,-4.35286523571248e+000

1.22950014503040e+005,-2.47307124926681e+001,-4.41358116423714e+000

1.24666332745679e+005,-2.47309702415695e+001,-4.47514262873979e+000

1.26406609898139e+005,-2.47312352222044e+001,-4.53756134663043e+000

1.28171180414339e+005,-2.47315076370551e+001,-4.60084919526029e+000

1.29960383416997e+005,-2.47317876942496e+001,-4.66501821400053e+000

1.31774562762811e+005,-2.47320756077172e+001,-4.73008060634656e+000

1.33614067108538e+005,-2.47323715973490e+001,-4.79604874204178e+000

1.35479249978003e+005,-2.47326758891627e+001,-4.86293515922567e+000

1.37370469830040e+005,-2.47329887154711e+001,-4.93075256660516e+000

1.39288090127379e+005,-2.47333103150563e+001,-4.99951384564717e+000

1.41232479406504e+005,-2.47336409333479e+001,-5.06923205279493e+000

1.43204011348474e+005,-2.47339808226059e+001,-5.13992042170763e+000

1.45203064850745e+005,-2.47343302421094e+001,-5.21159236552104e+000

1.47230024099979e+005,-2.47346894583491e+001,-5.28426147913253e+000

1.49285278645888e+005,-2.47350587452260e+001,-5.35794154150792e+000

1.51369223476094e+005,-2.47354383842554e+001,-5.43264651801109e+000

1.53482259092041e+005,-2.47358286647752e+001,-5.50839056275653e+000

1.55624791585964e+005,-2.47362298841617e+001,-5.58518802098335e+000

1.57797232718936e+005,-2.47366423480494e+001,-5.66305343145232e+000

1.59999999999999e+005,-2.47370663705576e+001,-5.74200152886540e+000

1.62233516766403e+005,-2.47375022745229e+001,-5.82204724630620e+000

1.64498212264969e+005,-2.47379503917378e+001,-5.90320571770342e+000

1.66794521734578e+005,-2.47384110631958e+001,-5.98549228031501e+000

1.69122886489819e+005,-2.47388846393426e+001,-6.06892247723445e+000

1.71483754005805e+005,-2.47393714803343e+001,-6.15351205991792e+000

1.73877578004168e+005,-2.47398719563030e+001,-6.23927699073233e+000

1.76304818540256e+005,-2.47403864476279e+001,-6.32623344552396e+000

1.78765942091554e+005,-2.47409153452148e+001,-6.41439781620813e+000

1.81261421647326e+005,-2.47414590507829e+001,-6.50378671337735e+000

1.83791736799524e+005,-2.47420179771583e+001,-6.59441696893032e+000

1.86357373834951e+005,-2.47425925485761e+001,-6.68630563871992e+000

1.88958825828723e+005,-2.47431832009898e+001,-6.77947000521941e+000

1.91596592739027e+005,-2.47437903823894e+001,-6.87392758020687e+000

1.94271181503206e+005,-2.47444145531265e+001,-6.96969610746849e+000

1.96983106135185e+005,-2.47450561862498e+001,-7.06679356551756e+000

1.99732887824256e+005,-2.47457157678475e+001,-7.16523817033081e+000

2.02521055035243e+005,-2.47463937973994e+001,-7.26504837810080e+000

2.05348143610063e+005,-2.47470907881381e+001,-7.36624288800386e+000

2.08214696870707e+005,-2.47478072674192e+001,-7.46884064498100e+000

2.11121265723661e+005,-2.47485437771013e+001,-7.57286084253546e+000

2.14068408765776e+005,-2.47493008739353e+001,-7.67832292554017e+000

2.17056692391625e+005,-2.47500791299640e+001,-7.78524659306005e+000

2.20086690902357e+005,-2.47508791329320e+001,-7.89365180118416e+000

2.23158986616063e+005,-2.47517014867052e+001,-8.00355876586778e+000

2.26274169979693e+005,-2.47525468117021e+001,-8.11498796578525e+000

2.29432839682530e+005,-2.47534157453345e+001,-8.22796014518972e+000

2.32635602771247e+005,-2.47543089424608e+001,-8.34249631678069e+000

2.35883074766574e+005,-2.47552270758497e+001,-8.45861776457701e+000

2.39175879781588e+005,-2.47561708366554e+001,-8.57634604679498e+000

2.42514650641661e+005,-2.47571409349051e+001,-8.69570299872893e+000

2.45900029006080e+005,-2.47581380999981e+001,-8.81671073563509e+000

2.49332665491357e+005,-2.47591630812181e+001,-8.93939165561402e+000

2.52813219796278e+005,-2.47602166482562e+001,-9.06376844249371e+000

2.56342360828676e+005,-2.47612995917492e+001,-9.18986406870900e+000

2.59920766833993e+005,-2.47624127238285e+001,-9.31770179817637e+000

2.63549125525621e+005,-2.47635568786842e+001,-9.44730518916363e+000

2.67228134217075e+005,-2.47647329131418e+001,-9.57869809714983e+000

2.70958499956006e+005,-2.47659417072529e+001,-9.71190467767680e+000

2.74740939660078e+005,-2.47671841649001e+001,-9.84694938918747e+000

2.78576180254757e+005,-2.47684612144163e+001,-9.98385699585043e+000

2.82464958813007e+005,-2.47697738092184e+001,-1.01226525703676e+001

2.86408022696948e+005,-2.47711229284562e+001,-1.02633614967634e+001

2.90406129701488e+005,-2.47725095776758e+001,-1.04060094731528e+001

2.94460048199957e+005,-2.47739347894992e+001,-1.05506225144844e+001

2.98570557291775e+005,-2.47753996243191e+001,-1.06972269552588e+001

3.02738446952187e+005,-2.47769051710097e+001,-1.08458494522152e+001

3.06964518184081e+005,-2.47784525476531e+001,-1.09965169869883e+001

3.11249583171928e+005,-2.47800429022834e+001,-1.11492568687278e+001

3.15594465437872e+005,-2.47816774136461e+001,-1.13040967366809e+001

3.19999999999997e+005,-2.47833572919750e+001,-1.14610645627322e+001

3.24467033532806e+005,-2.47850837797865e+001,-1.16201886538986e+001

3.28996424529938e+005,-2.47868581526904e+001,-1.17814976547756e+001

3.33589043469155e+005,-2.47886817202191e+001,-1.19450205499313e+001

3.38245772979638e+005,-2.47905558266745e+001,-1.21107866662440e+001

3.42967508011610e+005,-2.47924818519922e+001,-1.22788256751785e+001

3.47755156008335e+005,-2.47944612126247e+001,-1.24491675950004e+001

3.52609637080511e+005,-2.47964953624427e+001,-1.26218427929188e+001

3.57531884183106e+005,-2.47985857936549e+001,-1.27968819871578e+001

3.62522843294651e+005,-2.48007340377467e+001,-1.29743162489495e+001

3.67583473599047e+005,-2.48029416664376e+001,-1.31541770044439e+001

3.72714747669902e+005,-2.48052102926582e+001,-1.33364960365324e+001

3.77917651657445e+005,-2.48075415715452e+001,-1.35213054865772e+001

3.83193185478053e+005,-2.48099372014573e+001,-1.37086378560434e+001

3.88542363006410e+005,-2.48123989250089e+001,-1.38985260080280e+001

3.93966212270369e+005,-2.48149285301245e+001,-1.40910031686780e+001

3.99465775648511e+005,-2.48175278511119e+001,-1.42861029284958e+001

4.05042110070485e+005,-2.48201987697549e+001,-1.44838592435215e+001

4.10696287220124e+005,-2.48229432164262e+001,-1.46843064363887e+001

4.16429393741414e+005,-2.48257631712190e+001,-1.48874791972464e+001

4.22242531447321e+005,-2.48286606650988e+001,-1.50934125845402e+001

4.28136817531551e+005,-2.48316377810742e+001,-1.53021420256472e+001

4.34113384783250e+005,-2.48346966553870e+001,-1.55137033173550e+001

4.40173381804713e+005,-2.48378394787217e+001,-1.57281326261811e+001

4.46317973232124e+005,-2.48410684974337e+001,-1.59454664885218e+001

4.52548339959385e+005,-2.48443860147968e+001,-1.61657418106258e+001

4.58865679365059e+005,-2.48477943922687e+001,-1.63889958683832e+001

4.65271205542494e+005,-2.48512960507747e+001,-1.66152663069216e+001

4.71766149533147e+005,-2.48548934720103e+001,-1.68445911400029e+001

4.78351759563174e+005,-2.48585891997597e+001,-1.70770087492100e+001

4.85029301283321e+005,-2.48623858412330e+001,-1.73125578829173e+001

4.91800058012158e+005,-2.48662860684191e+001,-1.75512776550346e+001

4.98665330982714e+005,-2.48702926194549e+001,-1.77932075435152e+001

5.05626439592555e+005,-2.48744083000101e+001,-1.80383873886215e+001

5.12684721657352e+005,-2.48786359846865e+001,-1.82868573909349e+001

5.19841533667984e+005,-2.48829786184323e+001,-1.85386581091059e+001

5.27098251051240e+005,-2.48874392179682e+001,-1.87938304573285e+001

5.34456268434150e+005,-2.48920208732277e+001,-1.90524157025347e+001

5.41916999912011e+005,-2.48967267488079e+001,-1.93144554612967e+001

