Freq.,VOut,OutRef

1.00000000000000e+004,-1.56678466143366e+001,-1.38667907570671e-001

1.01395947979003e+004,-1.56678467123231e+001,-1.40603638943231e-001

1.02811382665607e+004,-1.56678468130644e+001,-1.42566392098202e-001

1.04246576084112e+004,-1.56678469166381e+001,-1.44556544243906e-001

1.05701804056138e+004,-1.56678470231236e+001,-1.46574477856943e-001

1.07177346253629e+004,-1.56678471326027e+001,-1.48620580750288e-001

1.08673486252606e+004,-1.56678472451597e+001,-1.50695246151571e-001

1.10190511587661e+004,-1.56678473608811e+001,-1.52798872777326e-001

1.11728713807222e+004,-1.56678474798559e+001,-1.54931864910261e-001

1.13288388529580e+004,-1.56678476021756e+001,-1.57094632476156e-001

1.14869835499703e+004,-1.56678477279341e+001,-1.59287591123519e-001

1.16473358646846e+004,-1.56678478572281e+001,-1.61511162303718e-001

1.18099266142953e+004,-1.56678479901571e+001,-1.63765773349502e-001

1.19747870461893e+004,-1.56678481268233e+001,-1.66051857560328e-001

1.21419488439505e+004,-1.56678482673316e+001,-1.68369854283708e-001

1.23114441334492e+004,-1.56678484117902e+001,-1.70720209000453e-001

1.24833054890161e+004,-1.56678485603100e+001,-1.73103373410211e-001

1.26575659397028e+004,-1.56678487130052e+001,-1.75519805517631e-001

1.28342589756290e+004,-1.56678488699933e+001,-1.77969969719952e-001

1.30134185544193e+004,-1.56678490313951e+001,-1.80454336897900e-001

1.31950791077289e+004,-1.56678491973343e+001,-1.82973384506662e-001

1.33792755478611e+004,-1.56678493679387e+001,-1.85527596665073e-001

1.35660432744767e+004,-1.56678495433394e+001,-1.88117464249070e-001

1.37554181813974e+004,-1.56678497236714e+001,-1.90743484987975e-001

1.39474366635040e+004,-1.56678499090732e+001,-1.93406163559769e-001

1.41421356237309e+004,-1.56678500996873e+001,-1.96106011686059e-001

1.43395524801583e+004,-1.56678502956603e+001,-1.98843548231872e-001

1.45397251732031e+004,-1.56678504971428e+001,-2.01619299306522e-001

1.47426921729110e+004,-1.56678507042897e+001,-2.04433798361967e-001

1.49484924863494e+004,-1.56678509172604e+001,-2.07287586296837e-001

1.51571656651040e+004,-1.56678511362184e+001,-2.10181211561688e-001

1.53687518128801e+004,-1.56678513613322e+001,-2.13115230261064e-001

1.55832915932100e+004,-1.56678515927747e+001,-2.16090206265075e-001

1.58008262372675e+004,-1.56678518307241e+001,-2.19106711311130e-001

1.60213975517924e+004,-1.56678520753630e+001,-2.22165325121832e-001

1.62450479271247e+004,-1.56678523268796e+001,-2.25266635509912e-001

1.64718203453514e+004,-1.56678525854673e+001,-2.28411238493155e-001

1.67017583885674e+004,-1.56678528513249e+001,-2.31599738410329e-001

1.69349062472505e+004,-1.56678531246567e+001,-2.34832748036930e-001

1.71713087287550e+004,-1.56678534056729e+001,-2.38110888700712e-001

1.74110112659224e+004,-1.56678536945896e+001,-2.41434790403124e-001

1.76540599258131e+004,-1.56678539916288e+001,-2.44805091941327e-001

1.79005014185594e+004,-1.56678542970188e+001,-2.48222441028304e-001

1.81503831063432e+004,-1.56678546109945e+001,-2.51687494417247e-001

1.84037530124975e+004,-1.56678549337972e+001,-2.55200918032677e-001

1.86606598307361e+004,-1.56678552656751e+001,-2.58763387091352e-001

1.89211529345119e+004,-1.56678556068833e+001,-2.62375586238507e-001

1.91852823865052e+004,-1.56678559576841e+001,-2.66038209672954e-001

1.94530989482457e+004,-1.56678563183474e+001,-2.69751961286813e-001

1.97246540898671e+004,-1.56678566891501e+001,-2.73517554797522e-001

1.99999999999999e+004,-1.56678570703774e+001,-2.77335713884060e-001

2.02791895958005e+004,-1.56678574623226e+001,-2.81207172328055e-001

2.05622765331213e+004,-1.56678578652867e+001,-2.85132674154821e-001

2.08493152168224e+004,-1.56678582795797e+001,-2.89112973774721e-001

2.11403608112276e+004,-1.56678587055199e+001,-2.93148836129276e-001

2.14354692507258e+004,-1.56678591434349e+001,-2.97241036837368e-001

2.17346972505211e+004,-1.56678595936613e+001,-3.01390362345880e-001

2.20381023175322e+004,-1.56678600565452e+001,-3.05597610078294e-001

2.23457427614443e+004,-1.56678605324425e+001,-3.09863588590955e-001

2.26576777059159e+004,-1.56678610217190e+001,-3.14189117725419e-001

2.29739670999406e+004,-1.56678615247509e+001,-3.18575028769061e-001

2.32946717293690e+004,-1.56678620419248e+001,-3.23022164611466e-001

2.36198532285905e+004,-1.56678625736384e+001,-3.27531379908404e-001

2.39495740923785e+004,-1.56678631203004e+001,-3.32103541247717e-001

2.42838976879009e+004,-1.56678636823310e+001,-3.36739527311262e-001

2.46228882668982e+004,-1.56678642601625e+001,-3.41440229047742e-001

2.49666109780322e+004,-1.56678648542387e+001,-3.46206549843522e-001

2.53151318794055e+004,-1.56678654650168e+001,-3.51039405691805e-001

2.56685179512580e+004,-1.56678660929660e+001,-3.55939725376194e-001

2.60268371088386e+004,-1.56678667385690e+001,-3.60908450643394e-001

2.63901582154578e+004,-1.56678674023224e+001,-3.65946536384309e-001

2.67585510957221e+004,-1.56678680847362e+001,-3.71054950821480e-001

2.71320865489533e+004,-1.56678687863351e+001,-3.76234675691026e-001

2.75108363627948e+004,-1.56678695076586e+001,-3.81486706433838e-001

2.78948733270080e+004,-1.56678702492609e+001,-3.86812052386011e-001

2.82842712474618e+004,-1.56678710117124e+001,-3.92211736971723e-001

2.86791049603164e+004,-1.56678717955993e+001,-3.97686797901276e-001

2.90794503464061e+004,-1.56678726015238e+001,-4.03238287371966e-001

2.94853843458219e+004,-1.56678734301058e+001,-4.08867272265204e-001

2.98969849726987e+004,-1.56678742819822e+001,-4.14574834357367e-001

3.03143313302078e+004,-1.56678751578079e+001,-4.20362070523382e-001

3.07375036257601e+004,-1.56678760582562e+001,-4.26230092949347e-001

3.11665831864199e+004,-1.56678769840192e+001,-4.32180029346737e-001

3.16016524745350e+004,-1.56678779358087e+001,-4.38213023168205e-001

3.20427951035848e+004,-1.56678789143564e+001,-4.44330233826030e-001

3.24900958542493e+004,-1.56678799204143e+001,-4.50532836918509e-001

3.29436406907028e+004,-1.56678809547562e+001,-4.56822024450504e-001

3.34035167771346e+004,-1.56678820181771e+001,-4.63199005068011e-001

3.38698124945009e+004,-1.56678831114943e+001,-4.69665004288097e-001

3.43426174575100e+004,-1.56678842355485e+001,-4.76221264731578e-001

3.48220225318448e+004,-1.56678853912038e+001,-4.82869046366505e-001

3.53081198516260e+004,-1.56678865793485e+001,-4.89609626747578e-001

3.58010028371187e+004,-1.56678878008961e+001,-4.96444301261216e-001

3.63007662126863e+004,-1.56678890567856e+001,-5.03374383376474e-001

3.68075060249948e+004,-1.56678903479824e+001,-5.10401204895662e-001

3.73213196614721e+004,-1.56678916754792e+001,-5.17526116210642e-001

3.78423058690237e+004,-1.56678930402964e+001,-5.24750486562463e-001

3.83705647730104e+004,-1.56678944434833e+001,-5.32075704303851e-001

3.89061978964912e+004,-1.56678958861184e+001,-5.39503177167677e-001

3.94493081797342e+004,-1.56678973693109e+001,-5.47034332534308e-001

3.99999999999998e+004,-1.56678988942007e+001,-5.54670617709662e-001

4.05583791916010e+004,-1.56679004619605e+001,-5.62413500198733e-001

4.11245530662425e+004,-1.56679020737951e+001,-5.70264467992006e-001

4.16986304336447e+004,-1.56679037309436e+001,-5.78225029849220e-001

4.22807216224550e+004,-1.56679054346802e+001,-5.86296715587122e-001

4.28709385014515e+004,-1.56679071863144e+001,-5.94481076377946e-001

4.34693945010421e+004,-1.56679089871926e+001,-6.02779685043855e-001

4.40762046350642e+004,-1.56679108386993e+001,-6.11194136360454e-001

4.46914855228886e+004,-1.56679127422580e+001,-6.19726047361794e-001

4.53153554118317e+004,-1.56679146993318e+001,-6.28377057652589e-001

4.59479341998812e+004,-1.56679167114251e+001,-6.37148829723875e-001

4.65893434587380e+004,-1.56679187800847e+001,-6.46043049268981e-001

4.72397064571810e+004,-1.56679209069010e+001,-6.55061425510050e-001

4.78991481847569e+004,-1.56679230935087e+001,-6.64205691526261e-001

4.85677953758016e+004,-1.56679253415887e+001,-6.73477604585976e-001

4.92457765337964e+004,-1.56679276528693e+001,-6.82878946483002e-001

4.99332219560642e+004,-1.56679300291270e+001,-6.92411523882281e-001

5.06302637588109e+004,-1.56679324721887e+001,-7.02077168662908e-001

5.13370359025159e+004,-1.56679349839321e+001,-7.11877738273621e-001

5.20536742176771e+004,-1.56679375662883e+001,-7.21815116086253e-001

5.27803164309155e+004,-1.56679402212422e+001,-7.31891211759501e-001

5.35171021914442e+004,-1.56679429508347e+001,-7.42107961605425e-001

5.42641730979066e+004,-1.56679457571642e+001,-7.52467328960758e-001

5.50216727255895e+004,-1.56679486423876e+001,-7.62971304564364e-001

5.57897466540159e+004,-1.56679516087231e+001,-7.73621906938502e-001

5.65685424949235e+004,-1.56679546584508e+001,-7.84421182778619e-001

5.73582099206328e+004,-1.56679577939149e+001,-7.95371207343994e-001

5.81589006928121e+004,-1.56679610175257e+001,-8.06474084858708e-001

5.89707686916437e+004,-1.56679643317613e+001,-8.17731948912396e-001

5.97939699453972e+004,-1.56679677391691e+001,-8.29146962872986e-001

6.06286626604156e+004,-1.56679712423684e+001,-8.40721320301243e-001

6.14750072515201e+004,-1.56679748440520e+001,-8.52457245370843e-001

6.23331663728396e+004,-1.56679785469885e+001,-8.64356993296599e-001

6.32033049490698e+004,-1.56679823540243e+001,-8.76422850767069e-001

6.40855902071694e+004,-1.56679862680858e+001,-8.88657136383502e-001

6.49801917084985e+004,-1.56679902921815e+001,-9.01062201105430e-001

6.58872813814055e+004,-1.56679944294047e+001,-9.13640428700706e-001

6.68070335542691e+004,-1.56679986829355e+001,-9.26394236205337e-001

6.77396249890018e+004,-1.56680030560434e+001,-9.39326074384866e-001

6.86852349150199e+004,-1.56680075520899e+001,-9.52438428207430e-001

6.96440450636895e+004,-1.56680121745309e+001,-9.65733817318629e-001

7.06162397032520e+004,-1.56680169269196e+001,-9.79214796525819e-001

7.16020056742374e+004,-1.56680218129086e+001,-9.92883956289574e-001

7.26015324253724e+004,-1.56680268362538e+001,-1.00674392321954e+000

7.36150120499896e+004,-1.56680320008163e+001,-1.02079736057879e+000

7.46426393229441e+004,-1.56680373105657e+001,-1.03504696879566e+000

7.56846117380472e+004,-1.56680427695833e+001,-1.04949548598119e+000

7.67411295460207e+004,-1.56680483820652e+001,-1.06414568845510e+000

7.78123957929823e+004,-1.56680541523251e+001,-1.07900039127886e+000

7.88986163594682e+004,-1.56680600847983e+001,-1.09406244879412e+000

7.99999999999995e+004,-1.56680661840446e+001,-1.10933475517295e+000

8.11167583832018e+004,-1.56680724547519e+001,-1.12482024497157e+000

8.22491061324848e+004,-1.56680789017401e+001,-1.14052189369329e+000

8.33972608672892e+004,-1.56680855299643e+001,-1.15644271836016e+000

8.45614432449099e+004,-1.56680923445189e+001,-1.17258577809164e+000

8.57418770029029e+004,-1.56680993506417e+001,-1.18895417469106e+000

8.69387890020841e+004,-1.56681065537174e+001,-1.20555105324033e+000

8.81524092701283e+004,-1.56681139592824e+001,-1.22237960270431e+000

8.93829710457770e+004,-1.56681215730282e+001,-1.23944305654209e+000

9.06307108236633e+004,-1.56681294008068e+001,-1.25674469332613e+000

9.18958683997622e+004,-1.56681374486343e+001,-1.27428783737262e+000

9.31786869174758e+004,-1.56681457226960e+001,-1.29207585937763e+000

9.44794129143618e+004,-1.56681542293510e+001,-1.31011217706487e+000

9.57982963695136e+004,-1.56681629751371e+001,-1.32840025583942e+000

9.71355907516031e+004,-1.56681719667758e+001,-1.34694360945364e+000

9.84915530675926e+004,-1.56681812111777e+001,-1.36574580067986e+000

9.98664439121282e+004,-1.56681907154474e+001,-1.38481044199406e+000

1.01260527517622e+005,-1.56682004868891e+001,-1.40414119626813e+000

1.02674071805032e+005,-1.56682105330123e+001,-1.42374177747217e+000

1.04107348435354e+005,-1.56682208615378e+001,-1.44361595138537e+000

1.05560632861831e+005,-1.56682314804030e+001,-1.46376753631939e+000

1.07034204382888e+005,-1.56682423977685e+001,-1.48420040384938e+000

1.08528346195813e+005,-1.56682536220243e+001,-1.50491847955491e+000

1.10043345451179e+005,-1.56682651617958e+001,-1.52592574377432e+000

1.11579493308032e+005,-1.56682770259513e+001,-1.54722623236469e+000

1.13137084989847e+005,-1.56682892236079e+001,-1.56882403747766e+000

1.14716419841265e+005,-1.56683017641389e+001,-1.59072330834142e+000

1.16317801385624e+005,-1.56683146571812e+001,-1.61292825205638e+000

1.17941537383287e+005,-1.56683279126422e+001,-1.63544313440050e+000

1.19587939890794e+005,-1.56683415407079e+001,-1.65827228064716e+000

1.21257325320831e+005,-1.56683555518503e+001,-1.68142007639158e+000

1.22950014503040e+005,-1.56683699568358e+001,-1.70489096839273e+000

1.24666332745679e+005,-1.56683847667332e+001,-1.72868946542312e+000

1.26406609898139e+005,-1.56683999929222e+001,-1.75282013913240e+000

1.28171180414339e+005,-1.56684156471024e+001,-1.77728762492249e+000

1.29960383416997e+005,-1.56684317413018e+001,-1.80209662283527e+000

1.31774562762811e+005,-1.56684482878867e+001,-1.82725189845061e+000

1.33614067108538e+005,-1.56684652995705e+001,-1.85275828379902e+000

1.35479249978003e+005,-1.56684827894237e+001,-1.87862067828708e+000

1.37370469830040e+005,-1.56685007708844e+001,-1.90484404963286e+000

1.39288090127379e+005,-1.56685192577676e+001,-1.93143343481729e+000

1.41232479406504e+005,-1.56685382642769e+001,-1.95839394104717e+000

1.43204011348474e+005,-1.56685578050146e+001,-1.98573074673130e+000

1.45203064850745e+005,-1.56685778949931e+001,-2.01344910247226e+000

1.47230024099979e+005,-1.56685985496467e+001,-2.04155433206702e+000

1.49285278645888e+005,-1.56686197848431e+001,-2.07005183352756e+000

1.51369223476094e+005,-1.56686416168956e+001,-2.09894708011085e+000

1.53482259092041e+005,-1.56686640625759e+001,-2.12824562136508e+000

1.55624791585964e+005,-1.56686871391265e+001,-2.15795308419008e+000

1.57797232718936e+005,-1.56687108642742e+001,-2.18807517391126e+000

1.59999999999999e+005,-1.56687352562439e+001,-2.21861767536985e+000

1.62233516766403e+005,-1.56687603337718e+001,-2.24958645402839e+000

1.64498212264969e+005,-1.56687861161207e+001,-2.28098745708851e+000

1.66794521734578e+005,-1.56688126230942e+001,-2.31282671462733e+000

1.69122886489819e+005,-1.56688398750520e+001,-2.34511034074807e+000

1.71483754005805e+005,-1.56688678929253e+001,-2.37784453474694e+000

1.73877578004168e+005,-1.56688966982333e+001,-2.41103558229466e+000

1.76304818540256e+005,-1.56689263130991e+001,-2.44468985663677e+000

1.78765942091554e+005,-1.56689567602673e+001,-2.47881381980759e+000

1.81261421647326e+005,-1.56689880631207e+001,-2.51341402386240e+000

1.83791736799524e+005,-1.56690202456989e+001,-2.54849711212678e+000

1.86357373834951e+005,-1.56690533327161e+001,-2.58406982046190e+000

1.88958825828723e+005,-1.56690873495803e+001,-2.62013897854832e+000

1.91596592739027e+005,-1.56691223224128e+001,-2.65671151118582e+000

1.94271181503206e+005,-1.56691582780682e+001,-2.69379443961315e+000

1.96983106135185e+005,-1.56691952441547e+001,-2.73139488284285e+000

1.99732887824256e+005,-1.56692332490555e+001,-2.76952005901852e+000

2.02521055035243e+005,-1.56692723219502e+001,-2.80817728678549e+000

2.05348143610063e+005,-1.56693124928376e+001,-2.84737398668489e+000

2.08214696870707e+005,-1.56693537925582e+001,-2.88711768256284e+000

2.11121265723661e+005,-1.56693962528179e+001,-2.92741600300251e+000

2.14068408765776e+005,-1.56694399062123e+001,-2.96827668277171e+000

2.17056692391625e+005,-1.56694847862516e+001,-3.00970756429452e+000

2.20086690902357e+005,-1.56695309273863e+001,-3.05171659913852e+000

2.23158986616063e+005,-1.56695783650333e+001,-3.09431184952525e+000

2.26274169979693e+005,-1.56696271356029e+001,-3.13750148986099e+000

2.29432839682530e+005,-1.56696772765273e+001,-3.18129380828573e+000

2.32635602771247e+005,-1.56697288262882e+001,-3.22569720824613e+000

2.35883074766574e+005,-1.56697818244468e+001,-3.27072021008870e+000

2.39175879781588e+005,-1.56698363116740e+001,-3.31637145267361e+000

2.42514650641661e+005,-1.56698923297813e+001,-3.36265969501147e+000

2.45900029006080e+005,-1.56699499217524e+001,-3.40959381792126e+000

2.49332665491357e+005,-1.56700091317768e+001,-3.45718282571231e+000

2.52813219796278e+005,-1.56700700052826e+001,-3.50543584788621e+000

2.56342360828676e+005,-1.56701325889717e+001,-3.55436214086441e+000

2.59920766833993e+005,-1.56701969308554e+001,-3.60397108973657e+000

2.63549125525621e+005,-1.56702630802908e+001,-3.65427221003488e+000

2.67228134217075e+005,-1.56703310880183e+001,-3.70527514953002e+000

2.70958499956006e+005,-1.56704010062007e+001,-3.75698969005193e+000

2.74740939660078e+005,-1.56704728884626e+001,-3.80942574933544e+000

2.78576180254757e+005,-1.56705467899313e+001,-3.86259338288997e+000

2.82464958813007e+005,-1.56706227672787e+001,-3.91650278589460e+000

2.86408022696948e+005,-1.56707008787647e+001,-3.97116429511720e+000

2.90406129701488e+005,-1.56707811842813e+001,-4.02658839086115e+000

2.94460048199957e+005,-1.56708637453979e+001,-4.08278569893656e+000

2.98570557291775e+005,-1.56709486254089e+001,-4.13976699265712e+000

3.02738446952187e+005,-1.56710358893811e+001,-4.19754319486496e+000

3.06964518184081e+005,-1.56711256042033e+001,-4.25612537998131e+000

3.11249583171928e+005,-1.56712178386375e+001,-4.31552477608445e+000

3.15594465437872e+005,-1.56713126633705e+001,-4.37575276701493e+000

3.19999999999997e+005,-1.56714101510682e+001,-4.43682089450874e+000

3.24467033532806e+005,-1.56715103764301e+001,-4.49874086035861e+000

3.28996424529938e+005,-1.56716134162468e+001,-4.56152452860278e+000

3.33589043469155e+005,-1.56717193494573e+001,-4.62518392774385e+000

3.38245772979638e+005,-1.56718282572095e+001,-4.68973125299567e+000

3.42967508011610e+005,-1.56719402229214e+001,-4.75517886855995e+000

3.47755156008335e+005,-1.56720553323445e+001,-4.82153930993136e+000

3.52609637080511e+005,-1.56721736736287e+001,-4.88882528623479e+000

3.57531884183106e+005,-1.56722953373885e+001,-4.95704968259124e+000

3.62522843294651e+005,-1.56724204167725e+001,-5.02622556251424e+000

3.67583473599047e+005,-1.56725490075328e+001,-5.09636617033828e+000

3.72714747669902e+005,-1.56726812080983e+001,-5.16748493367756e+000

3.77917651657445e+005,-1.56728171196484e+001,-5.23959546591731e+000

3.83193185478053e+005,-1.56729568461897e+001,-5.31271156873510e+000

3.88542363006410e+005,-1.56731004946344e+001,-5.38684723465729e+000

3.93966212270369e+005,-1.56732481748809e+001,-5.46201664964508e+000

3.99465775648511e+005,-1.56733999998969e+001,-5.53823419571564e+000

4.05042110070485e+005,-1.56735560858041e+001,-5.61551445359516e+000

4.10696287220124e+005,-1.56737165519660e+001,-5.69387220540636e+000

4.16429393741414e+005,-1.56738815210776e+001,-5.77332243738885e+000

4.22242531447321e+005,-1.56740511192576e+001,-5.85388034265472e+000

4.28136817531551e+005,-1.56742254761434e+001,-5.93556132397729e+000

4.34113384783250e+005,-1.56744047249883e+001,-6.01838099661674e+000

4.40173381804713e+005,-1.56745890027617e+001,-6.10235519117864e+000

4.46317973232124e+005,-1.56747784502514e+001,-6.18749995650915e+000

4.52548339959385e+005,-1.56749732121701e+001,-6.27383156262556e+000

4.58865679365059e+005,-1.56751734372625e+001,-6.36136650368373e+000

4.65271205542494e+005,-1.56753792784180e+001,-6.45012150098024e+000

4.71766149533147e+005,-1.56755908927838e+001,-6.54011350599271e+000

4.78351759563174e+005,-1.56758084418836e+001,-6.63135970345616e+000

4.85029301283321e+005,-1.56760320917370e+001,-6.72387751447708e+000

4.91800058012158e+005,-1.56762620129843e+001,-6.81768459968508e+000

4.98665330982714e+005,-1.56764983810134e+001,-6.91279886242126e+000

5.05626439592555e+005,-1.56767413760904e+001,-7.00923845196629e+000

5.12684721657352e+005,-1.56769911834937e+001,-7.10702176680554e+000

5.19841533667984e+005,-1.56772479936522e+001,-7.20616745793334e+000

5.27098251051240e+005,-1.56775120022862e+001,-7.30669443219599e+000

5.34456268434150e+005,-1.56777834105529e+001,-7.40862185567333e+000

5.41916999912011e+005,-1.56780624251956e+001,-7.51196915710072e+000

