Freq.,VOut,OutRef

1.00000000000000e+004,-4.70162680125163e+000,-7.80880628117512e-002

1.01395947979003e+004,-4.70162674291732e+000,-7.91781317962817e-002

1.02811382665607e+004,-4.70162668294301e+000,-8.02834175873760e-002

1.04246576084112e+004,-4.70162662128258e+000,-8.14041326042833e-002

1.05701804056138e+004,-4.70162655788863e+000,-8.25404922313350e-002

1.07177346253629e+004,-4.70162649271228e+000,-8.36927148607253e-002

1.08673486252606e+004,-4.70162642570378e+000,-8.48610219298457e-002

1.10190511587661e+004,-4.70162635681143e+000,-8.60456379708875e-002

1.11728713807222e+004,-4.70162628598216e+000,-8.72467906498272e-002

1.13288388529580e+004,-4.70162621316144e+000,-8.84647108104862e-002

1.14869835499703e+004,-4.70162613829365e+000,-8.96996325168012e-002

1.16473358646846e+004,-4.70162606132115e+000,-9.09517931023927e-002

1.18099266142953e+004,-4.70162598218441e+000,-9.22214332160121e-002

1.19747870461893e+004,-4.70162590082288e+000,-9.35087968615565e-002

1.21419488439505e+004,-4.70162581717413e+000,-9.48141314504806e-002

1.23114441334492e+004,-4.70162573117362e+000,-9.61376878500359e-002

1.24833054890161e+004,-4.70162564275538e+000,-9.74797204268621e-002

1.26575659397028e+004,-4.70162555185117e+000,-9.88404871013242e-002

1.28342589756290e+004,-4.70162545839149e+000,-1.00220249390084e-001

1.30134185544193e+004,-4.70162536230415e+000,-1.01619272465219e-001

1.31950791077289e+004,-4.70162526351555e+000,-1.03037825196516e-001

1.33792755478611e+004,-4.70162516194947e+000,-1.04476180210281e-001

1.35660432744767e+004,-4.70162505752823e+000,-1.05934613934493e-001

1.37554181813974e+004,-4.70162495017098e+000,-1.07413406662388e-001

1.39474366635040e+004,-4.70162483979583e+000,-1.08912842592033e-001

1.41421356237309e+004,-4.70162472631733e+000,-1.10433209896784e-001

1.43395524801583e+004,-4.70162460964876e+000,-1.11974800765504e-001

1.45397251732031e+004,-4.70162448970019e+000,-1.13537911470808e-001

1.47426921729110e+004,-4.70162436637933e+000,-1.15122842420130e-001

1.49484924863494e+004,-4.70162423959135e+000,-1.16729898214483e-001

1.51571656651040e+004,-4.70162410923898e+000,-1.18359387704975e-001

1.53687518128801e+004,-4.70162397522190e+000,-1.20011624056834e-001

1.55832915932100e+004,-4.70162383743705e+000,-1.21686924805644e-001

1.58008262372675e+004,-4.70162369577867e+000,-1.23385611919294e-001

1.60213975517924e+004,-4.70162355013760e+000,-1.25108011862496e-001

1.62450479271247e+004,-4.70162340040215e+000,-1.26854455653746e-001

1.64718203453514e+004,-4.70162324645691e+000,-1.28625278936623e-001

1.67017583885674e+004,-4.70162308818377e+000,-1.30420822036255e-001

1.69349062472505e+004,-4.70162292546103e+000,-1.32241430030730e-001

1.71713087287550e+004,-4.70162275816347e+000,-1.34087452815546e-001

1.74110112659224e+004,-4.70162258616257e+000,-1.35959245169592e-001

1.76540599258131e+004,-4.70162240932616e+000,-1.37857166824399e-001

1.79005014185594e+004,-4.70162222751795e+000,-1.39781582535846e-001

1.81503831063432e+004,-4.70162204059861e+000,-1.41732862146753e-001

1.84037530124975e+004,-4.70162184842420e+000,-1.43711380667377e-001

1.86606598307361e+004,-4.70162165084723e+000,-1.45717518339528e-001

1.89211529345119e+004,-4.70162144771540e+000,-1.47751660717737e-001

1.91852823865052e+004,-4.70162123887289e+000,-1.49814198733483e-001

1.94530989482457e+004,-4.70162102415895e+000,-1.51905528779536e-001

1.97246540898671e+004,-4.70162080340852e+000,-1.54026052780568e-001

1.99999999999999e+004,-4.70162057645216e+000,-1.56176178270318e-001

2.02791895958005e+004,-4.70162034311513e+000,-1.58356318475483e-001

2.05622765331213e+004,-4.70162010321796e+000,-1.60566892389778e-001

2.08493152168224e+004,-4.70161985657660e+000,-1.62808324853156e-001

2.11403608112276e+004,-4.70161960300108e+000,-1.65081046640981e-001

2.14354692507258e+004,-4.70161934229664e+000,-1.67385494538529e-001

2.17346972505211e+004,-4.70161907426284e+000,-1.69722111430368e-001

2.20381023175322e+004,-4.70161879869359e+000,-1.72091346383158e-001

2.23457427614443e+004,-4.70161851537704e+000,-1.74493654732380e-001

2.26576777059159e+004,-4.70161822409553e+000,-1.76929498169354e-001

2.29739670999406e+004,-4.70161792462490e+000,-1.79399344832778e-001

2.32946717293690e+004,-4.70161761673494e+000,-1.81903669395000e-001

2.36198532285905e+004,-4.70161730018908e+000,-1.84442953153695e-001

2.39495740923785e+004,-4.70161697474405e+000,-1.87017684126405e-001

2.42838976879009e+004,-4.70161664014947e+000,-1.89628357144424e-001

2.46228882668982e+004,-4.70161629614818e+000,-1.92275473945737e-001

2.49666109780322e+004,-4.70161594247571e+000,-1.94959543272694e-001

2.53151318794055e+004,-4.70161557886017e+000,-1.97681080969830e-001

2.56685179512580e+004,-4.70161520502208e+000,-2.00440610082550e-001

2.60268371088386e+004,-4.70161482067415e+000,-2.03238660957635e-001

2.63901582154578e+004,-4.70161442552048e+000,-2.06075771348744e-001

2.67585510957221e+004,-4.70161401925782e+000,-2.08952486510680e-001

2.71320865489533e+004,-4.70161360157349e+000,-2.11869359315826e-001

2.75108363627948e+004,-4.70161317214646e+000,-2.14826950351726e-001

2.78948733270080e+004,-4.70161273064671e+000,-2.17825828031504e-001

2.82842712474618e+004,-4.70161227673479e+000,-2.20866568704873e-001

2.86791049603164e+004,-4.70161181006170e+000,-2.23949756766869e-001

2.90794503464061e+004,-4.70161133026863e+000,-2.27075984771099e-001

2.94853843458219e+004,-4.70161083698679e+000,-2.30245853542498e-001

2.98969849726987e+004,-4.70161032983717e+000,-2.33459972293137e-001

3.03143313302078e+004,-4.70160980842948e+000,-2.36718958743095e-001

3.07375036257601e+004,-4.70160927236330e+000,-2.40023439231019e-001

3.11665831864199e+004,-4.70160872122622e+000,-2.43374048844305e-001

3.16016524745350e+004,-4.70160815459468e+000,-2.46771431532938e-001

3.20427951035848e+004,-4.70160757203293e+000,-2.50216240238838e-001

3.24900958542493e+004,-4.70160697309329e+000,-2.53709137017109e-001

3.29436406907028e+004,-4.70160635731534e+000,-2.57250793166474e-001

3.34035167771346e+004,-4.70160572422555e+000,-2.60841889357821e-001

3.38698124945009e+004,-4.70160507333729e+000,-2.64483115763708e-001

3.43426174575100e+004,-4.70160440415018e+000,-2.68175172191965e-001

3.48220225318448e+004,-4.70160371614980e+000,-2.71918768219845e-001

3.53081198516260e+004,-4.70160300880718e+000,-2.75714623331389e-001

3.58010028371187e+004,-4.70160228157868e+000,-2.79563467053671e-001

3.63007662126863e+004,-4.70160153390505e+000,-2.83466039100167e-001

3.68075060249948e+004,-4.70160076521175e+000,-2.87423089508838e-001

3.73213196614721e+004,-4.70159997490758e+000,-2.91435378791396e-001

3.78423058690237e+004,-4.70159916238508e+000,-2.95503678075142e-001

3.83705647730104e+004,-4.70159832701973e+000,-2.99628769252266e-001

3.89061978964912e+004,-4.70159746816921e+000,-3.03811445131725e-001

3.94493081797342e+004,-4.70159658517328e+000,-3.08052509591241e-001

3.99999999999998e+004,-4.70159567735311e+000,-3.12352777730161e-001

4.05583791916010e+004,-4.70159474401099e+000,-3.16713076026671e-001

4.11245530662425e+004,-4.70159378442915e+000,-3.21134242499681e-001

4.16986304336447e+004,-4.70159279787017e+000,-3.25617126864598e-001

4.22807216224550e+004,-4.70159178357550e+000,-3.30162590702107e-001

4.28709385014515e+004,-4.70159074076532e+000,-3.34771507620741e-001

4.34693945010421e+004,-4.70158966863810e+000,-3.39444763424488e-001

4.40762046350642e+004,-4.70158856636957e+000,-3.44183256285269e-001

4.46914855228886e+004,-4.70158743311234e+000,-3.48987896914162e-001

4.53153554118317e+004,-4.70158626799531e+000,-3.53859608736036e-001

4.59479341998812e+004,-4.70158507012276e+000,-3.58799328068721e-001

4.65893434587380e+004,-4.70158383857378e+000,-3.63808004302232e-001

4.72397064571810e+004,-4.70158257240161e+000,-3.68886600080983e-001

4.78991481847569e+004,-4.70158127063296e+000,-3.74036091488951e-001

4.85677953758016e+004,-4.70157993226715e+000,-3.79257468237345e-001

4.92457765337964e+004,-4.70157855627510e+000,-3.84551733857172e-001

4.99332219560642e+004,-4.70157714159926e+000,-3.89919905887150e-001

5.06302637588109e+004,-4.70157568715192e+000,-3.95363016075182e-001

5.13370359025159e+004,-4.70157419181512e+000,-4.00882110571996e-001

5.20536742176771e+004,-4.70157265443932e+000,-4.06478250135374e-001

5.27803164309155e+004,-4.70157107384252e+000,-4.12152510333676e-001

5.35171021914442e+004,-4.70156944880989e+000,-4.17905981750057e-001

5.42641730979066e+004,-4.70156777809202e+000,-4.23739770196501e-001

5.50216727255895e+004,-4.70156606040459e+000,-4.29654996923170e-001

5.57897466540159e+004,-4.70156429442727e+000,-4.35652798834562e-001

5.65685424949235e+004,-4.70156247880238e+000,-4.41734328710083e-001

5.73582099206328e+004,-4.70156061213409e+000,-4.47900755424155e-001

5.81589006928121e+004,-4.70155869298773e+000,-4.54153264169162e-001

5.89707686916437e+004,-4.70155671988764e+000,-4.60493056688959e-001

5.97939699453972e+004,-4.70155469131736e+000,-4.66921351502895e-001

6.06286626604156e+004,-4.70155260571724e+000,-4.73439384147134e-001

6.14750072515201e+004,-4.70155046148405e+000,-4.80048407407514e-001

6.23331663728396e+004,-4.70154825696947e+000,-4.86749691561771e-001

6.32033049490698e+004,-4.70154599047895e+000,-4.93544524624118e-001

6.40855902071694e+004,-4.70154366027004e+000,-5.00434212593979e-001

6.49801917084985e+004,-4.70154126455145e+000,-5.07420079706012e-001

6.58872813814055e+004,-4.70153880148166e+000,-5.14503468683958e-001

6.68070335542691e+004,-4.70153626916713e+000,-5.21685741002045e-001

6.77396249890018e+004,-4.70153366566126e+000,-5.28968277143503e-001

6.86852349150199e+004,-4.70153098896271e+000,-5.36352476868170e-001

6.96440450636895e+004,-4.70152823701383e+000,-5.43839759481431e-001

7.06162397032520e+004,-4.70152540769921e+000,-5.51431564106812e-001

7.16020056742374e+004,-4.70152249884380e+000,-5.59129349963827e-001

7.26015324253724e+004,-4.70151950821164e+000,-5.66934596647270e-001

7.36150120499896e+004,-4.70151643350380e+000,-5.74848804413001e-001

7.46426393229441e+004,-4.70151327235658e+000,-5.82873494467721e-001

7.56846117380472e+004,-4.70151002234026e+000,-5.91010209257680e-001

7.67411295460207e+004,-4.70150668095625e+000,-5.99260512771358e-001

7.78123957929823e+004,-4.70150324563619e+000,-6.07625990835005e-001

7.88986163594682e+004,-4.70149971373925e+000,-6.16108251421377e-001

7.99999999999995e+004,-4.70149608255051e+000,-6.24708924957567e-001

8.11167583832018e+004,-4.70149234927872e+000,-6.33429664639056e-001

8.22491061324848e+004,-4.70148851105413e+000,-6.42272146748142e-001

8.33972608672892e+004,-4.70148456492632e+000,-6.51238070976825e-001

8.45614432449099e+004,-4.70148050786190e+000,-6.60329160754130e-001

8.57418770029029e+004,-4.70147633674226e+000,-6.69547163576628e-001

8.69387890020841e+004,-4.70147204836117e+000,-6.78893851346063e-001

8.81524092701283e+004,-4.70146763942225e+000,-6.88371020709835e-001

8.93829710457770e+004,-4.70146310653635e+000,-6.97980493407962e-001

9.06307108236633e+004,-4.70145844621915e+000,-7.07724116622424e-001

9.18958683997622e+004,-4.70145365488846e+000,-7.17603763333402e-001

9.31786869174758e+004,-4.70144872886135e+000,-7.27621332680000e-001

9.44794129143618e+004,-4.70144366435119e+000,-7.37778750327011e-001

9.57982963695136e+004,-4.70143845746513e+000,-7.48077968833752e-001

9.71355907516031e+004,-4.70143310420088e+000,-7.58520968031047e-001

9.84915530675926e+004,-4.70142760044353e+000,-7.69109755403466e-001

9.98664439121282e+004,-4.70142194196265e+000,-7.79846366474110e-001

1.01260527517622e+005,-4.70141612440882e+000,-7.90732865198369e-001

1.02674071805032e+005,-4.70141014331031e+000,-8.01771344361510e-001

1.04107348435354e+005,-4.70140399406983e+000,-8.12963925979954e-001

1.05560632861831e+005,-4.70139767196082e+000,-8.24312761712433e-001

1.07034204382888e+005,-4.70139117212385e+000,-8.35820033273274e-001

1.08528346195813e+005,-4.70138448956285e+000,-8.47487952853470e-001

1.10043345451179e+005,-4.70137761914157e+000,-8.59318763545504e-001

1.11579493308032e+005,-4.70137055557905e+000,-8.71314739778512e-001

1.13137084989847e+005,-4.70136329344614e+000,-8.83478187753833e-001

1.14716419841265e+005,-4.70135582716090e+000,-8.95811445891617e-001

1.16317801385624e+005,-4.70134815098494e+000,-9.08316885278367e-001

1.17941537383287e+005,-4.70134025901799e+000,-9.20996910129451e-001

1.19587939890794e+005,-4.70133214519427e+000,-9.33853958247939e-001

1.21257325320831e+005,-4.70132380327771e+000,-9.46890501495164e-001

1.22950014503040e+005,-4.70131522685654e+000,-9.60109046271029e-001

1.24666332745679e+005,-4.70130640933905e+000,-9.73512133993291e-001

1.26406609898139e+005,-4.70129734394818e+000,-9.87102341589947e-001

1.28171180414339e+005,-4.70128802371662e+000,-1.00088228199431e+000

1.29960383416997e+005,-4.70127844148088e+000,-1.01485460465303e+000

1.31774562762811e+005,-4.70126858987652e+000,-1.02902199603231e+000

1.33614067108538e+005,-4.70125846133180e+000,-1.04338718014023e+000

1.35479249978003e+005,-4.70124804806242e+000,-1.05795291905050e+000

1.37370469830040e+005,-4.70123734206532e+000,-1.07272201343548e+000

1.39288090127379e+005,-4.70122633511233e+000,-1.08769730310848e+000

1.41232479406504e+005,-4.70121501874430e+000,-1.10288166756917e+000

1.43204011348474e+005,-4.70120338426410e+000,-1.11827802656301e+000

1.45203064850745e+005,-4.70119142273048e+000,-1.13388934064151e+000

1.47230024099979e+005,-4.70117912495076e+000,-1.14971861173665e+000

1.49285278645888e+005,-4.70116648147387e+000,-1.16576888374016e+000

1.51369223476094e+005,-4.70115348258327e+000,-1.18204324309036e+000

1.53482259092041e+005,-4.70114011828945e+000,-1.19854481936914e+000

1.55624791585964e+005,-4.70112637832211e+000,-1.21527678590733e+000

1.57797232718936e+005,-4.70111225212223e+000,-1.23224236039804e+000

1.59999999999999e+005,-4.70109772883433e+000,-1.24944480551690e+000

1.62233516766403e+005,-4.70108279729779e+000,-1.26688742955489e+000

1.64498212264969e+005,-4.70106744603833e+000,-1.28457358705734e+000

1.66794521734578e+005,-4.70105166325947e+000,-1.30250667947146e+000

1.69122886489819e+005,-4.70103543683302e+000,-1.32069015580670e+000

1.71483754005805e+005,-4.70101875429019e+000,-1.33912751329985e+000

1.73877578004168e+005,-4.70100160281186e+000,-1.35782229809273e+000

1.76304818540256e+005,-4.70098396921872e+000,-1.37677810591823e+000

1.78765942091554e+005,-4.70096583996113e+000,-1.39599858279684e+000

1.81261421647326e+005,-4.70094720110887e+000,-1.41548742574150e+000

1.83791736799524e+005,-4.70092803834022e+000,-1.43524838347524e+000

1.86357373834951e+005,-4.70090833693128e+000,-1.45528525715508e+000

1.88958825828723e+005,-4.70088808174441e+000,-1.47560190111047e+000

1.91596592739027e+005,-4.70086725721672e+000,-1.49620222358884e+000

1.94271181503206e+005,-4.70084584734810e+000,-1.51709018751410e+000

1.96983106135185e+005,-4.70082383568906e+000,-1.53826981125419e+000

1.99732887824256e+005,-4.70080120532792e+000,-1.55974516940055e+000

2.02521055035243e+005,-4.70077793887805e+000,-1.58152039355861e+000

2.05348143610063e+005,-4.70075401846436e+000,-1.60359967314928e+000

2.08214696870707e+005,-4.70072942570974e+000,-1.62598725622167e+000

2.11121265723661e+005,-4.70070414172078e+000,-1.64868745027891e+000

2.14068408765776e+005,-4.70067814707360e+000,-1.67170462311242e+000

2.17056692391625e+005,-4.70065142179856e+000,-1.69504320365268e+000

2.20086690902357e+005,-4.70062394536530e+000,-1.71870768282807e+000

2.23158986616063e+005,-4.70059569666676e+000,-1.74270261443828e+000

2.26274169979693e+005,-4.70056665400315e+000,-1.76703261603986e+000

2.29432839682530e+005,-4.70053679506537e+000,-1.79170236984293e+000

2.32635602771247e+005,-4.70050609691760e+000,-1.81671662362419e+000

2.35883074766574e+005,-4.70047453598017e+000,-1.84208019164885e+000

2.39175879781588e+005,-4.70044208801112e+000,-1.86779795560890e+000

2.42514650641661e+005,-4.70040872808781e+000,-1.89387486557353e+000

2.45900029006080e+005,-4.70037443058789e+000,-1.92031594095306e+000

2.49332665491357e+005,-4.70033916916944e+000,-1.94712627147821e+000

2.52813219796278e+005,-4.70030291675107e+000,-1.97431101819080e+000

2.56342360828676e+005,-4.70026564549097e+000,-2.00187541445182e+000

2.59920766833993e+005,-4.70022732676566e+000,-2.02982476696228e+000

2.63549125525621e+005,-4.70018793114819e+000,-2.05816445679767e+000

2.67228134217075e+005,-4.70014742838542e+000,-2.08689994046110e+000

2.70958499956006e+005,-4.70010578737504e+000,-2.11603675094730e+000

2.74740939660078e+005,-4.70006297614161e+000,-2.14558049882553e+000

2.78576180254757e+005,-4.70001896181223e+000,-2.17553687333591e+000

2.82464958813007e+005,-4.69997371059128e+000,-2.20591164350290e+000

2.86408022696948e+005,-4.69992718773469e+000,-2.23671065926419e+000

2.90406129701488e+005,-4.69987935752316e+000,-2.26793985261726e+000

2.94460048199957e+005,-4.69983018323515e+000,-2.29960523878034e+000

2.98570557291775e+005,-4.69977962711846e+000,-2.33171291737303e+000

3.02738446952187e+005,-4.69972765036161e+000,-2.36426907361195e+000

3.06964518184081e+005,-4.69967421306411e+000,-2.39727997952544e+000

3.11249583171928e+005,-4.69961927420587e+000,-2.43075199518446e+000

3.15594465437872e+005,-4.69956279161599e+000,-2.46469156995330e+000

3.19999999999997e+005,-4.69950472194046e+000,-2.49910524375665e+000

3.24467033532806e+005,-4.69944502060900e+000,-2.53399964836767e+000

3.28996424529938e+005,-4.69938364180123e+000,-2.56938150871197e+000

3.33589043469155e+005,-4.69932053841135e+000,-2.60525764419414e+000

3.38245772979638e+005,-4.69925566201245e+000,-2.64163497004116e+000

3.42967508011610e+005,-4.69918896281939e+000,-2.67852049866699e+000

3.47755156008335e+005,-4.69912038965090e+000,-2.71592134105678e+000

3.52609637080511e+005,-4.69904988989044e+000,-2.75384470817244e+000

3.57531884183106e+005,-4.69897740944618e+000,-2.79229791237710e+000

3.62522843294651e+005,-4.69890289270956e+000,-2.83128836888381e+000

3.67583473599047e+005,-4.69882628251306e+000,-2.87082359722283e+000

3.72714747669902e+005,-4.69874752008657e+000,-2.91091122273217e+000

3.77917651657445e+005,-4.69866654501256e+000,-2.95155897807048e+000

3.83193185478053e+005,-4.69858329517997e+000,-2.99277470475255e+000

3.88542363006410e+005,-4.69849770673712e+000,-3.03456635470693e+000

3.93966212270369e+005,-4.69840971404285e+000,-3.07694199185831e+000

3.99465775648511e+005,-4.69831924961667e+000,-3.11990979373235e+000

4.05042110070485e+005,-4.69822624408732e+000,-3.16347805308576e+000

4.10696287220124e+005,-4.69813062614009e+000,-3.20765517956020e+000

4.16429393741414e+005,-4.69803232246242e+000,-3.25244970136228e+000

4.22242531447321e+005,-4.69793125768826e+000,-3.29787026696740e+000

4.28136817531551e+005,-4.69782735434067e+000,-3.34392564685124e+000

4.34113384783250e+005,-4.69772053277304e+000,-3.39062473524617e+000

4.40173381804713e+005,-4.69761071110852e+000,-3.43797655192538e+000

4.46317973232124e+005,-4.69749780517783e+000,-3.48599024401373e+000

4.52548339959385e+005,-4.69738172845526e+000,-3.53467508782784e+000

4.58865679365059e+005,-4.69726239199317e+000,-3.58404049074115e+000

4.65271205542494e+005,-4.69713970435444e+000,-3.63409599308148e+000

4.71766149533147e+005,-4.69701357154301e+000,-3.68485127005586e+000

4.78351759563174e+005,-4.69688389693270e+000,-3.73631613370520e+000

4.85029301283321e+005,-4.69675058119402e+000,-3.78850053489039e+000

4.91800058012158e+005,-4.69661352221887e+000,-3.84141456530722e+000

4.98665330982714e+005,-4.69647261504318e+000,-3.89506845953585e+000

5.05626439592555e+005,-4.69632775176750e+000,-3.94947259711948e+000

5.12684721657352e+005,-4.69617882147541e+000,-4.00463750467683e+000

5.19841533667984e+005,-4.69602571014955e+000,-4.06057385804860e+000

5.27098251051240e+005,-4.69586830058540e+000,-4.11729248447653e+000

5.34456268434150e+005,-4.69570647230302e+000,-4.17480436481684e+000

5.41916999912011e+005,-4.69554010145563e+000,-4.23312063579109e+000

