Freq.,VOut,OutRef

1.00000000000000e+004,-1.37328814245624e+001,-1.05876364671485e-001

1.01395947979003e+004,-1.37328814422683e+001,-1.07354343631460e-001

1.02811382665607e+004,-1.37328814604719e+001,-1.08852954409368e-001

1.04246576084112e+004,-1.37328814791873e+001,-1.10372485012688e-001

1.05701804056138e+004,-1.37328814984287e+001,-1.11913227473004e-001

1.07177346253629e+004,-1.37328815182112e+001,-1.13475477895432e-001

1.08673486252606e+004,-1.37328815385498e+001,-1.15059536521136e-001

1.10190511587661e+004,-1.37328815594603e+001,-1.16665707779742e-001

1.11728713807222e+004,-1.37328815809586e+001,-1.18294300352754e-001

1.13288388529580e+004,-1.37328816030613e+001,-1.19945627230799e-001

1.14869835499703e+004,-1.37328816257854e+001,-1.21620005772256e-001

1.16473358646846e+004,-1.37328816491483e+001,-1.23317757766442e-001

1.18099266142953e+004,-1.37328816731680e+001,-1.25039209494515e-001

1.19747870461893e+004,-1.37328816978632e+001,-1.26784691791382e-001

1.21419488439505e+004,-1.37328817232525e+001,-1.28554540113389e-001

1.23114441334492e+004,-1.37328817493555e+001,-1.30349094596632e-001

1.24833054890161e+004,-1.37328817761925e+001,-1.32168700124985e-001

1.26575659397028e+004,-1.37328818037840e+001,-1.34013706399229e-001

1.28342589756290e+004,-1.37328818321512e+001,-1.35884468000280e-001

1.30134185544193e+004,-1.37328818613160e+001,-1.37781344458758e-001

1.31950791077289e+004,-1.37328818913005e+001,-1.39704700325214e-001

1.33792755478611e+004,-1.37328819221281e+001,-1.41654905238144e-001

1.35660432744767e+004,-1.37328819538223e+001,-1.43632333995815e-001

1.37554181813974e+004,-1.37328819864077e+001,-1.45637366628255e-001

1.39474366635040e+004,-1.37328820199092e+001,-1.47670388471731e-001

1.41421356237309e+004,-1.37328820543525e+001,-1.49731790241779e-001

1.43395524801583e+004,-1.37328820897641e+001,-1.51821968106820e-001

1.45397251732031e+004,-1.37328821261712e+001,-1.53941323766842e-001

1.47426921729110e+004,-1.37328821636020e+001,-1.56090264526699e-001

1.49484924863494e+004,-1.37328822020851e+001,-1.58269203379993e-001

1.51571656651040e+004,-1.37328822416500e+001,-1.60478559084908e-001

1.53687518128801e+004,-1.37328822823272e+001,-1.62718756245047e-001

1.55832915932100e+004,-1.37328823241481e+001,-1.64990225389340e-001

1.58008262372675e+004,-1.37328823671447e+001,-1.67293403059675e-001

1.60213975517924e+004,-1.37328824113502e+001,-1.69628731889632e-001

1.62450479271247e+004,-1.37328824567983e+001,-1.71996660694542e-001

1.64718203453514e+004,-1.37328825035243e+001,-1.74397644550280e-001

1.67017583885674e+004,-1.37328825515638e+001,-1.76832144889960e-001

1.69349062472505e+004,-1.37328826009539e+001,-1.79300629585623e-001

1.71713087287550e+004,-1.37328826517327e+001,-1.81803573040547e-001

1.74110112659224e+004,-1.37328827039389e+001,-1.84341456282173e-001

1.76540599258131e+004,-1.37328827576130e+001,-1.86914767050561e-001

1.79005014185594e+004,-1.37328828127960e+001,-1.89523999895694e-001

1.81503831063432e+004,-1.37328828695304e+001,-1.92169656271217e-001

1.84037530124975e+004,-1.37328829278598e+001,-1.94852244630630e-001

1.86606598307361e+004,-1.37328829878291e+001,-1.97572280524777e-001

1.89211529345119e+004,-1.37328830494844e+001,-2.00330286701963e-001

1.91852823865052e+004,-1.37328831128730e+001,-2.03126793207167e-001

1.94530989482457e+004,-1.37328831780436e+001,-2.05962337485501e-001

1.97246540898671e+004,-1.37328832450466e+001,-2.08837464482064e-001

1.99999999999999e+004,-1.37328833139332e+001,-2.11752726752765e-001

2.02791895958005e+004,-1.37328833847565e+001,-2.14708684563819e-001

2.05622765331213e+004,-1.37328834575709e+001,-2.17705906004447e-001

2.08493152168224e+004,-1.37328835324325e+001,-2.20744967092286e-001

2.11403608112276e+004,-1.37328836093986e+001,-2.23826451888028e-001

2.14354692507258e+004,-1.37328836885287e+001,-2.26950952602760e-001

2.17346972505211e+004,-1.37328837698832e+001,-2.30119069718386e-001

2.20381023175322e+004,-1.37328838535250e+001,-2.33331412095030e-001

2.23457427614443e+004,-1.37328839395184e+001,-2.36588597094804e-001

2.26576777059159e+004,-1.37328840279293e+001,-2.39891250697140e-001

2.29739670999406e+004,-1.37328841188258e+001,-2.43240007620098e-001

2.32946717293690e+004,-1.37328842122778e+001,-2.46635511441452e-001

2.36198532285905e+004,-1.37328843083571e+001,-2.50078414723271e-001

2.39495740923785e+004,-1.37328844071375e+001,-2.53569379137530e-001

2.42838976879009e+004,-1.37328845086951e+001,-2.57109075591390e-001

2.46228882668982e+004,-1.37328846131077e+001,-2.60698184360292e-001

2.49666109780322e+004,-1.37328847204559e+001,-2.64337395212228e-001

2.53151318794055e+004,-1.37328848308221e+001,-2.68027407547178e-001

2.56685179512580e+004,-1.37328849442911e+001,-2.71768930526068e-001

2.60268371088386e+004,-1.37328850609501e+001,-2.75562683211154e-001

2.63901582154578e+004,-1.37328851808888e+001,-2.79409394701788e-001

2.67585510957221e+004,-1.37328853041996e+001,-2.83309804273835e-001

2.71320865489533e+004,-1.37328854309770e+001,-2.87264661525407e-001

2.75108363627948e+004,-1.37328855613187e+001,-2.91274726516735e-001

2.78948733270080e+004,-1.37328856953248e+001,-2.95340769918108e-001

2.82842712474618e+004,-1.37328858330983e+001,-2.99463573160366e-001

2.86791049603164e+004,-1.37328859747452e+001,-3.03643928579012e-001

2.90794503464061e+004,-1.37328861203742e+001,-3.07882639573878e-001

2.94853843458219e+004,-1.37328862700976e+001,-3.12180520755999e-001

2.98969849726987e+004,-1.37328864240303e+001,-3.16538398110854e-001

3.03143313302078e+004,-1.37328865822906e+001,-3.20957109152973e-001

3.07375036257601e+004,-1.37328867450002e+001,-3.25437503089066e-001

3.11665831864199e+004,-1.37328869122842e+001,-3.29980440979505e-001

3.16016524745350e+004,-1.37328870842714e+001,-3.34586795903354e-001

3.20427951035848e+004,-1.37328872610936e+001,-3.39257453130993e-001

3.24900958542493e+004,-1.37328874428870e+001,-3.43993310286824e-001

3.29436406907028e+004,-1.37328876297915e+001,-3.48795277527067e-001

3.34035167771346e+004,-1.37328878219505e+001,-3.53664277714953e-001

3.38698124945009e+004,-1.37328880195119e+001,-3.58601246593775e-001

3.43426174575100e+004,-1.37328882226275e+001,-3.63607132970117e-001

3.48220225318448e+004,-1.37328884314536e+001,-3.68682898895743e-001

3.53081198516260e+004,-1.37328886461504e+001,-3.73829519852810e-001

3.58010028371187e+004,-1.37328888668834e+001,-3.79047984938099e-001

3.63007662126863e+004,-1.37328890938220e+001,-3.84339297059169e-001

3.68075060249948e+004,-1.37328893271408e+001,-3.89704473120293e-001

3.73213196614721e+004,-1.37328895670191e+001,-3.95144544223241e-001

3.78423058690237e+004,-1.37328898136413e+001,-4.00660555863050e-001

3.83705647730104e+004,-1.37328900671971e+001,-4.06253568128116e-001

3.89061978964912e+004,-1.37328903278813e+001,-4.11924655907307e-001

3.94493081797342e+004,-1.37328905958945e+001,-4.17674909091847e-001

3.99999999999998e+004,-1.37328908714426e+001,-4.23505432788348e-001

4.05583791916010e+004,-1.37328911547374e+001,-4.29417347531081e-001

4.11245530662425e+004,-1.37328914459968e+001,-4.35411789494796e-001

4.16986304336447e+004,-1.37328917454447e+001,-4.41489910714552e-001

4.22807216224550e+004,-1.37328920533113e+001,-4.47652879308537e-001

4.28709385014515e+004,-1.37328923698332e+001,-4.53901879700306e-001

4.34693945010421e+004,-1.37328926952539e+001,-4.60238112847445e-001

4.40762046350642e+004,-1.37328930298235e+001,-4.66662796471401e-001

4.46914855228886e+004,-1.37328933737992e+001,-4.73177165294007e-001

4.53153554118317e+004,-1.37328937274454e+001,-4.79782471271770e-001

4.59479341998812e+004,-1.37328940910342e+001,-4.86479983838027e-001

4.65893434587380e+004,-1.37328944648448e+001,-4.93270990147162e-001

4.72397064571810e+004,-1.37328948491648e+001,-5.00156795321191e-001

4.78991481847569e+004,-1.37328952442897e+001,-5.07138722699962e-001

4.85677953758016e+004,-1.37328956505232e+001,-5.14218114098074e-001

4.92457765337964e+004,-1.37328960681775e+001,-5.21396330060176e-001

4.99332219560642e+004,-1.37328964975739e+001,-5.28674750122460e-001

5.06302637588109e+004,-1.37328969390423e+001,-5.36054773080496e-001

5.13370359025159e+004,-1.37328973929223e+001,-5.43537817254867e-001

5.20536742176771e+004,-1.37328978595628e+001,-5.51125320765011e-001

5.27803164309155e+004,-1.37328983393225e+001,-5.58818741806471e-001

5.35171021914442e+004,-1.37328988325702e+001,-5.66619558929697e-001

5.42641730979066e+004,-1.37328993396852e+001,-5.74529271325248e-001

5.50216727255895e+004,-1.37328998610573e+001,-5.82549399110947e-001

5.57897466540159e+004,-1.37329003970874e+001,-5.90681483624976e-001

5.65685424949235e+004,-1.37329009481876e+001,-5.98927087721547e-001

5.73582099206328e+004,-1.37329015147816e+001,-6.07287796070561e-001

5.81589006928121e+004,-1.37329020973049e+001,-6.15765215464961e-001

5.89707686916437e+004,-1.37329026962055e+001,-6.24360975124663e-001

5.97939699453972e+004,-1.37329033119437e+001,-6.33076727015181e-001

6.06286626604156e+004,-1.37329039449930e+001,-6.41914146161083e-001

6.14750072515201e+004,-1.37329045958401e+001,-6.50874930968817e-001

6.23331663728396e+004,-1.37329052649852e+001,-6.59960803554804e-001

6.32033049490698e+004,-1.37329059529429e+001,-6.69173510074353e-001

6.40855902071694e+004,-1.37329066602421e+001,-6.78514821057176e-001

6.49801917084985e+004,-1.37329073874266e+001,-6.87986531750281e-001

6.58872813814055e+004,-1.37329081350554e+001,-6.97590462459997e-001

6.68070335542691e+004,-1.37329089037034e+001,-7.07328458902582e-001

6.77396249890018e+004,-1.37329096939615e+001,-7.17202392560389e-001

6.86852349150199e+004,-1.37329105064372e+001,-7.27214161039649e-001

6.96440450636895e+004,-1.37329113417553e+001,-7.37365688436369e-001

7.06162397032520e+004,-1.37329122005579e+001,-7.47658925705075e-001

7.16020056742374e+004,-1.37329130835053e+001,-7.58095851034795e-001

7.26015324253724e+004,-1.37329139912762e+001,-7.68678470228863e-001

7.36150120499896e+004,-1.37329149245688e+001,-7.79408817089520e-001

7.46426393229441e+004,-1.37329158841005e+001,-7.90288953810777e-001

7.56846117380472e+004,-1.37329168706089e+001,-8.01320971371783e-001

7.67411295460207e+004,-1.37329178848527e+001,-8.12506989941833e-001

7.78123957929823e+004,-1.37329189276116e+001,-8.23849159285135e-001

7.88986163594682e+004,-1.37329199996872e+001,-8.35349659176094e-001

7.99999999999995e+004,-1.37329211019038e+001,-8.47010699816802e-001

8.11167583832018e+004,-1.37329222351089e+001,-8.58834522261835e-001

8.22491061324848e+004,-1.37329234001738e+001,-8.70823398849413e-001

8.33972608672892e+004,-1.37329245979941e+001,-8.82979633638509e-001

8.45614432449099e+004,-1.37329258294908e+001,-8.95305562850655e-001

8.57418770029029e+004,-1.37329270956108e+001,-9.07803555319704e-001

8.69387890020841e+004,-1.37329283973275e+001,-9.20476012945490e-001

8.81524092701283e+004,-1.37329297356418e+001,-9.33325371157742e-001

8.93829710457770e+004,-1.37329311115827e+001,-9.46354099382842e-001

9.06307108236633e+004,-1.37329325262078e+001,-9.59564701518356e-001

9.18958683997622e+004,-1.37329339806051e+001,-9.72959716414127e-001

9.31786869174758e+004,-1.37329354758927e+001,-9.86541718360159e-001

9.44794129143618e+004,-1.37329370132203e+001,-1.00031331758217e+000

9.57982963695136e+004,-1.37329385937699e+001,-1.01427716074233e+000

9.71355907516031e+004,-1.37329402187567e+001,-1.02843593144799e+000

9.84915530675926e+004,-1.37329418894302e+001,-1.04279235076697e+000

9.98664439121282e+004,-1.37329436070748e+001,-1.05734917775265e+000

1.01260527517622e+005,-1.37329453730113e+001,-1.07210920997059e+000

1.02674071805032e+005,-1.37329471885974e+001,-1.08707528403913e+000

1.04107348435354e+005,-1.37329490552291e+001,-1.10225027617353e+000

1.05560632861831e+005,-1.37329509743417e+001,-1.11763710273755e+000

1.07034204382888e+005,-1.37329529474108e+001,-1.13323872080606e+000

1.08528346195813e+005,-1.37329549759533e+001,-1.14905812873181e+000

1.10043345451179e+005,-1.37329570615292e+001,-1.16509836672130e+000

1.11579493308032e+005,-1.37329592057420e+001,-1.18136251742020e+000

1.13137084989847e+005,-1.37329614102403e+001,-1.19785370650545e+000

1.14716419841265e+005,-1.37329636767193e+001,-1.21457510328447e+000

1.16317801385624e+005,-1.37329660069216e+001,-1.23152992130695e+000

1.17941537383287e+005,-1.37329684026391e+001,-1.24872141897887e+000

1.19587939890794e+005,-1.37329708657137e+001,-1.26615290019243e+000

1.21257325320831e+005,-1.37329733980395e+001,-1.28382771495723e+000

1.22950014503040e+005,-1.37329760015636e+001,-1.30174926004673e+000

1.24666332745679e+005,-1.37329786782881e+001,-1.31992097965015e+000

1.26406609898139e+005,-1.37329814302709e+001,-1.33834636603432e+000

1.28171180414339e+005,-1.37329842596285e+001,-1.35702896021312e+000

1.29960383416997e+005,-1.37329871685362e+001,-1.37597235263141e+000

1.31774562762811e+005,-1.37329901592311e+001,-1.39518018385118e+000

1.33614067108538e+005,-1.37329932340128e+001,-1.41465614525485e+000

1.35479249978003e+005,-1.37329963952456e+001,-1.43440397975047e+000

1.37370469830040e+005,-1.37329996453606e+001,-1.45442748249450e+000

1.39288090127379e+005,-1.37330029868568e+001,-1.47473050161914e+000

1.41232479406504e+005,-1.37330064223040e+001,-1.49531693897257e+000

1.43204011348474e+005,-1.37330099543438e+001,-1.51619075086770e+000

1.45203064850745e+005,-1.37330135856925e+001,-1.53735594884386e+000

1.47230024099979e+005,-1.37330173191424e+001,-1.55881660043643e+000

1.49285278645888e+005,-1.37330211575647e+001,-1.58057682995867e+000

1.51369223476094e+005,-1.37330251039111e+001,-1.60264081929474e+000

1.53482259092041e+005,-1.37330291612165e+001,-1.62501280870248e+000

1.55624791585964e+005,-1.37330333326009e+001,-1.64769709762864e+000

1.57797232718936e+005,-1.37330376212724e+001,-1.67069804553437e+000

1.59999999999999e+005,-1.37330420305291e+001,-1.69402007273457e+000

1.62233516766403e+005,-1.37330465637618e+001,-1.71766766124509e+000

1.64498212264969e+005,-1.37330512244571e+001,-1.74164535564437e+000

1.66794521734578e+005,-1.37330560161991e+001,-1.76595776394804e+000

1.69122886489819e+005,-1.37330609426730e+001,-1.79060955849337e+000

1.71483754005805e+005,-1.37330660076677e+001,-1.81560547683600e+000

1.73877578004168e+005,-1.37330712150786e+001,-1.84095032266198e+000

1.76304818540256e+005,-1.37330765689107e+001,-1.86664896670984e+000

1.78765942091554e+005,-1.37330820732817e+001,-1.89270634770593e+000

1.81261421647326e+005,-1.37330877324251e+001,-1.91912747331470e+000

1.83791736799524e+005,-1.37330935506933e+001,-1.94591742109935e+000

1.86357373834951e+005,-1.37330995325616e+001,-1.97308133949836e+000

1.88958825828723e+005,-1.37331056826306e+001,-2.00062444881419e+000

1.91596592739027e+005,-1.37331120056310e+001,-2.02855204221596e+000

1.94271181503206e+005,-1.37331185064258e+001,-2.05686948675793e+000

1.96983106135185e+005,-1.37331251900156e+001,-2.08558222440800e+000

1.99732887824256e+005,-1.37331320615413e+001,-2.11469577309580e+000

2.02521055035243e+005,-1.37331391262882e+001,-2.14421572777131e+000

2.05348143610063e+005,-1.37331463896908e+001,-2.17414776148018e+000

2.08214696870707e+005,-1.37331538573362e+001,-2.20449762645344e+000

2.11121265723661e+005,-1.37331615349688e+001,-2.23527115521269e+000

2.14068408765776e+005,-1.37331694284946e+001,-2.26647426169062e+000

2.17056692391625e+005,-1.37331775439857e+001,-2.29811294236761e+000

2.20086690902357e+005,-1.37331858876852e+001,-2.33019327742245e+000

2.23158986616063e+005,-1.37331944660118e+001,-2.36272143190110e+000

2.26274169979693e+005,-1.37332032855648e+001,-2.39570365690166e+000

2.29432839682530e+005,-1.37332123531293e+001,-2.42914629077429e+000

2.32635602771247e+005,-1.37332216756813e+001,-2.46305576033839e+000

2.35883074766574e+005,-1.37332312603929e+001,-2.49743858211910e+000

2.39175879781588e+005,-1.37332411146385e+001,-2.53230136359647e+000

2.42514650641661e+005,-1.37332512459996e+001,-2.56765080447699e+000

2.45900029006080e+005,-1.37332616622712e+001,-2.60349369797899e+000

2.49332665491357e+005,-1.37332723714680e+001,-2.63983693213823e+000

2.52813219796278e+005,-1.37332833818297e+001,-2.67668749113121e+000

2.56342360828676e+005,-1.37332947018285e+001,-2.71405245661515e+000

2.59920766833993e+005,-1.37333063401747e+001,-2.75193900909062e+000

2.63549125525621e+005,-1.37333183058239e+001,-2.79035442927846e+000

2.67228134217075e+005,-1.37333306079838e+001,-2.82930609951978e+000

2.70958499956006e+005,-1.37333432561213e+001,-2.86880150519241e+000

2.74740939660078e+005,-1.37333562599698e+001,-2.90884823615012e+000

2.78576180254757e+005,-1.37333696295368e+001,-2.94945398817920e+000

2.82464958813007e+005,-1.37333833751114e+001,-2.99062656447675e+000

2.86408022696948e+005,-1.37333975072726e+001,-3.03237387714954e+000

2.90406129701488e+005,-1.37334120368969e+001,-3.07470394873327e+000

2.94460048199957e+005,-1.37334269751675e+001,-3.11762491373303e+000

2.98570557291775e+005,-1.37334423335822e+001,-3.16114502018627e+000

3.02738446952187e+005,-1.37334581239627e+001,-3.20527263124556e+000

3.06964518184081e+005,-1.37334743584635e+001,-3.25001622678555e+000

3.11249583171928e+005,-1.37334910495815e+001,-3.29538440503068e+000

3.15594465437872e+005,-1.37335082101656e+001,-3.34138588420712e+000

3.19999999999997e+005,-1.37335258534265e+001,-3.38802950421522e+000

3.24467033532806e+005,-1.37335439929470e+001,-3.43532422832868e+000

3.28996424529938e+005,-1.37335626426925e+001,-3.48327914491436e+000

3.33589043469155e+005,-1.37335818170219e+001,-3.53190346917783e+000

3.38245772979638e+005,-1.37336015306984e+001,-3.58120654493202e+000

3.42967508011610e+005,-1.37336217989014e+001,-3.63119784639227e+000

3.47755156008335e+005,-1.37336426372377e+001,-3.68188697999398e+000

3.52609637080511e+005,-1.37336640617540e+001,-3.73328368623785e+000

3.57531884183106e+005,-1.37336860889491e+001,-3.78539784155938e+000

3.62522843294651e+005,-1.37337087357868e+001,-3.83823946022441e+000

3.67583473599047e+005,-1.37337320197088e+001,-3.89181869625241e+000

3.72714747669902e+005,-1.37337559586486e+001,-3.94614584536469e+000

3.77917651657445e+005,-1.37337805710449e+001,-4.00123134696162e+000

3.83193185478053e+005,-1.37338058758563e+001,-4.05708578612499e+000

3.88542363006410e+005,-1.37338318925758e+001,-4.11371989565102e+000

3.93966212270369e+005,-1.37338586412460e+001,-4.17114455810953e+000

3.99465775648511e+005,-1.37338861424743e+001,-4.22937080793282e+000

4.05042110070485e+005,-1.37339144174494e+001,-4.28840983353324e+000

4.10696287220124e+005,-1.37339434879575e+001,-4.34827297944956e+000

4.16429393741414e+005,-1.37339733763990e+001,-4.40897174852542e+000

4.22242531447321e+005,-1.37340041058061e+001,-4.47051780411507e+000

4.28136817531551e+005,-1.37340356998608e+001,-4.53292297232240e+000

4.34113384783250e+005,-1.37340681829127e+001,-4.59619924426929e+000

4.40173381804713e+005,-1.37341015799989e+001,-4.66035877839645e+000

4.46317973232124e+005,-1.37341359168623e+001,-4.72541390279621e+000

4.52548339959385e+005,-1.37341712199725e+001,-4.79137711757712e+000

4.58865679365059e+005,-1.37342075165459e+001,-4.85826109726207e+000

4.65271205542494e+005,-1.37342448345671e+001,-4.92607869321960e+000

4.71766149533147e+005,-1.37342832028103e+001,-4.99484293612852e+000

4.78351759563174e+005,-1.37343226508623e+001,-5.06456703847750e+000

4.85029301283321e+005,-1.37343632091448e+001,-5.13526439709879e+000

4.91800058012158e+005,-1.37344049089384e+001,-5.20694859573776e+000

4.98665330982714e+005,-1.37344477824075e+001,-5.27963340765651e+000

5.05626439592555e+005,-1.37344918626242e+001,-5.35333279827660e+000

5.12684721657352e+005,-1.37345371835949e+001,-5.42806092785555e+000

5.19841533667984e+005,-1.37345837802869e+001,-5.50383215420154e+000

5.27098251051240e+005,-1.37346316886550e+001,-5.58066103542664e+000

5.34456268434150e+005,-1.37346809456700e+001,-5.65856233273657e+000

5.41916999912011e+005,-1.37347315893475e+001,-5.73755101326094e+000

