Freq.,VOut,OutRef

1.00000000000000e+004,-1.95765236325341e+001,-3.11399851254926e-001

1.01395947979003e+004,-1.95765246143873e+001,-3.15746818320121e-001

1.02811382665607e+004,-1.95765256238439e+001,-3.20154466237865e-001

1.04246576084112e+004,-1.95765266616800e+001,-3.24623642058400e-001

1.05701804056138e+004,-1.95765277286933e+001,-3.29155204654690e-001

1.07177346253629e+004,-1.95765288257042e+001,-3.33750024888124e-001

1.08673486252606e+004,-1.95765299535559e+001,-3.38408985777143e-001

1.10190511587661e+004,-1.95765311131156e+001,-3.43132982663332e-001

1.11728713807222e+004,-1.95765323052745e+001,-3.47922923388131e-001

1.13288388529580e+004,-1.95765335309493e+001,-3.52779728461842e-001

1.14869835499703e+004,-1.95765347910821e+001,-3.57704331246710e-001

1.16473358646846e+004,-1.95765360866416e+001,-3.62697678129598e-001

1.18099266142953e+004,-1.95765374186238e+001,-3.67760728710109e-001

1.19747870461893e+004,-1.95765387880528e+001,-3.72894455978688e-001

1.21419488439505e+004,-1.95765401959811e+001,-3.78099846509984e-001

1.23114441334492e+004,-1.95765416434912e+001,-3.83377900647328e-001

1.24833054890161e+004,-1.95765431316957e+001,-3.88729632696926e-001

1.26575659397028e+004,-1.95765446617389e+001,-3.94156071121877e-001

1.28342589756290e+004,-1.95765462347969e+001,-3.99658258741433e-001

1.30134185544193e+004,-1.95765478520788e+001,-4.05237252930836e-001

1.31950791077289e+004,-1.95765495148281e+001,-4.10894125821654e-001

1.33792755478611e+004,-1.95765512243229e+001,-4.16629964510980e-001

1.35660432744767e+004,-1.95765529818775e+001,-4.22445871269727e-001

1.37554181813974e+004,-1.95765547888429e+001,-4.28342963752336e-001

1.39474366635040e+004,-1.95765566466081e+001,-4.34322375215169e-001

1.41421356237309e+004,-1.95765585566013e+001,-4.40385254729318e-001

1.43395524801583e+004,-1.95765605202909e+001,-4.46532767405170e-001

1.45397251732031e+004,-1.95765625391863e+001,-4.52766094614588e-001

1.47426921729110e+004,-1.95765646148395e+001,-4.59086434218800e-001

1.49484924863494e+004,-1.95765667488462e+001,-4.65495000796721e-001

1.51571656651040e+004,-1.95765689428469e+001,-4.71993025879549e-001

1.53687518128801e+004,-1.95765711985280e+001,-4.78581758187487e-001

1.55832915932100e+004,-1.95765735176237e+001,-4.85262463868571e-001

1.58008262372675e+004,-1.95765759019168e+001,-4.92036426742280e-001

1.60213975517924e+004,-1.95765783532399e+001,-4.98904948546819e-001

1.62450479271247e+004,-1.95765808734777e+001,-5.05869349187021e-001

1.64718203453514e+004,-1.95765834645672e+001,-5.12930966991337e-001

1.67017583885674e+004,-1.95765861285006e+001,-5.20091158964053e-001

1.69349062472505e+004,-1.95765888673256e+001,-5.27351301050229e-001

1.71713087287550e+004,-1.95765916831474e+001,-5.34712788398368e-001

1.74110112659224e+004,-1.95765945781308e+001,-5.42177035627173e-001

1.76540599258131e+004,-1.95765975545012e+001,-5.49745477098140e-001

1.79005014185594e+004,-1.95766006145464e+001,-5.57419567191711e-001

1.81503831063432e+004,-1.95766037606189e+001,-5.65200780584781e-001

1.84037530124975e+004,-1.95766069951369e+001,-5.73090612535763e-001

1.86606598307361e+004,-1.95766103205870e+001,-5.81090579169681e-001

1.89211529345119e+004,-1.95766137395255e+001,-5.89202217770613e-001

1.91852823865052e+004,-1.95766172545804e+001,-5.97427087077390e-001

1.94530989482457e+004,-1.95766208684538e+001,-6.05766767580416e-001

1.97246540898671e+004,-1.95766245839237e+001,-6.14222861826932e-001

1.99999999999999e+004,-1.95766284038463e+001,-6.22796994728497e-001

2.02791895958005e+004,-1.95766323311577e+001,-6.31490813872960e-001

2.05622765331213e+004,-1.95766363688771e+001,-6.40305989839396e-001

2.08493152168224e+004,-1.95766405201080e+001,-6.49244216521108e-001

2.11403608112276e+004,-1.95766447880415e+001,-6.58307211448155e-001

2.14354692507258e+004,-1.95766491759583e+001,-6.67496716118627e-001

2.17346972505211e+004,-1.95766536872314e+001,-6.76814496332391e-001

2.20381023175322e+004,-1.95766583253285e+001,-6.86262342530688e-001

2.23457427614443e+004,-1.95766630938148e+001,-6.95842070137785e-001

2.26576777059159e+004,-1.95766679963557e+001,-7.05555519912022e-001

2.29739670999406e+004,-1.95766730367197e+001,-7.15404558296605e-001

2.32946717293690e+004,-1.95766782187812e+001,-7.25391077778973e-001

2.36198532285905e+004,-1.95766835465235e+001,-7.35516997254350e-001

2.39495740923785e+004,-1.95766890240418e+001,-7.45784262392991e-001

2.42838976879009e+004,-1.95766946555465e+001,-7.56194846012911e-001

2.46228882668982e+004,-1.95767004453663e+001,-7.66750748460751e-001

2.49666109780322e+004,-1.95767063979516e+001,-7.77453997992337e-001

2.53151318794055e+004,-1.95767125178778e+001,-7.88306651164464e-001

2.56685179512580e+004,-1.95767188098492e+001,-7.99310793227858e-001

2.60268371088386e+004,-1.95767252787018e+001,-8.10468538527788e-001

2.63901582154578e+004,-1.95767319294081e+001,-8.21782030908980e-001

2.67585510957221e+004,-1.95767387670800e+001,-8.33253444127689e-001

2.71320865489533e+004,-1.95767457969731e+001,-8.44884982267731e-001

2.75108363627948e+004,-1.95767530244909e+001,-8.56678880162908e-001

2.78948733270080e+004,-1.95767604551886e+001,-8.68637403826996e-001

2.82842712474618e+004,-1.95767680947778e+001,-8.80762850886397e-001

2.86791049603164e+004,-1.95767759491301e+001,-8.93057551022516e-001

2.90794503464061e+004,-1.95767840242827e+001,-9.05523866416170e-001

2.94853843458219e+004,-1.95767923264423e+001,-9.18164192202384e-001

2.98969849726987e+004,-1.95768008619898e+001,-9.30980956929163e-001

3.03143313302078e+004,-1.95768096374858e+001,-9.43976623021375e-001

3.07375036257601e+004,-1.95768186596751e+001,-9.57153687254168e-001

3.11665831864199e+004,-1.95768279354919e+001,-9.70514681232365e-001

3.16016524745350e+004,-1.95768374720658e+001,-9.84062171872353e-001

3.20427951035848e+004,-1.95768472767261e+001,-9.97798761897731e-001

3.24900958542493e+004,-1.95768573570085e+001,-1.01172709033539e+000

3.29436406907028e+004,-1.95768677206605e+001,-1.02584983302129e+000

3.34035167771346e+004,-1.95768783756472e+001,-1.04016970311457e+000

3.38698124945009e+004,-1.95768893301576e+001,-1.05468945161530e+000

3.43426174575100e+004,-1.95769005926108e+001,-1.06941186789367e+000

3.48220225318448e+004,-1.95769121716624e+001,-1.08433978022148e+000

3.53081198516260e+004,-1.95769240762116e+001,-1.09947605631558e+000

3.58010028371187e+004,-1.95769363154072e+001,-1.11482360388667e+000

3.63007662126863e+004,-1.95769488986554e+001,-1.13038537119521e+000

3.68075060249948e+004,-1.95769618356269e+001,-1.14616434761596e+000

3.73213196614721e+004,-1.95769751362636e+001,-1.16216356421163e+000

3.78423058690237e+004,-1.95769888107873e+001,-1.17838609431105e+000

3.83705647730104e+004,-1.95770028697068e+001,-1.19483505409789e+000

3.89061978964912e+004,-1.95770173238262e+001,-1.21151360320713e+000

3.94493081797342e+004,-1.95770321842533e+001,-1.22842494532985e+000

3.99999999999998e+004,-1.95770474624079e+001,-1.24557232882508e+000

4.05583791916010e+004,-1.95770631700307e+001,-1.26295904734222e+000

4.11245530662425e+004,-1.95770793191923e+001,-1.28058844044954e+000

4.16986304336447e+004,-1.95770959223025e+001,-1.29846389427450e+000

4.22807216224550e+004,-1.95771129921199e+001,-1.31658884214880e+000

4.28709385014515e+004,-1.95771305417612e+001,-1.33496676526745e+000

4.34693945010421e+004,-1.95771485847120e+001,-1.35360119335185e+000

4.40762046350642e+004,-1.95771671348368e+001,-1.37249570532502e+000

4.46914855228886e+004,-1.95771862063892e+001,-1.39165392999578e+000

4.53153554118317e+004,-1.95772058140239e+001,-1.41107954675158e+000

4.59479341998812e+004,-1.95772259728066e+001,-1.43077628626179e+000

4.65893434587380e+004,-1.95772466982270e+001,-1.45074793118832e+000

4.72397064571810e+004,-1.95772680062092e+001,-1.47099831691143e+000

4.78991481847569e+004,-1.95772899131254e+001,-1.49153133225766e+000

4.85677953758016e+004,-1.95773124358071e+001,-1.51235092024463e+000

4.92457765337964e+004,-1.95773355915590e+001,-1.53346107883395e+000

4.99332219560642e+004,-1.95773593981718e+001,-1.55486586169156e+000

5.06302637588109e+004,-1.95773838739359e+001,-1.57656937896312e+000

5.13370359025159e+004,-1.95774090376555e+001,-1.59857579805687e+000

5.20536742176771e+004,-1.95774349086631e+001,-1.62088934443790e+000

5.27803164309155e+004,-1.95774615068340e+001,-1.64351430243530e+000

5.35171021914442e+004,-1.95774888526019e+001,-1.66645501605625e+000

5.42641730979066e+004,-1.95775169669745e+001,-1.68971588981509e+000

5.50216727255895e+004,-1.95775458715494e+001,-1.71330138957247e+000

5.57897466540159e+004,-1.95775755885306e+001,-1.73721604338573e+000

5.65685424949235e+004,-1.95776061407461e+001,-1.76146444236983e+000

5.73582099206328e+004,-1.95776375516646e+001,-1.78605124157292e+000

5.81589006928121e+004,-1.95776698454141e+001,-1.81098116086094e+000

5.89707686916437e+004,-1.95777030468002e+001,-1.83625898581605e+000

5.97939699453972e+004,-1.95777371813248e+001,-1.86188956864642e+000

6.06286626604156e+004,-1.95777722752062e+001,-1.88787782910891e+000

6.14750072515201e+004,-1.95778083553987e+001,-1.91422875544456e+000

6.23331663728396e+004,-1.95778454496135e+001,-1.94094740532530e+000

6.32033049490698e+004,-1.95778835863398e+001,-1.96803890681579e+000

6.40855902071694e+004,-1.95779227948667e+001,-1.99550845934630e+000

6.49801917084985e+004,-1.95779631053056e+001,-2.02336133470048e+000

6.58872813814055e+004,-1.95780045486134e+001,-2.05160287801422e+000

6.68070335542691e+004,-1.95780471566158e+001,-2.08023850879147e+000

6.77396249890018e+004,-1.95780909620319e+001,-2.10927372193036e+000

6.86852349150199e+004,-1.95781359984996e+001,-2.13871408876518e+000

6.96440450636895e+004,-1.95781823006004e+001,-2.16856525812230e+000

7.06162397032520e+004,-1.95782299038872e+001,-2.19883295738896e+000

7.16020056742374e+004,-1.95782788449100e+001,-2.22952299359911e+000

7.26015324253724e+004,-1.95783291612450e+001,-2.26064125453059e+000

7.36150120499896e+004,-1.95783808915231e+001,-2.29219370981976e+000

7.46426393229441e+004,-1.95784340754588e+001,-2.32418641209028e+000

7.56846117380472e+004,-1.95784887538815e+001,-2.35662549809586e+000

7.67411295460207e+004,-1.95785449687660e+001,-2.38951718988065e+000

7.78123957929823e+004,-1.95786027632651e+001,-2.42286779595291e+000

7.88986163594682e+004,-1.95786621817419e+001,-2.45668371247614e+000

7.99999999999995e+004,-1.95787232698045e+001,-2.49097142447471e+000

8.11167583832018e+004,-1.95787860743403e+001,-2.52573750705667e+000

8.22491061324848e+004,-1.95788506435521e+001,-2.56098862665256e+000

8.33972608672892e+004,-1.95789170269947e+001,-2.59673154227015e+000

8.45614432449099e+004,-1.95789852756128e+001,-2.63297310676632e+000

8.57418770029029e+004,-1.95790554417800e+001,-2.66972026813695e+000

8.69387890020841e+004,-1.95791275793386e+001,-2.70698007082123e+000

8.81524092701283e+004,-1.95792017436410e+001,-2.74475965702576e+000

8.93829710457770e+004,-1.95792779915914e+001,-2.78306626806511e+000

9.06307108236633e+004,-1.95793563816897e+001,-2.82190724571963e+000

9.18958683997622e+004,-1.95794369740760e+001,-2.86129003361272e+000

9.31786869174758e+004,-1.95795198305761e+001,-2.90122217860407e+000

9.44794129143618e+004,-1.95796050147493e+001,-2.94171133220299e+000

9.57982963695136e+004,-1.95796925919361e+001,-2.98276525199934e+000

9.71355907516031e+004,-1.95797826293086e+001,-3.02439180311337e+000

9.84915530675926e+004,-1.95798751959212e+001,-3.06659895966480e+000

9.98664439121282e+004,-1.95799703627633e+001,-3.10939480626077e+000

1.01260527517622e+005,-1.95800682028138e+001,-3.15278753950265e+000

1.02674071805032e+005,-1.95801687910959e+001,-3.19678546951363e+000

1.04107348435354e+005,-1.95802722047347e+001,-3.24139702148514e+000

1.05560632861831e+005,-1.95803785230156e+001,-3.28663073724273e+000

1.07034204382888e+005,-1.95804878274449e+001,-3.33249527683434e+000

1.08528346195813e+005,-1.95806002018114e+001,-3.37899942013647e+000

1.10043345451179e+005,-1.95807157322502e+001,-3.42615206848216e+000

1.11579493308032e+005,-1.95808345073083e+001,-3.47396224631022e+000

1.13137084989847e+005,-1.95809566180117e+001,-3.52243910283410e+000

1.14716419841265e+005,-1.95810821579344e+001,-3.57159191373403e+000

1.16317801385624e+005,-1.95812112232695e+001,-3.62143008286820e+000

1.17941537383287e+005,-1.95813439129024e+001,-3.67196314400752e+000

1.19587939890794e+005,-1.95814803284855e+001,-3.72320076259175e+000

1.21257325320831e+005,-1.95816205745154e+001,-3.77515273750728e+000

1.22950014503040e+005,-1.95817647584118e+001,-3.82782900288752e+000

1.24666332745679e+005,-1.95819129905995e+001,-3.88123962993605e+000

1.26406609898139e+005,-1.95820653845911e+001,-3.93539482877162e+000

1.28171180414339e+005,-1.95822220570739e+001,-3.99030495029724e+000

1.29960383416997e+005,-1.95823831279973e+001,-4.04598048809158e+000

1.31774562762811e+005,-1.95825487206641e+001,-4.10243208032332e+000

1.33614067108538e+005,-1.95827189618233e+001,-4.15967051169047e+000

1.35479249978003e+005,-1.95828939817662e+001,-4.21770671538173e+000

1.37370469830040e+005,-1.95830739144243e+001,-4.27655177506271e+000

1.39288090127379e+005,-1.95832588974708e+001,-4.33621692688588e+000

1.41232479406504e+005,-1.95834490724243e+001,-4.39671356152499e+000

1.43204011348474e+005,-1.95836445847554e+001,-4.45805322623343e+000

1.45203064850745e+005,-1.95838455839963e+001,-4.52024762692781e+000

1.47230024099979e+005,-1.95840522238535e+001,-4.58330863029613e+000

1.49285278645888e+005,-1.95842646623235e+001,-4.64724826593044e+000

1.51369223476094e+005,-1.95844830618114e+001,-4.71207872848521e+000

1.53482259092041e+005,-1.95847075892532e+001,-4.77781237986085e+000

1.55624791585964e+005,-1.95849384162411e+001,-4.84446175141206e+000

1.57797232718936e+005,-1.95851757191522e+001,-4.91203954618269e+000

1.59999999999999e+005,-1.95854196792810e+001,-4.98055864116520e+000

1.62233516766403e+005,-1.95856704829752e+001,-5.05003208958733e+000

1.64498212264969e+005,-1.95859283217751e+001,-5.12047312322300e+000

1.66794521734578e+005,-1.95861933925574e+001,-5.19189515473088e+000

1.69122886489819e+005,-1.95864658976823e+001,-5.26431178001764e+000

1.71483754005805e+005,-1.95867460451441e+001,-5.33773678062922e+000

1.73877578004168e+005,-1.95870340487277e+001,-5.41218412616662e+000

1.76304818540256e+005,-1.95873301281672e+001,-5.48766797672939e+000

1.78765942091554e+005,-1.95876345093100e+001,-5.56420268538468e+000

1.81261421647326e+005,-1.95879474242849e+001,-5.64180280066424e+000

1.83791736799524e+005,-1.95882691116752e+001,-5.72048306908605e+000

1.86357373834951e+005,-1.95885998166959e+001,-5.80025843770417e+000

1.88958825828723e+005,-1.95889397913755e+001,-5.88114405668474e+000

1.91596592739027e+005,-1.95892892947435e+001,-5.96315528190816e+000

1.94271181503206e+005,-1.95896485930224e+001,-6.04630767759838e+000

1.96983106135185e+005,-1.95900179598245e+001,-6.13061701897920e+000

1.99732887824256e+005,-1.95903976763546e+001,-6.21609929495568e+000

2.02521055035243e+005,-1.95907880316176e+001,-6.30277071082367e+000

2.05348143610063e+005,-1.95911893226322e+001,-6.39064769100518e+000

2.08214696870707e+005,-1.95916018546494e+001,-6.47974688180886e+000

2.11121265723661e+005,-1.95920259413774e+001,-6.57008515421951e+000

2.14068408765776e+005,-1.95924619052129e+001,-6.66167960670995e+000

2.17056692391625e+005,-1.95929100774770e+001,-6.75454756808216e+000

2.20086690902357e+005,-1.95933707986589e+001,-6.84870660033232e+000

2.23158986616063e+005,-1.95938444186650e+001,-6.94417450154127e+000

2.26274169979693e+005,-1.95943312970754e+001,-7.04096930879124e+000

2.29432839682530e+005,-1.95948318034059e+001,-7.13910930110683e+000

2.32635602771247e+005,-1.95953463173781e+001,-7.23861300242079e+000

2.35883074766574e+005,-1.95958752291958e+001,-7.33949918456485e+000

2.39175879781588e+005,-1.95964189398287e+001,-7.44178687028338e+000

2.42514650641661e+005,-1.95969778613038e+001,-7.54549533627183e+000

2.45900029006080e+005,-1.95975524170039e+001,-7.65064411623808e+000

2.49332665491357e+005,-1.95981430419741e+001,-7.75725300398631e+000

2.52813219796278e+005,-1.95987501832360e+001,-7.86534205652369e+000

2.56342360828676e+005,-1.95993743001103e+001,-7.97493159718803e+000

2.59920766833993e+005,-1.96000158645471e+001,-8.08604221879850e+000

2.63549125525621e+005,-1.96006753614655e+001,-8.19869478682435e+000

2.67228134217075e+005,-1.96013532891007e+001,-8.31291044257560e+000

2.70958499956006e+005,-1.96020501593611e+001,-8.42871060641315e+000

2.74740939660078e+005,-1.96027664981937e+001,-8.54611698097557e+000

2.78576180254757e+005,-1.96035028459589e+001,-8.66515155442565e+000

2.82464958813007e+005,-1.96042597578145e+001,-8.78583660371323e+000

2.86408022696948e+005,-1.96050378041103e+001,-8.90819469785355e+000

2.90406129701488e+005,-1.96058375707911e+001,-9.03224870122146e+000

2.94460048199957e+005,-1.96066596598107e+001,-9.15802177685944e+000

2.98570557291775e+005,-1.96075046895563e+001,-9.28553738979872e+000

3.02738446952187e+005,-1.96083732952824e+001,-9.41481931039236e+000

3.06964518184081e+005,-1.96092661295562e+001,-9.54589161765939e+000

3.11249583171928e+005,-1.96101838627142e+001,-9.67877870263738e+000

3.15594465437872e+005,-1.96111271833285e+001,-9.81350527174511e+000

3.19999999999997e+005,-1.96120967986863e+001,-9.95009635015005e+000

3.24467033532806e+005,-1.96130934352792e+001,-1.00885772851425e+001

3.28996424529938e+005,-1.96141178393057e+001,-1.02289737495133e+001

3.33589043469155e+005,-1.96151707771848e+001,-1.03713117449333e+001

3.38245772979638e+005,-1.96162530360824e+001,-1.05156176053335e+001

3.42967508011610e+005,-1.96173654244495e+001,-1.06619180002845e+001

3.47755156008335e+005,-1.96185087725737e+001,-1.08102399383722e+001

3.52609637080511e+005,-1.96196839331436e+001,-1.09606107705682e+001

3.57531884183106e+005,-1.96208917818257e+001,-1.11130581935935e+001

3.62522843294651e+005,-1.96221332178551e+001,-1.12676102532730e+001

3.67583473599047e+005,-1.96234091646399e+001,-1.14242953478778e+001

3.72714747669902e+005,-1.96247205703790e+001,-1.15831422314541e+001

3.77917651657445e+005,-1.96260684086941e+001,-1.17441800171350e+001

3.83193185478053e+005,-1.96274536792758e+001,-1.19074381804350e+001

3.88542363006410e+005,-1.96288774085444e+001,-1.20729465625204e+001

3.93966212270369e+005,-1.96303406503248e+001,-1.22407353734574e+001

3.99465775648511e+005,-1.96318444865365e+001,-1.24108351954318e+001

4.05042110070485e+005,-1.96333900278990e+001,-1.25832769859375e+001

4.10696287220124e+005,-1.96349784146516e+001,-1.27580920809342e+001

4.16429393741414e+005,-1.96366108172892e+001,-1.29353121979645e+001

4.22242531447321e+005,-1.96382884373133e+001,-1.31149694392333e+001

4.28136817531551e+005,-1.96400125079990e+001,-1.32970962946423e+001

4.34113384783250e+005,-1.96417842951779e+001,-1.34817256447772e+001

4.40173381804713e+005,-1.96436050980363e+001,-1.36688907638428e+001

4.46317973232124e+005,-1.96454762499309e+001,-1.38586253225435e+001

4.52548339959385e+005,-1.96473991192193e+001,-1.40509633909030e+001

4.58865679365059e+005,-1.96493751101082e+001,-1.42459394410210e+001

4.65271205542494e+005,-1.96514056635170e+001,-1.44435883497612e+001

4.71766149533147e+005,-1.96534922579589e+001,-1.46439454013657e+001

4.78351759563174e+005,-1.96556364104380e+001,-1.48470462899920e+001

4.85029301283321e+005,-1.96578396773633e+001,-1.50529271221671e+001

4.91800058012158e+005,-1.96601036554796e+001,-1.52616244191532e+001

4.98665330982714e+005,-1.96624299828149e+001,-1.54731751192204e+001

5.05626439592555e+005,-1.96648203396445e+001,-1.56876165798213e+001

5.12684721657352e+005,-1.96672764494718e+001,-1.59049865796591e+001

5.19841533667984e+005,-1.96698000800261e+001,-1.61253233206479e+001

5.27098251051240e+005,-1.96723930442762e+001,-1.63486654297548e+001

5.34456268434150e+005,-1.96750572014612e+001,-1.65750519607203e+001

5.41916999912011e+005,-1.96777944581367e+001,-1.68045223956498e+001

