Freq.,VOut,OutRef

1.00000000000000e+004,-2.97315835782231e+001,-4.69284631411325e-001

1.01395947979003e+004,-2.97315867353799e+001,-4.75835535158237e-001

1.02811382665607e+004,-2.97315899812942e+001,-4.82477883329142e-001

1.04246576084112e+004,-2.97315933184616e+001,-4.89212952321148e-001

1.05701804056138e+004,-2.97315967494470e+001,-4.96042036347088e-001

1.07177346253629e+004,-2.97316002768882e+001,-5.02966447677893e-001

1.08673486252606e+004,-2.97316039034966e+001,-5.09987516900099e-001

1.10190511587661e+004,-2.97316076320602e+001,-5.17106593167154e-001

1.11728713807222e+004,-2.97316114654449e+001,-5.24325044462046e-001

1.13288388529580e+004,-2.97316154065977e+001,-5.31644257855543e-001

1.14869835499703e+004,-2.97316194585481e+001,-5.39065639776568e-001

1.16473358646846e+004,-2.97316236244110e+001,-5.46590616278835e-001

1.18099266142953e+004,-2.97316279073885e+001,-5.54220633317766e-001

1.19747870461893e+004,-2.97316323107730e+001,-5.61957157025099e-001

1.21419488439505e+004,-2.97316368379495e+001,-5.69801673991849e-001

1.23114441334492e+004,-2.97316414923978e+001,-5.77755691552898e-001

1.24833054890161e+004,-2.97316462776961e+001,-5.85820738075750e-001

1.26575659397028e+004,-2.97316511975225e+001,-5.93998363256319e-001

1.28342589756290e+004,-2.97316562556590e+001,-6.02290138413097e-001

1.30134185544193e+004,-2.97316614559937e+001,-6.10697656789812e-001

1.31950791077289e+004,-2.97316668025240e+001,-6.19222533862530e-001

1.33792755478611e+004,-2.97316722993598e+001,-6.27866407647106e-001

1.35660432744767e+004,-2.97316779507263e+001,-6.36630939015497e-001

1.37554181813974e+004,-2.97316837609676e+001,-6.45517812012850e-001

1.39474366635040e+004,-2.97316897345500e+001,-6.54528734181420e-001

1.41421356237309e+004,-2.97316958760651e+001,-6.63665436887988e-001

1.43395524801583e+004,-2.97317021902339e+001,-6.72929675655688e-001

1.45397251732031e+004,-2.97317086819096e+001,-6.82323230501298e-001

1.47426921729110e+004,-2.97317153560823e+001,-6.91847906274458e-001

1.49484924863494e+004,-2.97317222178823e+001,-7.01505533007110e-001

1.51571656651040e+004,-2.97317292725838e+001,-7.11297966261814e-001

1.53687518128801e+004,-2.97317365256094e+001,-7.21227087489091e-001

1.55832915932100e+004,-2.97317439825344e+001,-7.31294804386201e-001

1.58008262372675e+004,-2.97317516490904e+001,-7.41503051264940e-001

1.60213975517924e+004,-2.97317595311702e+001,-7.51853789422383e-001

1.62450479271247e+004,-2.97317676348325e+001,-7.62349007513985e-001

1.64718203453514e+004,-2.97317759663058e+001,-7.72990721939049e-001

1.67017583885674e+004,-2.97317845319943e+001,-7.83780977222720e-001

1.69349062472505e+004,-2.97317933384815e+001,-7.94721846412658e-001

1.71713087287550e+004,-2.97318023925366e+001,-8.05815431470987e-001

1.74110112659224e+004,-2.97318117011186e+001,-8.17063863681532e-001

1.76540599258131e+004,-2.97318212713822e+001,-8.28469304055784e-001

1.79005014185594e+004,-2.97318311106833e+001,-8.40033943746754e-001

1.81503831063432e+004,-2.97318412265845e+001,-8.51760004470475e-001

1.84037530124975e+004,-2.97318516268609e+001,-8.63649738929983e-001

1.86606598307361e+004,-2.97318623195061e+001,-8.75705431247609e-001

1.89211529345119e+004,-2.97318733127385e+001,-8.87929397401108e-001

1.91852823865052e+004,-2.97318846150074e+001,-9.00323985668873e-001

1.94530989482457e+004,-2.97318962349994e+001,-9.12891577078953e-001

1.97246540898671e+004,-2.97319081816455e+001,-9.25634585864136e-001

1.99999999999999e+004,-2.97319204641276e+001,-9.38555459924459e-001

2.02791895958005e+004,-2.97319330918856e+001,-9.51656681296794e-001

2.05622765331213e+004,-2.97319460746246e+001,-9.64940766628047e-001

2.08493152168224e+004,-2.97319594223228e+001,-9.78410267658507e-001

2.11403608112276e+004,-2.97319731452384e+001,-9.92067771708381e-001

2.14354692507258e+004,-2.97319872539181e+001,-1.00591590217478e+000

2.17346972505211e+004,-2.97320017592050e+001,-1.01995731903123e+000

2.20381023175322e+004,-2.97320166722468e+001,-1.03419471933876e+000

2.23457427614443e+004,-2.97320320045046e+001,-1.04863083775994e+000

2.26576777059159e+004,-2.97320477677614e+001,-1.06326844708190e+000

2.29739670999406e+004,-2.97320639741315e+001,-1.07811035874778e+000

2.32946717293690e+004,-2.97320806360695e+001,-1.09315942339290e+000

2.36198532285905e+004,-2.97320977663801e+001,-1.10841853139024e+000

2.39495740923785e+004,-2.97321153782276e+001,-1.12389061340187e+000

2.42838976879009e+004,-2.97321334851463e+001,-1.13957864094018e+000

2.46228882668982e+004,-2.97321521010510e+001,-1.15548562693447e+000

2.49666109780322e+004,-2.97321712402472e+001,-1.17161462630718e+000

2.53151318794055e+004,-2.97321909174426e+001,-1.18796873655638e+000

2.56685179512580e+004,-2.97322111477578e+001,-1.20455109834867e+000

2.60268371088386e+004,-2.97322319467387e+001,-1.22136489611659e+000

2.63901582154578e+004,-2.97322533303677e+001,-1.23841335866892e+000

2.67585510957221e+004,-2.97322753150762e+001,-1.25569975980467e+000

2.71320865489533e+004,-2.97322979177575e+001,-1.27322741893843e+000

2.75108363627948e+004,-2.97323211557794e+001,-1.29099970173430e+000

2.78948733270080e+004,-2.97323450469975e+001,-1.30902002074650e+000

2.82842712474618e+004,-2.97323696097694e+001,-1.32729183607095e+000

2.86791049603164e+004,-2.97323948629680e+001,-1.34581865600409e+000

2.90794503464061e+004,-2.97324208259968e+001,-1.36460403771248e+000

2.94853843458219e+004,-2.97324475188040e+001,-1.38365158790954e+000

2.98969849726987e+004,-2.97324749618986e+001,-1.40296496354308e+000

3.03143313302078e+004,-2.97325031763654e+001,-1.42254787249163e+000

3.07375036257601e+004,-2.97325321838816e+001,-1.44240407427085e+000

3.11665831864199e+004,-2.97325620067333e+001,-1.46253738074799e+000

3.16016524745350e+004,-2.97325926678327e+001,-1.48295165686884e+000

3.20427951035848e+004,-2.97326241907356e+001,-1.50365082139081e+000

3.24900958542493e+004,-2.97326565996591e+001,-1.52463884763077e+000

3.29436406907028e+004,-2.97326899195009e+001,-1.54591976421843e+000

3.34035167771346e+004,-2.97327241758577e+001,-1.56749765586307e+000

3.38698124945009e+004,-2.97327593950454e+001,-1.58937666412928e+000

3.43426174575100e+004,-2.97327956041186e+001,-1.61156098822390e+000

3.48220225318448e+004,-2.97328328308921e+001,-1.63405488579295e+000

3.53081198516260e+004,-2.97328711039616e+001,-1.65686267373037e+000

3.58010028371187e+004,-2.97329104527259e+001,-1.67998872899626e+000

3.63007662126863e+004,-2.97329509074092e+001,-1.70343748944876e+000

3.68075060249948e+004,-2.97329924990848e+001,-1.72721345468375e+000

3.73213196614721e+004,-2.97330352596983e+001,-1.75132118688841e+000

3.78423058690237e+004,-2.97330792220922e+001,-1.77576531170601e+000

3.83705647730104e+004,-2.97331244200313e+001,-1.80055051911122e+000

3.89061978964912e+004,-2.97331708882283e+001,-1.82568156429855e+000

3.94493081797342e+004,-2.97332186623706e+001,-1.85116326858227e+000

3.99999999999998e+004,-2.97332677791476e+001,-1.87700052030766e+000

4.05583791916010e+004,-2.97333182762784e+001,-1.90319827577525e+000

4.11245530662425e+004,-2.97333701925412e+001,-1.92976156017871e+000

4.16986304336447e+004,-2.97334235678027e+001,-1.95669546855267e+000

4.22807216224550e+004,-2.97334784430488e+001,-1.98400516673472e+000

4.28709385014515e+004,-2.97335348604155e+001,-2.01169589234128e+000

4.34693945010421e+004,-2.97335928632218e+001,-2.03977295575404e+000

4.40762046350642e+004,-2.97336524960022e+001,-2.06824174112237e+000

4.46914855228886e+004,-2.97337138045415e+001,-2.09710770737565e+000

4.53153554118317e+004,-2.97337768359090e+001,-2.12637638925355e+000

4.59479341998812e+004,-2.97338416384950e+001,-2.15605339834602e+000

4.65893434587380e+004,-2.97339082620477e+001,-2.18614442414870e+000

4.72397064571810e+004,-2.97339767577112e+001,-2.21665523513295e+000

4.78991481847569e+004,-2.97340471780645e+001,-2.24759167982878e+000

4.85677953758016e+004,-2.97341195771618e+001,-2.27895968792300e+000

4.92457765337964e+004,-2.97341940105740e+001,-2.31076527137106e+000

4.99332219560642e+004,-2.97342705354307e+001,-2.34301452552499e+000

5.06302637588109e+004,-2.97343492104639e+001,-2.37571363027413e+000

5.13370359025159e+004,-2.97344300960534e+001,-2.40886885120240e+000

5.20536742176771e+004,-2.97345132542723e+001,-2.44248654076038e+000

5.27803164309155e+004,-2.97345987489345e+001,-2.47657313945252e+000

5.35171021914442e+004,-2.97346866456437e+001,-2.51113517703954e+000

5.42641730979066e+004,-2.97347770118432e+001,-2.54617927375759e+000

5.50216727255895e+004,-2.97348699168673e+001,-2.58171214155199e+000

5.57897466540159e+004,-2.97349654319945e+001,-2.61774058532744e+000

5.65685424949235e+004,-2.97350636305013e+001,-2.65427150421567e+000

5.73582099206328e+004,-2.97351645877186e+001,-2.69131189285649e+000

5.81589006928121e+004,-2.97352683810891e+001,-2.72886884269897e+000

5.89707686916437e+004,-2.97353750902259e+001,-2.76694954331622e+000

5.97939699453972e+004,-2.97354847969735e+001,-2.80556128373940e+000

6.06286626604156e+004,-2.97355975854698e+001,-2.84471145380731e+000

6.14750072515201e+004,-2.97357135422108e+001,-2.88440754553336e+000

6.23331663728396e+004,-2.97358327561155e+001,-2.92465715449103e+000

6.32033049490698e+004,-2.97359553185946e+001,-2.96546798121563e+000

6.40855902071694e+004,-2.97360813236193e+001,-3.00684783262403e+000

6.49801917084985e+004,-2.97362108677930e+001,-3.04880462345317e+000

6.58872813814055e+004,-2.97363440504248e+001,-3.09134637771622e+000

6.68070335542691e+004,-2.97364809736049e+001,-3.13448123017565e+000

6.77396249890018e+004,-2.97366217422823e+001,-3.17821742783728e+000

6.86852349150199e+004,-2.97367664643444e+001,-3.22256333146110e+000

6.96440450636895e+004,-2.97369152506989e+001,-3.26752741709011e+000

7.06162397032520e+004,-2.97370682153583e+001,-3.31311827760144e+000

7.16020056742374e+004,-2.97372254755257e+001,-3.35934462427260e+000

7.26015324253724e+004,-2.97373871516847e+001,-3.40621528836920e+000

7.36150120499896e+004,-2.97375533676898e+001,-3.45373922275215e+000

7.46426393229441e+004,-2.97377242508611e+001,-3.50192550350253e+000

7.56846117380472e+004,-2.97378999320798e+001,-3.55078333156931e+000

7.67411295460207e+004,-2.97380805458885e+001,-3.60032203443339e+000

7.78123957929823e+004,-2.97382662305920e+001,-3.65055106779413e+000

7.88986163594682e+004,-2.97384571283626e+001,-3.70148001727510e+000

7.99999999999995e+004,-2.97386533853473e+001,-3.75311860015008e+000

8.11167583832018e+004,-2.97388551517785e+001,-3.80547666709028e+000

8.22491061324848e+004,-2.97390625820874e+001,-3.85856420392994e+000

8.33972608672892e+004,-2.97392758350205e+001,-3.91239133345595e+000

8.45614432449099e+004,-2.97394950737599e+001,-3.96696831721482e+000

8.57418770029029e+004,-2.97397204660460e+001,-4.02230555734321e+000

8.69387890020841e+004,-2.97399521843039e+001,-4.07841359841799e+000

8.81524092701283e+004,-2.97401904057738e+001,-4.13530312932750e+000

8.93829710457770e+004,-2.97404353126442e+001,-4.19298498516514e+000

9.06307108236633e+004,-2.97406870921893e+001,-4.25147014914312e+000

9.18958683997622e+004,-2.97409459369095e+001,-4.31076975452770e+000

9.31786869174758e+004,-2.97412120446764e+001,-4.37089508659682e+000

9.44794129143618e+004,-2.97414856188816e+001,-4.43185758461826e+000

9.57982963695136e+004,-2.97417668685893e+001,-4.49366884384962e+000

9.71355907516031e+004,-2.97420560086932e+001,-4.55634061756093e+000

9.84915530675926e+004,-2.97423532600777e+001,-4.61988481907710e+000

9.98664439121282e+004,-2.97426588497834e+001,-4.68431352384425e+000

1.01260527517622e+005,-2.97429730111770e+001,-4.74963897151596e+000

1.02674071805032e+005,-2.97432959841264e+001,-4.81587356806223e+000

1.04107348435354e+005,-2.97436280151795e+001,-4.88302988790033e+000

1.05560632861831e+005,-2.97439693577488e+001,-4.95112067604654e+000

1.07034204382888e+005,-2.97443202723003e+001,-5.02015885029062e+000

1.08528346195813e+005,-2.97446810265483e+001,-5.09015750339128e+000

1.10043345451179e+005,-2.97450518956542e+001,-5.16112990529352e+000

1.11579493308032e+005,-2.97454331624320e+001,-5.23308950536772e+000

1.13137084989847e+005,-2.97458251175584e+001,-5.30604993466960e+000

1.14716419841265e+005,-2.97462280597892e+001,-5.38002500822199e+000

1.16317801385624e+005,-2.97466422961807e+001,-5.45502872731814e+000

1.17941537383287e+005,-2.97470681423178e+001,-5.53107528184551e+000

1.19587939890794e+005,-2.97475059225477e+001,-5.60817905263072e+000

1.21257325320831e+005,-2.97479559702202e+001,-5.68635461380541e+000

1.22950014503040e+005,-2.97484186279343e+001,-5.76561673519248e+000

1.24666332745679e+005,-2.97488942477908e+001,-5.84598038471304e+000

1.26406609898139e+005,-2.97493831916527e+001,-5.92746073081289e+000

1.28171180414339e+005,-2.97498858314115e+001,-6.01007314490925e+000

1.29960383416997e+005,-2.97504025492613e+001,-6.09383320385686e+000

1.31774562762811e+005,-2.97509337379796e+001,-6.17875669243328e+000

1.33614067108538e+005,-2.97514798012154e+001,-6.26485960584348e+000

1.35479249978003e+005,-2.97520411537859e+001,-6.35215815224159e+000

1.37370469830040e+005,-2.97526182219798e+001,-6.44066875527278e+000

1.39288090127379e+005,-2.97532114438693e+001,-6.53040805663057e+000

1.41232479406504e+005,-2.97538212696297e+001,-6.62139291863317e+000

1.43204011348474e+005,-2.97544481618682e+001,-6.71364042681484e+000

1.45203064850745e+005,-2.97550925959601e+001,-6.80716789253484e+000

1.47230024099979e+005,-2.97557550603950e+001,-6.90199285560044e+000

1.49285278645888e+005,-2.97564360571310e+001,-6.99813308690571e+000

1.51369223476094e+005,-2.97571361019585e+001,-7.09560659108449e+000

1.53482259092041e+005,-2.97578557248733e+001,-7.19443160917643e+000

1.55624791585964e+005,-2.97585954704596e+001,-7.29462662130609e+000

1.57797232718936e+005,-2.97593558982821e+001,-7.39621034937370e+000

1.59999999999999e+005,-2.97601375832892e+001,-7.49920175975722e+000

1.62233516766403e+005,-2.97609411162254e+001,-7.60362006602431e+000

1.64498212264969e+005,-2.97617671040549e+001,-7.70948473165416e+000

1.66794521734578e+005,-2.97626161703959e+001,-7.81681547276701e+000

1.69122886489819e+005,-2.97634889559655e+001,-7.92563226086055e+000

1.71483754005805e+005,-2.97643861190365e+001,-8.03595532555279e+000

1.73877578004168e+005,-2.97653083359048e+001,-8.14780515733003e+000

1.76304818540256e+005,-2.97662563013693e+001,-8.26120251029823e+000

1.78765942091554e+005,-2.97672307292233e+001,-8.37616840493545e+000

1.81261421647326e+005,-2.97682323527585e+001,-8.49272413084755e+000

1.83791736799524e+005,-2.97692619252810e+001,-8.61089124952115e+000

1.86357373834951e+005,-2.97703202206406e+001,-8.73069159707564e+000

1.88958825828723e+005,-2.97714080337728e+001,-8.85214728701112e+000

1.91596592739027e+005,-2.97725261812538e+001,-8.97528071295130e+000

1.94271181503206e+005,-2.97736755018697e+001,-9.10011455137857e+000

1.96983106135185e+005,-2.97748568571990e+001,-9.22667176436046e+000

1.99732887824256e+005,-2.97760711322093e+001,-9.35497560226579e+000

2.02521055035243e+005,-2.97773192358683e+001,-9.48504960646617e+000

2.05348143610063e+005,-2.97786021017698e+001,-9.61691761202409e+000

2.08214696870707e+005,-2.97799206887737e+001,-9.75060375036269e+000

2.11121265723661e+005,-2.97812759816622e+001,-9.88613245191619e+000

2.14068408765776e+005,-2.97826689918108e+001,-1.00235284487583e+001

2.17056692391625e+005,-2.97841007578748e+001,-1.01628167772052e+001

2.20086690902357e+005,-2.97855723464929e+001,-1.03040227803928e+001

2.23158986616063e+005,-2.97870848530053e+001,-1.04471721108219e+001

2.26274169979693e+005,-2.97886394021901e+001,-1.05922907328727e+001

2.29432839682530e+005,-2.97902371490152e+001,-1.07394049252812e+001

2.32635602771247e+005,-2.97918792794075e+001,-1.08885412835778e+001

2.35883074766574e+005,-2.97935670110401e+001,-1.10397267224831e+001

2.39175879781588e+005,-2.97953015941363e+001,-1.11929884782585e+001

2.42514650641661e+005,-2.97970843122915e+001,-1.13483541110069e+001

2.45900029006080e+005,-2.97989164833134e+001,-1.15058515069201e+001

2.49332665491357e+005,-2.98007994600801e+001,-1.16655088804716e+001

2.52813219796278e+005,-2.98027346314177e+001,-1.18273547765452e+001

2.56342360828676e+005,-2.98047234229951e+001,-1.19914180725021e+001

2.59920766833993e+005,-2.98067672982391e+001,-1.21577279801776e+001

2.63549125525621e+005,-2.98088677592680e+001,-1.23263140478030e+001

2.67228134217075e+005,-2.98110263478445e+001,-1.24972061618521e+001

2.70958499956006e+005,-2.98132446463491e+001,-1.26704345488021e+001

2.74740939660078e+005,-2.98155242787717e+001,-1.28460297768090e+001

2.78576180254757e+005,-2.98178669117241e+001,-1.30240227572886e+001

2.82464958813007e+005,-2.98202742554727e+001,-1.32044447463996e+001

2.86408022696948e+005,-2.98227480649903e+001,-1.33873273464241e+001

2.90406129701488e+005,-2.98252901410295e+001,-1.35727025070370e+001

2.94460048199957e+005,-2.98279023312151e+001,-1.37606025264625e+001

2.98570557291775e+005,-2.98305865311580e+001,-1.39510600525073e+001

3.02738446952187e+005,-2.98333446855893e+001,-1.41441080834688e+001

3.06964518184081e+005,-2.98361787895140e+001,-1.43397799689074e+001

3.11249583171928e+005,-2.98390908893869e+001,-1.45381094102800e+001

3.15594465437872e+005,-2.98420830843074e+001,-1.47391304614259e+001

3.19999999999997e+005,-2.98451575272353e+001,-1.49428775288990e+001

3.24467033532806e+005,-2.98483164262273e+001,-1.51493853721379e+001

3.28996424529938e+005,-2.98515620456932e+001,-1.53586891034685e+001

3.33589043469155e+005,-2.98548967076720e+001,-1.55708241879296e+001

3.38245772979638e+005,-2.98583227931285e+001,-1.57858264429149e+001

3.42967508011610e+005,-2.98618427432692e+001,-1.60037320376228e+001

3.47755156008335e+005,-2.98654590608771e+001,-1.62245774923063e+001

3.52609637080511e+005,-2.98691743116664e+001,-1.64483996773140e+001

3.57531884183106e+005,-2.98729911256552e+001,-1.66752358119141e+001

3.62522843294651e+005,-2.98769121985567e+001,-1.69051234628934e+001

3.67583473599047e+005,-2.98809402931882e+001,-1.71381005429197e+001

3.72714747669902e+005,-2.98850782408971e+001,-1.73742053086623e+001

3.77917651657445e+005,-2.98893289430043e+001,-1.76134763586573e+001

3.83193185478053e+005,-2.98936953722627e+001,-1.78559526309121e+001

3.88542363006410e+005,-2.98981805743320e+001,-1.81016734002361e+001

3.93966212270369e+005,-2.99027876692670e+001,-1.83506782752902e+001

3.99465775648511e+005,-2.99075198530210e+001,-1.86030071953434e+001

4.05042110070485e+005,-2.99123803989607e+001,-1.88587004267288e+001

4.10696287220124e+005,-2.99173726593937e+001,-1.91177985589852e+001

4.16429393741414e+005,-2.99225000671071e+001,-1.93803425006787e+001

4.22242531447321e+005,-2.99277661369147e+001,-1.96463734748886e+001

4.28136817531551e+005,-2.99331744672134e+001,-1.99159330143528e+001

4.34113384783250e+005,-2.99387287415465e+001,-2.01890629562576e+001

4.40173381804713e+005,-2.99444327301727e+001,-2.04658054366633e+001

4.46317973232124e+005,-2.99502902916390e+001,-2.07462028845554e+001

4.52548339959385e+005,-2.99563053743564e+001,-2.10302980155106e+001

4.58865679365059e+005,-2.99624820181764e+001,-2.13181338249661e+001

4.65271205542494e+005,-2.99688243559661e+001,-2.16097535810832e+001

4.71766149533147e+005,-2.99753366151811e+001,-2.19052008171939e+001

4.78351759563174e+005,-2.99820231194327e+001,-2.22045193238211e+001

4.85029301283321e+005,-2.99888882900482e+001,-2.25077531402613e+001

4.91800058012158e+005,-2.99959366476218e+001,-2.28149465457209e+001

4.98665330982714e+005,-3.00031728135537e+001,-2.31261440499960e+001

5.05626439592555e+005,-3.00106015115745e+001,-2.34413903836862e+001

5.12684721657352e+005,-3.00182275692528e+001,-2.37607304879345e+001

5.19841533667984e+005,-3.00260559194830e+001,-2.40842095036821e+001

5.27098251051240e+005,-3.00340916019500e+001,-2.44118727604334e+001

5.34456268434150e+005,-3.00423397645685e+001,-2.47437657645202e+001

5.41916999912011e+005,-3.00508056648926e+001,-2.50799341868591e+001

