Freq.,VOut,OutRef

1.00000000000000e+004,-9.88825726766862e+000,-9.06249294351021e-002

1.01395947979003e+004,-9.88825867952348e+000,-9.18897012298245e-002

1.02811382665607e+004,-9.88826013098711e+000,-9.31721156418640e-002

1.04246576084112e+004,-9.88826162316806e+000,-9.44724184064773e-002

1.05701804056138e+004,-9.88826315720592e+000,-9.57908586650310e-002

1.07177346253629e+004,-9.88826473427218e+000,-9.71276890114912e-002

1.08673486252606e+004,-9.88826635557089e+000,-9.84831655410313e-002

1.10190511587661e+004,-9.88826802233949e+000,-9.98575478988270e-002

1.11728713807222e+004,-9.88826973585019e+000,-1.01251099324616e-001

1.13288388529580e+004,-9.88827149741054e+000,-1.02664086705604e-001

1.14869835499703e+004,-9.88827330836394e+000,-1.04096780627748e-001

1.16473358646846e+004,-9.88827517009173e+000,-1.05549455419266e-001

1.18099266142953e+004,-9.88827708401377e+000,-1.07022389205590e-001

1.19747870461893e+004,-9.88827905158864e+000,-1.08515863965577e-001

1.21419488439505e+004,-9.88828107431644e+000,-1.10030165572875e-001

1.23114441334492e+004,-9.88828315373794e+000,-1.11565583861910e-001

1.24833054890161e+004,-9.88828529143749e+000,-1.13122412669659e-001

1.26575659397028e+004,-9.88828748904317e+000,-1.14700949897338e-001

1.28342589756290e+004,-9.88828974822801e+000,-1.16301497564393e-001

1.30134185544193e+004,-9.88829207071185e+000,-1.17924361861175e-001

1.31950791077289e+004,-9.88829445826178e+000,-1.19569853209786e-001

1.33792755478611e+004,-9.88829691269419e+000,-1.21238286317202e-001

1.35660432744767e+004,-9.88829943587591e+000,-1.22929980234264e-001

1.37554181813974e+004,-9.88830202972495e+000,-1.24645258417750e-001

1.39474366635040e+004,-9.88830469621309e+000,-1.26384448783051e-001

1.41421356237309e+004,-9.88830743736611e+000,-1.28147883771169e-001

1.43395524801583e+004,-9.88831025526614e+000,-1.29935900404974e-001

1.45397251732031e+004,-9.88831315205279e+000,-1.31748840352014e-001

1.47426921729110e+004,-9.88831612992479e+000,-1.33587049987802e-001

1.49484924863494e+004,-9.88831919114157e+000,-1.35450880457828e-001

1.51571656651040e+004,-9.88832233802516e+000,-1.37340687740609e-001

1.53687518128801e+004,-9.88832557296129e+000,-1.39256832715458e-001

1.55832915932100e+004,-9.88832889840175e+000,-1.41199681224790e-001

1.58008262372675e+004,-9.88833231686607e+000,-1.43169604139890e-001

1.60213975517924e+004,-9.88833583094267e+000,-1.45166977433236e-001

1.62450479271247e+004,-9.88833944329156e+000,-1.47192182240247e-001

1.64718203453514e+004,-9.88834315664606e+000,-1.49245604929947e-001

1.67017583885674e+004,-9.88834697381438e+000,-1.51327637176064e-001

1.69349062472505e+004,-9.88835089768221e+000,-1.53438676024232e-001

1.71713087287550e+004,-9.88835493121428e+000,-1.55579123966118e-001

1.74110112659224e+004,-9.88835907745644e+000,-1.57749389011731e-001

1.76540599258131e+004,-9.88836333953873e+000,-1.59949884756491e-001

1.79005014185594e+004,-9.88836772067656e+000,-1.62181030461221e-001

1.81503831063432e+004,-9.88837222417324e+000,-1.64443251125112e-001

1.84037530124975e+004,-9.88837685342297e+000,-1.66736977557552e-001

1.86606598307361e+004,-9.88838161191216e+000,-1.69062646460656e-001

1.89211529345119e+004,-9.88838650322323e+000,-1.71420700497207e-001

1.91852823865052e+004,-9.88839153103573e+000,-1.73811588378721e-001

1.94530989482457e+004,-9.88839669913000e+000,-1.76235764936066e-001

1.97246540898671e+004,-9.88840201138915e+000,-1.78693691204770e-001

1.99999999999999e+004,-9.88840747180225e+000,-1.81185834500690e-001

2.02791895958005e+004,-9.88841308446661e+000,-1.83712668506096e-001

2.05622765331213e+004,-9.88841885359133e+000,-1.86274673346418e-001

2.08493152168224e+004,-9.88842478349949e+000,-1.88872335679335e-001

2.11403608112276e+004,-9.88843087863167e+000,-1.91506148773013e-001

2.14354692507258e+004,-9.88843714354824e+000,-1.94176612598344e-001

2.17346972505211e+004,-9.88844358293388e+000,-1.96884233904540e-001

2.20381023175322e+004,-9.88845020159920e+000,-1.99629526315909e-001

2.23457427614443e+004,-9.88845700448533e+000,-2.02413010411522e-001

2.26576777059159e+004,-9.88846399666616e+000,-2.05235213820032e-001

2.29739670999406e+004,-9.88847118335256e+000,-2.08096671304967e-001

2.32946717293690e+004,-9.88847856989583e+000,-2.10997924853953e-001

2.36198532285905e+004,-9.88848616179086e+000,-2.13939523774165e-001

2.39495740923785e+004,-9.88849396468006e+000,-2.16922024781049e-001

2.42838976879009e+004,-9.88850198435746e+000,-2.19945992089558e-001

2.46228882668982e+004,-9.88851022677159e+000,-2.23011997514829e-001

2.49666109780322e+004,-9.88851869803061e+000,-2.26120620557474e-001

2.53151318794055e+004,-9.88852740440541e+000,-2.29272448505893e-001

2.56685179512580e+004,-9.88853635233403e+000,-2.32468076530125e-001

2.60268371088386e+004,-9.88854554842594e+000,-2.35708107778629e-001

2.63901582154578e+004,-9.88855499946631e+000,-2.38993153475890e-001

2.67585510957221e+004,-9.88856471242034e+000,-2.42323833021989e-001

2.71320865489533e+004,-9.88857469443730e+000,-2.45700774094481e-001

2.75108363627948e+004,-9.88858495285575e+000,-2.49124612744640e-001

2.78948733270080e+004,-9.88859549520806e+000,-2.52595993499741e-001

2.82842712474618e+004,-9.88860632922456e+000,-2.56115569468823e-001

2.86791049603164e+004,-9.88861746283935e+000,-2.59684002439261e-001

2.90794503464061e+004,-9.88862890419418e+000,-2.63301962987078e-001

2.94853843458219e+004,-9.88864066164419e+000,-2.66970130576919e-001

2.98969849726987e+004,-9.88865274376291e+000,-2.70689193667788e-001

3.03143313302078e+004,-9.88866515934735e+000,-2.74459849819870e-001

3.07375036257601e+004,-9.88867791742330e+000,-2.78282805801493e-001

3.11665831864199e+004,-9.88869102725087e+000,-2.82158777695021e-001

3.16016524745350e+004,-9.88870449832986e+000,-2.86088491006105e-001

3.20427951035848e+004,-9.88871834040557e+000,-2.90072680771281e-001

3.24900958542493e+004,-9.88873256347426e+000,-2.94112091668292e-001

3.29436406907028e+004,-9.88874717778926e+000,-2.98207478124549e-001

3.34035167771346e+004,-9.88876219386620e+000,-3.02359604431033e-001

3.38698124945009e+004,-9.88877762249005e+000,-3.06569244848118e-001

3.43426174575100e+004,-9.88879347472032e+000,-3.10837183721804e-001

3.48220225318448e+004,-9.88880976189739e+000,-3.15164215594764e-001

3.53081198516260e+004,-9.88882649564931e+000,-3.19551145316445e-001

3.58010028371187e+004,-9.88884368789737e+000,-3.23998788160649e-001

3.63007662126863e+004,-9.88886135086307e+000,-3.28507969936026e-001

3.68075060249948e+004,-9.88887949707453e+000,-3.33079527100595e-001

3.73213196614721e+004,-9.88889813937293e+000,-3.37714306877619e-001

3.78423058690237e+004,-9.88891729091961e+000,-3.42413167367299e-001

3.83705647730104e+004,-9.88893696520197e+000,-3.47176977667361e-001

3.89061978964912e+004,-9.88895717604150e+000,-3.52006617981537e-001

3.94493081797342e+004,-9.88897793759947e+000,-3.56902979741407e-001

3.99999999999998e+004,-9.88899926438486e+000,-3.61866965718190e-001

4.05583791916010e+004,-9.88902117126074e+000,-3.66899490140811e-001

4.11245530662425e+004,-9.88904367345160e+000,-3.72001478811368e-001

4.16986304336447e+004,-9.88906678655058e+000,-3.77173869220891e-001

4.22807216224550e+004,-9.88909052652622e+000,-3.82417610667475e-001

4.28709385014515e+004,-9.88911490973030e+000,-3.87733664369817e-001

4.34693945010421e+004,-9.88913995290431e+000,-3.93123003586615e-001

4.40762046350642e+004,-9.88916567318710e+000,-3.98586613731473e-001

4.46914855228886e+004,-9.88919208812241e+000,-4.04125492487099e-001

4.53153554118317e+004,-9.88921921566542e+000,-4.09740649924591e-001

4.59479341998812e+004,-9.88924707419077e+000,-4.15433108616217e-001

4.65893434587380e+004,-9.88927568249931e+000,-4.21203903752040e-001

4.72397064571810e+004,-9.88930505982495e+000,-4.27054083258142e-001

4.78991481847569e+004,-9.88933522584312e+000,-4.32984707903568e-001

4.85677953758016e+004,-9.88936620067631e+000,-4.38996851423601e-001

4.92457765337964e+004,-9.88939800490226e+000,-4.45091600627457e-001

4.99332219560642e+004,-9.88943065956035e+000,-4.51270055514664e-001

5.06302637588109e+004,-9.88946418615875e+000,-4.57533329386400e-001

5.13370359025159e+004,-9.88949860668092e+000,-4.63882548959119e-001

5.20536742176771e+004,-9.88953394359253e+000,-4.70318854474982e-001

5.27803164309155e+004,-9.88957021984770e+000,-4.76843399813271e-001

5.35171021914442e+004,-9.88960745889564e+000,-4.83457352599711e-001

5.42641730979066e+004,-9.88964568468616e+000,-4.90161894318779e-001

5.50216727255895e+004,-9.88968492167632e+000,-4.96958220417916e-001

5.57897466540159e+004,-9.88972519483582e+000,-5.03847540418123e-001

5.65685424949235e+004,-9.88976652965241e+000,-5.10831078019497e-001

5.73582099206328e+004,-9.88980895213682e+000,-5.17910071209430e-001

5.81589006928121e+004,-9.88985248882825e+000,-5.25085772363996e-001

5.89707686916437e+004,-9.88989716679851e+000,-5.32359448353339e-001

5.97939699453972e+004,-9.88994301365617e+000,-5.39732380645440e-001

6.06286626604156e+004,-9.88999005755038e+000,-5.47205865407417e-001

6.14750072515201e+004,-9.89003832717453e+000,-5.54781213604618e-001

6.23331663728396e+004,-9.89008785176871e+000,-5.62459751103702e-001

6.32033049490698e+004,-9.89013866112239e+000,-5.70242818768200e-001

6.40855902071694e+004,-9.89019078557661e+000,-5.78131772556169e-001

6.49801917084985e+004,-9.89024425602464e+000,-5.86127983620221e-001

6.58872813814055e+004,-9.89029910391347e+000,-5.94232838398283e-001

6.68070335542691e+004,-9.89035536124339e+000,-6.02447738711087e-001

6.77396249890018e+004,-9.89041306056779e+000,-6.10774101854258e-001

6.86852349150199e+004,-9.89047223499167e+000,-6.19213360691835e-001

6.96440450636895e+004,-9.89053291816954e+000,-6.27766963747583e-001

7.06162397032520e+004,-9.89059514430288e+000,-6.36436375294511e-001

7.16020056742374e+004,-9.89065894813592e+000,-6.45223075447873e-001

7.26015324253724e+004,-9.89072436495156e+000,-6.54128560250983e-001

7.36150120499896e+004,-9.89079143056527e+000,-6.63154341767592e-001

7.46426393229441e+004,-9.89086018131872e+000,-6.72301948168387e-001

7.56846117380472e+004,-9.89093065407223e+000,-6.81572923819031e-001

7.67411295460207e+004,-9.89100288619565e+000,-6.90968829369645e-001

7.78123957929823e+004,-9.89107691555838e+000,-7.00491241843462e-001

7.88986163594682e+004,-9.89115278051846e+000,-7.10141754723031e-001

7.99999999999995e+004,-9.89123051990987e+000,-7.19921978040313e-001

8.11167583832018e+004,-9.89131017302858e+000,-7.29833538466741e-001

8.22491061324848e+004,-9.89139177961716e+000,-7.39878079404587e-001

8.33972608672892e+004,-9.89147537984828e+000,-7.50057261076431e-001

8.45614432449099e+004,-9.89156101430618e+000,-7.60372760620776e-001

8.57418770029029e+004,-9.89164872396669e+000,-7.70826272186970e-001

8.69387890020841e+004,-9.89173855017582e+000,-7.81419507031245e-001

8.81524092701283e+004,-9.89183053462607e+000,-7.92154193620243e-001

8.93829710457770e+004,-9.89192471933169e+000,-8.03032077730581e-001

9.06307108236633e+004,-9.89202114660132e+000,-8.14054922558674e-001

9.18958683997622e+004,-9.89211985900916e+000,-8.25224508829880e-001

9.31786869174758e+004,-9.89222089936403e+000,-8.36542634914774e-001

9.44794129143618e+004,-9.89232431067634e+000,-8.48011116949680e-001

9.57982963695136e+004,-9.89243013612305e+000,-8.59631788961969e-001

9.71355907516031e+004,-9.89253841901009e+000,-8.71406503003886e-001

9.84915530675926e+004,-9.89264920273330e+000,-8.83337129290252e-001

9.98664439121282e+004,-9.89276253073603e+000,-8.95425556347764e-001

1.01260527517622e+005,-9.89287844646540e+000,-9.07673691168363e-001

1.02674071805032e+005,-9.89299699332538e+000,-9.20083459375838e-001

1.04107348435354e+005,-9.89311821462821e+000,-9.32656805397864e-001

1.05560632861831e+005,-9.89324215354219e+000,-9.45395692655392e-001

1.07034204382888e+005,-9.89336885303841e+000,-9.58302103756166e-001

1.08528346195813e+005,-9.89349835583333e+000,-9.71378040707614e-001

1.10043345451179e+005,-9.89363070433034e+000,-9.84625525137937e-001

1.11579493308032e+005,-9.89376594055733e+000,-9.98046598536844e-001

1.13137084989847e+005,-9.89390410610246e+000,-1.01164332250822e+000

1.14716419841265e+005,-9.89404524204718e+000,-1.02541777904078e+000

1.16317801385624e+005,-9.89418938889595e+000,-1.03937207079944e+000

1.17941537383287e+005,-9.89433658650433e+000,-1.05350832143041e+000

1.19587939890794e+005,-9.89448687400366e+000,-1.06782867589116e+000

1.21257325320831e+005,-9.89464028972342e+000,-1.08233530080009e+000

1.22950014503040e+005,-9.89479687111096e+000,-1.09703038480947e+000

1.24666332745679e+005,-9.89495665464855e+000,-1.11191613900259e+000

1.26406609898139e+005,-9.89511967576822e+000,-1.12699479731570e+000

1.28171180414339e+005,-9.89528596876397e+000,-1.14226861698771e+000

1.29960383416997e+005,-9.89545556670160e+000,-1.15773987903663e+000

1.31774562762811e+005,-9.89562850132641e+000,-1.17341088876700e+000

1.33614067108538e+005,-9.89580480296851e+000,-1.18928397630749e+000

1.35479249978003e+005,-9.89598450044644e+000,-1.20536149718002e+000

1.37370469830040e+005,-9.89616762096831e+000,-1.22164583290420e+000

1.39288090127379e+005,-9.89635419003185e+000,-1.23813939163374e+000

1.41232479406504e+005,-9.89654423132207e+000,-1.25484460883316e+000

1.43204011348474e+005,-9.89673776660819e+000,-1.27176394798787e+000

1.45203064850745e+005,-9.89693481563867e+000,-1.28889990135625e+000

1.47230024099979e+005,-9.89713539603552e+000,-1.30625499076026e+000

1.49285278645888e+005,-9.89733952318789e+000,-1.32383176841706e+000

1.51369223476094e+005,-9.89754721014437e+000,-1.34163281781522e+000

1.53482259092041e+005,-9.89775846750579e+000,-1.35966075463154e+000

1.55624791585964e+005,-9.89797330331720e+000,-1.37791822769502e+000

1.57797232718936e+005,-9.89819172296051e+000,-1.39640791999377e+000

1.59999999999999e+005,-9.89841372904705e+000,-1.41513254973182e+000

1.62233516766403e+005,-9.89863932131158e+000,-1.43409487142851e+000

1.64498212264969e+005,-9.89886849650680e+000,-1.45329767706983e+000

1.66794521734578e+005,-9.89910124829937e+000,-1.47274379730600e+000

1.69122886489819e+005,-9.89933756716804e+000,-1.49243610269794e+000

1.71483754005805e+005,-9.89957744030346e+000,-1.51237750501294e+000

1.73877578004168e+005,-9.89982085151091e+000,-1.53257095856879e+000

1.76304818540256e+005,-9.90006778111527e+000,-1.55301946162994e+000

1.78765942091554e+005,-9.90031820586986e+000,-1.57372605784809e+000

1.81261421647326e+005,-9.90057209886866e+000,-1.59469383775505e+000

1.83791736799524e+005,-9.90082942946216e+000,-1.61592594030327e+000

1.86357373834951e+005,-9.90109016317838e+000,-1.63742555445177e+000

1.88958825828723e+005,-9.90135426164796e+000,-1.65919592080121e+000

1.91596592739027e+005,-9.90162168253501e+000,-1.68124033327318e+000

1.94271181503206e+005,-9.90189237947299e+000,-1.70356214083436e+000

1.96983106135185e+005,-9.90216630200686e+000,-1.72616474926461e+000

1.99732887824256e+005,-9.90244339554179e+000,-1.74905162296324e+000

2.02521055035243e+005,-9.90272360129799e+000,-1.77222628679830e+000

2.05348143610063e+005,-9.90300685627305e+000,-1.79569232799267e+000

2.08214696870707e+005,-9.90329309321129e+000,-1.81945339804377e+000

2.11121265723661e+005,-9.90358224058138e+000,-1.84351321467726e+000

2.14068408765776e+005,-9.90387422256106e+000,-1.86787556383303e+000

2.17056692391625e+005,-9.90416895903111e+000,-1.89254430167452e+000

2.20086690902357e+005,-9.90446636557700e+000,-1.91752335662761e+000

2.23158986616063e+005,-9.90476635349990e+000,-1.94281673143691e+000

2.26274169979693e+005,-9.90506882983588e+000,-1.96842850524541e+000

2.29432839682530e+005,-9.90537369738516e+000,-1.99436283568325e+000

2.32635602771247e+005,-9.90568085474962e+000,-2.02062396097392e+000

2.35883074766574e+005,-9.90599019638019e+000,-2.04721620204481e+000

2.39175879781588e+005,-9.90630161263319e+000,-2.07414396464433e+000

2.42514650641661e+005,-9.90661498983654e+000,-2.10141174145827e+000

2.45900029006080e+005,-9.90693021036448e+000,-2.12902411422508e+000

2.49332665491357e+005,-9.90724715272236e+000,-2.15698575584153e+000

2.52813219796278e+005,-9.90756569164000e+000,-2.18530143246151e+000

2.56342360828676e+005,-9.90788569817422e+000,-2.21397600557703e+000

2.59920766833993e+005,-9.90820703982019e+000,-2.24301443408266e+000

2.63549125525621e+005,-9.90852958063091e+000,-2.27242177631939e+000

2.67228134217075e+005,-9.90885318134563e+000,-2.30220319208974e+000

2.70958499956006e+005,-9.90917769952537e+000,-2.33236394464766e+000

2.74740939660078e+005,-9.90950298969640e+000,-2.36290940265341e+000

2.78576180254757e+005,-9.90982890350086e+000,-2.39384504209396e+000

2.82464958813007e+005,-9.91015528985380e+000,-2.42517644816534e+000

2.86408022696948e+005,-9.91048199510631e+000,-2.45690931711295e+000

2.90406129701488e+005,-9.91080886321466e+000,-2.48904945802724e+000

2.94460048199957e+005,-9.91113573591413e+000,-2.52160279459379e+000

2.98570557291775e+005,-9.91146245289743e+000,-2.55457536679494e+000

3.02738446952187e+005,-9.91178885199688e+000,-2.58797333256000e+000

3.06964518184081e+005,-9.91211476937011e+000,-2.62180296936383e+000

3.11249583171928e+005,-9.91244003968793e+000,-2.65607067577143e+000

3.15594465437872e+005,-9.91276449632414e+000,-2.69078297292985e+000

3.19999999999997e+005,-9.91308797154675e+000,-2.72594650600194e+000

3.24467033532806e+005,-9.91341029670925e+000,-2.76156804554788e+000

3.28996424529938e+005,-9.91373130244200e+000,-2.79765448884888e+000

3.33589043469155e+005,-9.91405081884258e+000,-2.83421286117574e+000

3.38245772979638e+005,-9.91436867566418e+000,-2.87125031700427e+000

3.42967508011610e+005,-9.91468470250180e+000,-2.90877414117643e+000

3.47755156008335e+005,-9.91499872897571e+000,-2.94679175000690e+000

3.52609637080511e+005,-9.91531058491026e+000,-2.98531069234327e+000

3.57531884183106e+005,-9.91562010050924e+000,-3.02433865057218e+000

3.62522843294651e+005,-9.91592710652542e+000,-3.06388344158310e+000

3.67583473599047e+005,-9.91623143442473e+000,-3.10395301768497e+000

3.72714747669902e+005,-9.91653291654405e+000,-3.14455546748234e+000

3.77917651657445e+005,-9.91683138624208e+000,-3.18569901671356e+000

3.83193185478053e+005,-9.91712667804279e+000,-3.22739202905251e+000

3.88542363006410e+005,-9.91741862777093e+000,-3.26964300687961e+000

3.93966212270369e+005,-9.91770707267928e+000,-3.31246059202352e+000

3.99465775648511e+005,-9.91799185156689e+000,-3.35585356647969e+000

4.05042110070485e+005,-9.91827280488818e+000,-3.39983085310800e+000

4.10696287220124e+005,-9.91854977485259e+000,-3.44440151631350e+000

4.16429393741414e+005,-9.91882260551418e+000,-3.48957476271665e+000

4.22242531447321e+005,-9.91909114285124e+000,-3.53535994181441e+000

4.28136817531551e+005,-9.91935523483549e+000,-3.58176654663858e+000

4.34113384783250e+005,-9.91961473149073e+000,-3.62880421441580e+000

4.40173381804713e+005,-9.91986948494101e+000,-3.67648272723217e+000

4.46317973232124e+005,-9.92011934944772e+000,-3.72481201270799e+000

4.52548339959385e+005,-9.92036418143628e+000,-3.77380214468708e+000

4.58865679365059e+005,-9.92060383951150e+000,-3.82346334394578e+000

4.65271205542494e+005,-9.92083818446266e+000,-3.87380597892339e+000

4.71766149533147e+005,-9.92106707925771e+000,-3.92484056647977e+000

4.78351759563174e+005,-9.92129038902645e+000,-3.97657777268746e+000

4.85029301283321e+005,-9.92150798103379e+000,-4.02902841365441e+000

4.91800058012158e+005,-9.92171972464238e+000,-4.08220345639096e+000

4.98665330982714e+005,-9.92192549126499e+000,-4.13611401971584e+000

5.05626439592555e+005,-9.92212515430713e+000,-4.19077137521209e+000

5.12684721657352e+005,-9.92231858910019e+000,-4.24618694823022e+000

5.19841533667984e+005,-9.92250567282441e+000,-4.30237231894827e+000

5.27098251051240e+005,-9.92268628442378e+000,-4.35933922348454e+000

5.34456268434150e+005,-9.92286030451104e+000,-4.41709955507351e+000

5.41916999912011e+005,-9.92302761526510e+000,-4.47566536530114e+000

