Freq.,VOut,OutRef

1.00000000000000e+004,-3.23523862260080e+001,-9.16451222564659e-002

1.01395947979003e+004,-3.23523879052215e+001,-9.29241063217467e-002

1.02811382665607e+004,-3.23523896315522e+001,-9.42209301678872e-002

1.04246576084112e+004,-3.23523914063193e+001,-9.55358422293763e-002

1.05701804056138e+004,-3.23523932308794e+001,-9.68690943814976e-002

1.07177346253629e+004,-3.23523951066264e+001,-9.82209419896313e-002

1.08673486252606e+004,-3.23523970349928e+001,-9.95916439592054e-002

1.10190511587661e+004,-3.23523990174518e+001,-1.00981462777558e-001

1.11728713807222e+004,-3.23524010555171e+001,-1.02390664566819e-001

1.13288388529580e+004,-3.23524031507448e+001,-1.03819519133791e-001

1.14869835499703e+004,-3.23524053047342e+001,-1.05268300019032e-001

1.16473358646846e+004,-3.23524075191291e+001,-1.06737284547002e-001

1.18099266142953e+004,-3.23524097956193e+001,-1.08226753878477e-001

1.19747870461893e+004,-3.23524121359412e+001,-1.09736993063174e-001

1.21419488439505e+004,-3.23524145418799e+001,-1.11268291089839e-001

1.23114441334492e+004,-3.23524170152698e+001,-1.12820940943001e-001

1.24833054890161e+004,-3.23524195579966e+001,-1.14395239653897e-001

1.26575659397028e+004,-3.23524221719985e+001,-1.15991488357148e-001

1.28342589756290e+004,-3.23524248592668e+001,-1.17609992348018e-001

1.30134185544193e+004,-3.23524276218490e+001,-1.19251061133402e-001

1.31950791077289e+004,-3.23524304618491e+001,-1.20915008491945e-001

1.33792755478611e+004,-3.23524333814293e+001,-1.22602152532788e-001

1.35660432744767e+004,-3.23524363828117e+001,-1.24312815753351e-001

1.37554181813974e+004,-3.23524394682808e+001,-1.26047325092728e-001

1.39474366635040e+004,-3.23524426401833e+001,-1.27806012002001e-001

1.41421356237309e+004,-3.23524459009321e+001,-1.29589212492294e-001

1.43395524801583e+004,-3.23524492530059e+001,-1.31397267208862e-001

1.45397251732031e+004,-3.23524526989527e+001,-1.33230521481665e-001

1.47426921729110e+004,-3.23524562413908e+001,-1.35089325395745e-001

1.49484924863494e+004,-3.23524598830107e+001,-1.36974033851477e-001

1.51571656651040e+004,-3.23524636265778e+001,-1.38885006628416e-001

1.53687518128801e+004,-3.23524674749334e+001,-1.40822608452198e-001

1.55832915932100e+004,-3.23524714309976e+001,-1.42787209059242e-001

1.58008262372675e+004,-3.23524754977710e+001,-1.44779183264194e-001

1.60213975517924e+004,-3.23524796783372e+001,-1.46798911023925e-001

1.62450479271247e+004,-3.23524839758645e+001,-1.48846777511354e-001

1.64718203453514e+004,-3.23524883936086e+001,-1.50923173181063e-001

1.67017583885674e+004,-3.23524929349153e+001,-1.53028493836773e-001

1.69349062472505e+004,-3.23524976032222e+001,-1.55163140706959e-001

1.71713087287550e+004,-3.23525024020616e+001,-1.57327520513091e-001

1.74110112659224e+004,-3.23525073350624e+001,-1.59522045544635e-001

1.76540599258131e+004,-3.23525124059545e+001,-1.61747133725511e-001

1.79005014185594e+004,-3.23525176185686e+001,-1.64003208698412e-001

1.81503831063432e+004,-3.23525229768419e+001,-1.66290699888491e-001

1.84037530124975e+004,-3.23525284848191e+001,-1.68610042586742e-001

1.86606598307361e+004,-3.23525341466556e+001,-1.70961678023343e-001

1.89211529345119e+004,-3.23525399666208e+001,-1.73346053444963e-001

1.91852823865052e+004,-3.23525459491008e+001,-1.75763622194103e-001

1.94530989482457e+004,-3.23525520986021e+001,-1.78214843784219e-001

1.97246540898671e+004,-3.23525584197537e+001,-1.80700183985179e-001

1.99999999999999e+004,-3.23525649173114e+001,-1.83220114900341e-001

2.02791895958005e+004,-3.23525715961605e+001,-1.85775115048395e-001

2.05622765331213e+004,-3.23525784613200e+001,-1.88365669444519e-001

2.08493152168224e+004,-3.23525855179449e+001,-1.90992269687126e-001

2.11403608112276e+004,-3.23525927713308e+001,-1.93655414039349e-001

2.14354692507258e+004,-3.23526002269173e+001,-1.96355607512492e-001

2.17346972505211e+004,-3.23526078902915e+001,-1.99093361956723e-001

2.20381023175322e+004,-3.23526157671924e+001,-2.01869196141530e-001

2.23457427614443e+004,-3.23526238635143e+001,-2.04683635847965e-001

2.26576777059159e+004,-3.23526321853111e+001,-2.07537213954824e-001

2.29739670999406e+004,-3.23526407388005e+001,-2.10430470527191e-001

2.32946717293690e+004,-3.23526495303682e+001,-2.13363952908900e-001

2.36198532285905e+004,-3.23526585665722e+001,-2.16338215810494e-001

2.39495740923785e+004,-3.23526678541469e+001,-2.19353821404177e-001

2.42838976879009e+004,-3.23526774000086e+001,-2.22411339411302e-001

2.46228882668982e+004,-3.23526872112592e+001,-2.25511347201242e-001

2.49666109780322e+004,-3.23526972951910e+001,-2.28654429883177e-001

2.53151318794055e+004,-3.23527076592927e+001,-2.31841180398254e-001

2.56685179512580e+004,-3.23527183112526e+001,-2.35072199621487e-001

2.60268371088386e+004,-3.23527292589649e+001,-2.38348096452726e-001

2.63901582154578e+004,-3.23527405105351e+001,-2.41669487915980e-001

2.67585510957221e+004,-3.23527520742839e+001,-2.45036999259652e-001

2.71320865489533e+004,-3.23527639587543e+001,-2.48451264050977e-001

2.75108363627948e+004,-3.23527761727161e+001,-2.51912924279247e-001

2.78948733270080e+004,-3.23527887251714e+001,-2.55422630456893e-001

2.82842712474618e+004,-3.23528016253612e+001,-2.58981041716508e-001

2.86791049603164e+004,-3.23528148827710e+001,-2.62588825915599e-001

2.90794503464061e+004,-3.23528285071363e+001,-2.66246659739464e-001

2.94853843458219e+004,-3.23528425084491e+001,-2.69955228803145e-001

2.98969849726987e+004,-3.23528568969649e+001,-2.73715227754063e-001

3.03143313302078e+004,-3.23528716832074e+001,-2.77527360381363e-001

3.07375036257601e+004,-3.23528868779765e+001,-2.81392339715333e-001

3.11665831864199e+004,-3.23529024923544e+001,-2.85310888137304e-001

3.16016524745350e+004,-3.23529185377122e+001,-2.89283737483552e-001

3.20427951035848e+004,-3.23529350257171e+001,-2.93311629153374e-001

3.24900958542493e+004,-3.23529519683393e+001,-2.97395314216863e-001

3.29436406907028e+004,-3.23529693778588e+001,-3.01535553522502e-001

3.34035167771346e+004,-3.23529872668732e+001,-3.05733117805233e-001

3.38698124945009e+004,-3.23530056483051e+001,-3.09988787794317e-001

3.43426174575100e+004,-3.23530245354090e+001,-3.14303354326784e-001

3.48220225318448e+004,-3.23530439417793e+001,-3.18677618452952e-001

3.53081198516260e+004,-3.23530638813584e+001,-3.23112391548324e-001

3.58010028371187e+004,-3.23530843684442e+001,-3.27608495422645e-001

3.63007662126863e+004,-3.23531054176980e+001,-3.32166762434111e-001

3.68075060249948e+004,-3.23531270441528e+001,-3.36788035597175e-001

3.73213196614721e+004,-3.23531492632217e+001,-3.41473168694633e-001

3.78423058690237e+004,-3.23531720907064e+001,-3.46223026388170e-001

3.83705647730104e+004,-3.23531955428047e+001,-3.51038484333764e-001

3.89061978964912e+004,-3.23532196361203e+001,-3.55920429288466e-001

3.94493081797342e+004,-3.23532443876708e+001,-3.60869759225416e-001

3.99999999999998e+004,-3.23532698148966e+001,-3.65887383444010e-001

4.05583791916010e+004,-3.23532959356699e+001,-3.70974222682785e-001

4.11245530662425e+004,-3.23533227683036e+001,-3.76131209230295e-001

4.16986304336447e+004,-3.23533503315602e+001,-3.81359287038009e-001

4.22807216224550e+004,-3.23533786446612e+001,-3.86659411830270e-001

4.28709385014515e+004,-3.23534077272965e+001,-3.92032551215296e-001

4.34693945010421e+004,-3.23534375996330e+001,-3.97479684798187e-001

4.40762046350642e+004,-3.23534682823245e+001,-4.03001804290269e-001

4.46914855228886e+004,-3.23534997965213e+001,-4.08599913617998e-001

4.53153554118317e+004,-3.23535321638786e+001,-4.14275029036361e-001

4.59479341998812e+004,-3.23535654065675e+001,-4.20028179234269e-001

4.65893434587380e+004,-3.23535995472833e+001,-4.25860405445788e-001

4.72397064571810e+004,-3.23536346092552e+001,-4.31772761558846e-001

4.78991481847569e+004,-3.23536706162564e+001,-4.37766314220931e-001

4.85677953758016e+004,-3.23537075926134e+001,-4.43842142945684e-001

4.92457765337964e+004,-3.23537455632148e+001,-4.50001340222943e-001

4.99332219560642e+004,-3.23537845535217e+001,-4.56245011618816e-001

5.06302637588109e+004,-3.23538245895766e+001,-4.62574275884087e-001

5.13370359025159e+004,-3.23538656980128e+001,-4.68990265055680e-001

5.20536742176771e+004,-3.23539079060637e+001,-4.75494124559657e-001

5.27803164309155e+004,-3.23539512415719e+001,-4.82087013313338e-001

5.35171021914442e+004,-3.23539957329982e+001,-4.88770103825211e-001

5.42641730979066e+004,-3.23540414094306e+001,-4.95544582292653e-001

5.50216727255895e+004,-3.23540883005928e+001,-5.02411648703227e-001

5.57897466540159e+004,-3.23541364368528e+001,-5.09372516928690e-001

5.65685424949235e+004,-3.23541858492316e+001,-5.16428414821341e-001

5.73582099206328e+004,-3.23542365694104e+001,-5.23580584309348e-001

5.81589006928121e+004,-3.23542886297392e+001,-5.30830281487730e-001

5.89707686916437e+004,-3.23543420632442e+001,-5.38178776710327e-001

5.97939699453972e+004,-3.23543969036347e+001,-5.45627354679966e-001

6.06286626604156e+004,-3.23544531853101e+001,-5.53177314538254e-001

6.14750072515201e+004,-3.23545109433663e+001,-5.60829969949120e-001

6.23331663728396e+004,-3.23545702136021e+001,-5.68586649187868e-001

6.32033049490698e+004,-3.23546310325243e+001,-5.76448695223757e-001

6.40855902071694e+004,-3.23546934373531e+001,-5.84417465801022e-001

6.49801917084985e+004,-3.23547574660268e+001,-5.92494333522787e-001

6.58872813814055e+004,-3.23548231572053e+001,-6.00680685927712e-001

6.68070335542691e+004,-3.23548905502741e+001,-6.08977925570108e-001

6.77396249890018e+004,-3.23549596853471e+001,-6.17387470093493e-001

6.86852349150199e+004,-3.23550306032677e+001,-6.25910752310389e-001

6.96440450636895e+004,-3.23551033456114e+001,-6.34549220271087e-001

7.06162397032520e+004,-3.23551779546855e+001,-6.43304337339880e-001

7.16020056742374e+004,-3.23552544735291e+001,-6.52177582264041e-001

7.26015324253724e+004,-3.23553329459116e+001,-6.61170449245567e-001

7.36150120499896e+004,-3.23554134163314e+001,-6.70284448008400e-001

7.46426393229441e+004,-3.23554959300115e+001,-6.79521103869377e-001

7.56846117380472e+004,-3.23555805328963e+001,-6.88881957803889e-001

7.67411295460207e+004,-3.23556672716459e+001,-6.98368566513867e-001

7.78123957929823e+004,-3.23557561936295e+001,-7.07982502494209e-001

7.88986163594682e+004,-3.23558473469183e+001,-7.17725354098460e-001

7.99999999999995e+004,-3.23559407802756e+001,-7.27598725608176e-001

8.11167583832018e+004,-3.23560365431472e+001,-7.37604237295481e-001

8.22491061324848e+004,-3.23561346856494e+001,-7.47743525494836e-001

8.33972608672892e+004,-3.23562352585554e+001,-7.58018242669086e-001

8.45614432449099e+004,-3.23563383132810e+001,-7.68430057480087e-001

8.57418770029029e+004,-3.23564439018680e+001,-7.78980654858882e-001

8.69387890020841e+004,-3.23565520769663e+001,-7.89671736078969e-001

8.81524092701283e+004,-3.23566628918134e+001,-8.00505018834296e-001

8.93829710457770e+004,-3.23567764002136e+001,-8.11482237314354e-001

9.06307108236633e+004,-3.23568926565139e+001,-8.22605142287394e-001

9.18958683997622e+004,-3.23570117155790e+001,-8.33875501186133e-001

9.31786869174758e+004,-3.23571336327633e+001,-8.45295098197903e-001

9.44794129143618e+004,-3.23572584638818e+001,-8.56865734359614e-001

9.57982963695136e+004,-3.23573862651780e+001,-8.68589227657392e-001

9.71355907516031e+004,-3.23575170932905e+001,-8.80467413134837e-001

9.84915530675926e+004,-3.23576510052167e+001,-8.92502143006144e-001

9.98664439121282e+004,-3.23577880582741e+001,-9.04695286778652e-001

1.01260527517622e+005,-3.23579283100598e+001,-9.17048731382059e-001

1.02674071805032e+005,-3.23580718184071e+001,-9.29564381310035e-001

1.04107348435354e+005,-3.23582186413400e+001,-9.42244158767956e-001

1.05560632861831e+005,-3.23583688370250e+001,-9.55090003836048e-001

1.07034204382888e+005,-3.23585224637203e+001,-9.68103874641919e-001

1.08528346195813e+005,-3.23586795797222e+001,-9.81287747548282e-001

1.10043345451179e+005,-3.23588402433100e+001,-9.94643617352119e-001

1.11579493308032e+005,-3.23590045126869e+001,-1.00817349750267e+000

1.13137084989847e+005,-3.23591724459188e+001,-1.02187942033524e+000

1.14716419841265e+005,-3.23593441008711e+001,-1.03576343731790e+000

1.16317801385624e+005,-3.23595195351414e+001,-1.04982761932615e+000

1.17941537383287e+005,-3.23596988059916e+001,-1.06407405692746e+000

1.19587939890794e+005,-3.23598819702752e+001,-1.07850486069765e+000

1.21257325320831e+005,-3.23600690843638e+001,-1.09312216155034e+000

1.22950014503040e+005,-3.23602602040701e+001,-1.10792811109818e+000

1.24666332745679e+005,-3.23604553845686e+001,-1.12292488203510e+000

1.26406609898139e+005,-3.23606546803142e+001,-1.13811466854849e+000

1.28171180414339e+005,-3.23608581449582e+001,-1.15349968675626e+000

1.29960383416997e+005,-3.23610658312620e+001,-1.16908217517861e+000

1.31774562762811e+005,-3.23612777910088e+001,-1.18486439523622e+000

1.33614067108538e+005,-3.23614940749134e+001,-1.20084863178498e+000

1.35479249978003e+005,-3.23617147325296e+001,-1.21703719368308e+000

1.37370469830040e+005,-3.23619398121568e+001,-1.23343241439392e+000

1.39288090127379e+005,-3.23621693607439e+001,-1.25003665262809e+000

1.41232479406504e+005,-3.23624034237925e+001,-1.26685229302181e+000

1.43204011348474e+005,-3.23626420452591e+001,-1.28388174685562e+000

1.45203064850745e+005,-3.23628852674555e+001,-1.30112745281703e+000

1.47230024099979e+005,-3.23631331309496e+001,-1.31859187780244e+000

1.49285278645888e+005,-3.23633856744641e+001,-1.33627751776762e+000

1.51369223476094e+005,-3.23636429347771e+001,-1.35418689861710e+000

1.53482259092041e+005,-3.23639049466206e+001,-1.37232257714764e+000

1.55624791585964e+005,-3.23641717425808e+001,-1.39068714203413e+000

1.57797232718936e+005,-3.23644433529985e+001,-1.40928321486512e+000

1.59999999999999e+005,-3.23647198058707e+001,-1.42811345122934e+000

1.62233516766403e+005,-3.23650011267535e+001,-1.44718054185165e+000

1.64498212264969e+005,-3.23652873386664e+001,-1.46648721377928e+000

1.66794521734578e+005,-3.23655784619993e+001,-1.48603623162230e+000

1.69122886489819e+005,-3.23658745144215e+001,-1.50583039884180e+000

1.71483754005805e+005,-3.23661755107939e+001,-1.52587255909483e+000

1.73877578004168e+005,-3.23664814630844e+001,-1.54616559762988e+000

1.76304818540256e+005,-3.23667923802867e+001,-1.56671244273388e+000

1.78765942091554e+005,-3.23671082683439e+001,-1.58751606723311e+000

1.81261421647326e+005,-3.23674291300765e+001,-1.60857949004512e+000

1.83791736799524e+005,-3.23677549651149e+001,-1.62990577778175e+000

1.86357373834951e+005,-3.23680857698384e+001,-1.65149804640350e+000

1.88958825828723e+005,-3.23684215373192e+001,-1.67335946292211e+000

1.91596592739027e+005,-3.23687622572732e+001,-1.69549324715351e+000

1.94271181503206e+005,-3.23691079160181e+001,-1.71790267351539e+000

1.96983106135185e+005,-3.23694584964379e+001,-1.74059107287118e+000

1.99732887824256e+005,-3.23698139779558e+001,-1.76356183441916e+000

2.02521055035243e+005,-3.23701743365146e+001,-1.78681840762027e+000

2.05348143610063e+005,-3.23705395445669e+001,-1.81036430416706e+000

2.08214696870707e+005,-3.23709095710723e+001,-1.83420309998951e+000

2.11121265723661e+005,-3.23712843815056e+001,-1.85833843729432e+000

2.14068408765776e+005,-3.23716639378739e+001,-1.88277402663637e+000

2.17056692391625e+005,-3.23720481987438e+001,-1.90751364901753e+000

2.20086690902357e+005,-3.23724371192785e+001,-1.93256115801202e+000

2.23158986616063e+005,-3.23728306512863e+001,-1.95792048191126e+000

2.26274169979693e+005,-3.23732287432789e+001,-1.98359562589061e+000

2.29432839682530e+005,-3.23736313405416e+001,-2.00959067418526e+000

2.32635602771247e+005,-3.23740383852137e+001,-2.03590979228203e+000

2.35883074766574e+005,-3.23744498163807e+001,-2.06255722911498e+000

2.39175879781588e+005,-3.23748655701781e+001,-2.08953731926272e+000

2.42514650641661e+005,-3.23752855799056e+001,-2.11685448514781e+000

2.45900029006080e+005,-3.23757097761543e+001,-2.14451323922613e+000

2.49332665491357e+005,-3.23761380869433e+001,-2.17251818617002e+000

2.52813219796278e+005,-3.23765704378692e+001,-2.20087402503424e+000

2.56342360828676e+005,-3.23770067522657e+001,-2.22958555140587e+000

2.59920766833993e+005,-3.23774469513744e+001,-2.25865765953093e+000

2.63549125525621e+005,-3.23778909545269e+001,-2.28809534441287e+000

2.67228134217075e+005,-3.23783386793360e+001,-2.31790370388222e+000

2.70958499956006e+005,-3.23787900418984e+001,-2.34808794063161e+000

2.74740939660078e+005,-3.23792449570060e+001,-2.37865336420980e+000

2.78576180254757e+005,-3.23797033383673e+001,-2.40960539297800e+000

2.82464958813007e+005,-3.23801650988372e+001,-2.44094955601546e+000

2.86408022696948e+005,-3.23806301506551e+001,-2.47269149498157e+000

2.90406129701488e+005,-3.23810984056913e+001,-2.50483696592144e+000

2.94460048199957e+005,-3.23815697757002e+001,-2.53739184102210e+000

2.98570557291775e+005,-3.23820441725802e+001,-2.57036211030543e+000

3.02738446952187e+005,-3.23825215086400e+001,-2.60375388326852e+000

3.06964518184081e+005,-3.23830016968695e+001,-2.63757339045864e+000

3.11249583171928e+005,-3.23834846512166e+001,-2.67182698498734e+000

3.15594465437872e+005,-3.23839702868666e+001,-2.70652114397925e+000

3.19999999999997e+005,-3.23844585205260e+001,-2.74166246995976e+000

3.24467033532806e+005,-3.23849492707084e+001,-2.77725769217173e+000

3.28996424529938e+005,-3.23854424580221e+001,-2.81331366783346e+000

3.33589043469155e+005,-3.23859380054595e+001,-2.84983738332511e+000

3.38245772979638e+005,-3.23864358386860e+001,-2.88683595531448e+000

3.42967508011610e+005,-3.23869358863293e+001,-2.92431663181855e+000

3.47755156008335e+005,-3.23874380802675e+001,-2.96228679319939e+000

3.52609637080511e+005,-3.23879423559153e+001,-3.00075395310252e+000

3.57531884183106e+005,-3.23884486525085e+001,-3.03972575933414e+000

3.62522843294651e+005,-3.23889569133843e+001,-3.07920999468150e+000

3.67583473599047e+005,-3.23894670862594e+001,-3.11921457768008e+000

3.72714747669902e+005,-3.23899791235029e+001,-3.15974756332681e+000

3.77917651657445e+005,-3.23904929824050e+001,-3.20081714374637e+000

3.83193185478053e+005,-3.23910086254397e+001,-3.24243164881278e+000

3.88542363006410e+005,-3.23915260205234e+001,-3.28459954672630e+000

3.93966212270369e+005,-3.23920451412653e+001,-3.32732944455587e+000

3.99465775648511e+005,-3.23925659672123e+001,-3.37063008874568e+000

4.05042110070485e+005,-3.23930884840876e+001,-3.41451036559118e+000

4.10696287220124e+005,-3.23936126840208e+001,-3.45897930169149e+000

4.16429393741414e+005,-3.23941385657713e+001,-3.50404606437840e+000

4.22242531447321e+005,-3.23946661349446e+001,-3.54971996212937e+000

4.28136817531551e+005,-3.23951954041993e+001,-3.59601044496877e+000

4.34113384783250e+005,-3.23957263934478e+001,-3.64292710486010e+000

4.40173381804713e+005,-3.23962591300484e+001,-3.69047967609462e+000

4.46317973232124e+005,-3.23967936489890e+001,-3.73867803568371e+000

4.52548339959385e+005,-3.23973299930643e+001,-3.78753220375287e+000

4.58865679365059e+005,-3.23978682130434e+001,-3.83705234394966e+000

4.65271205542494e+005,-3.23984083678314e+001,-3.88724876386323e+000

4.71766149533147e+005,-3.23989505246224e+001,-3.93813191546500e+000

4.78351759563174e+005,-3.23994947590460e+001,-3.98971239556925e+000

4.85029301283321e+005,-3.24000411553062e+001,-4.04200094632381e+000

4.91800058012158e+005,-3.24005898063143e+001,-4.09500845572837e+000

4.98665330982714e+005,-3.24011408138143e+001,-4.14874595818917e+000

5.05626439592555e+005,-3.24016942885041e+001,-4.20322463511046e+000

5.12684721657352e+005,-3.24022503501492e+001,-4.25845581552685e+000

5.19841533667984e+005,-3.24028091276923e+001,-4.31445097678137e+000

5.27098251051240e+005,-3.24033707593583e+001,-4.37122174524847e+000

5.34456268434150e+005,-3.24039353927542e+001,-4.42877989710804e+000

5.41916999912011e+005,-3.24045031849663e+001,-4.48713735917176e+000

