Freq.,VOut,OutRef

1.00000000000000e+004,-1.93320463388927e+001,-1.27224465333182e-001

1.01395947979003e+004,-1.93320493608715e+001,-1.28999838558202e-001

1.02811382665607e+004,-1.93320524676404e+001,-1.30799969027146e-001

1.04246576084112e+004,-1.93320556615733e+001,-1.32625201235423e-001

1.05701804056138e+004,-1.93320589451112e+001,-1.34475884437870e-001

1.07177346253629e+004,-1.93320623207620e+001,-1.36352372719824e-001

1.08673486252606e+004,-1.93320657911040e+001,-1.38255025058186e-001

1.10190511587661e+004,-1.93320693587875e+001,-1.40184205385800e-001

1.11728713807222e+004,-1.93320730265364e+001,-1.42140282663074e-001

1.13288388529580e+004,-1.93320767971503e+001,-1.44123630943745e-001

1.14869835499703e+004,-1.93320806735071e+001,-1.46134629441038e-001

1.16473358646846e+004,-1.93320846585646e+001,-1.48173662601658e-001

1.18099266142953e+004,-1.93320887553631e+001,-1.50241120172477e-001

1.19747870461893e+004,-1.93320929670269e+001,-1.52337397276221e-001

1.21419488439505e+004,-1.93320972967680e+001,-1.54462894476539e-001

1.23114441334492e+004,-1.93321017478871e+001,-1.56618017858651e-001

1.24833054890161e+004,-1.93321063237770e+001,-1.58803179098106e-001

1.26575659397028e+004,-1.93321110279244e+001,-1.61018795538229e-001

1.28342589756290e+004,-1.93321158639133e+001,-1.63265290264505e-001

1.30134185544193e+004,-1.93321208354267e+001,-1.65543092183141e-001

1.31950791077289e+004,-1.93321259462499e+001,-1.67852636097468e-001

1.33792755478611e+004,-1.93321312002738e+001,-1.70194362782081e-001

1.35660432744767e+004,-1.93321366014965e+001,-1.72568719072786e-001

1.37554181813974e+004,-1.93321421540273e+001,-1.74976157936286e-001

1.39474366635040e+004,-1.93321478620891e+001,-1.77417138558622e-001

1.41421356237309e+004,-1.93321537300224e+001,-1.79892126422321e-001

1.43395524801583e+004,-1.93321597622870e+001,-1.82401593395668e-001

1.45397251732031e+004,-1.93321659634668e+001,-1.84946017810465e-001

1.47426921729110e+004,-1.93321723382723e+001,-1.87525884551724e-001

1.49484924863494e+004,-1.93321788915442e+001,-1.90141685142016e-001

1.51571656651040e+004,-1.93321856282572e+001,-1.92793917829386e-001

1.53687518128801e+004,-1.93321925535228e+001,-1.95483087676921e-001

1.55832915932100e+004,-1.93321996725947e+001,-1.98209706646059e-001

1.58008262372675e+004,-1.93322069908707e+001,-2.00974293694659e-001

1.60213975517924e+004,-1.93322145138979e+001,-2.03777374862668e-001

1.62450479271247e+004,-1.93322222473759e+001,-2.06619483368071e-001

1.64718203453514e+004,-1.93322301971619e+001,-2.09501159696058e-001

1.67017583885674e+004,-1.93322383692742e+001,-2.12422951695664e-001

1.69349062472505e+004,-1.93322467698965e+001,-2.15385414674969e-001

1.71713087287550e+004,-1.93322554053827e+001,-2.18389111497568e-001

1.74110112659224e+004,-1.93322642822615e+001,-2.21434612677379e-001

1.76540599258131e+004,-1.93322734072407e+001,-2.24522496481308e-001

1.79005014185594e+004,-1.93322827872126e+001,-2.27653349022535e-001

1.81503831063432e+004,-1.93322924292581e+001,-2.30827764368289e-001

1.84037530124975e+004,-1.93323023406523e+001,-2.34046344635010e-001

1.86606598307361e+004,-1.93323125288701e+001,-2.37309700090987e-001

1.89211529345119e+004,-1.93323230015902e+001,-2.40618449266132e-001

1.91852823865052e+004,-1.93323337667021e+001,-2.43973219046925e-001

1.94530989482457e+004,-1.93323448323104e+001,-2.47374644789495e-001

1.97246540898671e+004,-1.93323562067413e+001,-2.50823370423224e-001

1.99999999999999e+004,-1.93323678985479e+001,-2.54320048556893e-001

2.02791895958005e+004,-1.93323799165168e+001,-2.57865340589652e-001

2.05622765331213e+004,-1.93323922696736e+001,-2.61459916817901e-001

2.08493152168224e+004,-1.93324049672901e+001,-2.65104456546258e-001

2.11403608112276e+004,-1.93324180188895e+001,-2.68799648200783e-001

2.14354692507258e+004,-1.93324314342540e+001,-2.72546189440740e-001

2.17346972505211e+004,-1.93324452234311e+001,-2.76344787269113e-001

2.20381023175322e+004,-1.93324593967409e+001,-2.80196158150360e-001

2.23457427614443e+004,-1.93324739647827e+001,-2.84101028123516e-001

2.26576777059159e+004,-1.93324889384428e+001,-2.88060132918088e-001

2.29739670999406e+004,-1.93325043289013e+001,-2.92074218073995e-001

2.32946717293690e+004,-1.93325201476403e+001,-2.96144039055478e-001

2.36198532285905e+004,-1.93325364064513e+001,-3.00270361372790e-001

2.39495740923785e+004,-1.93325531174433e+001,-3.04453960700311e-001

2.42838976879009e+004,-1.93325702930508e+001,-3.08695622998638e-001

2.46228882668982e+004,-1.93325879460427e+001,-3.12996144633092e-001

2.49666109780322e+004,-1.93326060895298e+001,-3.17356332499806e-001

2.53151318794055e+004,-1.93326247369742e+001,-3.21777004145798e-001

2.56685179512580e+004,-1.93326439021985e+001,-3.26258987891756e-001

2.60268371088386e+004,-1.93326635993937e+001,-3.30803122961693e-001

2.63901582154578e+004,-1.93326838431301e+001,-3.35410259600416e-001

2.67585510957221e+004,-1.93327046483654e+001,-3.40081259206736e-001

2.71320865489533e+004,-1.93327260304550e+001,-3.44816994455458e-001

2.75108363627948e+004,-1.93327480051621e+001,-3.49618349425794e-001

2.78948733270080e+004,-1.93327705886673e+001,-3.54486219728229e-001

2.82842712474618e+004,-1.93327937975795e+001,-3.59421512635067e-001

2.86791049603164e+004,-1.93328176489459e+001,-3.64425147206586e-001

2.90794503464061e+004,-1.93328421602631e+001,-3.69498054420993e-001

2.94853843458219e+004,-1.93328673494881e+001,-3.74641177304254e-001

2.98969849726987e+004,-1.93328932350490e+001,-3.79855471061866e-001

3.03143313302078e+004,-1.93329198358571e+001,-3.85141903205622e-001

3.07375036257601e+004,-1.93329471713182e+001,-3.90501453686932e-001

3.11665831864199e+004,-1.93329752613443e+001,-3.95935115026873e-001

3.16016524745350e+004,-1.93330041263656e+001,-4.01443892448314e-001

3.20427951035848e+004,-1.93330337873435e+001,-4.07028804005289e-001

3.24900958542493e+004,-1.93330642657823e+001,-4.12690880715535e-001

3.29436406907028e+004,-1.93330955837422e+001,-4.18431166692474e-001

3.34035167771346e+004,-1.93331277638527e+001,-4.24250719273796e-001

3.38698124945009e+004,-1.93331608293249e+001,-4.30150609157248e-001

3.43426174575100e+004,-1.93331948039657e+001,-4.36131920526411e-001

3.48220225318448e+004,-1.93332297121910e+001,-4.42195751186207e-001

3.53081198516260e+004,-1.93332655790395e+001,-4.48343212690790e-001

3.58010028371187e+004,-1.93333024301873e+001,-4.54575430472219e-001

3.63007662126863e+004,-1.93333402919611e+001,-4.60893543975300e-001

3.68075060249948e+004,-1.93333791913539e+001,-4.67298706780530e-001

3.73213196614721e+004,-1.93334191560385e+001,-4.73792086737468e-001

3.78423058690237e+004,-1.93334602143831e+001,-4.80374866090074e-001

3.83705647730104e+004,-1.93335023954664e+001,-4.87048241603319e-001

3.89061978964912e+004,-1.93335457290920e+001,-4.93813424691008e-001

3.94493081797342e+004,-1.93335902458049e+001,-5.00671641539892e-001

3.99999999999998e+004,-1.93336359769061e+001,-5.07624133233914e-001

4.05583791916010e+004,-1.93336829544692e+001,-5.14672155876115e-001

4.11245530662425e+004,-1.93337312113555e+001,-5.21816980713206e-001

4.16986304336447e+004,-1.93337807812307e+001,-5.29059894251027e-001

4.22807216224550e+004,-1.93338316985806e+001,-5.36402198377928e-001

4.28709385014515e+004,-1.93338839987277e+001,-5.43845210479078e-001

4.34693945010421e+004,-1.93339377178474e+001,-5.51390263553089e-001

4.40762046350642e+004,-1.93339928929846e+001,-5.59038706325163e-001

4.46914855228886e+004,-1.93340495620701e+001,-5.66791903359359e-001

4.53153554118317e+004,-1.93341077639375e+001,-5.74651235167593e-001

4.59479341998812e+004,-1.93341675383397e+001,-5.82618098317483e-001

4.65893434587380e+004,-1.93342289259655e+001,-5.90693905536795e-001

4.72397064571810e+004,-1.93342919684565e+001,-5.98880085818547e-001

4.78991481847569e+004,-1.93343567084236e+001,-6.07178084518369e-001

4.85677953758016e+004,-1.93344231894639e+001,-6.15589363453752e-001

4.92457765337964e+004,-1.93344914561769e+001,-6.24115400998851e-001

4.99332219560642e+004,-1.93345615541812e+001,-6.32757692176363e-001

5.06302637588109e+004,-1.93346335301309e+001,-6.41517748746102e-001

5.13370359025159e+004,-1.93347074317316e+001,-6.50397099291936e-001

5.20536742176771e+004,-1.93347833077566e+001,-6.59397289302630e-001

5.27803164309155e+004,-1.93348612080628e+001,-6.68519881251993e-001

5.35171021914442e+004,-1.93349411836058e+001,-6.77766454675795e-001

5.42641730979066e+004,-1.93350232864556e+001,-6.87138606240329e-001

5.50216727255895e+004,-1.93351075698113e+001,-6.96637949816059e-001

5.57897466540159e+004,-1.93351940880156e+001,-7.06266116536584e-001

5.65685424949235e+004,-1.93352828965695e+001,-7.16024754862248e-001

5.73582099206328e+004,-1.93353740521448e+001,-7.25915530637458e-001

5.81589006928121e+004,-1.93354676125984e+001,-7.35940127140815e-001

5.89707686916437e+004,-1.93355636369843e+001,-7.46100245133668e-001

5.97939699453972e+004,-1.93356621855655e+001,-7.56397602906176e-001

6.06286626604156e+004,-1.93357633198257e+001,-7.66833936314485e-001

6.14750072515201e+004,-1.93358671024793e+001,-7.77410998816208e-001

6.23331663728396e+004,-1.93359735974814e+001,-7.88130561501850e-001

6.32033049490698e+004,-1.93360828700368e+001,-7.98994413121244e-001

6.40855902071694e+004,-1.93361949866078e+001,-8.10004360101876e-001

6.49801917084985e+004,-1.93363100149207e+001,-8.21162226570606e-001

6.58872813814055e+004,-1.93364280239724e+001,-8.32469854362331e-001

6.68070335542691e+004,-1.93365490840345e+001,-8.43929103029321e-001

6.77396249890018e+004,-1.93366732666567e+001,-8.55541849844760e-001

6.86852349150199e+004,-1.93368006446695e+001,-8.67309989799620e-001

6.96440450636895e+004,-1.93369312921841e+001,-8.79235435601068e-001

7.06162397032520e+004,-1.93370652845922e+001,-8.91320117657390e-001

7.16020056742374e+004,-1.93372026985633e+001,-9.03565984069113e-001

7.26015324253724e+004,-1.93373436120407e+001,-9.15975000606904e-001

7.36150120499896e+004,-1.93374881042355e+001,-9.28549150693311e-001

7.46426393229441e+004,-1.93376362556191e+001,-9.41290435374294e-001

7.56846117380472e+004,-1.93377881479134e+001,-9.54200873291815e-001

7.67411295460207e+004,-1.93379438640784e+001,-9.67282500652372e-001

7.78123957929823e+004,-1.93381034882989e+001,-9.80537371191349e-001

7.88986163594682e+004,-1.93382671059679e+001,-9.93967556135642e-001

7.99999999999995e+004,-1.93384348036674e+001,-1.00757514416655e+000

8.11167583832018e+004,-1.93386066691474e+001,-1.02136224137540e+000

8.22491061324848e+004,-1.93387827913020e+001,-1.03533097122506e+000

8.33972608672892e+004,-1.93389632601421e+001,-1.04948347450543e+000

8.45614432449099e+004,-1.93391481667660e+001,-1.06382190929122e+000

8.57418770029029e+004,-1.93393376033269e+001,-1.07834845089911e+000

8.69387890020841e+004,-1.93395316629963e+001,-1.09306529184916e+000

8.81524092701283e+004,-1.93397304399254e+001,-1.10797464182327e+000

8.93829710457770e+004,-1.93399340292024e+001,-1.12307872763162e+000

9.06307108236633e+004,-1.93401425268060e+001,-1.13837979317940e+000

9.18958683997622e+004,-1.93403560295565e+001,-1.15388009943830e+000

9.31786869174758e+004,-1.93405746350613e+001,-1.16958192442600e+000

9.44794129143618e+004,-1.93407984416580e+001,-1.18548756318982e+000

9.57982963695136e+004,-1.93410275483533e+001,-1.20159932779900e+000

9.71355907516031e+004,-1.93412620547567e+001,-1.21791954734774e+000

9.84915530675926e+004,-1.93415020610115e+001,-1.23445056796333e+000

9.98664439121282e+004,-1.93417476677201e+001,-1.25119475283392e+000

1.01260527517622e+005,-1.93419989758661e+001,-1.26815448224049e+000

1.02674071805032e+005,-1.93422560867309e+001,-1.28533215361141e+000

1.04107348435354e+005,-1.93425191018061e+001,-1.30273018158635e+000

1.05560632861831e+005,-1.93427881227014e+001,-1.32035099810362e+000

1.07034204382888e+005,-1.93430632510472e+001,-1.33819705250331e+000

1.08528346195813e+005,-1.93433445883928e+001,-1.35627081165324e+000

1.10043345451179e+005,-1.93436322360999e+001,-1.37457476009782e+000

1.11579493308032e+005,-1.93439262952305e+001,-1.39311140023331e+000

1.13137084989847e+005,-1.93442268664304e+001,-1.41188325250884e+000

1.14716419841265e+005,-1.93445340498081e+001,-1.43089285565675e+000

1.16317801385624e+005,-1.93448479448075e+001,-1.45014276695723e+000

1.17941537383287e+005,-1.93451686500772e+001,-1.46963556253374e+000

1.19587939890794e+005,-1.93454962633333e+001,-1.48937383768692e+000

1.21257325320831e+005,-1.93458308812195e+001,-1.50936020726503e+000

1.22950014503040e+005,-1.93461725991598e+001,-1.52959730607837e+000

1.24666332745679e+005,-1.93465215112092e+001,-1.55008778935409e+000

1.26406609898139e+005,-1.93468777098975e+001,-1.57083433324064e+000

1.28171180414339e+005,-1.93472412860703e+001,-1.59183963535854e+000

1.29960383416997e+005,-1.93476123287253e+001,-1.61310641540247e+000

1.31774562762811e+005,-1.93479909248442e+001,-1.63463741579941e+000

1.33614067108538e+005,-1.93483771592211e+001,-1.65643540242180e+000

1.35479249978003e+005,-1.93487711142872e+001,-1.67850316536044e+000

1.37370469830040e+005,-1.93491728699326e+001,-1.70084351975972e+000

1.39288090127379e+005,-1.93495825033240e+001,-1.72345930671712e+000

1.41232479406504e+005,-1.93500000887208e+001,-1.74635339424998e+000

1.43204011348474e+005,-1.93504256972887e+001,-1.76952867833222e+000

1.45203064850745e+005,-1.93508593969106e+001,-1.79298808400326e+000

1.47230024099979e+005,-1.93513012519968e+001,-1.81673456655086e+000

1.49285278645888e+005,-1.93517513232937e+001,-1.84077111277238e+000

1.51369223476094e+005,-1.93522096676924e+001,-1.86510074231376e+000

1.53482259092041e+005,-1.93526763380363e+001,-1.88972650909007e+000

1.55624791585964e+005,-1.93531513829304e+001,-1.91465150278984e+000

1.57797232718936e+005,-1.93536348465505e+001,-1.93987885046392e+000

1.59999999999999e+005,-1.93541267684551e+001,-1.96541171820014e+000

1.62233516766403e+005,-1.93546271833985e+001,-1.99125331288751e+000

1.64498212264969e+005,-1.93551361211481e+001,-2.01740688406807e+000

1.66794521734578e+005,-1.93556536063044e+001,-2.04387572587888e+000

1.69122886489819e+005,-1.93561796581256e+001,-2.07066317908624e+000

1.71483754005805e+005,-1.93567142903578e+001,-2.09777263320920e+000

1.73877578004168e+005,-1.93572575110699e+001,-2.12520752873645e+000

1.76304818540256e+005,-1.93578093224970e+001,-2.15297135943184e+000

1.78765942091554e+005,-1.93583697208890e+001,-2.18106767473249e+000

1.81261421647326e+005,-1.93589386963692e+001,-2.20950008223806e+000

1.83791736799524e+005,-1.93595162328010e+001,-2.23827225028424e+000

1.86357373834951e+005,-1.93601023076650e+001,-2.26738791060911e+000

1.88958825828723e+005,-1.93606968919458e+001,-2.29685086110057e+000

1.91596592739027e+005,-1.93612999500317e+001,-2.32666496863008e+000

1.94271181503206e+005,-1.93619114396252e+001,-2.35683417196340e+000

1.96983106135185e+005,-1.93625313116679e+001,-2.38736248475290e+000

1.99732887824256e+005,-1.93631595102779e+001,-2.41825399860107e+000

2.02521055035243e+005,-1.93637959727031e+001,-2.44951288619495e+000

2.05348143610063e+005,-1.93644406292886e+001,-2.48114340450749e+000

2.08214696870707e+005,-1.93650934034614e+001,-2.51314989805896e+000

2.11121265723661e+005,-1.93657542117304e+001,-2.54553680223718e+000

2.14068408765776e+005,-1.93664229637048e+001,-2.57830864666579e+000

2.17056692391625e+005,-1.93670995621302e+001,-2.61147005862117e+000

2.20086690902357e+005,-1.93677839029422e+001,-2.64502576648675e+000

2.23158986616063e+005,-1.93684758753403e+001,-2.67898060324200e+000

2.26274169979693e+005,-1.93691753618802e+001,-2.71333950997607e+000

2.29432839682530e+005,-1.93698822385856e+001,-2.74810753942406e+000

2.32635602771247e+005,-1.93705963750805e+001,-2.78328985951264e+000

2.35883074766574e+005,-1.93713176347417e+001,-2.81889175691286e+000

2.39175879781588e+005,-1.93720458748707e+001,-2.85491864059081e+000

2.42514650641661e+005,-1.93727809468869e+001,-2.89137604534625e+000

2.45900029006080e+005,-1.93735226965403e+001,-2.92826963533657e+000

2.49332665491357e+005,-1.93742709641455e+001,-2.96560520757244e+000

2.52813219796278e+005,-1.93750255848342e+001,-3.00338869538149e+000

2.56342360828676e+005,-1.93757863888287e+001,-3.04162617183061e+000

2.59920766833993e+005,-1.93765532017340e+001,-3.08032385310005e+000

2.63549125525621e+005,-1.93773258448495e+001,-3.11948810179892e+000

2.67228134217075e+005,-1.93781041354981e+001,-3.15912543021893e+000

2.70958499956006e+005,-1.93788878873740e+001,-3.19924250351616e+000

2.74740939660078e+005,-1.93796769109069e+001,-3.23984614281361e+000

2.78576180254757e+005,-1.93804710136430e+001,-3.28094332822057e+000

2.82464958813007e+005,-1.93812700006409e+001,-3.32254120175926e+000

2.86408022696948e+005,-1.93820736748824e+001,-3.36464707019519e+000

2.90406129701488e+005,-1.93828818376960e+001,-3.40726840776412e+000

2.94460048199957e+005,-1.93836942891943e+001,-3.45041285879085e+000

2.98570557291775e+005,-1.93845108287209e+001,-3.49408824019740e+000

3.02738446952187e+005,-1.93853312553086e+001,-3.53830254389231e+000

3.06964518184081e+005,-1.93861553681460e+001,-3.58306393904125e+000

3.11249583171928e+005,-1.93869829670521e+001,-3.62838077421470e+000

3.15594465437872e+005,-1.93878138529566e+001,-3.67426157941025e+000

3.19999999999997e+005,-1.93886478283857e+001,-3.72071506794827e+000

3.24467033532806e+005,-1.93894846979515e+001,-3.76775013823882e+000

3.28996424529938e+005,-1.93903242688433e+001,-3.81537587542212e+000

3.33589043469155e+005,-1.93911663513203e+001,-3.86360155287912e+000

3.38245772979638e+005,-1.93920107592040e+001,-3.91243663361503e+000

3.42967508011610e+005,-1.93928573103684e+001,-3.96189077152012e+000

3.47755156008335e+005,-1.93937058272274e+001,-4.01197381250242e+000

3.52609637080511e+005,-1.93945561372178e+001,-4.06269579550506e+000

3.57531884183106e+005,-1.93954080732773e+001,-4.11406695340112e+000

3.62522843294651e+005,-1.93962614743146e+001,-4.16609771378090e+000

3.67583473599047e+005,-1.93971161856727e+001,-4.21879869962620e+000

3.72714747669902e+005,-1.93979720595828e+001,-4.27218072988250e+000

3.77917651657445e+005,-1.93988289556076e+001,-4.32625481993474e+000

3.83193185478053e+005,-1.93996867410744e+001,-4.38103218198884e+000

3.88542363006410e+005,-1.94005452914960e+001,-4.43652422536876e+000

3.93966212270369e+005,-1.94014044909786e+001,-4.49274255673523e+000

3.99465775648511e+005,-1.94022642326162e+001,-4.54969898023267e+000

4.05042110070485e+005,-1.94031244188719e+001,-4.60740549757161e+000

4.10696287220124e+005,-1.94039849619429e+001,-4.66587430805506e+000

4.16429393741414e+005,-1.94048457841111e+001,-4.72511780855658e+000

4.22242531447321e+005,-1.94057068180787e+001,-4.78514859345775e+000

4.28136817531551e+005,-1.94065680072867e+001,-4.84597945455264e+000

4.34113384783250e+005,-1.94074293062182e+001,-4.90762338092922e+000

4.40173381804713e+005,-1.94082906806851e+001,-4.97009355883382e+000

4.46317973232124e+005,-1.94091521080983e+001,-5.03340337152837e+000

4.52548339959385e+005,-1.94100135777222e+001,-5.09756639914819e+000

4.58865679365059e+005,-1.94108750909127e+001,-5.16259641856755e+000

4.65271205542494e+005,-1.94117366613390e+001,-5.22850740328093e+000

4.71766149533147e+005,-1.94125983151908e+001,-5.29531352331001e+000

4.78351759563174e+005,-1.94134600913688e+001,-5.36302914514006e+000

4.85029301283321e+005,-1.94143220416615e+001,-5.43166883169514e+000

4.91800058012158e+005,-1.94151842309072e+001,-5.50124734235999e+000

4.98665330982714e+005,-1.94160467371419e+001,-5.57177963305149e+000

5.05626439592555e+005,-1.94169096517346e+001,-5.64328085635073e+000

5.12684721657352e+005,-1.94177730795097e+001,-5.71576636169734e+000

5.19841533667984e+005,-1.94186371388578e+001,-5.78925169565452e+000

5.27098251051240e+005,-1.94195019618349e+001,-5.86375260224893e+000

5.34456268434150e+005,-1.94203676942520e+001,-5.93928502338950e+000

5.41916999912011e+005,-1.94212344957550e+001,-6.01586509937083e+000

