Freq.,VOut,OutRef

1.00000000000000e+004,-1.10694944138555e+000,-1.82820460523027e-001

1.01395947979003e+004,-1.10694936197498e+000,-1.85372536400561e-001

1.02811382665607e+004,-1.10694928033111e+000,-1.87960237816032e-001

1.04246576084112e+004,-1.10694919639063e+000,-1.90584062081673e-001

1.05701804056138e+004,-1.10694911008932e+000,-1.93244513446249e-001

1.07177346253629e+004,-1.10694902136043e+000,-1.95942103201708e-001

1.08673486252606e+004,-1.10694893013590e+000,-1.98677349773696e-001

1.10190511587661e+004,-1.10694883634537e+000,-2.01450778827052e-001

1.11728713807222e+004,-1.10694873991661e+000,-2.04262923363214e-001

1.13288388529580e+004,-1.10694864077531e+000,-2.07114323825163e-001

1.14869835499703e+004,-1.10694853884533e+000,-2.10005528197139e-001

1.16473358646846e+004,-1.10694843404809e+000,-2.12937092115032e-001

1.18099266142953e+004,-1.10694832630278e+000,-2.15909578971007e-001

1.19747870461893e+004,-1.10694821552658e+000,-2.18923560019738e-001

1.21419488439505e+004,-1.10694810163408e+000,-2.21979614491620e-001

1.23114441334492e+004,-1.10694798453750e+000,-2.25078329702453e-001

1.24833054890161e+004,-1.10694786414681e+000,-2.28220301164377e-001

1.26575659397028e+004,-1.10694774036919e+000,-2.31406132704937e-001

1.28342589756290e+004,-1.10694761310929e+000,-2.34636436578909e-001

1.30134185544193e+004,-1.10694748226906e+000,-2.37911833587441e-001

1.31950791077289e+004,-1.10694734774767e+000,-2.41232953198409e-001

1.33792755478611e+004,-1.10694720944158e+000,-2.44600433664446e-001

1.35660432744767e+004,-1.10694706724410e+000,-2.48014922149716e-001

1.37554181813974e+004,-1.10694692104578e+000,-2.51477074849560e-001

1.39474366635040e+004,-1.10694677073385e+000,-2.54987557121571e-001

1.41421356237309e+004,-1.10694661619250e+000,-2.58547043609245e-001

1.43395524801583e+004,-1.10694645730275e+000,-2.62156218372794e-001

1.45397251732031e+004,-1.10694629394191e+000,-2.65815775023502e-001

1.47426921729110e+004,-1.10694612598424e+000,-2.69526416851646e-001

1.49484924863494e+004,-1.10694595330019e+000,-2.73288856966420e-001

1.51571656651040e+004,-1.10694577575658e+000,-2.77103818430758e-001

1.53687518128801e+004,-1.10694559321660e+000,-2.80972034399897e-001

1.55832915932100e+004,-1.10694540553958e+000,-2.84894248262912e-001

1.58008262372675e+004,-1.10694521258057e+000,-2.88871213787066e-001

1.60213975517924e+004,-1.10694501419100e+000,-2.92903695258621e-001

1.62450479271247e+004,-1.10694481021770e+000,-2.96992467634710e-001

1.64718203453514e+004,-1.10694460050336e+000,-3.01138316688274e-001

1.67017583885674e+004,-1.10694438488632e+000,-3.05342039160284e-001

1.69349062472505e+004,-1.10694416320009e+000,-3.09604442914142e-001

1.71713087287550e+004,-1.10694393527373e+000,-3.13926347088449e-001

1.74110112659224e+004,-1.10694370093136e+000,-3.18308582256685e-001

1.76540599258131e+004,-1.10694345999205e+000,-3.22751990585556e-001

1.79005014185594e+004,-1.10694321226994e+000,-3.27257425996558e-001

1.81503831063432e+004,-1.10694295757380e+000,-3.31825754330766e-001

1.84037530124975e+004,-1.10694269570700e+000,-3.36457853515286e-001

1.86606598307361e+004,-1.10694242646740e+000,-3.41154613730931e-001

1.89211529345119e+004,-1.10694214964713e+000,-3.45916937584257e-001

1.91852823865052e+004,-1.10694186503236e+000,-3.50745740280558e-001

1.94530989482457e+004,-1.10694157240327e+000,-3.55641949799953e-001

1.97246540898671e+004,-1.10694127153389e+000,-3.60606507074795e-001

1.99999999999999e+004,-1.10694096219173e+000,-3.65640366171414e-001

2.02791895958005e+004,-1.10694064413788e+000,-3.70744494472694e-001

2.05622765331213e+004,-1.10694031712650e+000,-3.75919872864979e-001

2.08493152168224e+004,-1.10693998090489e+000,-3.81167495925110e-001

2.11403608112276e+004,-1.10693963521311e+000,-3.86488372112946e-001

2.14354692507258e+004,-1.10693927978399e+000,-3.91883523963310e-001

2.17346972505211e+004,-1.10693891434270e+000,-3.97353988283955e-001

2.20381023175322e+004,-1.10693853860664e+000,-4.02900816354257e-001

2.23457427614443e+004,-1.10693815228525e+000,-4.08525074126629e-001

2.26576777059159e+004,-1.10693775507968e+000,-4.14227842432225e-001

2.29739670999406e+004,-1.10693734668253e+000,-4.20010217188468e-001

2.32946717293690e+004,-1.10693692677779e+000,-4.25873309608631e-001

2.36198532285905e+004,-1.10693649504059e+000,-4.31818246414931e-001

2.39495740923785e+004,-1.10693605113666e+000,-4.37846170057534e-001

2.42838976879009e+004,-1.10693559472227e+000,-4.43958238931464e-001

2.46228882668982e+004,-1.10693512544399e+000,-4.50155627600101e-001

2.49666109780322e+004,-1.10693464293836e+000,-4.56439527020265e-001

2.53151318794055e+004,-1.10693414683162e+000,-4.62811144771688e-001

2.56685179512580e+004,-1.10693363673920e+000,-4.69271705289186e-001

2.60268371088386e+004,-1.10693311226597e+000,-4.75822450095522e-001

2.63901582154578e+004,-1.10693257300520e+000,-4.82464638043651e-001

2.67585510957221e+004,-1.10693201853881e+000,-4.89199545554828e-001

2.71320865489533e+004,-1.10693144843686e+000,-4.96028466865817e-001

2.75108363627948e+004,-1.10693086225691e+000,-5.02952714278162e-001

2.78948733270080e+004,-1.10693025954432e+000,-5.09973618406527e-001

2.82842712474618e+004,-1.10692963983110e+000,-5.17092528439756e-001

2.86791049603164e+004,-1.10692900263638e+000,-5.24310812394214e-001

2.90794503464061e+004,-1.10692834746514e+000,-5.31629857381286e-001

2.94853843458219e+004,-1.10692767380864e+000,-5.39051069870285e-001

2.98969849726987e+004,-1.10692698114334e+000,-5.46575875961561e-001

3.03143313302078e+004,-1.10692626893103e+000,-5.54205721657029e-001

3.07375036257601e+004,-1.10692553661799e+000,-5.61942073140715e-001

3.11665831864199e+004,-1.10692478363476e+000,-5.69786417058833e-001

3.16016524745350e+004,-1.10692400939549e+000,-5.77740260806215e-001

3.20427951035848e+004,-1.10692321329791e+000,-5.85805132813601e-001

3.24900958542493e+004,-1.10692239472222e+000,-5.93982582844588e-001

3.29436406907028e+004,-1.10692155303113e+000,-6.02274182289560e-001

3.34035167771346e+004,-1.10692068756894e+000,-6.10681524470660e-001

3.38698124945009e+004,-1.10691979766147e+000,-6.19206224944527e-001

3.43426174575100e+004,-1.10691888261494e+000,-6.27849921815739e-001

3.48220225318448e+004,-1.10691794171594e+000,-6.36614276048253e-001

3.53081198516260e+004,-1.10691697423042e+000,-6.45500971787053e-001

3.58010028371187e+004,-1.10691597940363e+000,-6.54511716678781e-001

3.63007662126863e+004,-1.10691495645884e+000,-6.63648242202108e-001

3.68075060249948e+004,-1.10691390459721e+000,-6.72912303998429e-001

3.73213196614721e+004,-1.10691282299695e+000,-6.82305682209578e-001

3.78423058690237e+004,-1.10691171081273e+000,-6.91830181819108e-001

3.83705647730104e+004,-1.10691056717479e+000,-7.01487632999827e-001

3.89061978964912e+004,-1.10690939118864e+000,-7.11279891463510e-001

3.94493081797342e+004,-1.10690818193376e+000,-7.21208838818770e-001

3.99999999999998e+004,-1.10690693846338e+000,-7.31276382931072e-001

4.05583791916010e+004,-1.10690565980336e+000,-7.41484458289203e-001

4.11245530662425e+004,-1.10690434495160e+000,-7.51835026376803e-001

4.16986304336447e+004,-1.10690299287693e+000,-7.62330076049486e-001

4.22807216224550e+004,-1.10690160251877e+000,-7.72971623914269e-001

4.28709385014515e+004,-1.10690017278560e+000,-7.83761714719787e-001

4.34693945010421e+004,-1.10689870255455e+000,-7.94702421746545e-001

4.40762046350642e+004,-1.10689719067042e+000,-8.05795847204491e-001

4.46914855228886e+004,-1.10689563594440e+000,-8.17044122639091e-001

4.53153554118317e+004,-1.10689403715343e+000,-8.28449409337203e-001

4.59479341998812e+004,-1.10689239303900e+000,-8.40013898744120e-001

4.65893434587380e+004,-1.10689070230616e+000,-8.51739812883161e-001

4.72397064571810e+004,-1.10688896362246e+000,-8.63629404782143e-001

4.78991481847569e+004,-1.10688717561679e+000,-8.75684958905791e-001

4.85677953758016e+004,-1.10688533687815e+000,-8.87908791594686e-001

4.92457765337964e+004,-1.10688344595481e+000,-9.00303251507832e-001

4.99332219560642e+004,-1.10688150135248e+000,-9.12870720076454e-001

5.06302637588109e+004,-1.10687950153375e+000,-9.25613611957772e-001

5.13370359025159e+004,-1.10687744491627e+000,-9.38534375500593e-001

5.20536742176771e+004,-1.10687532987161e+000,-9.51635493213609e-001

5.27803164309155e+004,-1.10687315472387e+000,-9.64919482243017e-001

5.35171021914442e+004,-1.10687091774839e+000,-9.78388894853950e-001

5.42641730979066e+004,-1.10686861716991e+000,-9.92046318921733e-001

5.50216727255895e+004,-1.10686625116148e+000,-1.00589437842737e+000

5.57897466540159e+004,-1.10686381784267e+000,-1.01993573396095e+000

5.65685424949235e+004,-1.10686131527797e+000,-1.03417308323316e+000

5.73582099206328e+004,-1.10685874147515e+000,-1.04860916159164e+000

5.81589006928121e+004,-1.10685609438367e+000,-1.06324674254627e+000

5.89707686916437e+004,-1.10685337189270e+000,-1.07808863830162e+000

5.97939699453972e+004,-1.10685057182955e+000,-1.09313770029531e+000

6.06286626604156e+004,-1.10684769195745e+000,-1.10839681974722e+000

6.14750072515201e+004,-1.10684472997403e+000,-1.12386892821156e+000

6.23331663728396e+004,-1.10684168350909e+000,-1.13955699814090e+000

6.32033049490698e+004,-1.10683855012241e+000,-1.15546404345690e+000

6.40855902071694e+004,-1.10683532730191e+000,-1.17159312012686e+000

6.49801917084985e+004,-1.10683201246137e+000,-1.18794732675103e+000

6.58872813814055e+004,-1.10682860293803e+000,-1.20452980515771e+000

6.68070335542691e+004,-1.10682509599040e+000,-1.22134374100454e+000

6.77396249890018e+004,-1.10682148879583e+000,-1.23839236439123e+000

6.86852349150199e+004,-1.10681777844807e+000,-1.25567895047765e+000

6.96440450636895e+004,-1.10681396195453e+000,-1.27320682011438e+000

7.06162397032520e+004,-1.10681003623386e+000,-1.29097934047817e+000

7.16020056742374e+004,-1.10680599811311e+000,-1.30899992571828e+000

7.26015324253724e+004,-1.10680184432503e+000,-1.32727203761256e+000

7.36150120499896e+004,-1.10679757150484e+000,-1.34579918623160e+000

7.46426393229441e+004,-1.10679317618780e+000,-1.36458493061073e+000

7.56846117380472e+004,-1.10678865480559e+000,-1.38363287943542e+000

7.67411295460207e+004,-1.10678400368346e+000,-1.40294669173223e+000

7.78123957929823e+004,-1.10677921903677e+000,-1.42253007757213e+000

7.88986163594682e+004,-1.10677429696784e+000,-1.44238679878138e+000

7.99999999999995e+004,-1.10676923346206e+000,-1.46252066966575e+000

8.11167583832018e+004,-1.10676402438469e+000,-1.48293555774079e+000

8.22491061324848e+004,-1.10675866547694e+000,-1.50363538447533e+000

8.33972608672892e+004,-1.10675315235207e+000,-1.52462412604504e+000

8.45614432449099e+004,-1.10674748049176e+000,-1.54590581409433e+000

8.57418770029029e+004,-1.10674164524164e+000,-1.56748453651238e+000

8.69387890020841e+004,-1.10673564180730e+000,-1.58936443821777e+000

8.81524092701283e+004,-1.10672946524999e+000,-1.61154972195399e+000

8.93829710457770e+004,-1.10672311048205e+000,-1.63404464909809e+000

9.06307108236633e+004,-1.10671657226227e+000,-1.65685354047900e+000

9.18958683997622e+004,-1.10670984519128e+000,-1.67998077720758e+000

9.31786869174758e+004,-1.10670292370653e+000,-1.70343080151947e+000

9.44794129143618e+004,-1.10669580207733e+000,-1.72720811762805e+000

9.57982963695136e+004,-1.10668847439956e+000,-1.75131729259196e+000

9.71355907516031e+004,-1.10668093459039e+000,-1.77576295719186e+000

9.84915530675926e+004,-1.10667317638254e+000,-1.80054980682262e+000

9.98664439121282e+004,-1.10666519331893e+000,-1.82568260239530e+000

1.01260527517622e+005,-1.10665697874659e+000,-1.85116617125385e+000

1.02674071805032e+005,-1.10664852581050e+000,-1.87700540810504e+000

1.04107348435354e+005,-1.10663982744768e+000,-1.90320527595919e+000

1.05560632861831e+005,-1.10663087638045e+000,-1.92977080708711e+000

1.07034204382888e+005,-1.10662166510997e+000,-1.95670710398932e+000

1.08528346195813e+005,-1.10661218590946e+000,-1.98401934037811e+000

1.10043345451179e+005,-1.10660243081702e+000,-2.01171276217585e+000

1.11579493308032e+005,-1.10659239162867e+000,-2.03979268852530e+000

1.13137084989847e+005,-1.10658205989062e+000,-2.06826451281596e+000

1.14716419841265e+005,-1.10657142689189e+000,-2.09713370372412e+000

1.16317801385624e+005,-1.10656048365618e+000,-2.12640580626804e+000

1.17941537383287e+005,-1.10654922093402e+000,-2.15608644287809e+000

1.19587939890794e+005,-1.10653762919418e+000,-2.18618131448298e+000

1.21257325320831e+005,-1.10652569861534e+000,-2.21669620161011e+000

1.22950014503040e+005,-1.10651341907706e+000,-2.24763696550322e+000

1.24666332745679e+005,-1.10650078015082e+000,-2.27900954925511e+000

1.26406609898139e+005,-1.10648777109075e+000,-2.31081997895638e+000

1.28171180414339e+005,-1.10647438082377e+000,-2.34307436486226e+000

1.29960383416997e+005,-1.10646059794022e+000,-2.37577890257400e+000

1.31774562762811e+005,-1.10644641068323e+000,-2.40893987423936e+000

1.33614067108538e+005,-1.10643180693865e+000,-2.44256364976919e+000

1.35479249978003e+005,-1.10641677422414e+000,-2.47665668807169e+000

1.37370469830040e+005,-1.10640129967852e+000,-2.51122553830446e+000

1.39288090127379e+005,-1.10638537005009e+000,-2.54627684114573e+000

1.41232479406504e+005,-1.10636897168542e+000,-2.58181733008198e+000

1.43204011348474e+005,-1.10635209051726e+000,-2.61785383271598e+000

1.45203064850745e+005,-1.10633471205250e+000,-2.65439327209250e+000

1.47230024099979e+005,-1.10631682135951e+000,-2.69144266804474e+000

1.49285278645888e+005,-1.10629840305551e+000,-2.72900913855842e+000

1.51369223476094e+005,-1.10627944129339e+000,-2.76709990115648e+000

1.53482259092041e+005,-1.10625991974791e+000,-2.80572227430522e+000

1.55624791585964e+005,-1.10623982160243e+000,-2.84488367883825e+000

1.57797232718936e+005,-1.10621912953426e+000,-2.88459163940330e+000

1.59999999999999e+005,-1.10619782570048e+000,-2.92485378592838e+000

1.62233516766403e+005,-1.10617589172282e+000,-2.96567785511140e+000

1.64498212264969e+005,-1.10615330867251e+000,-3.00707169192957e+000

1.66794521734578e+005,-1.10613005705478e+000,-3.04904325117044e+000

1.69122886489819e+005,-1.10610611679263e+000,-3.09160059898812e+000

1.71483754005805e+005,-1.10608146721074e+000,-3.13475191447850e+000

1.73877578004168e+005,-1.10605608701853e+000,-3.17850549127990e+000

1.76304818540256e+005,-1.10602995429301e+000,-3.22286973919599e+000

1.78765942091554e+005,-1.10600304646136e+000,-3.26785318584262e+000

1.81261421647326e+005,-1.10597534028276e+000,-3.31346447831879e+000

1.83791736799524e+005,-1.10594681183023e+000,-3.35971238490095e+000

1.86357373834951e+005,-1.10591743647162e+000,-3.40660579676414e+000

1.88958825828723e+005,-1.10588718885043e+000,-3.45415372972546e+000

1.91596592739027e+005,-1.10585604286620e+000,-3.50236532601498e+000

1.94271181503206e+005,-1.10582397165421e+000,-3.55124985607150e+000

1.96983106135185e+005,-1.10579094756505e+000,-3.60081672036452e+000

1.99732887824256e+005,-1.10575694214348e+000,-3.65107545124272e+000

2.02521055035243e+005,-1.10572192610669e+000,-3.70203571481027e+000

2.05348143610063e+005,-1.10568586932255e+000,-3.75370731282843e+000

2.08214696870707e+005,-1.10564874078700e+000,-3.80610018464613e+000

2.11121265723661e+005,-1.10561050860072e+000,-3.85922440915906e+000

2.14068408765776e+005,-1.10557113994591e+000,-3.91309020679558e+000

2.17056692391625e+005,-1.10553060106180e+000,-3.96770794153350e+000

2.20086690902357e+005,-1.10548885722032e+000,-4.02308812294346e+000

2.23158986616063e+005,-1.10544587270046e+000,-4.07924140826527e+000

2.26274169979693e+005,-1.10540161076276e+000,-4.13617860451122e+000

2.29432839682530e+005,-1.10535603362266e+000,-4.19391067060194e+000

2.32635602771247e+005,-1.10530910242351e+000,-4.25244871953223e+000

2.35883074766574e+005,-1.10526077720886e+000,-4.31180402056907e+000

2.39175879781588e+005,-1.10521101689409e+000,-4.37198800148043e+000

2.42514650641661e+005,-1.10515977923734e+000,-4.43301225079761e+000

2.45900029006080e+005,-1.10510702080986e+000,-4.49488852010906e+000

2.49332665491357e+005,-1.10505269696551e+000,-4.55762872638867e+000

2.52813219796278e+005,-1.10499676180957e+000,-4.62124495435697e+000

2.56342360828676e+005,-1.10493916816671e+000,-4.68574945887728e+000

2.59920766833993e+005,-1.10487986754847e+000,-4.75115466738561e+000

2.63549125525621e+005,-1.10481881011944e+000,-4.81747318235678e+000

2.67228134217075e+005,-1.10475594466295e+000,-4.88471778380645e+000

2.70958499956006e+005,-1.10469121854581e+000,-4.95290143182845e+000

2.74740939660078e+005,-1.10462457768215e+000,-5.02203726916983e+000

2.78576180254757e+005,-1.10455596649617e+000,-5.09213862384383e+000

2.82464958813007e+005,-1.10448532788422e+000,-5.16321901177967e+000

2.86408022696948e+005,-1.10441260317570e+000,-5.23529213951208e+000

2.90406129701488e+005,-1.10433773209281e+000,-5.30837190690998e+000

2.94460048199957e+005,-1.10426065270960e+000,-5.38247240994460e+000

2.98570557291775e+005,-1.10418130140960e+000,-5.45760794349886e+000

3.02738446952187e+005,-1.10409961284234e+000,-5.53379300421763e+000

3.06964518184081e+005,-1.10401551987899e+000,-5.61104229340000e+000

3.11249583171928e+005,-1.10392895356634e+000,-5.68937071993433e+000

3.15594465437872e+005,-1.10383984308008e+000,-5.76879340327652e+000

3.19999999999997e+005,-1.10374811567609e+000,-5.84932567647285e+000

3.24467033532806e+005,-1.10365369664113e+000,-5.93098308922705e+000

3.28996424529938e+005,-1.10355650924171e+000,-6.01378141101357e+000

3.33589043469155e+005,-1.10345647467159e+000,-6.09773663423754e+000

3.38245772979638e+005,-1.10335351199801e+000,-6.18286497744116e+000

3.42967508011610e+005,-1.10324753810639e+000,-6.26918288855920e+000

3.47755156008335e+005,-1.10313846764305e+000,-6.35670704822333e+000

3.52609637080511e+005,-1.10302621295719e+000,-6.44545437311611e+000

3.57531884183106e+005,-1.10291068404040e+000,-6.53544201937597e+000

3.62522843294651e+005,-1.10279178846505e+000,-6.62668738605414e+000

3.67583473599047e+005,-1.10266943132072e+000,-6.71920811862456e+000

3.72714747669902e+005,-1.10254351514890e+000,-6.81302211254688e+000

3.77917651657445e+005,-1.10241393987578e+000,-6.90814751688522e+000

3.83193185478053e+005,-1.10228060274359e+000,-7.00460273798175e+000

3.88542363006410e+005,-1.10214339823950e+000,-7.10240644318800e+000

3.93966212270369e+005,-1.10200221802289e+000,-7.20157756465400e+000

3.99465775648511e+005,-1.10185695085052e+000,-7.30213530317621e+000

4.05042110070485e+005,-1.10170748249986e+000,-7.40409913210603e+000

4.10696287220124e+005,-1.10155369568990e+000,-7.50748880132000e+000

4.16429393741414e+005,-1.10139547000032e+000,-7.61232434125225e+000

4.22242531447321e+005,-1.10123268178808e+000,-7.71862606699111e+000

4.28136817531551e+005,-1.10106520410219e+000,-7.82641458244076e+000

4.34113384783250e+005,-1.10089290659564e+000,-7.93571078454998e+000

4.40173381804713e+005,-1.10071565543564e+000,-8.04653586760755e+000

4.46317973232124e+005,-1.10053331321111e+000,-8.15891132760815e+000

4.52548339959385e+005,-1.10034573883772e+000,-8.27285896668769e+000

4.58865679365059e+005,-1.10015278746078e+000,-8.38840089763191e+000

4.65271205542494e+005,-1.09995431035537e+000,-8.50555954845689e+000

4.71766149533147e+005,-1.09975015482400e+000,-8.62435766706616e+000

4.78351759563174e+005,-1.09954016409170e+000,-8.74481832598289e+000

4.85029301283321e+005,-1.09932417719841e+000,-8.86696492716126e+000

4.91800058012158e+005,-1.09910202888882e+000,-8.99082120687692e+000

4.98665330982714e+005,-1.09887354949936e+000,-9.11641124069878e+000

5.05626439592555e+005,-1.09863856484243e+000,-9.24375944854403e+000

5.12684721657352e+005,-1.09839689608787e+000,-9.37289059981801e+000

5.19841533667984e+005,-1.09814835964169e+000,-9.50382981863998e+000

5.27098251051240e+005,-1.09789276702150e+000,-9.63660258915809e+000

5.34456268434150e+005,-1.09762992472968e+000,-9.77123476095375e+000

5.41916999912011e+005,-1.09735963412282e+000,-9.90775255453857e+000

