Freq.,VOut,OutRef

1.00000000000000e+004,-2.41509766929736e+001,-2.68914612564975e-001

1.01395947979003e+004,-2.41509793059104e+001,-2.72668140100867e-001

1.02811382665607e+004,-2.41509819922046e+001,-2.76474048788722e-001

1.04246576084112e+004,-2.41509847539125e+001,-2.80333069159496e-001

1.05701804056138e+004,-2.41509875931484e+001,-2.84245941910758e-001

1.07177346253629e+004,-2.41509905120851e+001,-2.88213418051980e-001

1.08673486252606e+004,-2.41509935129564e+001,-2.92236259043768e-001

1.10190511587661e+004,-2.41509965980587e+001,-2.96315236943089e-001

1.11728713807222e+004,-2.41509997697523e+001,-3.00451134550832e-001

1.13288388529580e+004,-2.41510030304635e+001,-3.04644745560276e-001

1.14869835499703e+004,-2.41510063826864e+001,-3.08896874705991e-001

1.16473358646846e+004,-2.41510098289844e+001,-3.13208337919360e-001

1.18099266142953e+004,-2.41510133719932e+001,-3.17579962478672e-001

1.19747870461893e+004,-2.41510170144211e+001,-3.22012587172706e-001

1.21419488439505e+004,-2.41510207590527e+001,-3.26507062451518e-001

1.23114441334492e+004,-2.41510246087500e+001,-3.31064250593956e-001

1.24833054890161e+004,-2.41510285664547e+001,-3.35685025868157e-001

1.26575659397028e+004,-2.41510326351909e+001,-3.40370274695385e-001

1.28342589756290e+004,-2.41510368180666e+001,-3.45120895821659e-001

1.30134185544193e+004,-2.41510411182766e+001,-3.49937800483302e-001

1.31950791077289e+004,-2.41510455391046e+001,-3.54821912583129e-001

1.33792755478611e+004,-2.41510500839260e+001,-3.59774168860742e-001

1.35660432744767e+004,-2.41510547562100e+001,-3.64795519072398e-001

1.37554181813974e+004,-2.41510595595226e+001,-3.69886926168803e-001

1.39474366635040e+004,-2.41510644975287e+001,-3.75049366478528e-001

1.41421356237309e+004,-2.41510695739956e+001,-3.80283829886701e-001

1.43395524801583e+004,-2.41510747927949e+001,-3.85591320029737e-001

1.45397251732031e+004,-2.41510801579064e+001,-3.90972854476186e-001

1.47426921729110e+004,-2.41510856734201e+001,-3.96429464923425e-001

1.49484924863494e+004,-2.41510913435401e+001,-4.01962197387874e-001

1.51571656651040e+004,-2.41510971725867e+001,-4.07572112405850e-001

1.53687518128801e+004,-2.41511031650009e+001,-4.13260285228070e-001

1.55832915932100e+004,-2.41511093253464e+001,-4.19027806024920e-001

1.58008262372675e+004,-2.41511156583140e+001,-4.24875780088323e-001

1.60213975517924e+004,-2.41511221687244e+001,-4.30805328040779e-001

1.62450479271247e+004,-2.41511288615319e+001,-4.36817586044793e-001

1.64718203453514e+004,-2.41511357418286e+001,-4.42913706013485e-001

1.67017583885674e+004,-2.41511428148471e+001,-4.49094855829955e-001

1.69349062472505e+004,-2.41511500859654e+001,-4.55362219561360e-001

1.71713087287550e+004,-2.41511575607102e+001,-4.61716997682283e-001

1.74110112659224e+004,-2.41511652447614e+001,-4.68160407298202e-001

1.76540599258131e+004,-2.41511731439558e+001,-4.74693682371148e-001

1.79005014185594e+004,-2.41511812642915e+001,-4.81318073953235e-001

1.81503831063432e+004,-2.41511896119329e+001,-4.88034850413525e-001

1.84037530124975e+004,-2.41511981932142e+001,-4.94845297679991e-001

1.86606598307361e+004,-2.41512070146446e+001,-5.01750719473643e-001

1.89211529345119e+004,-2.41512160829130e+001,-5.08752437553117e-001

1.91852823865052e+004,-2.41512254048929e+001,-5.15851791958845e-001

1.94530989482457e+004,-2.41512349876474e+001,-5.23050141260199e-001

1.97246540898671e+004,-2.41512448384337e+001,-5.30348862809406e-001

1.99999999999999e+004,-2.41512549647095e+001,-5.37749352993992e-001

2.02791895958005e+004,-2.41512653741374e+001,-5.45253027494516e-001

2.05622765331213e+004,-2.41512760745907e+001,-5.52861321547617e-001

2.08493152168224e+004,-2.41512870741594e+001,-5.60575690207296e-001

2.11403608112276e+004,-2.41512983811555e+001,-5.68397608617255e-001

2.14354692507258e+004,-2.41513100041194e+001,-5.76328572275568e-001

2.17346972505211e+004,-2.41513219518257e+001,-5.84370097316102e-001

2.20381023175322e+004,-2.41513342332896e+001,-5.92523720781084e-001

2.23457427614443e+004,-2.41513468577732e+001,-6.00791000905265e-001

2.26576777059159e+004,-2.41513598347923e+001,-6.09173517400853e-001

2.29739670999406e+004,-2.41513731741229e+001,-6.17672871744274e-001

2.32946717293690e+004,-2.41513868858084e+001,-6.26290687469501e-001

2.36198532285905e+004,-2.41514009801664e+001,-6.35028610463392e-001

2.39495740923785e+004,-2.41514154677960e+001,-6.43888309265843e-001

2.42838976879009e+004,-2.41514303595854e+001,-6.52871475371133e-001

2.46228882668982e+004,-2.41514456667196e+001,-6.61979823535038e-001

2.49666109780322e+004,-2.41514614006878e+001,-6.71215092085928e-001

2.53151318794055e+004,-2.41514775732918e+001,-6.80579043238775e-001

2.56685179512580e+004,-2.41514941966540e+001,-6.90073463412109e-001

2.60268371088386e+004,-2.41515112832260e+001,-6.99700163550018e-001

2.63901582154578e+004,-2.41515288457969e+001,-7.09460979448954e-001

2.67585510957221e+004,-2.41515468975022e+001,-7.19357772085742e-001

2.71320865489533e+004,-2.41515654518329e+001,-7.29392427952219e-001

2.75108363627948e+004,-2.41515845226447e+001,-7.39566859390965e-001

2.78948733270080e+004,-2.41516041241675e+001,-7.49883004938227e-001

2.82842712474618e+004,-2.41516242710148e+001,-7.60342829667738e-001

2.86791049603164e+004,-2.41516449781940e+001,-7.70948325541353e-001

2.90794503464061e+004,-2.41516662611160e+001,-7.81701511761920e-001

2.94853843458219e+004,-2.41516881356060e+001,-7.92604435129604e-001

2.98969849726987e+004,-2.41517106179139e+001,-8.03659170405476e-001

3.03143313302078e+004,-2.41517337247252e+001,-8.14867820675326e-001

3.07375036257601e+004,-2.41517574731716e+001,-8.26232517721397e-001

3.11665831864199e+004,-2.41517818808434e+001,-8.37755422393190e-001

3.16016524745350e+004,-2.41518069657996e+001,-8.49438724990069e-001

3.20427951035848e+004,-2.41518327465811e+001,-8.61284645639758e-001

3.24900958542493e+004,-2.41518592422219e+001,-8.73295434686780e-001

3.29436406907028e+004,-2.41518864722617e+001,-8.85473373083744e-001

3.34035167771346e+004,-2.41519144567584e+001,-8.97820772785601e-001

3.38698124945009e+004,-2.41519432163015e+001,-9.10339977149143e-001

3.43426174575100e+004,-2.41519727720243e+001,-9.23033361338119e-001

3.48220225318448e+004,-2.41520031456180e+001,-9.35903332730114e-001

3.53081198516260e+004,-2.41520343593452e+001,-9.48952331329414e-001

3.58010028371187e+004,-2.41520664360539e+001,-9.62182830184172e-001

3.63007662126863e+004,-2.41520993991917e+001,-9.75597335808107e-001

3.68075060249948e+004,-2.41521332728203e+001,-9.89198388605207e-001

3.73213196614721e+004,-2.41521680816301e+001,-1.00298856330118e+000

3.78423058690237e+004,-2.41522038509559e+001,-1.01697046937690e+000

3.83705647730104e+004,-2.41522406067918e+001,-1.03114675150741e+000

3.89061978964912e+004,-2.41522783758069e+001,-1.04552009000740e+000

3.94493081797342e+004,-2.41523171853613e+001,-1.06009320127617e+000

3.99999999999998e+004,-2.41523570635226e+001,-1.07486883825302e+000

4.05583791916010e+004,-2.41523980390820e+001,-1.08984979087212e+000

4.11245530662425e+004,-2.41524401415715e+001,-1.10503888652459e+000

4.16986304336447e+004,-2.41524834012808e+001,-1.12043899052570e+000

4.22807216224550e+004,-2.41525278492750e+001,-1.13605300658270e+000

4.28709385014515e+004,-2.41525735174117e+001,-1.15188387727238e+000

4.34693945010421e+004,-2.41526204383597e+001,-1.16793458452016e+000

4.40762046350642e+004,-2.41526686456166e+001,-1.18420815008256e+000

4.46914855228886e+004,-2.41527181735280e+001,-1.20070763603735e+000

4.53153554118317e+004,-2.41527690573057e+001,-1.21743614527644e+000

4.59479341998812e+004,-2.41528213330473e+001,-1.23439682200330e+000

4.65893434587380e+004,-2.41528750377550e+001,-1.25159285223547e+000

4.72397064571810e+004,-2.41529302093558e+001,-1.26902746431096e+000

4.78991481847569e+004,-2.41529868867210e+001,-1.28670392940064e+000

4.85677953758016e+004,-2.41530451096864e+001,-1.30462556202337e+000

4.92457765337964e+004,-2.41531049190727e+001,-1.32279572056672e+000

4.99332219560642e+004,-2.41531663567061e+001,-1.34121780781247e+000

5.06302637588109e+004,-2.41532294654392e+001,-1.35989527146548e+000

5.13370359025159e+004,-2.41532942891719e+001,-1.37883160468949e+000

5.20536742176771e+004,-2.41533608728723e+001,-1.39803034664534e+000

5.27803164309155e+004,-2.41534292625993e+001,-1.41749508303368e+000

5.35171021914442e+004,-2.41534995055226e+001,-1.43722944664507e+000

5.42641730979066e+004,-2.41535716499460e+001,-1.45723711791138e+000

5.50216727255895e+004,-2.41536457453280e+001,-1.47752182546465e+000

5.57897466540159e+004,-2.41537218423051e+001,-1.49808734669824e+000

5.65685424949235e+004,-2.41537999927129e+001,-1.51893750833446e+000

5.73582099206328e+004,-2.41538802496090e+001,-1.54007618699684e+000

5.81589006928121e+004,-2.41539626672956e+001,-1.56150730978554e+000

5.89707686916437e+004,-2.41540473013408e+001,-1.58323485486068e+000

5.97939699453972e+004,-2.41541342086024e+001,-1.60526285202659e+000

6.06286626604156e+004,-2.41542234472496e+001,-1.62759538332508e+000

6.14750072515201e+004,-2.41543150767855e+001,-1.65023658363042e+000

6.23331663728396e+004,-2.41544091580699e+001,-1.67319064125080e+000

6.32033049490698e+004,-2.41545057533412e+001,-1.69646179853648e+000

6.40855902071694e+004,-2.41546049262390e+001,-1.72005435248900e+000

6.49801917084985e+004,-2.41547067418264e+001,-1.74397265538001e+000

6.58872813814055e+004,-2.41548112666113e+001,-1.76822111537340e+000

6.68070335542691e+004,-2.41549185685691e+001,-1.79280419715297e+000

6.77396249890018e+004,-2.41550287171637e+001,-1.81772642255649e+000

6.86852349150199e+004,-2.41551417833691e+001,-1.84299237121475e+000

6.96440450636895e+004,-2.41552578396903e+001,-1.86860668119677e+000

7.06162397032520e+004,-2.41553769601842e+001,-1.89457404966253e+000

7.16020056742374e+004,-2.41554992204798e+001,-1.92089923351889e+000

7.26015324253724e+004,-2.41556246977982e+001,-1.94758705008506e+000

7.36150120499896e+004,-2.41557534709721e+001,-1.97464237776402e+000

7.46426393229441e+004,-2.41558856204647e+001,-2.00207015671838e+000

7.56846117380472e+004,-2.41560212283884e+001,-2.02987538955753e+000

7.67411295460207e+004,-2.41561603785223e+001,-2.05806314202927e+000

7.78123957929823e+004,-2.41563031563294e+001,-2.08663854372014e+000

7.88986163594682e+004,-2.41564496489738e+001,-2.11560678876372e+000

7.99999999999995e+004,-2.41565999453356e+001,-2.14497313655759e+000

8.11167583832018e+004,-2.41567541360263e+001,-2.17474291248931e+000

8.22491061324848e+004,-2.41569123134033e+001,-2.20492150867048e+000

8.33972608672892e+004,-2.41570745715828e+001,-2.23551438468153e+000

8.45614432449099e+004,-2.41572410064519e+001,-2.26652706832660e+000

8.57418770029029e+004,-2.41574117156807e+001,-2.29796515639909e+000

8.69387890020841e+004,-2.41575867987321e+001,-2.32983431545634e+000

8.81524092701283e+004,-2.41577663568710e+001,-2.36214028260982e+000

8.93829710457770e+004,-2.41579504931728e+001,-2.39488886632326e+000

9.06307108236633e+004,-2.41581393125299e+001,-2.42808594722804e+000

9.18958683997622e+004,-2.41583329216577e+001,-2.46173747894868e+000

9.31786869174758e+004,-2.41585314290985e+001,-2.49584948894420e+000

9.44794129143618e+004,-2.41587349452252e+001,-2.53042807936506e+000

9.57982963695136e+004,-2.41589435822423e+001,-2.56547942792456e+000

9.71355907516031e+004,-2.41591574541868e+001,-2.60100978878860e+000

9.84915530675926e+004,-2.41593766769266e+001,-2.63702549348165e+000

9.98664439121282e+004,-2.41596013681578e+001,-2.67353295181210e+000

1.01260527517622e+005,-2.41598316474009e+001,-2.71053865281727e+000

1.02674071805032e+005,-2.41600676359948e+001,-2.74804916572810e+000

1.04107348435354e+005,-2.41603094570894e+001,-2.78607114095701e+000

1.05560632861831e+005,-2.41605572356373e+001,-2.82461131110680e+000

1.07034204382888e+005,-2.41608110983826e+001,-2.86367649200524e+000

1.08528346195813e+005,-2.41610711738496e+001,-2.90327358376333e+000

1.10043345451179e+005,-2.41613375923289e+001,-2.94340957186095e+000

1.11579493308032e+005,-2.41616104858623e+001,-2.98409152826065e+000

1.13137084989847e+005,-2.41618899882257e+001,-3.02532661254946e+000

1.14716419841265e+005,-2.41621762349120e+001,-3.06712207311166e+000

1.16317801385624e+005,-2.41624693631102e+001,-3.10948524833415e+000

1.17941537383287e+005,-2.41627695116852e+001,-3.15242356784475e+000

1.19587939890794e+005,-2.41630768211548e+001,-3.19594455378566e+000

1.21257325320831e+005,-2.41633914336665e+001,-3.24005582212365e+000

1.22950014503040e+005,-2.41637134929723e+001,-3.28476508399772e+000

1.24666332745679e+005,-2.41640431444029e+001,-3.33008014710823e+000

1.26406609898139e+005,-2.41643805348406e+001,-3.37600891714569e+000

1.28171180414339e+005,-2.41647258126918e+001,-3.42255939926347e+000

1.29960383416997e+005,-2.41650791278585e+001,-3.46973969959598e+000

1.31774562762811e+005,-2.41654406317091e+001,-3.51755802682229e+000

1.33614067108538e+005,-2.41658104770495e+001,-3.56602269377863e+000

1.35479249978003e+005,-2.41661888180933e+001,-3.61514211912119e+000

1.37370469830040e+005,-2.41665758104332e+001,-3.66492482903899e+000

1.39288090127379e+005,-2.41669716110110e+001,-3.71537945902302e+000

1.41232479406504e+005,-2.41673763780900e+001,-3.76651475568701e+000

1.43204011348474e+005,-2.41677902712271e+001,-3.81833957864725e+000

1.45203064850745e+005,-2.41682134512463e+001,-3.87086290246004e+000

1.47230024099979e+005,-2.41686460802141e+001,-3.92409381861870e+000

1.49285278645888e+005,-2.41690883214163e+001,-3.97804153761089e+000

1.51369223476094e+005,-2.41695403393368e+001,-4.03271539104128e+000

1.53482259092041e+005,-2.41700022996394e+001,-4.08812483381504e+000

1.55624791585964e+005,-2.41704743691527e+001,-4.14427944638940e+000

1.57797232718936e+005,-2.41709567158573e+001,-4.20118893708862e+000

1.59999999999999e+005,-2.41714495088784e+001,-4.25886314448971e+000

1.62233516766403e+005,-2.41719529184812e+001,-4.31731203987323e+000

1.64498212264969e+005,-2.41724671160719e+001,-4.37654572974616e+000

1.66794521734578e+005,-2.41729922742038e+001,-4.43657445843144e+000

1.69122886489819e+005,-2.41735285665890e+001,-4.49740861073078e+000

1.71483754005805e+005,-2.41740761681165e+001,-4.55905871465479e+000

1.73877578004168e+005,-2.41746352548771e+001,-4.62153544422659e+000

1.76304818540256e+005,-2.41752060041957e+001,-4.68484962235378e+000

1.78765942091554e+005,-2.41757885946717e+001,-4.74901222377147e+000

1.81261421647326e+005,-2.41763832062274e+001,-4.81403437805570e+000

1.83791736799524e+005,-2.41769900201662e+001,-4.87992737270410e+000

1.86357373834951e+005,-2.41776092192401e+001,-4.94670265628668e+000

1.88958825828723e+005,-2.41782409877275e+001,-5.01437184166162e+000

1.91596592739027e+005,-2.41788855115222e+001,-5.08294670925857e+000

1.94271181503206e+005,-2.41795429782331e+001,-5.15243921042420e+000

1.96983106135185e+005,-2.41802135772972e+001,-5.22286147083013e+000

1.99732887824256e+005,-2.41808975001041e+001,-5.29422579394124e+000

2.02521055035243e+005,-2.41815949401339e+001,-5.36654466454134e+000

2.05348143610063e+005,-2.41823060931099e+001,-5.43983075231214e+000

2.08214696870707e+005,-2.41830311571640e+001,-5.51409691546687e+000

2.11121265723661e+005,-2.41837703330181e+001,-5.58935620442960e+000

2.14068408765776e+005,-2.41845238241806e+001,-5.66562186556244e+000

2.17056692391625e+005,-2.41852918371582e+001,-5.74290734493260e+000

2.20086690902357e+005,-2.41860745816846e+001,-5.82122629211826e+000

2.23158986616063e+005,-2.41868722709653e+001,-5.90059256404923e+000

2.26274169979693e+005,-2.41876851219403e+001,-5.98102022887418e+000

2.29432839682530e+005,-2.41885133555629e+001,-6.06252356985696e+000

2.32635602771247e+005,-2.41893571970974e+001,-6.14511708929016e+000

2.35883074766574e+005,-2.41902168764342e+001,-6.22881551242677e+000

2.39175879781588e+005,-2.41910926284233e+001,-6.31363379142143e+000

2.42514650641661e+005,-2.41919846932260e+001,-6.39958710927801e+000

2.45900029006080e+005,-2.41928933166852e+001,-6.48669088379884e+000

2.49332665491357e+005,-2.41938187507146e+001,-6.57496077152765e+000

2.52813219796278e+005,-2.41947612537060e+001,-6.66441267168567e+000

2.56342360828676e+005,-2.41957210909559e+001,-6.75506273009081e+000

2.59920766833993e+005,-2.41966985351099e+001,-6.84692734305851e+000

2.63549125525621e+005,-2.41976938666266e+001,-6.94002316127624e+000

2.67228134217075e+005,-2.41987073742587e+001,-7.03436709364916e+000

2.70958499956006e+005,-2.41997393555532e+001,-7.12997631111009e+000

2.74740939660078e+005,-2.42007901173689e+001,-7.22686825038905e+000

2.78576180254757e+005,-2.42018599764115e+001,-7.32506061773874e+000

2.82464958813007e+005,-2.42029492597864e+001,-7.42457139261074e+000

2.86408022696948e+005,-2.42040583055676e+001,-7.52541883127721e+000

2.90406129701488e+005,-2.42051874633839e+001,-7.62762147039533e+000

2.94460048199957e+005,-2.42063370950202e+001,-7.73119813051026e+000

2.98570557291775e+005,-2.42075075750349e+001,-7.83616791949150e+000

3.02738446952187e+005,-2.42086992913922e+001,-7.94255023590135e+000

3.06964518184081e+005,-2.42099126461085e+001,-8.05036477229136e+000

3.11249583171928e+005,-2.42111480559128e+001,-8.15963151842248e+000

3.15594465437872e+005,-2.42124059529206e+001,-8.27037076441029e+000

3.19999999999997e+005,-2.42136867853199e+001,-8.38260310378860e+000

3.24467033532806e+005,-2.42149910180701e+001,-8.49634943649252e+000

3.28996424529938e+005,-2.42163191336114e+001,-8.61163097175895e+000

3.33589043469155e+005,-2.42176716325856e+001,-8.72846923094238e+000

3.38245772979638e+005,-2.42190490345674e+001,-8.84688605024600e+000

3.42967508011610e+005,-2.42204518788043e+001,-8.96690358336763e+000

3.47755156008335e+005,-2.42218807249667e+001,-9.08854430405937e+000

3.52609637080511e+005,-2.42233361539059e+001,-9.21183100860198e+000

3.57531884183106e+005,-2.42248187684196e+001,-9.33678681819501e+000

3.62522843294651e+005,-2.42263291940262e+001,-9.46343518125977e+000

3.67583473599047e+005,-2.42278680797446e+001,-9.59179987566164e+000

3.72714747669902e+005,-2.42294360988813e+001,-9.72190501084824e+000

3.77917651657445e+005,-2.42310339498234e+001,-9.85377502990674e+000

3.83193185478053e+005,-2.42326623568371e+001,-9.98743471154167e+000

3.88542363006410e+005,-2.42343220708720e+001,-1.01229091719751e+001

3.93966212270369e+005,-2.42360138703703e+001,-1.02602238667708e+001

3.99465775648511e+005,-2.42377385620808e+001,-1.03994045925843e+001

4.05042110070485e+005,-2.42394969818775e+001,-1.05404774888404e+001

4.10696287220124e+005,-2.42412899955832e+001,-1.06834690393423e+001

4.16429393741414e+005,-2.42431184997972e+001,-1.08284060738115e+001

4.22242531447321e+005,-2.42449834227273e+001,-1.09753157693630e+001

4.28136817531551e+005,-2.42468857250266e+001,-1.11242256519159e+001

4.34113384783250e+005,-2.42488264006347e+001,-1.12751635975436e+001

4.40173381804713e+005,-2.42508064776237e+001,-1.14281578337630e+001

4.46317973232124e+005,-2.42528270190481e+001,-1.15832369407664e+001

4.52548339959385e+005,-2.42548891238014e+001,-1.17404298525965e+001

4.58865679365059e+005,-2.42569939274761e+001,-1.18997658582660e+001

4.65271205542494e+005,-2.42591426032307e+001,-1.20612746028236e+001

4.71766149533147e+005,-2.42613363626618e+001,-1.22249860883667e+001

4.78351759563174e+005,-2.42635764566826e+001,-1.23909306750014e+001

4.85029301283321e+005,-2.42658641764085e+001,-1.25591390817499e+001

4.91800058012158e+005,-2.42682008540494e+001,-1.27296423874061e+001

4.98665330982714e+005,-2.42705878638092e+001,-1.29024720313385e+001

5.05626439592555e+005,-2.42730266227949e+001,-1.30776598142397e+001

5.12684721657352e+005,-2.42755185919320e+001,-1.32552378988209e+001

5.19841533667984e+005,-2.42780652768912e+001,-1.34352388104519e+001

5.27098251051240e+005,-2.42806682290233e+001,-1.36176954377421e+001

5.34456268434150e+005,-2.42833290463046e+001,-1.38026410330620e+001

5.41916999912011e+005,-2.42860493742935e+001,-1.39901092130027e+001

