Freq.,VOut,OutRef

1.00000000000000e+004,-2.89211959251660e+001,-9.32477738327646e-002

1.01395947979003e+004,-2.89211967036688e+001,-9.45493234156868e-002

1.02811382665607e+004,-2.89211975040194e+001,-9.58690359824755e-002

1.04246576084112e+004,-2.89211983268303e+001,-9.72071648243959e-002

1.05701804056138e+004,-2.89211991727303e+001,-9.85639667598240e-002

1.07177346253629e+004,-2.89212000423663e+001,-9.99397021798558e-002

1.08673486252606e+004,-2.89212009364027e+001,-1.01334635101294e-001

1.10190511587661e+004,-2.89212018555231e+001,-1.02749033210609e-001

1.11728713807222e+004,-2.89212028004295e+001,-1.04183167922329e-001

1.13288388529580e+004,-2.89212037718439e+001,-1.05637314424046e-001

1.14869835499703e+004,-2.89212047705084e+001,-1.07111751730559e-001

1.16473358646846e+004,-2.89212057971855e+001,-1.08606762740541e-001

1.18099266142953e+004,-2.89212068526592e+001,-1.10122634284167e-001

1.19747870461893e+004,-2.89212079377352e+001,-1.11659657180894e-001

1.21419488439505e+004,-2.89212090532419e+001,-1.13218126292654e-001

1.23114441334492e+004,-2.89212102000303e+001,-1.14798340582666e-001

1.24833054890161e+004,-2.89212113789756e+001,-1.16400603167765e-001

1.26575659397028e+004,-2.89212125909768e+001,-1.18025221380843e-001

1.28342589756290e+004,-2.89212138369584e+001,-1.19672506822247e-001

1.30134185544193e+004,-2.89212151178701e+001,-1.21342775426157e-001

1.31950791077289e+004,-2.89212164346887e+001,-1.23036347511125e-001

1.33792755478611e+004,-2.89212177884174e+001,-1.24753547851451e-001

1.35660432744767e+004,-2.89212191800878e+001,-1.26494705728846e-001

1.37554181813974e+004,-2.89212206107598e+001,-1.28260154998490e-001

1.39474366635040e+004,-2.89212220815230e+001,-1.30050234153353e-001

1.41421356237309e+004,-2.89212235934969e+001,-1.31865286384958e-001

1.43395524801583e+004,-2.89212251478324e+001,-1.33705659649171e-001

1.45397251732031e+004,-2.89212267457122e+001,-1.35571706731487e-001

1.47426921729110e+004,-2.89212283883516e+001,-1.37463785313348e-001

1.49484924863494e+004,-2.89212300769998e+001,-1.39382258039268e-001

1.51571656651040e+004,-2.89212318129403e+001,-1.41327492586382e-001

1.53687518128801e+004,-2.89212335974926e+001,-1.43299861728805e-001

1.55832915932100e+004,-2.89212354320124e+001,-1.45299743411781e-001

1.58008262372675e+004,-2.89212373178929e+001,-1.47327520822958e-001

1.60213975517924e+004,-2.89212392565658e+001,-1.49383582459806e-001

1.62450479271247e+004,-2.89212412495023e+001,-1.51468322206765e-001

1.64718203453514e+004,-2.89212432982147e+001,-1.53582139403496e-001

1.67017583885674e+004,-2.89212454042562e+001,-1.55725438927397e-001

1.69349062472505e+004,-2.89212475692239e+001,-1.57898631259436e-001

1.71713087287550e+004,-2.89212497947578e+001,-1.60102132569805e-001

1.74110112659224e+004,-2.89212520825441e+001,-1.62336364787986e-001

1.76540599258131e+004,-2.89212544343149e+001,-1.64601755685575e-001

1.79005014185594e+004,-2.89212568518499e+001,-1.66898738955466e-001

1.81503831063432e+004,-2.89212593369783e+001,-1.69227754289252e-001

1.84037530124975e+004,-2.89212618915789e+001,-1.71589247464382e-001

1.86606598307361e+004,-2.89212645175826e+001,-1.73983670420527e-001

1.89211529345119e+004,-2.89212672169734e+001,-1.76411481346061e-001

1.91852823865052e+004,-2.89212699917893e+001,-1.78873144764420e-001

1.94530989482457e+004,-2.89212728441244e+001,-1.81369131618594e-001

1.97246540898671e+004,-2.89212757761304e+001,-1.83899919356081e-001

1.99999999999999e+004,-2.89212787900175e+001,-1.86465992019257e-001

2.02791895958005e+004,-2.89212818880568e+001,-1.89067840334051e-001

2.05622765331213e+004,-2.89212850725811e+001,-1.91705961800692e-001

2.08493152168224e+004,-2.89212883459872e+001,-1.94380860783649e-001

2.11403608112276e+004,-2.89212917107372e+001,-1.97093048603978e-001

2.14354692507258e+004,-2.89212951693604e+001,-1.99843043635803e-001

2.17346972505211e+004,-2.89212987244551e+001,-2.02631371396507e-001

2.20381023175322e+004,-2.89213023786901e+001,-2.05458564649275e-001

2.23457427614443e+004,-2.89213061348069e+001,-2.08325163494405e-001

2.26576777059159e+004,-2.89213099956218e+001,-2.11231715468322e-001

2.29739670999406e+004,-2.89213139640270e+001,-2.14178775648650e-001

2.32946717293690e+004,-2.89213180429936e+001,-2.17166906748153e-001

2.36198532285905e+004,-2.89213222355729e+001,-2.20196679221527e-001

2.39495740923785e+004,-2.89213265448992e+001,-2.23268671364565e-001

2.42838976879009e+004,-2.89213309741908e+001,-2.26383469426446e-001

2.46228882668982e+004,-2.89213355267537e+001,-2.29541667704257e-001

2.49666109780322e+004,-2.89213402059825e+001,-2.32743868661077e-001

2.53151318794055e+004,-2.89213450153636e+001,-2.35990683026972e-001

2.56685179512580e+004,-2.89213499584772e+001,-2.39282729911162e-001

2.60268371088386e+004,-2.89213550389993e+001,-2.42620636915538e-001

2.63901582154578e+004,-2.89213602607051e+001,-2.46005040242912e-001

2.67585510957221e+004,-2.89213656274706e+001,-2.49436584812780e-001

2.71320865489533e+004,-2.89213711432758e+001,-2.52915924375452e-001

2.75108363627948e+004,-2.89213768122071e+001,-2.56443721628117e-001

2.78948733270080e+004,-2.89213826384596e+001,-2.60020648336174e-001

2.82842712474618e+004,-2.89213886263405e+001,-2.63647385446430e-001

2.86791049603164e+004,-2.89213947802716e+001,-2.67324623211834e-001

2.90794503464061e+004,-2.89214011047922e+001,-2.71053061310865e-001

2.94853843458219e+004,-2.89214076045617e+001,-2.74833408972295e-001

2.98969849726987e+004,-2.89214142843633e+001,-2.78666385098930e-001

3.03143313302078e+004,-2.89214211491062e+001,-2.82552718394041e-001

3.07375036257601e+004,-2.89214282038296e+001,-2.86493147487100e-001

3.11665831864199e+004,-2.89214354537051e+001,-2.90488421064970e-001

3.16016524745350e+004,-2.89214429040400e+001,-2.94539298001507e-001

3.20427951035848e+004,-2.89214505602815e+001,-2.98646547487038e-001

3.24900958542493e+004,-2.89214584280188e+001,-3.02810949164419e-001

3.29436406907028e+004,-2.89214665129876e+001,-3.07033293260737e-001

3.34035167771346e+004,-2.89214748210727e+001,-3.11314380727116e-001

3.38698124945009e+004,-2.89214833583123e+001,-3.15655023370949e-001

3.43426174575100e+004,-2.89214921309011e+001,-3.20056043999748e-001

3.48220225318448e+004,-2.89215011451945e+001,-3.24518276557116e-001

3.53081198516260e+004,-2.89215104077118e+001,-3.29042566267996e-001

3.58010028371187e+004,-2.89215199251404e+001,-3.33629769781000e-001

3.63007662126863e+004,-2.89215297043396e+001,-3.38280755311461e-001

3.68075060249948e+004,-2.89215397523445e+001,-3.42996402789695e-001

3.73213196614721e+004,-2.89215500763698e+001,-3.47777604008700e-001

3.78423058690237e+004,-2.89215606838147e+001,-3.52625262769923e-001

3.83705647730104e+004,-2.89215715822659e+001,-3.57540295040429e-001

3.89061978964912e+004,-2.89215827795028e+001,-3.62523629097210e-001

3.94493081797342e+004,-2.89215942835008e+001,-3.67576205689442e-001

3.99999999999998e+004,-2.89216061024367e+001,-3.72698978184773e-001

4.05583791916010e+004,-2.89216182446923e+001,-3.77892912733633e-001

4.11245530662425e+004,-2.89216307188593e+001,-3.83158988421324e-001

4.16986304336447e+004,-2.89216435337431e+001,-3.88498197432838e-001

4.22807216224550e+004,-2.89216566983684e+001,-3.93911545210692e-001

4.28709385014515e+004,-2.89216702219828e+001,-3.99400050618769e-001

4.34693945010421e+004,-2.89216841140623e+001,-4.04964746105213e-001

4.40762046350642e+004,-2.89216983843152e+001,-4.10606677870699e-001

4.46914855228886e+004,-2.89217130426876e+001,-4.16326906033146e-001

4.53153554118317e+004,-2.89217280993672e+001,-4.22126504798604e-001

4.59479341998812e+004,-2.89217435647896e+001,-4.28006562627420e-001

4.65893434587380e+004,-2.89217594496415e+001,-4.33968182411951e-001

4.72397064571810e+004,-2.89217757648668e+001,-4.40012481644184e-001

4.78991481847569e+004,-2.89217925216710e+001,-4.46140592593903e-001

4.85677953758016e+004,-2.89218097315262e+001,-4.52353662483043e-001

4.92457765337964e+004,-2.89218274061758e+001,-4.58652853665054e-001

4.99332219560642e+004,-2.89218455576402e+001,-4.65039343802290e-001

5.06302637588109e+004,-2.89218641982208e+001,-4.71514326047632e-001

5.13370359025159e+004,-2.89218833405057e+001,-4.78079009227245e-001

5.20536742176771e+004,-2.89219029973744e+001,-4.84734618023519e-001

5.27803164309155e+004,-2.89219231820026e+001,-4.91482393160850e-001

5.35171021914442e+004,-2.89219439078674e+001,-4.98323591591749e-001

5.42641730979066e+004,-2.89219651887518e+001,-5.05259486686400e-001

5.50216727255895e+004,-2.89219870387502e+001,-5.12291368421575e-001

5.57897466540159e+004,-2.89220094722724e+001,-5.19420543571478e-001

5.65685424949235e+004,-2.89220325040492e+001,-5.26648335902686e-001

5.73582099206328e+004,-2.89220561491362e+001,-5.33976086367260e-001

5.81589006928121e+004,-2.89220804229193e+001,-5.41405153298434e-001

5.89707686916437e+004,-2.89221053411186e+001,-5.48936912609663e-001

5.97939699453972e+004,-2.89221309197930e+001,-5.56572757993005e-001

6.06286626604156e+004,-2.89221571753449e+001,-5.64314101120322e-001

6.14750072515201e+004,-2.89221841245238e+001,-5.72162371845634e-001

6.23331663728396e+004,-2.89222117844307e+001,-5.80119018410393e-001

6.32033049490698e+004,-2.89222401725222e+001,-5.88185507647590e-001

6.40855902071694e+004,-2.89222693066139e+001,-5.96363325191416e-001

6.49801917084985e+004,-2.89222992048843e+001,-6.04653975684500e-001

6.58872813814055e+004,-2.89223298858779e+001,-6.13058982992184e-001

6.68070335542691e+004,-2.89223613685088e+001,-6.21579890412577e-001

6.77396249890018e+004,-2.89223936720631e+001,-6.30218260894087e-001

6.86852349150199e+004,-2.89224268162023e+001,-6.38975677249455e-001

6.96440450636895e+004,-2.89224608209652e+001,-6.47853742378268e-001

7.06162397032520e+004,-2.89224957067705e+001,-6.56854079484852e-001

7.16020056742374e+004,-2.89225314944182e+001,-6.65978332303999e-001

7.26015324253724e+004,-2.89225682050918e+001,-6.75228165324117e-001

7.36150120499896e+004,-2.89226058603592e+001,-6.84605264016180e-001

7.46426393229441e+004,-2.89226444821732e+001,-6.94111335064247e-001

7.56846117380472e+004,-2.89226840928728e+001,-7.03748106595970e-001

7.67411295460207e+004,-2.89227247151827e+001,-7.13517328420424e-001

7.78123957929823e+004,-2.89227663722131e+001,-7.23420772264455e-001

7.88986163594682e+004,-2.89228090874588e+001,-7.33460232013312e-001

7.99999999999995e+004,-2.89228528847983e+001,-7.43637523954826e-001

8.11167583832018e+004,-2.89228977884917e+001,-7.53954487026622e-001

8.22491061324848e+004,-2.89229438231786e+001,-7.64412983064329e-001

8.33972608672892e+004,-2.89229910138748e+001,-7.75014897058525e-001

8.45614432449099e+004,-2.89230393859696e+001,-7.85762137407554e-001

8.57418770029029e+004,-2.89230889652214e+001,-7.96656636183111e-001

8.69387890020841e+004,-2.89231397777531e+001,-8.07700349390640e-001

8.81524092701283e+004,-2.89231918500466e+001,-8.18895257243123e-001

8.93829710457770e+004,-2.89232452089373e+001,-8.30243364430820e-001

9.06307108236633e+004,-2.89232998816070e+001,-8.41746700402572e-001

9.18958683997622e+004,-2.89233558955769e+001,-8.53407319648044e-001

9.31786869174758e+004,-2.89234132786989e+001,-8.65227301985314e-001

9.44794129143618e+004,-2.89234720591474e+001,-8.77208752858500e-001

9.57982963695136e+004,-2.89235322654087e+001,-8.89353803634289e-001

9.71355907516031e+004,-2.89235939262715e+001,-9.01664611910777e-001

9.84915530675926e+004,-2.89236570708144e+001,-9.14143361829648e-001

9.98664439121282e+004,-2.89237217283945e+001,-9.26792264395023e-001

1.01260527517622e+005,-2.89237879286337e+001,-9.39613557802968e-001

1.02674071805032e+005,-2.89238557014051e+001,-9.52609507773998e-001

1.04107348435354e+005,-2.89239250768177e+001,-9.65782407897837e-001

1.05560632861831e+005,-2.89239960852006e+001,-9.79134579984180e-001

1.07034204382888e+005,-2.89240687570860e+001,-9.92668374424820e-001

1.08528346195813e+005,-2.89241431231918e+001,-1.00638617056051e+000

1.10043345451179e+005,-2.89242192144023e+001,-1.02029037706601e+000

1.11579493308032e+005,-2.89242970617488e+001,-1.03438343233674e+000

1.13137084989847e+005,-2.89243766963887e+001,-1.04866780489286e+000

1.14716419841265e+005,-2.89244581495840e+001,-1.06314599379171e+000

1.16317801385624e+005,-2.89245414526784e+001,-1.07782052905442e+000

1.17941537383287e+005,-2.89246266370739e+001,-1.09269397210365e+000

1.19587939890794e+005,-2.89247137342061e+001,-1.10776891621613e+000

1.21257325320831e+005,-2.89248027755185e+001,-1.12304798698847e+000

1.22950014503040e+005,-2.89248937924367e+001,-1.13853384281609e+000

1.24666332745679e+005,-2.89249868163406e+001,-1.15422917539238e+000

1.26406609898139e+005,-2.89250818785364e+001,-1.17013671021773e+000

1.28171180414339e+005,-2.89251790102277e+001,-1.18625920712820e+000

1.29960383416997e+005,-2.89252782424859e+001,-1.20259946084274e+000

1.31774562762811e+005,-2.89253796062195e+001,-1.21916030152639e+000

1.33614067108538e+005,-2.89254831321432e+001,-1.23594459537151e+000

1.35479249978003e+005,-2.89255888507463e+001,-1.25295524520039e+000

1.37370469830040e+005,-2.89256967922601e+001,-1.27019519108760e+000

1.39288090127379e+005,-2.89258069866258e+001,-1.28766741100152e+000

1.41232479406504e+005,-2.89259194634606e+001,-1.30537492146794e+000

1.43204011348474e+005,-2.89260342520253e+001,-1.32332077825792e+000

1.45203064850745e+005,-2.89261513811900e+001,-1.34150807709377e+000

1.47230024099979e+005,-2.89262708794008e+001,-1.35993995438303e+000

1.49285278645888e+005,-2.89263927746461e+001,-1.37861958797424e+000

1.51369223476094e+005,-2.89265170944232e+001,-1.39755019793659e+000

1.53482259092041e+005,-2.89266438657049e+001,-1.41673504736597e+000

1.55624791585964e+005,-2.89267731149068e+001,-1.43617744321729e+000

1.57797232718936e+005,-2.89269048678551e+001,-1.45588073716030e+000

1.59999999999999e+005,-2.89270391497549e+001,-1.47584832646548e+000

1.62233516766403e+005,-2.89271759851596e+001,-1.49608365491374e+000

1.64498212264969e+005,-2.89273153979409e+001,-1.51659021373614e+000

1.66794521734578e+005,-2.89274574112604e+001,-1.53737154257940e+000

1.69122886489819e+005,-2.89276020475423e+001,-1.55843123050104e+000

1.71483754005805e+005,-2.89277493284479e+001,-1.57977291699200e+000

1.73877578004168e+005,-2.89278992748512e+001,-1.60140029302632e+000

1.76304818540256e+005,-2.89280519068171e+001,-1.62331710214183e+000

1.78765942091554e+005,-2.89282072435814e+001,-1.64552714154699e+000

1.81261421647326e+005,-2.89283653035328e+001,-1.66803426325745e+000

1.83791736799524e+005,-2.89285261041979e+001,-1.69084237526000e+000

1.86357373834951e+005,-2.89286896622283e+001,-1.71395544270498e+000

1.88958825828723e+005,-2.89288559933913e+001,-1.73737748912588e+000

1.91596592739027e+005,-2.89290251125629e+001,-1.76111259768587e+000

1.94271181503206e+005,-2.89291970337246e+001,-1.78516491245299e+000

1.96983106135185e+005,-2.89293717699636e+001,-1.80953863969822e+000

1.99732887824256e+005,-2.89295493334762e+001,-1.83423804922218e+000

2.02521055035243e+005,-2.89297297355759e+001,-1.85926747570418e+000

2.05348143610063e+005,-2.89299129867048e+001,-1.88463132007722e+000

2.08214696870707e+005,-2.89300990964494e+001,-1.91033405092440e+000

2.11121265723661e+005,-2.89302880735611e+001,-1.93638020589644e+000

2.14068408765776e+005,-2.89304799259807e+001,-1.96277439315385e+000

2.17056692391625e+005,-2.89306746608682e+001,-1.98952129282392e+000

2.20086690902357e+005,-2.89308722846368e+001,-2.01662565847886e+000

2.23158986616063e+005,-2.89310728029924e+001,-2.04409231863111e+000

2.26274169979693e+005,-2.89312762209778e+001,-2.07192617824268e+000

2.29432839682530e+005,-2.89314825430226e+001,-2.10013222024958e+000

2.32635602771247e+005,-2.89316917729972e+001,-2.12871550709942e+000

2.35883074766574e+005,-2.89319039142737e+001,-2.15768118229876e+000

2.39175879781588e+005,-2.89321189697913e+001,-2.18703447197064e+000

2.42514650641661e+005,-2.89323369421267e+001,-2.21678068642014e+000

2.45900029006080e+005,-2.89325578335709e+001,-2.24692522170602e+000

2.49332665491357e+005,-2.89327816462109e+001,-2.27747356121591e+000

2.52813219796278e+005,-2.89330083820167e+001,-2.30843127724568e+000

2.56342360828676e+005,-2.89332380429343e+001,-2.33980403257858e+000

2.59920766833993e+005,-2.89334706309833e+001,-2.37159758206452e+000

2.63549125525621e+005,-2.89337061483599e+001,-2.40381777419837e+000

2.67228134217075e+005,-2.89339445975456e+001,-2.43647055269087e+000

2.70958499956006e+005,-2.89341859814202e+001,-2.46956195803789e+000

2.74740939660078e+005,-2.89344303033799e+001,-2.50309812908201e+000

2.78576180254757e+005,-2.89346775674609e+001,-2.53708530456274e+000

2.82464958813007e+005,-2.89349277784660e+001,-2.57152982466258e+000

2.86408022696948e+005,-2.89351809420971e+001,-2.60643813253682e+000

2.90406129701488e+005,-2.89354370650915e+001,-2.64181677583434e+000

2.94460048199957e+005,-2.89356961553612e+001,-2.67767240820516e+000

2.98570557291775e+005,-2.89359582221376e+001,-2.71401179079228e+000

3.02738446952187e+005,-2.89362232761182e+001,-2.75084179370978e+000

3.06964518184081e+005,-2.89364913296174e+001,-2.78816939750596e+000

3.11249583171928e+005,-2.89367623967204e+001,-2.82600169460815e+000

3.15594465437872e+005,-2.89370364934391e+001,-2.86434589075338e+000

3.19999999999997e+005,-2.89373136378712e+001,-2.90320930640040e+000

3.24467033532806e+005,-2.89375938503609e+001,-2.94259937812541e+000

3.28996424529938e+005,-2.89378771536623e+001,-2.98252366000084e+000

3.33589043469155e+005,-2.89381635731037e+001,-3.02298982495710e+000

3.38245772979638e+005,-2.89384531367534e+001,-3.06400566612778e+000

3.42967508011610e+005,-2.89387458755871e+001,-3.10557909817879e+000

3.47755156008335e+005,-2.89390418236557e+001,-3.14771815862235e+000

3.52609637080511e+005,-2.89393410182536e+001,-3.19043100911593e+000

3.57531884183106e+005,-2.89396435000879e+001,-3.23372593674671e+000

3.62522843294651e+005,-2.89399493134469e+001,-3.27761135530555e+000

3.67583473599047e+005,-2.89402585063697e+001,-3.32209580654571e+000

3.72714747669902e+005,-2.89405711308137e+001,-3.36718796143459e+000

3.77917651657445e+005,-2.89408872428233e+001,-3.41289662139482e+000

3.83193185478053e+005,-2.89412069026971e+001,-3.45923071953745e+000

3.88542363006410e+005,-2.89415301751542e+001,-3.50619932189040e+000

3.93966212270369e+005,-2.89418571294997e+001,-3.55381162862140e+000

3.99465775648511e+005,-2.89421878397892e+001,-3.60207697525938e+000

4.05042110070485e+005,-2.89425223849915e+001,-3.65100483391505e+000

4.10696287220124e+005,-2.89428608491510e+001,-3.70060481450124e+000

4.16429393741414e+005,-2.89432033215475e+001,-3.75088666595909e+000

4.22242531447321e+005,-2.89435498968559e+001,-3.80186027748590e+000

4.28136817531551e+005,-2.89439006753037e+001,-3.85353567977205e+000

4.34113384783250e+005,-2.89442557628267e+001,-3.90592304624721e+000

4.40173381804713e+005,-2.89446152712247e+001,-3.95903269433518e+000

4.46317973232124e+005,-2.89449793183144e+001,-4.01287508672453e+000

4.52548339959385e+005,-2.89453480280823e+001,-4.06746083265182e+000

4.58865679365059e+005,-2.89457215308353e+001,-4.12280068920257e+000

4.65271205542494e+005,-2.89460999633511e+001,-4.17890556263056e+000

4.71766149533147e+005,-2.89464834690273e+001,-4.23578650969856e+000

4.78351759563174e+005,-2.89468721980301e+001,-4.29345473903941e+000

4.85029301283321e+005,-2.89472663074417e+001,-4.35192161254311e+000

4.91800058012158e+005,-2.89476659614078e+001,-4.41119864676875e+000

4.98665330982714e+005,-2.89480713312854e+001,-4.47129751438325e+000

5.05626439592555e+005,-2.89484825957892e+001,-4.53223004562955e+000

5.12684721657352e+005,-2.89488999411398e+001,-4.59400822982404e+000

5.19841533667984e+005,-2.89493235612114e+001,-4.65664421688699e+000

5.27098251051240e+005,-2.89497536576804e+001,-4.72015031890411e+000

5.34456268434150e+005,-2.89501904401756e+001,-4.78453901172216e+000

5.41916999912011e+005,-2.89506341264287e+001,-4.84982293658091e+000

