Freq.,VOut,OutRef

1.00000000000000e+004,-8.92943539739257e-001,-1.04759649141191e-001

1.01395947979003e+004,-8.92943550546087e-001,-1.06222031930360e-001

1.02811382665607e+004,-8.92943561654544e-001,-1.07704828508746e-001

1.04246576084112e+004,-8.92943573073033e-001,-1.09208323828598e-001

1.05701804056138e+004,-8.92943584810344e-001,-1.10732806818807e-001

1.07177346253629e+004,-8.92943596875084e-001,-1.12278570442718e-001

1.08673486252606e+004,-8.92943609276442e-001,-1.13845911751343e-001

1.10190511587661e+004,-8.92943622023823e-001,-1.15435131941686e-001

1.11728713807222e+004,-8.92943635126497e-001,-1.17046536417006e-001

1.13288388529580e+004,-8.92943648594580e-001,-1.18680434839382e-001

1.14869835499703e+004,-8.92943662438029e-001,-1.20337141195928e-001

1.16473358646846e+004,-8.92943676667318e-001,-1.22016973853952e-001

1.18099266142953e+004,-8.92943691292995e-001,-1.23720255626328e-001

1.19747870461893e+004,-8.92943706325923e-001,-1.25447313830528e-001

1.21419488439505e+004,-8.92943721777542e-001,-1.27198480350952e-001

1.23114441334492e+004,-8.92943737659250e-001,-1.28974091706153e-001

1.24833054890161e+004,-8.92943753982919e-001,-1.30774489110247e-001

1.26575659397028e+004,-8.92943770760857e-001,-1.32600018539136e-001

1.28342589756290e+004,-8.92943788005336e-001,-1.34451030799455e-001

1.30134185544193e+004,-8.92943805729324e-001,-1.36327881591340e-001

1.31950791077289e+004,-8.92943823945960e-001,-1.38230931580720e-001

1.33792755478611e+004,-8.92943842668862e-001,-1.40160546466039e-001

1.35660432744767e+004,-8.92943861911730e-001,-1.42117097051435e-001

1.37554181813974e+004,-8.92943881689039e-001,-1.44100959313844e-001

1.39474366635040e+004,-8.92943902015212e-001,-1.46112514479076e-001

1.41421356237309e+004,-8.92943922905502e-001,-1.48152149091701e-001

1.43395524801583e+004,-8.92943944375204e-001,-1.50220255092167e-001

1.45397251732031e+004,-8.92943966440215e-001,-1.52317229890184e-001

1.47426921729110e+004,-8.92943989116770e-001,-1.54443476441874e-001

1.49484924863494e+004,-8.92944012421555e-001,-1.56599403326780e-001

1.51571656651040e+004,-8.92944036371734e-001,-1.58785424825740e-001

1.53687518128801e+004,-8.92944060985001e-001,-1.61001961001323e-001

1.55832915932100e+004,-8.92944086279184e-001,-1.63249437779308e-001

1.58008262372675e+004,-8.92944112273025e-001,-1.65528287027247e-001

1.60213975517924e+004,-8.92944138985401e-001,-1.67838946641375e-001

1.62450479271247e+004,-8.92944166435882e-001,-1.70181860627427e-001

1.64718203453514e+004,-8.92944194644354e-001,-1.72557479188312e-001

1.67017583885674e+004,-8.92944223631534e-001,-1.74966258807717e-001

1.69349062472505e+004,-8.92944253418374e-001,-1.77408662340547e-001

1.71713087287550e+004,-8.92944284026639e-001,-1.79885159099608e-001

1.74110112659224e+004,-8.92944315478349e-001,-1.82396224948065e-001

1.76540599258131e+004,-8.92944347796219e-001,-1.84942342388448e-001

1.79005014185594e+004,-8.92944381003802e-001,-1.87524000655284e-001

1.81503831063432e+004,-8.92944415124757e-001,-1.90141695811366e-001

1.84037530124975e+004,-8.92944450183839e-001,-1.92795930839921e-001

1.86606598307361e+004,-8.92944486206196e-001,-1.95487215742923e-001

1.89211529345119e+004,-8.92944523217493e-001,-1.98216067639654e-001

1.91852823865052e+004,-8.92944561244367e-001,-2.00983010862855e-001

1.94530989482457e+004,-8.92944600313859e-001,-2.03788577063102e-001

1.97246540898671e+004,-8.92944640453747e-001,-2.06633305307837e-001

1.99999999999999e+004,-8.92944681692490e-001,-2.09517742187079e-001

2.02791895958005e+004,-8.92944724059544e-001,-2.12442441914275e-001

2.05622765331213e+004,-8.92944767584694e-001,-2.15407966438982e-001

2.08493152168224e+004,-8.92944812298516e-001,-2.18414885549472e-001

2.11403608112276e+004,-8.92944858232736e-001,-2.21463776982088e-001

2.14354692507258e+004,-8.92944905419293e-001,-2.24555226536745e-001

2.17346972505211e+004,-8.92944953891421e-001,-2.27689828182612e-001

2.20381023175322e+004,-8.92945003682791e-001,-2.30868184178299e-001

2.23457427614443e+004,-8.92945054828125e-001,-2.34090905182704e-001

2.26576777059159e+004,-8.92945107362823e-001,-2.37358610374535e-001

2.29739670999406e+004,-8.92945161323265e-001,-2.40671927570086e-001

2.32946717293690e+004,-8.92945216746550e-001,-2.44031493344500e-001

2.36198532285905e+004,-8.92945273670759e-001,-2.47437953152372e-001

2.39495740923785e+004,-8.92945332134911e-001,-2.50891961452238e-001

2.42838976879009e+004,-8.92945392178867e-001,-2.54394181832365e-001

2.46228882668982e+004,-8.92945453843401e-001,-2.57945287137295e-001

2.49666109780322e+004,-8.92945517170341e-001,-2.61545959596987e-001

2.53151318794055e+004,-8.92945582202290e-001,-2.65196890958157e-001

2.56685179512580e+004,-8.92945648982888e-001,-2.68898782616171e-001

2.60268371088386e+004,-8.92945717557002e-001,-2.72652345747930e-001

2.63901582154578e+004,-8.92945787970111e-001,-2.76458301452175e-001

2.67585510957221e+004,-8.92945860269006e-001,-2.80317380883274e-001

2.71320865489533e+004,-8.92945934501463e-001,-2.84230325393578e-001

2.75108363627948e+004,-8.92946010716147e-001,-2.88197886675591e-001

2.78948733270080e+004,-8.92946088962973e-001,-2.92220826904179e-001

2.82842712474618e+004,-8.92946169292723e-001,-2.96299918885066e-001

2.86791049603164e+004,-8.92946251757454e-001,-3.00435946199991e-001

2.90794503464061e+004,-8.92946336410313e-001,-3.04629703358364e-001

2.94853843458219e+004,-8.92946423305265e-001,-3.08881995950482e-001

2.98969849726987e+004,-8.92946512497819e-001,-3.13193640797896e-001

3.03143313302078e+004,-8.92946604044274e-001,-3.17565466114611e-001

3.07375036257601e+004,-8.92946698002159e-001,-3.21998311661936e-001

3.11665831864199e+004,-8.92946794430133e-001,-3.26493028910421e-001

3.16016524745350e+004,-8.92946893388137e-001,-3.31050481203094e-001

3.20427951035848e+004,-8.92946994936963e-001,-3.35671543920395e-001

3.24900958542493e+004,-8.92947099138877e-001,-3.40357104647116e-001

3.29436406907028e+004,-8.92947206056995e-001,-3.45108063343208e-001

3.34035167771346e+004,-8.92947315755760e-001,-3.49925332515349e-001

3.38698124945009e+004,-8.92947428300803e-001,-3.54809837390408e-001

3.43426174575100e+004,-8.92947543758618e-001,-3.59762516095264e-001

3.48220225318448e+004,-8.92947662197262e-001,-3.64784319831758e-001

3.53081198516260e+004,-8.92947783685444e-001,-3.69876213063670e-001

3.58010028371187e+004,-8.92947908293447e-001,-3.75039173696349e-001

3.63007662126863e+004,-8.92948036092325e-001,-3.80274193266868e-001

3.68075060249948e+004,-8.92948167154332e-001,-3.85582277132014e-001

3.73213196614721e+004,-8.92948301552803e-001,-3.90964444660672e-001

3.78423058690237e+004,-8.92948439362058e-001,-3.96421729428844e-001

3.83705647730104e+004,-8.92948580657495e-001,-4.01955179416491e-001

3.89061978964912e+004,-8.92948725515458e-001,-4.07565857208363e-001

3.94493081797342e+004,-8.92948874013261e-001,-4.13254840196218e-001

3.99999999999998e+004,-8.92949026229123e-001,-4.19023220785669e-001

4.05583791916010e+004,-8.92949182242253e-001,-4.24872106602270e-001

4.11245530662425e+004,-8.92949342132421e-001,-4.30802620706841e-001

4.16986304336447e+004,-8.92949505980389e-001,-4.36815901806263e-001

4.22807216224550e+004,-8.92949673867593e-001,-4.42913104472442e-001

4.28709385014515e+004,-8.92949845876139e-001,-4.49095399361844e-001

4.34693945010421e+004,-8.92950022088601e-001,-4.55363973440524e-001

4.40762046350642e+004,-8.92950202588192e-001,-4.61720030207920e-001

4.46914855228886e+004,-8.92950387458494e-001,-4.68164789928468e-001

4.53153554118317e+004,-8.92950576783477e-001,-4.74699489862828e-001

4.59479341998812e+004,-8.92950770647233e-001,-4.81325384505531e-001

4.65893434587380e+004,-8.92950969134078e-001,-4.88043745822652e-001

4.72397064571810e+004,-8.92951172328397e-001,-4.94855863493982e-001

4.78991481847569e+004,-8.92951380314265e-001,-5.01763045160670e-001

4.85677953758016e+004,-8.92951593175774e-001,-5.08766616671663e-001

4.92457765337964e+004,-8.92951810996451e-001,-5.15867922339299e-001

4.99332219560642e+004,-8.92952033859360e-001,-5.23068325192783e-001

5.06302637588109e+004,-8.92952261846856e-001,-5.30369207239374e-001

5.13370359025159e+004,-8.92952495040388e-001,-5.37771969726445e-001

5.20536742176771e+004,-8.92952733520307e-001,-5.45278033409697e-001

5.27803164309155e+004,-8.92952977365753e-001,-5.52888838821555e-001

5.35171021914442e+004,-8.92953226654286e-001,-5.60605846547185e-001

5.42641730979066e+004,-8.92953481461812e-001,-5.68430537501426e-001

5.50216727255895e+004,-8.92953741862192e-001,-5.76364413210858e-001

5.57897466540159e+004,-8.92954007927115e-001,-5.84408996099175e-001

5.65685424949235e+004,-8.92954279725581e-001,-5.92565829777534e-001

5.73582099206328e+004,-8.92954557323856e-001,-6.00836479336657e-001

5.81589006928121e+004,-8.92954840785052e-001,-6.09222531646030e-001

5.89707686916437e+004,-8.92955130168657e-001,-6.17725595654690e-001

5.97939699453972e+004,-8.92955425530529e-001,-6.26347302696282e-001

6.06286626604156e+004,-8.92955726921939e-001,-6.35089306801330e-001

6.14750072515201e+004,-8.92956034389668e-001,-6.43953285009602e-001

6.23331663728396e+004,-8.92956347975329e-001,-6.52940937689512e-001

6.32033049490698e+004,-8.92956667715109e-001,-6.62053988860358e-001

6.40855902071694e+004,-8.92956993638869e-001,-6.71294186521437e-001

6.49801917084985e+004,-8.92957325769997e-001,-6.80663302983051e-001

6.58872813814055e+004,-8.92957664124798e-001,-6.90163135202212e-001

6.68070335542691e+004,-8.92958008711743e-001,-6.99795505125696e-001

6.77396249890018e+004,-8.92958359530984e-001,-7.09562260034846e-001

6.86852349150199e+004,-8.92958716573760e-001,-7.19465272896242e-001

6.96440450636895e+004,-8.92959079821547e-001,-7.29506442717707e-001

7.06162397032520e+004,-8.92959449245380e-001,-7.39687694909008e-001

7.16020056742374e+004,-8.92959824805196e-001,-7.50010981646332e-001

7.26015324253724e+004,-8.92960206448898e-001,-7.60478282243843e-001

7.36150120499896e+004,-8.92960594111564e-001,-7.71091603528972e-001

7.46426393229441e+004,-8.92960987714652e-001,-7.81852980222296e-001

7.56846117380472e+004,-8.92961387164703e-001,-7.92764475326462e-001

7.67411295460207e+004,-8.92961792352847e-001,-8.03828180514180e-001

7.78123957929823e+004,-8.92962203153355e-001,-8.15046216527937e-001

7.88986163594682e+004,-8.92962619422775e-001,-8.26420733580635e-001

7.99999999999995e+004,-8.92963040998667e-001,-8.37953911765493e-001

8.11167583832018e+004,-8.92963467698378e-001,-8.49647961468010e-001

8.22491061324848e+004,-8.92963899317924e-001,-8.61505123786868e-001

8.33972608672892e+004,-8.92964335630501e-001,-8.73527670958604e-001

8.45614432449099e+004,-8.92964776385171e-001,-8.85717906789423e-001

8.57418770029029e+004,-8.92965221305322e-001,-8.98078167092556e-001

8.69387890020841e+004,-8.92965670087321e-001,-9.10610820131142e-001

8.81524092701283e+004,-8.92966122398662e-001,-9.23318267069751e-001

8.93829710457770e+004,-8.92966577876517e-001,-9.36202942428207e-001

9.06307108236633e+004,-8.92967036125859e-001,-9.49267314546096e-001

9.18958683997622e+004,-8.92967496717565e-001,-9.62513886051254e-001

9.31786869174758e+004,-8.92967959186845e-001,-9.75945194334594e-001

9.44794129143618e+004,-8.92968423030847e-001,-9.89563812033967e-001

9.57982963695136e+004,-8.92968887706751e-001,-1.00337234752246e+000

9.71355907516031e+004,-8.92969352629687e-001,-1.01737344540542e+000

9.84915530675926e+004,-8.92969817170304e-001,-1.03156978702360e+000

9.98664439121282e+004,-8.92970280652576e-001,-1.04596409096293e+000

1.01260527517622e+005,-8.92970742351247e-001,-1.06055911357362e+000

1.02674071805032e+005,-8.92971201489418e-001,-1.07535764949398e+000

1.04107348435354e+005,-8.92971657235783e-001,-1.09036253218442e+000

1.05560632861831e+005,-8.92972108701912e-001,-1.10557663446760e+000

1.07034204382888e+005,-8.92972554939468e-001,-1.12100286907605e+000

1.08528346195813e+005,-8.92972994937187e-001,-1.13664418920905e+000

1.10043345451179e+005,-8.92973427617823e-001,-1.15250358909657e+000

1.11579493308032e+005,-8.92973851835049e-001,-1.16858410457148e+000

1.13137084989847e+005,-8.92974266370059e-001,-1.18488881365085e+000

1.14716419841265e+005,-8.92974669928343e-001,-1.20142083712379e+000

1.16317801385624e+005,-8.92975061135933e-001,-1.21818333915129e+000

1.17941537383287e+005,-8.92975438536032e-001,-1.23517952787076e+000

1.19587939890794e+005,-8.92975800585060e-001,-1.25241265601272e+000

1.21257325320831e+005,-8.92976145649018e-001,-1.26988602152408e+000

1.22950014503040e+005,-8.92976471999200e-001,-1.28760296820354e+000

1.24666332745679e+005,-8.92976777808471e-001,-1.30556688634250e+000

1.26406609898139e+005,-8.92977061146697e-001,-1.32378121337914e+000

1.28171180414339e+005,-8.92977319976618e-001,-1.34224943455995e+000

1.29960383416997e+005,-8.92977552149390e-001,-1.36097508361112e+000

1.31774562762811e+005,-8.92977755399858e-001,-1.37996174342171e+000

1.33614067108538e+005,-8.92977927341953e-001,-1.39921304673493e+000

1.35479249978003e+005,-8.92978065464041e-001,-1.41873267685015e+000

1.37370469830040e+005,-8.92978167123643e-001,-1.43852436833734e+000

1.39288090127379e+005,-8.92978229542666e-001,-1.45859190775880e+000

1.41232479406504e+005,-8.92978249802285e-001,-1.47893913440414e+000

1.43204011348474e+005,-8.92978224837370e-001,-1.49956994103649e+000

1.45203064850745e+005,-8.92978151431465e-001,-1.52048827464771e+000

1.47230024099979e+005,-8.92978026211016e-001,-1.54169813722733e+000

1.49285278645888e+005,-8.92977845640046e-001,-1.56320358654119e+000

1.51369223476094e+005,-8.92977606014350e-001,-1.58500873692283e+000

1.53482259092041e+005,-8.92977303455688e-001,-1.60711776007629e+000

1.55624791585964e+005,-8.92976933905973e-001,-1.62953488589189e+000

1.57797232718936e+005,-8.92976493121421e-001,-1.65226440327206e+000

1.59999999999999e+005,-8.92975976666286e-001,-1.67531066097262e+000

1.62233516766403e+005,-8.92975379906962e-001,-1.69867806845392e+000

1.64498212264969e+005,-8.92974698005779e-001,-1.72237109674627e+000

1.66794521734578e+005,-8.92973925914692e-001,-1.74639427932808e+000

1.69122886489819e+005,-8.92973058369052e-001,-1.77075221301667e+000

1.71483754005805e+005,-8.92972089881152e-001,-1.79544955887312e+000

1.73877578004168e+005,-8.92971014733957e-001,-1.82049104312013e+000

1.76304818540256e+005,-8.92969826974652e-001,-1.84588145807286e+000

1.78765942091554e+005,-8.92968520407992e-001,-1.87162566308569e+000

1.81261421647326e+005,-8.92967088590085e-001,-1.89772858551043e+000

1.83791736799524e+005,-8.92965524821574e-001,-1.92419522167069e+000

1.86357373834951e+005,-8.92963822141338e-001,-1.95103063784940e+000

1.88958825828723e+005,-8.92961973319852e-001,-1.97823997129118e+000

1.91596592739027e+005,-8.92959970852587e-001,-2.00582843122030e+000

1.94271181503206e+005,-8.92957806953546e-001,-2.03380129987157e+000

1.96983106135185e+005,-8.92955473548700e-001,-2.06216393353800e+000

1.99732887824256e+005,-8.92952962269407e-001,-2.09092176363283e+000

2.02521055035243e+005,-8.92950264446075e-001,-2.12008029776657e+000

2.05348143610063e+005,-8.92947371101454e-001,-2.14964512084078e+000

2.08214696870707e+005,-8.92944272944451e-001,-2.17962189615578e+000

2.11121265723661e+005,-8.92940960363422e-001,-2.21001636653578e+000

2.14068408765776e+005,-8.92937423420096e-001,-2.24083435546816e+000

2.17056692391625e+005,-8.92933651843029e-001,-2.27208176826088e+000

2.20086690902357e+005,-8.92929635021273e-001,-2.30376459321498e+000

2.23158986616063e+005,-8.92925361998405e-001,-2.33588890281225e+000

2.26274169979693e+005,-8.92920821465910e-001,-2.36846085492317e+000

2.29432839682530e+005,-8.92916001757347e-001,-2.40148669402631e+000

2.32635602771247e+005,-8.92910890841931e-001,-2.43497275245013e+000

2.35883074766574e+005,-8.92905476318610e-001,-2.46892545162699e+000

2.39175879781588e+005,-8.92899745410015e-001,-2.50335130336690e+000

2.42514650641661e+005,-8.92893684956156e-001,-2.53825691114886e+000

2.45900029006080e+005,-8.92887281408644e-001,-2.57364897142757e+000

2.49332665491357e+005,-8.92880520824621e-001,-2.60953427495936e+000

2.52813219796278e+005,-8.92873388860573e-001,-2.64591970814593e+000

2.56342360828676e+005,-8.92865870766487e-001,-2.68281225439505e+000

2.59920766833993e+005,-8.92857951379806e-001,-2.72021899550012e+000

2.63549125525621e+005,-8.92849615119204e-001,-2.75814711303779e+000

2.67228134217075e+005,-8.92840845978568e-001,-2.79660388978403e+000

2.70958499956006e+005,-8.92831627520867e-001,-2.83559671114888e+000

2.74740939660078e+005,-8.92821942871635e-001,-2.87513306663079e+000

2.78576180254757e+005,-8.92811774713016e-001,-2.91522055128784e+000

2.82464958813007e+005,-8.92801105276976e-001,-2.95586686723137e+000

2.86408022696948e+005,-8.92789916338798e-001,-2.99707982513664e+000

2.90406129701488e+005,-8.92778189210420e-001,-3.03886734577409e+000

2.94460048199957e+005,-8.92765904733430e-001,-3.08123746156096e+000

2.98570557291775e+005,-8.92753043271848e-001,-3.12419831813318e+000

3.02738446952187e+005,-8.92739584704987e-001,-3.16775817593627e+000

3.06964518184081e+005,-8.92725508419678e-001,-3.21192541183963e+000

3.11249583171928e+005,-8.92710793302596e-001,-3.25670852076934e+000

3.15594465437872e+005,-8.92695417731824e-001,-3.30211611736452e+000

3.19999999999997e+005,-8.92679359568682e-001,-3.34815693765370e+000

3.24467033532806e+005,-8.92662596148593e-001,-3.39483984075470e+000

3.28996424529938e+005,-8.92645104272115e-001,-3.44217381059562e+000

3.33589043469155e+005,-8.92626860195200e-001,-3.49016795765963e+000

3.38245772979638e+005,-8.92607839619121e-001,-3.53883152075219e+000

3.42967508011610e+005,-8.92588017679941e-001,-3.58817386879288e+000

3.47755156008335e+005,-8.92567368937607e-001,-3.63820450262945e+000

3.52609637080511e+005,-8.92545867364309e-001,-3.68893305687760e+000

3.57531884183106e+005,-8.92523486332457e-001,-3.74036930178558e+000

3.62522843294651e+005,-8.92500198601940e-001,-3.79252314512321e+000

3.67583473599047e+005,-8.92475976307046e-001,-3.84540463409705e+000

3.72714747669902e+005,-8.92450790942377e-001,-3.89902395729171e+000

3.77917651657445e+005,-8.92424613348394e-001,-3.95339144663823e+000

3.83193185478053e+005,-8.92397413696211e-001,-4.00851757940876e+000

3.88542363006410e+005,-8.92369161471537e-001,-4.06441298023995e+000

3.93966212270369e+005,-8.92339825458133e-001,-4.12108842318348e+000

3.99465775648511e+005,-8.92309373720350e-001,-4.17855483378631e+000

4.05042110070485e+005,-8.92277773584811e-001,-4.23682329119964e+000

4.10696287220124e+005,-8.92244991621485e-001,-4.29590503031798e+000

4.16429393741414e+005,-8.92210993623786e-001,-4.35581144394867e+000

4.22242531447321e+005,-8.92175744587921e-001,-4.41655408501194e+000

4.28136817531551e+005,-8.92139208691136e-001,-4.47814466877376e+000

4.34113384783250e+005,-8.92101349269499e-001,-4.54059507510925e+000

4.40173381804713e+005,-8.92062128794298e-001,-4.60391735080043e+000

4.46317973232124e+005,-8.92021508847855e-001,-4.66812371186665e+000

4.52548339959385e+005,-8.91979450098158e-001,-4.73322654592912e+000

4.58865679365059e+005,-8.91935912272597e-001,-4.79923841461066e+000

4.65271205542494e+005,-8.91890854130912e-001,-4.86617205597017e+000

4.71766149533147e+005,-8.91844233436747e-001,-4.93404038697356e+000

4.78351759563174e+005,-8.91796006928581e-001,-5.00285650600116e+000

4.85029301283321e+005,-8.91746130289228e-001,-5.07263369539286e+000

4.91800058012158e+005,-8.91694558114734e-001,-5.14338542403092e+000

4.98665330982714e+005,-8.91641243881762e-001,-5.21512534996171e+000

5.05626439592555e+005,-8.91586139914263e-001,-5.28786732305669e+000

5.12684721657352e+005,-8.91529197348798e-001,-5.36162538771383e+000

5.19841533667984e+005,-8.91470366098874e-001,-5.43641378559981e+000

5.27098251051240e+005,-8.91409594817986e-001,-5.51224695843368e+000

5.34456268434150e+005,-8.91346830861945e-001,-5.58913955081255e+000

5.41916999912011e+005,-8.91282020249488e-001,-5.66710641308120e+000

