Freq.,VOut,OutRef

1.00000000000000e+004,-1.09552172206940e+000,-1.64688178456985e-001

1.01395947979003e+004,-1.09552166756602e+000,-1.66987135614496e-001

1.02811382665607e+004,-1.09552161152889e+000,-1.69318184842947e-001

1.04246576084112e+004,-1.09552155391501e+000,-1.71681774122868e-001

1.05701804056138e+004,-1.09552149467978e+000,-1.74078357689108e-001

1.07177346253629e+004,-1.09552143377783e+000,-1.76508396115485e-001

1.08673486252606e+004,-1.09552137116190e+000,-1.78972356407558e-001

1.10190511587661e+004,-1.09552130678384e+000,-1.81470712087644e-001

1.11728713807222e+004,-1.09552124059404e+000,-1.84003943287952e-001

1.13288388529580e+004,-1.09552117254138e+000,-1.86572536843450e-001

1.14869835499703e+004,-1.09552110257349e+000,-1.89176986383950e-001

1.16473358646846e+004,-1.09552103063634e+000,-1.91817792429972e-001

1.18099266142953e+004,-1.09552095667444e+000,-1.94495462489164e-001

1.19747870461893e+004,-1.09552088063069e+000,-1.97210511152352e-001

1.21419488439505e+004,-1.09552080244646e+000,-1.99963460193972e-001

1.23114441334492e+004,-1.09552072206145e+000,-2.02754838671058e-001

1.24833054890161e+004,-1.09552063941362e+000,-2.05585183025776e-001

1.26575659397028e+004,-1.09552055443925e+000,-2.08455037188052e-001

1.28342589756290e+004,-1.09552046707254e+000,-2.11364952681640e-001

1.30134185544193e+004,-1.09552037724636e+000,-2.14315488725562e-001

1.31950791077289e+004,-1.09552028489106e+000,-2.17307212348561e-001

1.33792755478611e+004,-1.09552018993557e+000,-2.20340698490493e-001

1.35660432744767e+004,-1.09552009230653e+000,-2.23416530118483e-001

1.37554181813974e+004,-1.09551999192841e+000,-2.26535298337439e-001

1.39474366635040e+004,-1.09551988872385e+000,-2.29697602500969e-001

1.41421356237309e+004,-1.09551978261293e+000,-2.32904050331066e-001

1.43395524801583e+004,-1.09551967351390e+000,-2.36155258029356e-001

1.45397251732031e+004,-1.09551956134237e+000,-2.39451850401497e-001

1.47426921729110e+004,-1.09551944601159e+000,-2.42794460972783e-001

1.49484924863494e+004,-1.09551932743247e+000,-2.46183732111553e-001

1.51571656651040e+004,-1.09551920551340e+000,-2.49620315152456e-001

1.53687518128801e+004,-1.09551908015998e+000,-2.53104870521638e-001

1.55832915932100e+004,-1.09551895127549e+000,-2.56638067862225e-001

1.58008262372675e+004,-1.09551881876016e+000,-2.60220586165824e-001

1.60213975517924e+004,-1.09551868251143e+000,-2.63853113900865e-001

1.62450479271247e+004,-1.09551854242397e+000,-2.67536349144872e-001

1.64718203453514e+004,-1.09551839838938e+000,-2.71270999719400e-001

1.67017583885674e+004,-1.09551825029621e+000,-2.75057783325193e-001

1.69349062472505e+004,-1.09551809802974e+000,-2.78897427681161e-001

1.71713087287550e+004,-1.09551794147218e+000,-2.82790670662633e-001

1.74110112659224e+004,-1.09551778050229e+000,-2.86738260444345e-001

1.76540599258131e+004,-1.09551761499535e+000,-2.90740955644107e-001

1.79005014185594e+004,-1.09551744482324e+000,-2.94799525467145e-001

1.81503831063432e+004,-1.09551726985406e+000,-2.98914749855806e-001

1.84037530124975e+004,-1.09551708995222e+000,-3.03087419637961e-001

1.86606598307361e+004,-1.09551690497828e+000,-3.07318336679412e-001

1.89211529345119e+004,-1.09551671478875e+000,-3.11608314038121e-001

1.91852823865052e+004,-1.09551651923629e+000,-3.15958176119007e-001

1.94530989482457e+004,-1.09551631816914e+000,-3.20368758834648e-001

1.97246540898671e+004,-1.09551611143131e+000,-3.24840909763779e-001

1.99999999999999e+004,-1.09551589886230e+000,-3.29375488315505e-001

2.02791895958005e+004,-1.09551568029719e+000,-3.33973365892746e-001

2.05622765331213e+004,-1.09551545556616e+000,-3.38635426061509e-001

2.08493152168224e+004,-1.09551522449482e+000,-3.43362564718586e-001

2.11403608112276e+004,-1.09551498690352e+000,-3.48155690265455e-001

2.14354692507258e+004,-1.09551474260764e+000,-3.53015723781706e-001

2.17346972505211e+004,-1.09551449141734e+000,-3.57943599201239e-001

2.20381023175322e+004,-1.09551423313724e+000,-3.62940263493709e-001

2.23457427614443e+004,-1.09551396756651e+000,-3.68006676844117e-001

2.26576777059159e+004,-1.09551369449845e+000,-3.73143812838865e-001

2.29739670999406e+004,-1.09551341372053e+000,-3.78352658651783e-001

2.32946717293690e+004,-1.09551312501419e+000,-3.83634215233169e-001

2.36198532285905e+004,-1.09551282815451e+000,-3.88989497504453e-001

2.39495740923785e+004,-1.09551252291018e+000,-3.94419534549728e-001

2.42838976879009e+004,-1.09551220904333e+000,-3.99925369815821e-001

2.46228882668982e+004,-1.09551188630923e+000,-4.05508061311228e-001

2.49666109780322e+004,-1.09551155445617e+000,-4.11168681809987e-001

2.53151318794055e+004,-1.09551121322512e+000,-4.16908319057509e-001

2.56685179512580e+004,-1.09551086234982e+000,-4.22728075979090e-001

2.60268371088386e+004,-1.09551050155611e+000,-4.28629070892550e-001

2.63901582154578e+004,-1.09551013056219e+000,-4.34612437721052e-001

2.67585510957221e+004,-1.09550974907811e+000,-4.40679326212788e-001

2.71320865489533e+004,-1.09550935680548e+000,-4.46830902160826e-001

2.75108363627948e+004,-1.09550895343744e+000,-4.53068347626708e-001

2.78948733270080e+004,-1.09550853865830e+000,-4.59392861167264e-001

2.82842712474618e+004,-1.09550811214324e+000,-4.65805658065514e-001

2.86791049603164e+004,-1.09550767355807e+000,-4.72307970563221e-001

2.90794503464061e+004,-1.09550722255905e+000,-4.78901048097189e-001

2.94853843458219e+004,-1.09550675879240e+000,-4.85586157539766e-001

2.98969849726987e+004,-1.09550628189427e+000,-4.92364583441479e-001

3.03143313302078e+004,-1.09550579149017e+000,-4.99237628278038e-001

3.07375036257601e+004,-1.09550528719495e+000,-5.06206612698813e-001

3.11665831864199e+004,-1.09550476861227e+000,-5.13272875782260e-001

3.16016524745350e+004,-1.09550423533403e+000,-5.20437775293098e-001

3.20427951035848e+004,-1.09550368694085e+000,-5.27702687939234e-001

3.24900958542493e+004,-1.09550312300074e+000,-5.35069009640405e-001

3.29436406907028e+004,-1.09550254306938e+000,-5.42538155793547e-001

3.34035167771346e+004,-1.09550194668956e+000,-5.50111561544553e-001

3.38698124945009e+004,-1.09550133339074e+000,-5.57790682063965e-001

3.43426174575100e+004,-1.09550070268872e+000,-5.65576992826618e-001

3.48220225318448e+004,-1.09550005408519e+000,-5.73471989893493e-001

3.53081198516260e+004,-1.09549938706743e+000,-5.81477190199654e-001

3.58010028371187e+004,-1.09549870110758e+000,-5.89594131845517e-001

3.63007662126863e+004,-1.09549799566251e+000,-5.97824374390595e-001

3.68075060249948e+004,-1.09549727017336e+000,-6.06169499153218e-001

3.73213196614721e+004,-1.09549652406466e+000,-6.14631109515195e-001

3.78423058690237e+004,-1.09549575674430e+000,-6.23210831226830e-001

3.83705647730104e+004,-1.09549496760283e+000,-6.31910312720506e-001

3.89061978964912e+004,-1.09549415601278e+000,-6.40731225426821e-001

3.94493081797342e+004,-1.09549332132858e+000,-6.49675264093277e-001

3.99999999999998e+004,-1.09549246288531e+000,-6.58744147112452e-001

4.05583791916010e+004,-1.09549157999883e+000,-6.67939616848159e-001

4.11245530662425e+004,-1.09549067196473e+000,-6.77263439971473e-001

4.16986304336447e+004,-1.09548973805787e+000,-6.86717407799116e-001

4.22807216224550e+004,-1.09548877753175e+000,-6.96303336636468e-001

4.28709385014515e+004,-1.09548778961782e+000,-7.06023068126610e-001

4.34693945010421e+004,-1.09548677352482e+000,-7.15878469602328e-001

4.40762046350642e+004,-1.09548572843803e+000,-7.25871434444936e-001

4.46914855228886e+004,-1.09548465351875e+000,-7.36003882446438e-001

4.53153554118317e+004,-1.09548354790321e+000,-7.46277760178572e-001

4.59479341998812e+004,-1.09548241070215e+000,-7.56695041364884e-001

4.65893434587380e+004,-1.09548124099980e+000,-7.67257727259218e-001

4.72397064571810e+004,-1.09548003785318e+000,-7.77967847029823e-001

4.78991481847569e+004,-1.09547880029124e+000,-7.88827458147358e-001

4.85677953758016e+004,-1.09547752731381e+000,-7.99838646780487e-001

4.92457765337964e+004,-1.09547621789104e+000,-8.11003528193831e-001

4.99332219560642e+004,-1.09547487096215e+000,-8.22324247154615e-001

5.06302637588109e+004,-1.09547348543460e+000,-8.33802978343531e-001

5.13370359025159e+004,-1.09547206018313e+000,-8.45441926770911e-001

5.20536742176771e+004,-1.09547059404870e+000,-8.57243328198808e-001

5.27803164309155e+004,-1.09546908583737e+000,-8.69209449570914e-001

5.35171021914442e+004,-1.09546753431917e+000,-8.81342589445273e-001

5.42641730979066e+004,-1.09546593822727e+000,-8.93645078434802e-001

5.50216727255895e+004,-1.09546429625636e+000,-9.06119279654667e-001

5.57897466540159e+004,-1.09546260706176e+000,-9.18767589174142e-001

5.65685424949235e+004,-1.09546086925808e+000,-9.31592436475442e-001

5.73582099206328e+004,-1.09545908141796e+000,-9.44596284919444e-001

5.81589006928121e+004,-1.09545724207049e+000,-9.57781632217903e-001

5.89707686916437e+004,-1.09545534970028e+000,-9.71151010910323e-001

5.97939699453972e+004,-1.09545340274558e+000,-9.84706988850777e-001

6.06286626604156e+004,-1.09545139959711e+000,-9.98452169698456e-001

6.14750072515201e+004,-1.09544933859640e+000,-1.01238919341658e+000

6.23331663728396e+004,-1.09544721803426e+000,-1.02652073677776e+000

6.32033049490698e+004,-1.09544503614901e+000,-1.04084951387785e+000

6.40855902071694e+004,-1.09544279112509e+000,-1.05537827665301e+000

6.49801917084985e+004,-1.09544048109097e+000,-1.07010981540974e+000

6.58872813814055e+004,-1.09543810411762e+000,-1.08504695935682e+000

6.68070335542691e+004,-1.09543565821648e+000,-1.10019257714818e+000

6.77396249890018e+004,-1.09543314133758e+000,-1.11554957743237e+000

6.86852349150199e+004,-1.09543055136766e+000,-1.13112090940798e+000

6.96440450636895e+004,-1.09542788612779e+000,-1.14690956339087e+000

7.06162397032520e+004,-1.09542514337170e+000,-1.16291857138435e+000

7.16020056742374e+004,-1.09542232078320e+000,-1.17915100766082e+000

7.26015324253724e+004,-1.09541941597407e+000,-1.19560998935092e+000

7.36150120499896e+004,-1.09541642648167e+000,-1.21229867703939e+000

7.46426393229441e+004,-1.09541334976642e+000,-1.22922027537111e+000

7.56846117380472e+004,-1.09541018320951e+000,-1.24637803366444e+000

7.67411295460207e+004,-1.09540692411014e+000,-1.26377524653336e+000

7.78123957929823e+004,-1.09540356968273e+000,-1.28141525451895e+000

7.88986163594682e+004,-1.09540011705441e+000,-1.29930144472892e+000

7.99999999999995e+004,-1.09539656326189e+000,-1.31743725148607e+000

8.11167583832018e+004,-1.09539290524861e+000,-1.33582615698693e+000

8.22491061324848e+004,-1.09538913986167e+000,-1.35447169196814e+000

8.33972608672892e+004,-1.09538526384873e+000,-1.37337743638293e+000

8.45614432449099e+004,-1.09538127385451e+000,-1.39254702008748e+000

8.57418770029029e+004,-1.09537716641761e+000,-1.41198412353655e+000

8.69387890020841e+004,-1.09537293796684e+000,-1.43169247848843e+000

8.81524092701283e+004,-1.09536858481783e+000,-1.45167586872005e+000

8.93829710457770e+004,-1.09536410316905e+000,-1.47193813075292e+000

9.06307108236633e+004,-1.09535948909813e+000,-1.49248315458826e+000

9.18958683997622e+004,-1.09535473855773e+000,-1.51331488445308e+000

9.31786869174758e+004,-1.09534984737156e+000,-1.53443731955642e+000

9.44794129143618e+004,-1.09534481122997e+000,-1.55585451485706e+000

9.57982963695136e+004,-1.09533962568575e+000,-1.57757058184033e+000

9.71355907516031e+004,-1.09533428614946e+000,-1.59958968930858e+000

9.84915530675926e+004,-1.09532878788473e+000,-1.62191606418008e+000

9.98664439121282e+004,-1.09532312600353e+000,-1.64455399230105e+000

1.01260527517622e+005,-1.09531729546112e+000,-1.66750781926899e+000

1.02674071805032e+005,-1.09531129105095e+000,-1.69078195126614e+000

1.04107348435354e+005,-1.09530510739942e+000,-1.71438085590728e+000

1.05560632861831e+005,-1.09529873896012e+000,-1.73830906309786e+000

1.07034204382888e+005,-1.09529218000858e+000,-1.76257116590458e+000

1.08528346195813e+005,-1.09528542463617e+000,-1.78717182143899e+000

1.10043345451179e+005,-1.09527846674432e+000,-1.81211575175283e+000

1.11579493308032e+005,-1.09527130003812e+000,-1.83740774474733e+000

1.13137084989847e+005,-1.09526391802007e+000,-1.86305265509432e+000

1.14716419841265e+005,-1.09525631398363e+000,-1.88905540517072e+000

1.16317801385624e+005,-1.09524848100625e+000,-1.91542098600794e+000

1.17941537383287e+005,-1.09524041194260e+000,-1.94215445825211e+000

1.19587939890794e+005,-1.09523209941722e+000,-1.96926095314179e+000

1.21257325320831e+005,-1.09522353581741e+000,-1.99674567349504e+000

1.22950014503040e+005,-1.09521471328549e+000,-2.02461389471556e+000

1.24666332745679e+005,-1.09520562371098e+000,-2.05287096581007e+000

1.26406609898139e+005,-1.09519625872270e+000,-2.08152231042105e+000

1.28171180414339e+005,-1.09518660968042e+000,-2.11057342787591e+000

1.29960383416997e+005,-1.09517666766647e+000,-2.14002989424896e+000

1.31774562762811e+005,-1.09516642347710e+000,-2.16989736344029e+000

1.33614067108538e+005,-1.09515586761329e+000,-2.20018156827048e+000

1.35479249978003e+005,-1.09514499027184e+000,-2.23088832158995e+000

1.37370469830040e+005,-1.09513378133588e+000,-2.26202351740484e+000

1.39288090127379e+005,-1.09512223036508e+000,-2.29359313202072e+000

1.41232479406504e+005,-1.09511032658593e+000,-2.32560322520029e+000

1.43204011348474e+005,-1.09509805888134e+000,-2.35805994134013e+000

1.45203064850745e+005,-1.09508541578052e+000,-2.39096951066310e+000

1.47230024099979e+005,-1.09507238544782e+000,-2.42433825043002e+000

1.49285278645888e+005,-1.09505895567230e+000,-2.45817256616614e+000

1.51369223476094e+005,-1.09504511385615e+000,-2.49247895290835e+000

1.53482259092041e+005,-1.09503084700328e+000,-2.52726399646858e+000

1.55624791585964e+005,-1.09501614170758e+000,-2.56253437471716e+000

1.57797232718936e+005,-1.09500098414091e+000,-2.59829685888318e+000

1.59999999999999e+005,-1.09498536004067e+000,-2.63455831487600e+000

1.62233516766403e+005,-1.09496925469730e+000,-2.67132570462356e+000

1.64498212264969e+005,-1.09495265294127e+000,-2.70860608743297e+000

1.66794521734578e+005,-1.09493553912998e+000,-2.74640662136853e+000

1.69122886489819e+005,-1.09491789713426e+000,-2.78473456465120e+000

1.71483754005805e+005,-1.09489971032460e+000,-2.82359727707838e+000

1.73877578004168e+005,-1.09488096155709e+000,-2.86300222146428e+000

1.76304818540256e+005,-1.09486163315902e+000,-2.90295696510096e+000

1.78765942091554e+005,-1.09484170691425e+000,-2.94346918124146e+000

1.81261421647326e+005,-1.09482116404819e+000,-2.98454665060381e+000

1.83791736799524e+005,-1.09479998521247e+000,-3.02619726289763e+000

1.86357373834951e+005,-1.09477815046938e+000,-3.06842901837224e+000

1.88958825828723e+005,-1.09475563927606e+000,-3.11125002938748e+000

1.91596592739027e+005,-1.09473243046795e+000,-3.15466852200852e+000

1.94271181503206e+005,-1.09470850224243e+000,-3.19869283762201e+000

1.96983106135185e+005,-1.09468383214188e+000,-3.24333143457680e+000

1.99732887824256e+005,-1.09465839703637e+000,-3.28859288984834e+000

2.02521055035243e+005,-1.09463217310598e+000,-3.33448590072716e+000

2.05348143610063e+005,-1.09460513582312e+000,-3.38101928653136e+000

2.08214696870707e+005,-1.09457725993375e+000,-3.42820199034495e+000

2.11121265723661e+005,-1.09454851943919e+000,-3.47604308077963e+000

2.14068408765776e+005,-1.09451888757677e+000,-3.52455175376348e+000

2.17056692391625e+005,-1.09448833680040e+000,-3.57373733435500e+000

2.20086690902357e+005,-1.09445683876074e+000,-3.62360927858270e+000

2.23158986616063e+005,-1.09442436428515e+000,-3.67417717531139e+000

2.26274169979693e+005,-1.09439088335664e+000,-3.72545074813640e+000

2.29432839682530e+005,-1.09435636509313e+000,-3.77743985730296e+000

2.32635602771247e+005,-1.09432077772572e+000,-3.83015450165445e+000

2.35883074766574e+005,-1.09428408857675e+000,-3.88360482060842e+000

2.39175879781588e+005,-1.09424626403733e+000,-3.93780109616023e+000

2.42514650641661e+005,-1.09420726954439e+000,-3.99275375491602e+000

2.45900029006080e+005,-1.09416706955717e+000,-4.04847337015439e+000

2.49332665491357e+005,-1.09412562753323e+000,-4.10497066391738e+000

2.52813219796278e+005,-1.09408290590408e+000,-4.16225650913125e+000

2.56342360828676e+005,-1.09403886604979e+000,-4.22034193175801e+000

2.59920766833993e+005,-1.09399346827361e+000,-4.27923811297679e+000

2.63549125525621e+005,-1.09394667177544e+000,-4.33895639139648e+000

2.67228134217075e+005,-1.09389843462504e+000,-4.39950826530112e+000

2.70958499956006e+005,-1.09384871373434e+000,-4.46090539492484e+000

2.74740939660078e+005,-1.09379746482921e+000,-4.52315960476178e+000

2.78576180254757e+005,-1.09374464242062e+000,-4.58628288590640e+000

2.82464958813007e+005,-1.09369019977464e+000,-4.65028739843006e+000

2.86408022696948e+005,-1.09363408888204e+000,-4.71518547378877e+000

2.90406129701488e+005,-1.09357626042716e+000,-4.78098961726671e+000

2.94460048199957e+005,-1.09351666375549e+000,-4.84771251045501e+000

2.98570557291775e+005,-1.09345524684086e+000,-4.91536701376452e+000

3.02738446952187e+005,-1.09339195625145e+000,-4.98396616897673e+000

3.06964518184081e+005,-1.09332673711498e+000,-5.05352320182903e+000

3.11249583171928e+005,-1.09325953308285e+000,-5.12405152463919e+000

3.15594465437872e+005,-1.09319028629328e+000,-5.19556473896620e+000

3.19999999999997e+005,-1.09311893733360e+000,-5.26807663831057e+000

3.24467033532806e+005,-1.09304542520111e+000,-5.34160121085290e+000

3.28996424529938e+005,-1.09296968726303e+000,-5.41615264223321e+000

3.33589043469155e+005,-1.09289165921537e+000,-5.49174531836948e+000

3.38245772979638e+005,-1.09281127504025e+000,-5.56839382831864e+000

3.42967508011610e+005,-1.09272846696249e+000,-5.64611296717844e+000

3.47755156008335e+005,-1.09264316540445e+000,-5.72491773903250e+000

3.52609637080511e+005,-1.09255529893964e+000,-5.80482335993894e+000

3.57531884183106e+005,-1.09246479424529e+000,-5.88584526096226e+000

3.62522843294651e+005,-1.09237157605309e+000,-5.96799909125131e+000

3.67583473599047e+005,-1.09227556709864e+000,-6.05130072116244e+000

3.72714747669902e+005,-1.09217668806950e+000,-6.13576624542980e+000

3.77917651657445e+005,-1.09207485755160e+000,-6.22141198638236e+000

3.83193185478053e+005,-1.09196999197406e+000,-6.30825449721046e+000

3.88542363006410e+005,-1.09186200555228e+000,-6.39631056528101e+000

3.93966212270369e+005,-1.09175081022979e+000,-6.48559721550310e+000

3.99465775648511e+005,-1.09163631561783e+000,-6.57613171374504e+000

4.05042110070485e+005,-1.09151842893353e+000,-6.66793157030371e+000

4.10696287220124e+005,-1.09139705493619e+000,-6.76101454342688e+000

4.16429393741414e+005,-1.09127209586175e+000,-6.85539864288987e+000

4.22242531447321e+005,-1.09114345135533e+000,-6.95110213362829e+000

4.28136817531551e+005,-1.09101101840198e+000,-7.04814353942565e+000

4.34113384783250e+005,-1.09087469125507e+000,-7.14654164666074e+000

4.40173381804713e+005,-1.09073436136332e+000,-7.24631550811139e+000

4.46317973232124e+005,-1.09058991729522e+000,-7.34748444681936e+000

4.52548339959385e+005,-1.09044124466154e+000,-7.45006806001646e+000

4.58865679365059e+005,-1.09028822603576e+000,-7.55408622311176e+000

4.65271205542494e+005,-1.09013074087235e+000,-7.65955909374330e+000

4.71766149533147e+005,-1.08996866542253e+000,-7.76650711589393e+000

4.78351759563174e+005,-1.08980187264831e+000,-7.87495102407355e+000

4.85029301283321e+005,-1.08963023213362e+000,-7.98491184756796e+000

4.91800058012158e+005,-1.08945360999356e+000,-8.09641091475753e+000

4.98665330982714e+005,-1.08927186878101e+000,-8.20946985750458e+000

5.05626439592555e+005,-1.08908486739105e+000,-8.32411061561317e+000

5.12684721657352e+005,-1.08889246096250e+000,-8.44035544136135e+000

5.19841533667984e+005,-1.08869450077740e+000,-8.55822690410781e+000

5.27098251051240e+005,-1.08849083415768e+000,-8.67774789497468e+000

5.34456268434150e+005,-1.08828130435936e+000,-8.79894163160674e+000

5.41916999912011e+005,-1.08806575046404e+000,-8.92183166301113e+000

