Freq.,VOut,OutRef

1.00000000000000e+004,-2.29015589452064e+001,-3.88225366557896e-001

1.01395947979003e+004,-2.29015638651631e+001,-3.93644073505426e-001

1.02811382665607e+004,-2.29015689232473e+001,-3.99138392366684e-001

1.04246576084112e+004,-2.29015741233313e+001,-4.04709377356669e-001

1.05701804056138e+004,-2.29015794693958e+001,-4.10358097350506e-001

1.07177346253629e+004,-2.29015849655327e+001,-4.16085636089027e-001

1.08673486252606e+004,-2.29015906159483e+001,-4.21893092381282e-001

1.10190511587661e+004,-2.29015964249662e+001,-4.27781580314122e-001

1.11728713807222e+004,-2.29016023970311e+001,-4.33752229461485e-001

1.13288388529580e+004,-2.29016085367117e+001,-4.39806185099105e-001

1.14869835499703e+004,-2.29016148487042e+001,-4.45944608419748e-001

1.16473358646846e+004,-2.29016213378361e+001,-4.52168676753525e-001

1.18099266142953e+004,-2.29016280090695e+001,-4.58479583789228e-001

1.19747870461893e+004,-2.29016348675049e+001,-4.64878539800629e-001

1.21419488439505e+004,-2.29016419183854e+001,-4.71366771873154e-001

1.23114441334492e+004,-2.29016491671002e+001,-4.77945524135907e-001

1.24833054890161e+004,-2.29016566191888e+001,-4.84616057995836e-001

1.26575659397028e+004,-2.29016642803452e+001,-4.91379652375450e-001

1.28342589756290e+004,-2.29016721564221e+001,-4.98237603953988e-001

1.30134185544193e+004,-2.29016802534354e+001,-5.05191227409290e-001

1.31950791077289e+004,-2.29016885775686e+001,-5.12241855665634e-001

1.33792755478611e+004,-2.29016971351773e+001,-5.19390840145846e-001

1.35660432744767e+004,-2.29017059327944e+001,-5.26639551022160e-001

1.37554181813974e+004,-2.29017149771345e+001,-5.33989377473996e-001

1.39474366635040e+004,-2.29017242750990e+001,-5.41441727950589e-001

1.41421356237309e+004,-2.29017338337819e+001,-5.48998030429710e-001

1.43395524801583e+004,-2.29017436604737e+001,-5.56659732691046e-001

1.45397251732031e+004,-2.29017537626684e+001,-5.64428302581917e-001

1.47426921729110e+004,-2.29017641480679e+001,-5.72305228294326e-001

1.49484924863494e+004,-2.29017748245885e+001,-5.80292018640597e-001

1.51571656651040e+004,-2.29017858003661e+001,-5.88390203337483e-001

1.53687518128801e+004,-2.29017970837630e+001,-5.96601333290089e-001

1.55832915932100e+004,-2.29018086833733e+001,-6.04926980879305e-001

1.58008262372675e+004,-2.29018206080298e+001,-6.13368740256498e-001

1.60213975517924e+004,-2.29018328668106e+001,-6.21928227639310e-001

1.62450479271247e+004,-2.29018454690452e+001,-6.30607081610326e-001

1.64718203453514e+004,-2.29018584243221e+001,-6.39406963423456e-001

1.67017583885674e+004,-2.29018717424953e+001,-6.48329557310842e-001

1.69349062472505e+004,-2.29018854336919e+001,-6.57376570794095e-001

1.71713087287550e+004,-2.29018995083197e+001,-6.66549735000114e-001

1.74110112659224e+004,-2.29019139770740e+001,-6.75850804983776e-001

1.76540599258131e+004,-2.29019288509466e+001,-6.85281560048159e-001

1.79005014185594e+004,-2.29019441412331e+001,-6.94843804074222e-001

1.81503831063432e+004,-2.29019598595412e+001,-7.04539365854474e-001

1.84037530124975e+004,-2.29019760177994e+001,-7.14370099427213e-001

1.86606598307361e+004,-2.29019926282659e+001,-7.24337884417792e-001

1.89211529345119e+004,-2.29020097035368e+001,-7.34444626384768e-001

1.91852823865052e+004,-2.29020272565561e+001,-7.44692257167444e-001

1.94530989482457e+004,-2.29020453006244e+001,-7.55082735240877e-001

1.97246540898671e+004,-2.29020638494091e+001,-7.65618046072922e-001

1.99999999999999e+004,-2.29020829169540e+001,-7.76300202487261e-001

2.02791895958005e+004,-2.29021025176893e+001,-7.87131245030338e-001

2.05622765331213e+004,-2.29021226664424e+001,-7.98113242342557e-001

2.08493152168224e+004,-2.29021433784483e+001,-8.09248291533523e-001

2.11403608112276e+004,-2.29021646693606e+001,-8.20538518564191e-001

2.14354692507258e+004,-2.29021865552627e+001,-8.31986078631356e-001

2.17346972505211e+004,-2.29022090526793e+001,-8.43593156557095e-001

2.20381023175322e+004,-2.29022321785885e+001,-8.55361967183209e-001

2.23457427614443e+004,-2.29022559504331e+001,-8.67294755772633e-001

2.26576777059159e+004,-2.29022803861343e+001,-8.79393798409299e-001

2.29739670999406e+004,-2.29023055041029e+001,-8.91661402412400e-001

2.32946717293690e+004,-2.29023313232536e+001,-9.04099906745006e-001

2.36198532285905e+004,-2.29023578630177e+001,-9.16711682436510e-001

2.39495740923785e+004,-2.29023851433567e+001,-9.29499133003997e-001

2.42838976879009e+004,-2.29024131847768e+001,-9.42464694881764e-001

2.46228882668982e+004,-2.29024420083430e+001,-9.55610837853917e-001

2.49666109780322e+004,-2.29024716356938e+001,-9.68940065493394e-001

2.53151318794055e+004,-2.29025020890563e+001,-9.82454915606388e-001

2.56685179512580e+004,-2.29025333912618e+001,-9.96157960678416e-001

2.60268371088386e+004,-2.29025655657613e+001,-1.01005180833061e+000

2.63901582154578e+004,-2.29025986366419e+001,-1.02413910177758e+000

2.67585510957221e+004,-2.29026326286437e+001,-1.03842252029028e+000

2.71320865489533e+004,-2.29026675671762e+001,-1.05290477966659e+000

2.75108363627948e+004,-2.29027034783358e+001,-1.06758863270588e+000

2.78948733270080e+004,-2.29027403889243e+001,-1.08247686968624e+000

2.82842712474618e+004,-2.29027783264660e+001,-1.09757231885246e+000

2.86791049603164e+004,-2.29028173192273e+001,-1.11287784690368e+000

2.90794503464061e+004,-2.29028573962354e+001,-1.12839635948925e+000

2.94853843458219e+004,-2.29028985872973e+001,-1.14413080171057e+000

2.98969849726987e+004,-2.29029409230208e+001,-1.16008415862602e+000

3.03143313302078e+004,-2.29029844348343e+001,-1.17625945576155e+000

3.07375036257601e+004,-2.29030291550075e+001,-1.19265975962865e+000

3.11665831864199e+004,-2.29030751166729e+001,-1.20928817824629e+000

3.16016524745350e+004,-2.29031223538482e+001,-1.22614786166716e+000

3.20427951035848e+004,-2.29031709014573e+001,-1.24324200251158e+000

3.24900958542493e+004,-2.29032207953546e+001,-1.26057383650398e+000

3.29436406907028e+004,-2.29032720723470e+001,-1.27814664301863e+000

3.34035167771346e+004,-2.29033247702185e+001,-1.29596374562632e+000

3.38698124945009e+004,-2.29033789277540e+001,-1.31402851264969e+000

3.43426174575100e+004,-2.29034345847641e+001,-1.33234435772326e+000

3.48220225318448e+004,-2.29034917821110e+001,-1.35091474035626e+000

3.53081198516260e+004,-2.29035505617332e+001,-1.36974316650634e+000

3.58010028371187e+004,-2.29036109666733e+001,-1.38883318915113e+000

3.63007662126863e+004,-2.29036730411036e+001,-1.40818840887263e+000

3.68075060249948e+004,-2.29037368303540e+001,-1.42781247444257e+000

3.73213196614721e+004,-2.29038023809403e+001,-1.44770908341269e+000

3.78423058690237e+004,-2.29038697405921e+001,-1.46788198271335e+000

3.83705647730104e+004,-2.29039389582822e+001,-1.48833496925544e+000

3.89061978964912e+004,-2.29040100842561e+001,-1.50907189053701e+000

3.94493081797342e+004,-2.29040831700623e+001,-1.53009664525640e+000

3.99999999999998e+004,-2.29041582685826e+001,-1.55141318393082e+000

4.05583791916010e+004,-2.29042354340637e+001,-1.57302550951810e+000

4.11245530662425e+004,-2.29043147221487e+001,-1.59493767804628e+000

4.16986304336447e+004,-2.29043961899100e+001,-1.61715379924564e+000

4.22807216224550e+004,-2.29044798958814e+001,-1.63967803718781e+000

4.28709385014515e+004,-2.29045659000921e+001,-1.66251461092971e+000

4.34693945010421e+004,-2.29046542641005e+001,-1.68566779516075e+000

4.40762046350642e+004,-2.29047450510287e+001,-1.70914192085684e+000

4.46914855228886e+004,-2.29048383255975e+001,-1.73294137593911e+000

4.53153554118317e+004,-2.29049341541623e+001,-1.75707060593643e+000

4.59479341998812e+004,-2.29050326047486e+001,-1.78153411465378e+000

4.65893434587380e+004,-2.29051337470893e+001,-1.80633646484504e+000

4.72397064571810e+004,-2.29052376526612e+001,-1.83148227889065e+000

4.78991481847569e+004,-2.29053443947230e+001,-1.85697623947970e+000

4.85677953758016e+004,-2.29054540483532e+001,-1.88282309029724e+000

4.92457765337964e+004,-2.29055666904888e+001,-1.90902763671486e+000

4.99332219560642e+004,-2.29056823999639e+001,-1.93559474648805e+000

5.06302637588109e+004,-2.29058012575498e+001,-1.96252935045665e+000

5.13370359025159e+004,-2.29059233459941e+001,-1.98983644324886e+000

5.20536742176771e+004,-2.29060487500617e+001,-2.01752108399198e+000

5.27803164309155e+004,-2.29061775565746e+001,-2.04558839702572e+000

5.35171021914442e+004,-2.29063098544537e+001,-2.07404357262137e+000

5.42641730979066e+004,-2.29064457347594e+001,-2.10289186770341e+000

5.50216727255895e+004,-2.29065852907335e+001,-2.13213860657714e+000

5.57897466540159e+004,-2.29067286178412e+001,-2.16178918166003e+000

5.65685424949235e+004,-2.29068758138130e+001,-2.19184905421698e+000

5.73582099206328e+004,-2.29070269786869e+001,-2.22232375509985e+000

5.81589006928121e+004,-2.29071822148511e+001,-2.25321888549248e+000

5.89707686916437e+004,-2.29073416270868e+001,-2.28454011765830e+000

5.97939699453972e+004,-2.29075053226102e+001,-2.31629319569267e+000

6.06286626604156e+004,-2.29076734111159e+001,-2.34848393628083e+000

6.14750072515201e+004,-2.29078460048195e+001,-2.38111822945766e+000

6.23331663728396e+004,-2.29080232185000e+001,-2.41420203937516e+000

6.32033049490698e+004,-2.29082051695432e+001,-2.44774140506967e+000

6.40855902071694e+004,-2.29083919779829e+001,-2.48174244123992e+000

6.49801917084985e+004,-2.29085837665443e+001,-2.51621133902326e+000

6.58872813814055e+004,-2.29087806606858e+001,-2.55115436678065e+000

6.68070335542691e+004,-2.29089827886401e+001,-2.58657787088514e+000

6.77396249890018e+004,-2.29091902814560e+001,-2.62248827651593e+000

6.86852349150199e+004,-2.29094032730394e+001,-2.65889208845619e+000

6.96440450636895e+004,-2.29096219001931e+001,-2.69579589189814e+000

7.06162397032520e+004,-2.29098463026571e+001,-2.73320635325176e+000

7.16020056742374e+004,-2.29100766231472e+001,-2.77113022096107e+000

7.26015324253724e+004,-2.29103130073937e+001,-2.80957432632484e+000

7.36150120499896e+004,-2.29105556041787e+001,-2.84854558432554e+000

7.46426393229441e+004,-2.29108045653732e+001,-2.88805099446235e+000

7.56846117380472e+004,-2.29110600459719e+001,-2.92809764159431e+000

7.67411295460207e+004,-2.29113222041284e+001,-2.96869269678911e+000

7.78123957929823e+004,-2.29115912011889e+001,-3.00984341817912e+000

7.88986163594682e+004,-2.29118672017235e+001,-3.05155715182898e+000

7.99999999999995e+004,-2.29121503735577e+001,-3.09384133260840e+000

8.11167583832018e+004,-2.29124408878017e+001,-3.13670348507728e+000

8.22491061324848e+004,-2.29127389188780e+001,-3.18015122438023e+000

8.33972608672892e+004,-2.29130446445484e+001,-3.22419225715043e+000

8.45614432449099e+004,-2.29133582459375e+001,-3.26883438242861e+000

8.57418770029029e+004,-2.29136799075566e+001,-3.31408549259119e+000

8.69387890020841e+004,-2.29140098173236e+001,-3.35995357429331e+000

8.81524092701283e+004,-2.29143481665826e+001,-3.40644670942619e+000

8.93829710457770e+004,-2.29146951501202e+001,-3.45357307608855e+000

9.06307108236633e+004,-2.29150509661805e+001,-3.50134094957643e+000

9.18958683997622e+004,-2.29154158164773e+001,-3.54975870338761e+000

9.31786869174758e+004,-2.29157899062036e+001,-3.59883481024808e+000

9.44794129143618e+004,-2.29161734440401e+001,-3.64857784315499e+000

9.57982963695136e+004,-2.29165666421597e+001,-3.69899647644343e+000

9.71355907516031e+004,-2.29169697162299e+001,-3.75009948687464e+000

9.84915530675926e+004,-2.29173828854128e+001,-3.80189575474899e+000

9.98664439121282e+004,-2.29178063723621e+001,-3.85439426504438e+000

1.01260527517622e+005,-2.29182404032175e+001,-3.90760410858224e+000

1.02674071805032e+005,-2.29186852075962e+001,-3.96153448322341e+000

1.04107348435354e+005,-2.29191410185815e+001,-4.01619469509372e+000

1.05560632861831e+005,-2.29196080727086e+001,-4.07159415984413e+000

1.07034204382888e+005,-2.29200866099477e+001,-4.12774240394478e+000

1.08528346195813e+005,-2.29205768736834e+001,-4.18464906601697e+000

1.10043345451179e+005,-2.29210791106926e+001,-4.24232389820420e+000

1.11579493308032e+005,-2.29215935711182e+001,-4.30077676758423e+000

1.13137084989847e+005,-2.29221205084408e+001,-4.36001765762652e+000

1.14716419841265e+005,-2.29226601794471e+001,-4.42005666969398e+000

1.16317801385624e+005,-2.29232128441964e+001,-4.48090402459606e+000

1.17941537383287e+005,-2.29237787659834e+001,-4.54257006419066e+000

1.19587939890794e+005,-2.29243582112999e+001,-4.60506525304260e+000

1.21257325320831e+005,-2.29249514497927e+001,-4.66840018013671e+000

1.22950014503040e+005,-2.29255587542208e+001,-4.73258556065225e+000

1.24666332745679e+005,-2.29261804004095e+001,-4.79763223779834e+000

1.26406609898139e+005,-2.29268166672033e+001,-4.86355118471549e+000

1.28171180414339e+005,-2.29274678364175e+001,-4.93035350644439e+000

1.29960383416997e+005,-2.29281341927879e+001,-4.99805044196633e+000

1.31774562762811e+005,-2.29288160239203e+001,-5.06665336631731e+000

1.33614067108538e+005,-2.29295136202391e+001,-5.13617379277845e+000

1.35479249978003e+005,-2.29302272749357e+001,-5.20662337514681e+000

1.37370469830040e+005,-2.29309572839168e+001,-5.27801391008859e+000

1.39288090127379e+005,-2.29317039457545e+001,-5.35035733957710e+000

1.41232479406504e+005,-2.29324675616361e+001,-5.42366575341996e+000

1.43204011348474e+005,-2.29332484353161e+001,-5.49795139187677e+000

1.45203064850745e+005,-2.29340468730710e+001,-5.57322664837007e+000

1.47230024099979e+005,-2.29348631836559e+001,-5.64950407229243e+000

1.49285278645888e+005,-2.29356976782650e+001,-5.72679637191324e+000

1.51369223476094e+005,-2.29365506704960e+001,-5.80511641738444e+000

1.53482259092041e+005,-2.29374224763197e+001,-5.88447724385097e+000

1.55624791585964e+005,-2.29383134140544e+001,-5.96489205466535e+000

1.57797232718936e+005,-2.29392238043472e+001,-6.04637422470788e+000

1.59999999999999e+005,-2.29401539701619e+001,-6.12893730381715e+000

1.62233516766403e+005,-2.29411042367754e+001,-6.21259502032850e+000

1.64498212264969e+005,-2.29420749317822e+001,-6.29736128472327e+000

1.66794521734578e+005,-2.29430663851093e+001,-6.38325019338917e+000

1.69122886489819e+005,-2.29440789290413e+001,-6.47027603249280e+000

1.71483754005805e+005,-2.29451128982573e+001,-6.55845328196338e+000

1.73877578004168e+005,-2.29461686298809e+001,-6.64779661958757e+000

1.76304818540256e+005,-2.29472464635425e+001,-6.73832092521690e+000

1.78765942091554e+005,-2.29483467414582e+001,-6.83004128508328e+000

1.81261421647326e+005,-2.29494698085227e+001,-6.92297299622338e+000

1.83791736799524e+005,-2.29506160124200e+001,-7.01713157101047e+000

1.86357373834951e+005,-2.29517857037515e+001,-7.11253274178998e+000

1.88958825828723e+005,-2.29529792361837e+001,-7.20919246561742e+000

1.91596592739027e+005,-2.29541969666150e+001,-7.30712692909335e+000

1.94271181503206e+005,-2.29554392553642e+001,-7.40635255329605e+000

1.96983106135185e+005,-2.29567064663811e+001,-7.50688599880186e+000

1.99732887824256e+005,-2.29579989674803e+001,-7.60874417079388e+000

2.02521055035243e+005,-2.29593171305988e+001,-7.71194422425152e+000

2.05348143610063e+005,-2.29606613320798e+001,-7.81650356921499e+000

2.08214696870707e+005,-2.29620319529815e+001,-7.92243987612016e+000

2.11121265723661e+005,-2.29634293794139e+001,-8.02977108119607e+000

2.14068408765776e+005,-2.29648540029030e+001,-8.13851539191907e+000

2.17056692391625e+005,-2.29663062207848e+001,-8.24869129251537e+000

2.20086690902357e+005,-2.29677864366276e+001,-8.36031754950456e+000

2.23158986616063e+005,-2.29692950606854e+001,-8.47341321727647e+000

2.26274169979693e+005,-2.29708325103829e+001,-8.58799764369159e+000

2.29432839682530e+005,-2.29723992108306e+001,-8.70409047569626e+000

2.32635602771247e+005,-2.29739955953731e+001,-8.82171166494521e+000

2.35883074766574e+005,-2.29756221061701e+001,-8.94088147341856e+000

2.39175879781588e+005,-2.29772791948095e+001,-9.06162047902641e+000

2.42514650641661e+005,-2.29789673229539e+001,-9.18394958118993e+000

2.45900029006080e+005,-2.29806869630213e+001,-9.30789000638691e+000

2.49332665491357e+005,-2.29824385988978e+001,-9.43346331365489e+000

2.52813219796278e+005,-2.29842227266848e+001,-9.56069140003890e+000

2.56342360828676e+005,-2.29860398554794e+001,-9.68959650597296e+000

2.59920766833993e+005,-2.29878905081874e+001,-9.82020122058669e+000

2.63549125525621e+005,-2.29897752223694e+001,-9.95252848692550e+000

2.67228134217075e+005,-2.29916945511196e+001,-1.00866016070737e+001

2.70958499956006e+005,-2.29936490639764e+001,-1.02224442471706e+001

2.74740939660078e+005,-2.29956393478638e+001,-1.03600804423102e+001

2.78576180254757e+005,-2.29976660080646e+001,-1.04995346013136e+001

2.82464958813007e+005,-2.29997296692223e+001,-1.06408315113652e+001

2.86408022696948e+005,-2.30018309763732e+001,-1.07839963425033e+001

2.90406129701488e+005,-2.30039705960059e+001,-1.09290546519572e+001

2.94460048199957e+005,-2.30061492171486e+001,-1.10760323883213e+001

2.98570557291775e+005,-2.30083675524818e+001,-1.12249558955578e+001

3.02738446952187e+005,-2.30106263394765e+001,-1.13758519168234e+001

3.06964518184081e+005,-2.30129263415564e+001,-1.15287475981095e+001

3.11249583171928e+005,-2.30152683492821e+001,-1.16836704916916e+001

3.15594465437872e+005,-2.30176531815569e+001,-1.18406485593826e+001

3.19999999999997e+005,-2.30200816868530e+001,-1.19997101755821e+001

3.24467033532806e+005,-2.30225547444557e+001,-1.21608841301207e+001

3.28996424529938e+005,-2.30250732657253e+001,-1.23241996308923e+001

3.33589043469155e+005,-2.30276381953753e+001,-1.24896863062719e+001

3.38245772979638e+005,-2.30302505127645e+001,-1.26573742073165e+001

3.42967508011610e+005,-2.30329112332032e+001,-1.28272938097464e+001

3.47755156008335e+005,-2.30356214092705e+001,-1.29994760157053e+001

3.52609637080511e+005,-2.30383821321432e+001,-1.31739521552977e+001

3.57531884183106e+005,-2.30411945329333e+001,-1.33507539879034e+001

3.62522843294651e+005,-2.30440597840337e+001,-1.35299137032687e+001

3.67583473599047e+005,-2.30469791004713e+001,-1.37114639223743e+001

3.72714747669902e+005,-2.30499537412652e+001,-1.38954376980829e+001

3.77917651657445e+005,-2.30529850107901e+001,-1.40818685155620e+001

3.83193185478053e+005,-2.30560742601427e+001,-1.42707902924911e+001

3.88542363006410e+005,-2.30592228885116e+001,-1.44622373790486e+001

3.93966212270369e+005,-2.30624323445477e+001,-1.46562445576840e+001

3.99465775648511e+005,-2.30657041277366e+001,-1.48528470426751e+001

4.05042110070485e+005,-2.30690397897705e+001,-1.50520804794763e+001

4.10696287220124e+005,-2.30724409359190e+001,-1.52539809438551e+001

4.16429393741414e+005,-2.30759092264001e+001,-1.54585849408252e+001

4.22242531447321e+005,-2.30794463777475e+001,-1.56659294033731e+001

4.28136817531551e+005,-2.30830541641773e+001,-1.58760516909850e+001

4.34113384783250e+005,-2.30867344189504e+001,-1.60889895879732e+001

4.40173381804713e+005,-2.30904890357332e+001,-1.63047813016065e+001

4.46317973232124e+005,-2.30943199699538e+001,-1.65234654600442e+001

4.52548339959385e+005,-2.30982292401552e+001,-1.67450811100768e+001

4.58865679365059e+005,-2.31022189293444e+001,-1.69696677146747e+001

4.65271205542494e+005,-2.31062911863374e+001,-1.71972651503446e+001

4.71766149533147e+005,-2.31104482271007e+001,-1.74279137042950e+001

4.78351759563174e+005,-2.31146923360880e+001,-1.76616540714122e+001

4.85029301283321e+005,-2.31190258675730e+001,-1.78985273510424e+001

4.91800058012158e+005,-2.31234512469785e+001,-1.81385750435845e+001

4.98665330982714e+005,-2.31279709722001e+001,-1.83818390468869e+001

5.05626439592555e+005,-2.31325876149275e+001,-1.86283616524507e+001

5.12684721657352e+005,-2.31373038219600e+001,-1.88781855414343e+001

5.19841533667984e+005,-2.31421223165189e+001,-1.91313537804563e+001

5.27098251051240e+005,-2.31470458995554e+001,-1.93879098171958e+001

5.34456268434150e+005,-2.31520774510543e+001,-1.96478974757815e+001

5.41916999912011e+005,-2.31572199313331e+001,-1.99113609519699e+001

