Freq.,VOut,OutRef

1.00000000000000e+004,-2.52545743278089e+001,-1.92339982805076e-001

1.01395947979003e+004,-2.52545780526491e+001,-1.95024239952283e-001

1.02811382665607e+004,-2.52545818820142e+001,-1.97745937866848e-001

1.04246576084112e+004,-2.52545858188312e+001,-2.00505597931163e-001

1.05701804056138e+004,-2.52545898661095e+001,-2.03303748747942e-001

1.07177346253629e+004,-2.52545940269424e+001,-2.06140926244632e-001

1.08673486252606e+004,-2.52545983045089e+001,-2.09017673771258e-001

1.10190511587661e+004,-2.52546027020773e+001,-2.11934542201481e-001

1.11728713807222e+004,-2.52546072230065e+001,-2.14892090034797e-001

1.13288388529580e+004,-2.52546118707492e+001,-2.17890883502826e-001

1.14869835499703e+004,-2.52546166488543e+001,-2.20931496670400e-001

1.16473358646846e+004,-2.52546215609698e+001,-2.24014511543375e-001

1.18099266142953e+004,-2.52546266108445e+001,-2.27140518180993e-001

1.19747870461893e+004,-2.52546318023322e+001,-2.30310114798020e-001

1.21419488439505e+004,-2.52546371393940e+001,-2.33523907878579e-001

1.23114441334492e+004,-2.52546426261010e+001,-2.36782512288772e-001

1.24833054890161e+004,-2.52546482666373e+001,-2.40086551390978e-001

1.26575659397028e+004,-2.52546540653037e+001,-2.43436657155799e-001

1.28342589756290e+004,-2.52546600265205e+001,-2.46833470279038e-001

1.30134185544193e+004,-2.52546661548306e+001,-2.50277640301840e-001

1.31950791077289e+004,-2.52546724549033e+001,-2.53769825727951e-001

1.33792755478611e+004,-2.52546789315377e+001,-2.57310694143706e-001

1.35660432744767e+004,-2.52546855896655e+001,-2.60900922343630e-001

1.37554181813974e+004,-2.52546924343560e+001,-2.64541196450215e-001

1.39474366635040e+004,-2.52546994708186e+001,-2.68232212041223e-001

1.41421356237309e+004,-2.52547067044075e+001,-2.71974674276619e-001

1.43395524801583e+004,-2.52547141406248e+001,-2.75769298027441e-001

1.45397251732031e+004,-2.52547217851258e+001,-2.79616808002808e-001

1.47426921729110e+004,-2.52547296437217e+001,-2.83517938885239e-001

1.49484924863494e+004,-2.52547377223849e+001,-2.87473435462248e-001

1.51571656651040e+004,-2.52547460272530e+001,-2.91484052759932e-001

1.53687518128801e+004,-2.52547545646336e+001,-2.95550556180175e-001

1.55832915932100e+004,-2.52547633410081e+001,-2.99673721640382e-001

1.58008262372675e+004,-2.52547723630376e+001,-3.03854335710386e-001

1.60213975517924e+004,-2.52547816375666e+001,-3.08093195755278e-001

1.62450479271247e+004,-2.52547911716294e+001,-3.12391110076219e-001

1.64718203453514e+004,-2.52548009724532e+001,-3.16748898060194e-001

1.67017583885674e+004,-2.52548110474654e+001,-3.21167390320195e-001

1.69349062472505e+004,-2.52548214042979e+001,-3.25647428846482e-001

1.71713087287550e+004,-2.52548320507927e+001,-3.30189867156232e-001

1.74110112659224e+004,-2.52548429950076e+001,-3.34795570444087e-001

1.76540599258131e+004,-2.52548542452222e+001,-3.39465415736214e-001

1.79005014185594e+004,-2.52548658099439e+001,-3.44200292043742e-001

1.81503831063432e+004,-2.52548776979138e+001,-3.49001100520341e-001

1.84037530124975e+004,-2.52548899181125e+001,-3.53868754622289e-001

1.86606598307361e+004,-2.52549024797681e+001,-3.58804180263350e-001

1.89211529345119e+004,-2.52549153923607e+001,-3.63808315984294e-001

1.91852823865052e+004,-2.52549286656307e+001,-3.68882113109101e-001

1.94530989482457e+004,-2.52549423095854e+001,-3.74026535914807e-001

1.97246540898671e+004,-2.52549563345055e+001,-3.79242561797541e-001

1.99999999999999e+004,-2.52549707509529e+001,-3.84531181441858e-001

2.02791895958005e+004,-2.52549855697783e+001,-3.89893398989564e-001

2.05622765331213e+004,-2.52550008021284e+001,-3.95330232215409e-001

2.08493152168224e+004,-2.52550164594538e+001,-4.00842712699221e-001

2.11403608112276e+004,-2.52550325535174e+001,-4.06431886002300e-001

2.14354692507258e+004,-2.52550490964022e+001,-4.12098811844727e-001

2.17346972505211e+004,-2.52550661005200e+001,-4.17844564287216e-001

2.20381023175322e+004,-2.52550835786196e+001,-4.23670231911013e-001

2.23457427614443e+004,-2.52551015437964e+001,-4.29576917999567e-001

2.26576777059159e+004,-2.52551200095005e+001,-4.35565740727127e-001

2.29739670999406e+004,-2.52551389895467e+001,-4.41637833342840e-001

2.32946717293690e+004,-2.52551584981236e+001,-4.47794344360005e-001

2.36198532285905e+004,-2.52551785498036e+001,-4.54036437745342e-001

2.39495740923785e+004,-2.52551991595523e+001,-4.60365293113667e-001

2.42838976879009e+004,-2.52552203427392e+001,-4.66782105918158e-001

2.46228882668982e+004,-2.52552421151479e+001,-4.73288087649422e-001

2.49666109780322e+004,-2.52552644929867e+001,-4.79884466028812e-001

2.53151318794055e+004,-2.52552874928995e+001,-4.86572485210614e-001

2.56685179512580e+004,-2.52553111319768e+001,-4.93353405980361e-001

2.60268371088386e+004,-2.52553354277673e+001,-5.00228505959254e-001

2.63901582154578e+004,-2.52553603982896e+001,-5.07199079804997e-001

2.67585510957221e+004,-2.52553860620437e+001,-5.14266439418967e-001

2.71320865489533e+004,-2.52554124380235e+001,-5.21431914153345e-001

2.75108363627948e+004,-2.52554395457290e+001,-5.28696851019366e-001

2.78948733270080e+004,-2.52554674051792e+001,-5.36062614898139e-001

2.82842712474618e+004,-2.52554960369250e+001,-5.43530588749845e-001

2.86791049603164e+004,-2.52555254620620e+001,-5.51102173830906e-001

2.90794503464061e+004,-2.52555557022448e+001,-5.58778789903470e-001

2.94853843458219e+004,-2.52555867797003e+001,-5.66561875456779e-001

2.98969849726987e+004,-2.52556187172416e+001,-5.74452887919993e-001

3.03143313302078e+004,-2.52556515382829e+001,-5.82453303883055e-001

3.07375036257601e+004,-2.52556852668537e+001,-5.90564619316620e-001

3.11665831864199e+004,-2.52557199276141e+001,-5.98788349792986e-001

3.16016524745350e+004,-2.52557555458695e+001,-6.07126030707311e-001

3.20427951035848e+004,-2.52557921475868e+001,-6.15579217503608e-001

3.24900958542493e+004,-2.52558297594094e+001,-6.24149485898143e-001

3.29436406907028e+004,-2.52558684086745e+001,-6.32838432103284e-001

3.34035167771346e+004,-2.52559081234280e+001,-6.41647673058071e-001

3.38698124945009e+004,-2.52559489324427e+001,-6.50578846651845e-001

3.43426174575100e+004,-2.52559908652341e+001,-6.59633611955447e-001

3.48220225318448e+004,-2.52560339520783e+001,-6.68813649449514e-001

3.53081198516260e+004,-2.52560782240296e+001,-6.78120661255396e-001

3.58010028371187e+004,-2.52561237129383e+001,-6.87556371363031e-001

3.63007662126863e+004,-2.52561704514685e+001,-6.97122525866108e-001

3.68075060249948e+004,-2.52562184731170e+001,-7.06820893191337e-001

3.73213196614721e+004,-2.52562678122321e+001,-7.16653264330372e-001

3.78423058690237e+004,-2.52563185040323e+001,-7.26621453074381e-001

3.83705647730104e+004,-2.52563705846255e+001,-7.36727296245725e-001

3.89061978964912e+004,-2.52564240910290e+001,-7.46972653929639e-001

3.94493081797342e+004,-2.52564790611890e+001,-7.57359409709861e-001

3.99999999999998e+004,-2.52565355340008e+001,-7.67889470900560e-001

4.05583791916010e+004,-2.52565935493289e+001,-7.78564768778027e-001

4.11245530662425e+004,-2.52566531480280e+001,-7.89387258815309e-001

4.16986304336447e+004,-2.52567143719632e+001,-8.00358920915126e-001

4.22807216224550e+004,-2.52567772640315e+001,-8.11481759638781e-001

4.28709385014515e+004,-2.52568418681828e+001,-8.22757804441022e-001

4.34693945010421e+004,-2.52569082294414e+001,-8.34189109899033e-001

4.40762046350642e+004,-2.52569763939272e+001,-8.45777755943971e-001

4.46914855228886e+004,-2.52570464088779e+001,-8.57525848089153e-001

4.53153554118317e+004,-2.52571183226710e+001,-8.69435517658954e-001

4.59479341998812e+004,-2.52571921848451e+001,-8.81508922015160e-001

4.65893434587380e+004,-2.52572680461228e+001,-8.93748244785009e-001

4.72397064571810e+004,-2.52573459584322e+001,-9.06155696084565e-001

4.78991481847569e+004,-2.52574259749298e+001,-9.18733512741514e-001

4.85677953758016e+004,-2.52575081500223e+001,-9.31483958518978e-001

4.92457765337964e+004,-2.52575925393896e+001,-9.44409324332400e-001

4.99332219560642e+004,-2.52576792000060e+001,-9.57511928471368e-001

5.06302637588109e+004,-2.52577681901636e+001,-9.70794116813376e-001

5.13370359025159e+004,-2.52578595694936e+001,-9.84258263039294e-001

5.20536742176771e+004,-2.52579533989891e+001,-9.97906768844792e-001

5.27803164309155e+004,-2.52580497410263e+001,-1.01174206415115e+000

5.35171021914442e+004,-2.52581486593867e+001,-1.02576660731162e+000

5.42641730979066e+004,-2.52582502192785e+001,-1.03998288531648e+000

5.50216727255895e+004,-2.52583544873578e+001,-1.05439341399610e+000

5.57897466540159e+004,-2.52584615317493e+001,-1.06900073821980e+000

5.65685424949235e+004,-2.52585714220673e+001,-1.08380743209271e+000

5.73582099206328e+004,-2.52586842294353e+001,-1.09881609915006e+000

5.81589006928121e+004,-2.52588000265059e+001,-1.11402937254726e+000

5.89707686916437e+004,-2.52589188874802e+001,-1.12944991524810e+000

5.97939699453972e+004,-2.52590408881257e+001,-1.14508042020940e+000

6.06286626604156e+004,-2.52591661057949e+001,-1.16092361056193e+000

6.14750072515201e+004,-2.52592946194417e+001,-1.17698223978970e+000

6.23331663728396e+004,-2.52594265096385e+001,-1.19325909190255e+000

6.32033049490698e+004,-2.52595618585916e+001,-1.20975698161005e+000

6.40855902071694e+004,-2.52597007501553e+001,-1.22647875448856e+000

6.49801917084985e+004,-2.52598432698460e+001,-1.24342728714670e+000

6.58872813814055e+004,-2.52599895048545e+001,-1.26060548738579e+000

6.68070335542691e+004,-2.52601395440576e+001,-1.27801629435949e+000

6.77396249890018e+004,-2.52602934780278e+001,-1.29566267872850e+000

6.86852349150199e+004,-2.52604513990424e+001,-1.31354764281226e+000

6.96440450636895e+004,-2.52606134010904e+001,-1.33167422073869e+000

7.06162397032520e+004,-2.52607795798786e+001,-1.35004547859035e+000

7.16020056742374e+004,-2.52609500328355e+001,-1.36866451454772e+000

7.26015324253724e+004,-2.52611248591135e+001,-1.38753445903145e+000

7.36150120499896e+004,-2.52613041595899e+001,-1.40665847483904e+000

7.46426393229441e+004,-2.52614880368647e+001,-1.42603975728481e+000

7.56846117380472e+004,-2.52616765952577e+001,-1.44568153433278e+000

7.67411295460207e+004,-2.52618699408023e+001,-1.46558706673230e+000

7.78123957929823e+004,-2.52620681812377e+001,-1.48575964814922e+000

7.88986163594682e+004,-2.52622714259980e+001,-1.50620260530114e+000

7.99999999999995e+004,-2.52624797861997e+001,-1.52691929808739e+000

8.11167583832018e+004,-2.52626933746250e+001,-1.54791311972401e+000

8.22491061324848e+004,-2.52629123057044e+001,-1.56918749687656e+000

8.33972608672892e+004,-2.52631366954940e+001,-1.59074588979681e+000

8.45614432449099e+004,-2.52633666616516e+001,-1.61259179246035e+000

8.57418770029029e+004,-2.52636023234086e+001,-1.63472873270884e+000

8.69387890020841e+004,-2.52638438015385e+001,-1.65716027239479e+000

8.81524092701283e+004,-2.52640912183228e+001,-1.67989000753196e+000

8.93829710457770e+004,-2.52643446975121e+001,-1.70292156845156e+000

9.06307108236633e+004,-2.52646043642844e+001,-1.72625861996525e+000

9.18958683997622e+004,-2.52648703451991e+001,-1.74990486153553e+000

9.31786869174758e+004,-2.52651427681468e+001,-1.77386402745652e+000

9.44794129143618e+004,-2.52654217622952e+001,-1.79813988704337e+000

9.57982963695136e+004,-2.52657074580312e+001,-1.82273624483459e+000

9.71355907516031e+004,-2.52659999868975e+001,-1.84765694080700e+000

9.84915530675926e+004,-2.52662994815255e+001,-1.87290585060637e+000

9.98664439121282e+004,-2.52666060755638e+001,-1.89848688579156e+000

1.01260527517622e+005,-2.52669199036010e+001,-1.92440399409966e+000

1.02674071805032e+005,-2.52672411010846e+001,-1.95066115972843e+000

1.04107348435354e+005,-2.52675698042347e+001,-1.97726240364196e+000

1.05560632861831e+005,-2.52679061499522e+001,-2.00421178389826e+000

1.07034204382888e+005,-2.52682502757233e+001,-2.03151339600277e+000

1.08528346195813e+005,-2.52686023195169e+001,-2.05917137329103e+000

1.10043345451179e+005,-2.52689624196790e+001,-2.08718988733814e+000

1.11579493308032e+005,-2.52693307148199e+001,-2.11557314840287e+000

1.13137084989847e+005,-2.52697073436979e+001,-2.14432540590572e+000

1.14716419841265e+005,-2.52700924450966e+001,-2.17345094894270e+000

1.16317801385624e+005,-2.52704861576976e+001,-2.20295410684028e+000

1.17941537383287e+005,-2.52708886199477e+001,-2.23283924975281e+000

1.19587939890794e+005,-2.52712999699213e+001,-2.26311078930184e+000

1.21257325320831e+005,-2.52717203451779e+001,-2.29377317926761e+000

1.22950014503040e+005,-2.52721498826140e+001,-2.32483091632700e+000

1.24666332745679e+005,-2.52725887183107e+001,-2.35628854084825e+000

1.26406609898139e+005,-2.52730369873771e+001,-2.38815063773966e+000

1.28171180414339e+005,-2.52734948237880e+001,-2.42042183735900e+000

1.29960383416997e+005,-2.52739623602185e+001,-2.45310681648587e+000

1.31774562762811e+005,-2.52744397278741e+001,-2.48621029935733e+000

1.33614067108538e+005,-2.52749270563172e+001,-2.51973705877526e+000

1.35479249978003e+005,-2.52754244732894e+001,-2.55369191728307e+000

1.37370469830040e+005,-2.52759321045321e+001,-2.58807974841824e+000

1.39288090127379e+005,-2.52764500736031e+001,-2.62290547804199e+000

1.41232479406504e+005,-2.52769785016911e+001,-2.65817408575076e+000

1.43204011348474e+005,-2.52775175074289e+001,-2.69389060636982e+000

1.45203064850745e+005,-2.52780672067041e+001,-2.73006013153563e+000

1.47230024099979e+005,-2.52786277124699e+001,-2.76668781136548e+000

1.49285278645888e+005,-2.52791991345545e+001,-2.80377885622088e+000

1.51369223476094e+005,-2.52797815794719e+001,-2.84133853856314e+000

1.53482259092041e+005,-2.52803751502319e+001,-2.87937219490940e+000

1.55624791585964e+005,-2.52809799461530e+001,-2.91788522788552e+000

1.57797232718936e+005,-2.52815960626765e+001,-2.95688310837984e+000

1.59999999999999e+005,-2.52822235911840e+001,-2.99637137780171e+000

1.62233516766403e+005,-2.52828626188183e+001,-3.03635565044393e+000

1.64498212264969e+005,-2.52835132283082e+001,-3.07684161595129e+000

1.66794521734578e+005,-2.52841754977997e+001,-3.11783504189646e+000

1.69122886489819e+005,-2.52848495006921e+001,-3.15934177646343e+000

1.71483754005805e+005,-2.52855353054817e+001,-3.20136775124009e+000

1.73877578004168e+005,-2.52862329756129e+001,-3.24391898411925e+000

1.76304818540256e+005,-2.52869425693387e+001,-3.28700158230819e+000

1.78765942091554e+005,-2.52876641395900e+001,-3.33062174544510e+000

1.81261421647326e+005,-2.52883977338565e+001,-3.37478576882459e+000

1.83791736799524e+005,-2.52891433940783e+001,-3.41950004672730e+000

1.86357373834951e+005,-2.52899011565509e+001,-3.46477107585344e+000

1.88958825828723e+005,-2.52906710518429e+001,-3.51060545885915e+000

1.91596592739027e+005,-2.52914531047290e+001,-3.55700990799073e+000

1.94271181503206e+005,-2.52922473341380e+001,-3.60399124881542e+000

1.96983106135185e+005,-2.52930537531172e+001,-3.65155642404583e+000

1.99732887824256e+005,-2.52938723688144e+001,-3.69971249745056e+000

2.02521055035243e+005,-2.52947031824778e+001,-3.74846665785095e+000

2.05348143610063e+005,-2.52955461894754e+001,-3.79782622319740e+000

2.08214696870707e+005,-2.52964013793342e+001,-3.84779864471745e+000

2.11121265723661e+005,-2.52972687358000e+001,-3.89839151113461e+000

2.14068408765776e+005,-2.52981482369188e+001,-3.94961255294800e+000

2.17056692391625e+005,-2.52990398551408e+001,-4.00146964676745e+000

2.20086690902357e+005,-2.52999435574466e+001,-4.05397081969697e+000

2.23158986616063e+005,-2.53008593054975e+001,-4.10712425376129e+000

2.26274169979693e+005,-2.53017870558094e+001,-4.16093829036264e+000

2.29432839682530e+005,-2.53027267599513e+001,-4.21542143476587e+000

2.32635602771247e+005,-2.53036783647683e+001,-4.27058236059909e+000

2.35883074766574e+005,-2.53046418126304e+001,-4.32642991436432e+000

2.39175879781588e+005,-2.53056170417056e+001,-4.38297311994652e+000

2.42514650641661e+005,-2.53066039862592e+001,-4.44022118311545e+000

2.45900029006080e+005,-2.53076025769782e+001,-4.49818349600780e+000

2.49332665491357e+005,-2.53086127413212e+001,-4.55686964158395e+000

2.52813219796278e+005,-2.53096344038930e+001,-4.61628939804732e+000

2.56342360828676e+005,-2.53106674868450e+001,-4.67645274321935e+000

2.59920766833993e+005,-2.53117119102993e+001,-4.73736985885907e+000

2.63549125525621e+005,-2.53127675927974e+001,-4.79905113492134e+000

2.67228134217075e+005,-2.53138344517724e+001,-4.86150717374139e+000

2.70958499956006e+005,-2.53149124040435e+001,-4.92474879413990e+000

2.74740939660078e+005,-2.53160013663340e+001,-4.98878703543931e+000

2.78576180254757e+005,-2.53171012558089e+001,-5.05363316138417e+000

2.82464958813007e+005,-2.53182119906340e+001,-5.11929866395708e+000

2.86408022696948e+005,-2.53193334905541e+001,-5.18579526708356e+000

2.90406129701488e+005,-2.53204656774896e+001,-5.25313493021982e+000

2.94460048199957e+005,-2.53216084761499e+001,-5.32132985181749e+000

2.98570557291775e+005,-2.53227618146630e+001,-5.39039247265764e+000

3.02738446952187e+005,-2.53239256252192e+001,-5.46033547905330e+000

3.06964518184081e+005,-2.53250998447296e+001,-5.53117180591140e+000

3.11249583171928e+005,-2.53262844154943e+001,-5.60291463965477e+000

3.15594465437872e+005,-2.53274792858829e+001,-5.67557742099857e+000

3.19999999999997e+005,-2.53286844110234e+001,-5.74917384758031e+000

3.24467033532806e+005,-2.53298997534987e+001,-5.82371787644123e+000

3.28996424529938e+005,-2.53311252840490e+001,-5.89922372635886e+000

3.33589043469155e+005,-2.53323609822799e+001,-5.97570588002994e+000

3.38245772979638e+005,-2.53336068373724e+001,-6.05317908610597e+000

3.42967508011610e+005,-2.53348628487954e+001,-6.13165836108067e+000

3.47755156008335e+005,-2.53361290270187e+001,-6.21115899103298e+000

3.52609637080511e+005,-2.53374053942246e+001,-6.29169653322811e+000

3.57531884183106e+005,-2.53386919850173e+001,-6.37328681758017e+000

3.62522843294651e+005,-2.53399888471288e+001,-6.45594594797985e+000

3.67583473599047e+005,-2.53412960421195e+001,-6.53969030349315e+000

3.72714747669902e+005,-2.53426136460734e+001,-6.62453653943515e+000

3.77917651657445e+005,-2.53439417502858e+001,-6.71050158832602e+000

3.83193185478053e+005,-2.53452804619428e+001,-6.79760266073429e+000

3.88542363006410e+005,-2.53466299047922e+001,-6.88585724601541e+000

3.93966212270369e+005,-2.53479902198039e+001,-6.97528311295199e+000

3.99465775648511e+005,-2.53493615658203e+001,-7.06589831030381e+000

4.05042110070485e+005,-2.53507441201952e+001,-7.15772116727559e+000

4.10696287220124e+005,-2.53521380794207e+001,-7.25077029390928e+000

4.16429393741414e+005,-2.53535436597419e+001,-7.34506458141162e+000

4.22242531447321e+005,-2.53549610977596e+001,-7.44062320242335e+000

4.28136817531551e+005,-2.53563906510195e+001,-7.53746561123938e+000

4.34113384783250e+005,-2.53578325985885e+001,-7.63561154398886e+000

4.40173381804713e+005,-2.53592872416185e+001,-7.73508101878296e+000

4.46317973232124e+005,-2.53607549038968e+001,-7.83589433583940e+000

4.52548339959385e+005,-2.53622359323841e+001,-7.93807207759183e+000

4.58865679365059e+005,-2.53637306977397e+001,-8.04163510879291e+000

4.65271205542494e+005,-2.53652395948350e+001,-8.14660457661738e+000

4.71766149533147e+005,-2.53667630432552e+001,-8.25300191077514e+000

4.78351759563174e+005,-2.53683014877896e+001,-8.36084882363987e+000

4.85029301283321e+005,-2.53698553989116e+001,-8.47016731040071e+000

4.91800058012158e+005,-2.53714252732493e+001,-8.58097964924540e+000

4.98665330982714e+005,-2.53730116340464e+001,-8.69330840157753e+000

5.05626439592555e+005,-2.53746150316151e+001,-8.80717641227765e+000

5.12684721657352e+005,-2.53762360437820e+001,-8.92260681001166e+000

5.19841533667984e+005,-2.53778752763277e+001,-9.03962300759099e+000

5.27098251051240e+005,-2.53795333634199e+001,-9.15824870239046e+000

5.34456268434150e+005,-2.53812109680439e+001,-9.27850787682670e+000

5.41916999912011e+005,-2.53829087824287e+001,-9.40042479890066e+000

