Freq.,VOut,OutRef

1.00000000000000e+004,-1.17825972569207e+001,-8.60198077172276e-002

1.01395947979003e+004,-1.17825999094593e+001,-8.72200384840933e-002

1.02811382665607e+004,-1.17826026364163e+001,-8.84370000575963e-002

1.04246576084112e+004,-1.17826054398746e+001,-8.96709249848709e-002

1.05701804056138e+004,-1.17826083219762e+001,-9.09220490126349e-002

1.07177346253629e+004,-1.17826112849221e+001,-9.21906111370145e-002

1.08673486252606e+004,-1.17826143309745e+001,-9.34768536444690e-002

1.10190511587661e+004,-1.17826174624591e+001,-9.47810221540414e-002

1.11728713807222e+004,-1.17826206817660e+001,-9.61033656625405e-002

1.13288388529580e+004,-1.17826239913519e+001,-9.74441365930272e-002

1.14869835499703e+004,-1.17826273937422e+001,-9.88035908335557e-002

1.16473358646846e+004,-1.17826308915319e+001,-1.00181987791602e-001

1.18099266142953e+004,-1.17826344873886e+001,-1.01579590435304e-001

1.19747870461893e+004,-1.17826381840542e+001,-1.02996665338862e-001

1.21419488439505e+004,-1.17826419843467e+001,-1.04433482736264e-001

1.23114441334492e+004,-1.17826458911622e+001,-1.05890316566530e-001

1.24833054890161e+004,-1.17826499074774e+001,-1.07367444521786e-001

1.26575659397028e+004,-1.17826540363518e+001,-1.08865148097997e-001

1.28342589756290e+004,-1.17826582809293e+001,-1.10383712646516e-001

1.30134185544193e+004,-1.17826626444418e+001,-1.11923427419351e-001

1.31950791077289e+004,-1.17826671302103e+001,-1.13484585626784e-001

1.33792755478611e+004,-1.17826717416481e+001,-1.15067484484823e-001

1.35660432744767e+004,-1.17826764822632e+001,-1.16672425269101e-001

1.37554181813974e+004,-1.17826813556603e+001,-1.18299713368522e-001

1.39474366635040e+004,-1.17826863655447e+001,-1.19949658336065e-001

1.41421356237309e+004,-1.17826915157237e+001,-1.21622573945186e-001

1.43395524801583e+004,-1.17826968101100e+001,-1.23318778245590e-001

1.45397251732031e+004,-1.17827022527247e+001,-1.25038593615352e-001

1.47426921729110e+004,-1.17827078477000e+001,-1.26782346817925e-001

1.49484924863494e+004,-1.17827135992823e+001,-1.28550369058747e-001

1.51571656651040e+004,-1.17827195118354e+001,-1.30342996042229e-001

1.53687518128801e+004,-1.17827255898432e+001,-1.32160568030903e-001

1.55832915932100e+004,-1.17827318379136e+001,-1.34003429901161e-001

1.58008262372675e+004,-1.17827382607816e+001,-1.35871931201903e-001

1.60213975517924e+004,-1.17827448633123e+001,-1.37766426218190e-001

1.62450479271247e+004,-1.17827516505056e+001,-1.39687274023146e-001

1.64718203453514e+004,-1.17827586274981e+001,-1.41634838547552e-001

1.67017583885674e+004,-1.17827657995682e+001,-1.43609488634981e-001

1.69349062472505e+004,-1.17827731721398e+001,-1.45611598104508e-001

1.71713087287550e+004,-1.17827807507850e+001,-1.47641545815363e-001

1.74110112659224e+004,-1.17827885412296e+001,-1.49699715726555e-001

1.76540599258131e+004,-1.17827965493560e+001,-1.51786496963565e-001

1.79005014185594e+004,-1.17828047812084e+001,-1.53902283878168e-001

1.81503831063432e+004,-1.17828132429965e+001,-1.56047476116383e-001

1.84037530124975e+004,-1.17828219410998e+001,-1.58222478683372e-001

1.86606598307361e+004,-1.17828308820725e+001,-1.60427702007504e-001

1.89211529345119e+004,-1.17828400726480e+001,-1.62663562006678e-001

1.91852823865052e+004,-1.17828495197437e+001,-1.64930480156050e-001

1.94530989482457e+004,-1.17828592304658e+001,-1.67228883554146e-001

1.97246540898671e+004,-1.17828692121143e+001,-1.69559204992714e-001

1.99999999999999e+004,-1.17828794721880e+001,-1.71921883021702e-001

2.02791895958005e+004,-1.17828900183899e+001,-1.74317362021017e-001

2.05622765331213e+004,-1.17829008586330e+001,-1.76746092265957e-001

2.08493152168224e+004,-1.17829120010447e+001,-1.79208530002980e-001

2.11403608112276e+004,-1.17829234539734e+001,-1.81705137512368e-001

2.14354692507258e+004,-1.17829352259934e+001,-1.84236383188279e-001

2.17346972505211e+004,-1.17829473259122e+001,-1.86802741597436e-001

2.20381023175322e+004,-1.17829597627750e+001,-1.89404693561625e-001

2.23457427614443e+004,-1.17829725458716e+001,-1.92042726225026e-001

2.26576777059159e+004,-1.17829856847427e+001,-1.94717333125626e-001

2.29739670999406e+004,-1.17829991891866e+001,-1.97429014269350e-001

2.32946717293690e+004,-1.17830130692653e+001,-2.00178276200564e-001

2.36198532285905e+004,-1.17830273353116e+001,-2.02965632080512e-001

2.39495740923785e+004,-1.17830419979360e+001,-2.05791601755553e-001

2.42838976879009e+004,-1.17830570680337e+001,-2.08656711832356e-001

2.46228882668982e+004,-1.17830725567918e+001,-2.11561495756329e-001

2.49666109780322e+004,-1.17830884756973e+001,-2.14506493876163e-001

2.53151318794055e+004,-1.17831048365436e+001,-2.17492253530617e-001

2.56685179512580e+004,-1.17831216514390e+001,-2.20519329113383e-001

2.60268371088386e+004,-1.17831389328147e+001,-2.23588282151959e-001

2.63901582154578e+004,-1.17831566934325e+001,-2.26699681381951e-001

2.67585510957221e+004,-1.17831749463929e+001,-2.29854102823459e-001

2.71320865489533e+004,-1.17831937051443e+001,-2.33052129853630e-001

2.75108363627948e+004,-1.17832129834907e+001,-2.36294353281864e-001

2.78948733270080e+004,-1.17832327956012e+001,-2.39581371427820e-001

2.82842712474618e+004,-1.17832531560182e+001,-2.42913790193875e-001

2.86791049603164e+004,-1.17832740796676e+001,-2.46292223138356e-001

2.90794503464061e+004,-1.17832955818669e+001,-2.49717291555279e-001

2.94853843458219e+004,-1.17833176783358e+001,-2.53189624541645e-001

2.98969849726987e+004,-1.17833403852054e+001,-2.56709859077730e-001

3.03143313302078e+004,-1.17833637190277e+001,-2.60278640099450e-001

3.07375036257601e+004,-1.17833876967862e+001,-2.63896620569913e-001

3.11665831864199e+004,-1.17834123359065e+001,-2.67564461551968e-001

3.16016524745350e+004,-1.17834376542655e+001,-2.71282832285825e-001

3.20427951035848e+004,-1.17834636702035e+001,-2.75052410254016e-001

3.24900958542493e+004,-1.17834904025336e+001,-2.78873881258898e-001

3.29436406907028e+004,-1.17835178705537e+001,-2.82747939491251e-001

3.34035167771346e+004,-1.17835460940575e+001,-2.86675287597294e-001

3.38698124945009e+004,-1.17835750933453e+001,-2.90656636754729e-001

3.43426174575100e+004,-1.17836048892365e+001,-2.94692706733132e-001

3.48220225318448e+004,-1.17836355030800e+001,-2.98784225969626e-001

3.53081198516260e+004,-1.17836669567675e+001,-3.02931931628318e-001

3.58010028371187e+004,-1.17836992727448e+001,-3.07136569669170e-001

3.63007662126863e+004,-1.17837324740238e+001,-3.11398894913523e-001

3.68075060249948e+004,-1.17837665841958e+001,-3.15719671102667e-001

3.73213196614721e+004,-1.17838016274432e+001,-3.20099670963456e-001

3.78423058690237e+004,-1.17838376285526e+001,-3.24539676267189e-001

3.83705647730104e+004,-1.17838746129273e+001,-3.29040477889598e-001

3.89061978964912e+004,-1.17839126066015e+001,-3.33602875862916e-001

3.94493081797342e+004,-1.17839516362517e+001,-3.38227679439190e-001

3.99999999999998e+004,-1.17839917292113e+001,-3.42915707136720e-001

4.05583791916010e+004,-1.17840329134834e+001,-3.47667786796347e-001

4.11245530662425e+004,-1.17840752177547e+001,-3.52484755628932e-001

4.16986304336447e+004,-1.17841186714088e+001,-3.57367460263263e-001

4.22807216224550e+004,-1.17841633045397e+001,-3.62316756792723e-001

4.28709385014515e+004,-1.17842091479666e+001,-3.67333510815321e-001

4.34693945010421e+004,-1.17842562332464e+001,-3.72418597477908e-001

4.40762046350642e+004,-1.17843045926885e+001,-3.77572901511892e-001

4.46914855228886e+004,-1.17843542593687e+001,-3.82797317268609e-001

4.53153554118317e+004,-1.17844052671427e+001,-3.88092748752680e-001

4.59479341998812e+004,-1.17844576506606e+001,-3.93460109650849e-001

4.65893434587380e+004,-1.17845114453802e+001,-3.98900323360804e-001

4.72397064571810e+004,-1.17845666875819e+001,-4.04414323010940e-001

4.78991481847569e+004,-1.17846234143815e+001,-4.10003051482082e-001

4.85677953758016e+004,-1.17846816637449e+001,-4.15667461426186e-001

4.92457765337964e+004,-1.17847414745011e+001,-4.21408515276671e-001

4.99332219560642e+004,-1.17848028863562e+001,-4.27227185259458e-001

5.06302637588109e+004,-1.17848659399065e+001,-4.33124453398346e-001

5.13370359025159e+004,-1.17849306766524e+001,-4.39101311515119e-001

5.20536742176771e+004,-1.17849971390103e+001,-4.45158761232115e-001

5.27803164309155e+004,-1.17850653703262e+001,-4.51297813960370e-001

5.35171021914442e+004,-1.17851354148882e+001,-4.57519490892172e-001

5.42641730979066e+004,-1.17852073179382e+001,-4.63824822984113e-001

5.50216727255895e+004,-1.17852811256842e+001,-4.70214850939012e-001

5.57897466540159e+004,-1.17853568853113e+001,-4.76690625180798e-001

5.65685424949235e+004,-1.17854346449931e+001,-4.83253205826157e-001

5.73582099206328e+004,-1.17855144539018e+001,-4.89903662649424e-001

5.81589006928121e+004,-1.17855963622186e+001,-4.96643075044796e-001

5.89707686916437e+004,-1.17856804211429e+001,-5.03472531981871e-001

5.97939699453972e+004,-1.17857666829010e+001,-5.10393131957131e-001

6.06286626604156e+004,-1.17858552007543e+001,-5.17405982938625e-001

6.14750072515201e+004,-1.17859460290067e+001,-5.24512202308049e-001

6.23331663728396e+004,-1.17860392230111e+001,-5.31712916794425e-001

6.32033049490698e+004,-1.17861348391750e+001,-5.39009262403620e-001

6.40855902071694e+004,-1.17862329349656e+001,-5.46402384343169e-001

6.49801917084985e+004,-1.17863335689132e+001,-5.53893436940854e-001

6.58872813814055e+004,-1.17864368006139e+001,-5.61483583557807e-001

6.68070335542691e+004,-1.17865426907321e+001,-5.69173996494531e-001

6.77396249890018e+004,-1.17866513009991e+001,-5.76965856897310e-001

6.86852349150199e+004,-1.17867626942140e+001,-5.84860354649321e-001

6.96440450636895e+004,-1.17868769342406e+001,-5.92858688265920e-001

7.06162397032520e+004,-1.17869940860033e+001,-6.00962064779459e-001

7.16020056742374e+004,-1.17871142154827e+001,-6.09171699618513e-001

7.26015324253724e+004,-1.17872373897081e+001,-6.17488816485486e-001

7.36150120499896e+004,-1.17873636767489e+001,-6.25914647226659e-001

7.46426393229441e+004,-1.17874931457044e+001,-6.34450431695777e-001

7.56846117380472e+004,-1.17876258666914e+001,-6.43097417617883e-001

7.67411295460207e+004,-1.17877619108295e+001,-6.51856860446074e-001

7.78123957929823e+004,-1.17879013502253e+001,-6.60730023210372e-001

7.88986163594682e+004,-1.17880442579528e+001,-6.69718176371496e-001

7.99999999999995e+004,-1.17881907080331e+001,-6.78822597661946e-001

8.11167583832018e+004,-1.17883407754103e+001,-6.88044571932272e-001

8.22491061324848e+004,-1.17884945359263e+001,-6.97385390985625e-001

8.33972608672892e+004,-1.17886520662913e+001,-7.06846353418622e-001

8.45614432449099e+004,-1.17888134440526e+001,-7.16428764456948e-001

8.57418770029029e+004,-1.17889787475605e+001,-7.26133935786600e-001

8.69387890020841e+004,-1.17891480559305e+001,-7.35963185391329e-001

8.81524092701283e+004,-1.17893214490032e+001,-7.45917837383369e-001

8.93829710457770e+004,-1.17894990073004e+001,-7.55999221839894e-001

9.06307108236633e+004,-1.17896808119780e+001,-7.66208674639475e-001

9.18958683997622e+004,-1.17898669447754e+001,-7.76547537298684e-001

9.31786869174758e+004,-1.17900574879614e+001,-7.87017156816136e-001

9.44794129143618e+004,-1.17902525242767e+001,-7.97618885516457e-001

9.57982963695136e+004,-1.17904521368718e+001,-8.08354080902771e-001

9.71355907516031e+004,-1.17906564092413e+001,-8.19224105514541e-001

9.84915530675926e+004,-1.17908654251551e+001,-8.30230326791600e-001

9.98664439121282e+004,-1.17910792685840e+001,-8.41374116946986e-001

1.01260527517622e+005,-1.17912980236220e+001,-8.52656852853614e-001

1.02674071805032e+005,-1.17915217744040e+001,-8.64079915935108e-001

1.04107348435354e+005,-1.17917506050193e+001,-8.75644692077014e-001

1.05560632861831e+005,-1.17919845994205e+001,-8.87352571545160e-001

1.07034204382888e+005,-1.17922238413279e+001,-8.99204948925864e-001

1.08528346195813e+005,-1.17924684141291e+001,-9.11203223079229e-001

1.10043345451179e+005,-1.17927184007741e+001,-9.23348797114397e-001

1.11579493308032e+005,-1.17929738836663e+001,-9.35643078383190e-001

1.13137084989847e+005,-1.17932349445473e+001,-9.48087478499038e-001

1.14716419841265e+005,-1.17935016643785e+001,-9.60683413378819e-001

1.16317801385624e+005,-1.17937741232173e+001,-9.73432303312015e-001

1.17941537383287e+005,-1.17940524000884e+001,-9.86335573058776e-001

1.19587939890794e+005,-1.17943365728506e+001,-9.99394651978225e-001

1.21257325320831e+005,-1.17946267180592e+001,-1.01261097419036e+000

1.22950014503040e+005,-1.17949229108230e+001,-1.02598597877377e+000

1.24666332745679e+005,-1.17952252246581e+001,-1.03952110999834e+000

1.26406609898139e+005,-1.17955337313356e+001,-1.05321781760142e+000

1.28171180414339e+005,-1.17958485007268e+001,-1.06707755710214e+000

1.29960383416997e+005,-1.17961696006429e+001,-1.08110179016361e+000

1.31774562762811e+005,-1.17964970966709e+001,-1.09529198500112e+000

1.33614067108538e+005,-1.17968310520064e+001,-1.10964961683659e+000

1.35479249978003e+005,-1.17971715272825e+001,-1.12417616841063e+000

1.37370469830040e+005,-1.17975185803945e+001,-1.13887313054297e+000

1.39288090127379e+005,-1.17978722663232e+001,-1.15374200275148e+000

1.41232479406504e+005,-1.17982326369537e+001,-1.16878429393154e+000

1.43204011348474e+005,-1.17985997408927e+001,-1.18400152309403e+000

1.45203064850745e+005,-1.17989736232839e+001,-1.19939522016800e+000

1.47230024099979e+005,-1.17993543256209e+001,-1.21496692686651e+000

1.49285278645888e+005,-1.17997418855589e+001,-1.23071819762510e+000

1.51369223476094e+005,-1.18001363367260e+001,-1.24665060060463e+000

1.53482259092041e+005,-1.18005377085339e+001,-1.26276571876580e+000

1.55624791585964e+005,-1.18009460259880e+001,-1.27906515102197e+000

1.57797232718936e+005,-1.18013613094992e+001,-1.29555051345937e+000

1.59999999999999e+005,-1.18017835746956e+001,-1.31222344064006e+000

1.62233516766403e+005,-1.18022128322368e+001,-1.32908558697734e+000

1.64498212264969e+005,-1.18026490876301e+001,-1.34613862819190e+000

1.66794521734578e+005,-1.18030923410498e+001,-1.36338426284765e+000

1.69122886489819e+005,-1.18035425871591e+001,-1.38082421396634e+000

1.71483754005805e+005,-1.18039998149380e+001,-1.39846023072181e+000

1.73877578004168e+005,-1.18044640075141e+001,-1.41629409021737e+000

1.76304818540256e+005,-1.18049351420007e+001,-1.43432759933901e+000

1.78765942091554e+005,-1.18054131893392e+001,-1.45256259669371e+000

1.81261421647326e+005,-1.18058981141511e+001,-1.47100095462063e+000

1.83791736799524e+005,-1.18063898745947e+001,-1.48964458128590e+000

1.86357373834951e+005,-1.18068884222330e+001,-1.50849542285017e+000

1.88958825828723e+005,-1.18073937019087e+001,-1.52755546571140e+000

1.91596592739027e+005,-1.18079056516302e+001,-1.54682673882214e+000

1.94271181503206e+005,-1.18084242024681e+001,-1.56631131607496e+000

1.96983106135185e+005,-1.18089492784623e+001,-1.58601131875583e+000

1.99732887824256e+005,-1.18094807965422e+001,-1.60592891806229e+000

2.02521055035243e+005,-1.18100186664588e+001,-1.62606633768124e+000

2.05348143610063e+005,-1.18105627907300e+001,-1.64642585642540e+000

2.08214696870707e+005,-1.18111130646005e+001,-1.66700981092070e+000

2.11121265723661e+005,-1.18116693760161e+001,-1.68782059834139e+000

2.14068408765776e+005,-1.18122316056123e+001,-1.70886067919123e+000

2.17056692391625e+005,-1.18127996267196e+001,-1.73013258011899e+000

2.20086690902357e+005,-1.18133733053840e+001,-1.75163889676776e+000

2.23158986616063e+005,-1.18139525004046e+001,-1.77338229665313e+000

2.26274169979693e+005,-1.18145370633873e+001,-1.79536552205711e+000

2.29432839682530e+005,-1.18151268388162e+001,-1.81759139294231e+000

2.32635602771247e+005,-1.18157216641423e+001,-1.84006280986670e+000

2.35883074766574e+005,-1.18163213698892e+001,-1.86278275690640e+000

2.39175879781588e+005,-1.18169257797774e+001,-1.88575430456630e+000

2.42514650641661e+005,-1.18175347108646e+001,-1.90898061268346e+000

2.45900029006080e+005,-1.18181479737056e+001,-1.93246493330431e+000

2.49332665491357e+005,-1.18187653725280e+001,-1.95621061354003e+000

2.52813219796278e+005,-1.18193867054259e+001,-1.98022109838453e+000

2.56342360828676e+005,-1.18200117645710e+001,-2.00449993348977e+000

2.59920766833993e+005,-1.18206403364388e+001,-2.02905076789678e+000

2.63549125525621e+005,-1.18212722020529e+001,-2.05387735670582e+000

2.67228134217075e+005,-1.18219071372433e+001,-2.07898356368788e+000

2.70958499956006e+005,-1.18225449129208e+001,-2.10437336382455e+000

2.74740939660078e+005,-1.18231852953654e+001,-2.13005084577370e+000

2.78576180254757e+005,-1.18238280465282e+001,-2.15602021425259e+000

2.82464958813007e+005,-1.18244729243461e+001,-2.18228579233540e+000

2.86408022696948e+005,-1.18251196830689e+001,-2.20885202365392e+000

2.90406129701488e+005,-1.18257680735966e+001,-2.23572347450427e+000

2.94460048199957e+005,-1.18264178438274e+001,-2.26290483584858e+000

2.98570557291775e+005,-1.18270687390138e+001,-2.29040092521099e+000

3.02738446952187e+005,-1.18277205021275e+001,-2.31821668846112e+000

3.06964518184081e+005,-1.18283728742295e+001,-2.34635720148714e+000

3.11249583171928e+005,-1.18290255948471e+001,-2.37482767174815e+000

3.15594465437872e+005,-1.18296784023539e+001,-2.40363343971223e+000

3.19999999999997e+005,-1.18303310343537e+001,-2.43277998017162e+000

3.24467033532806e+005,-1.18309832280648e+001,-2.46227290343803e+000

3.28996424529938e+005,-1.18316347207064e+001,-2.49211795641700e+000

3.33589043469155e+005,-1.18322852498825e+001,-2.52232102356028e+000

3.38245772979638e+005,-1.18329345539642e+001,-2.55288812769907e+000

3.42967508011610e+005,-1.18335823724693e+001,-2.58382543075713e+000

3.47755156008335e+005,-1.18342284464359e+001,-2.61513923434980e+000

3.52609637080511e+005,-1.18348725187908e+001,-2.64683598026552e+000

3.57531884183106e+005,-1.18355143347110e+001,-2.67892225083985e+000

3.62522843294651e+005,-1.18361536419764e+001,-2.71140476921995e+000

3.67583473599047e+005,-1.18367901913134e+001,-2.74429039952665e+000

3.72714747669902e+005,-1.18374237367279e+001,-2.77758614691873e+000

3.77917651657445e+005,-1.18380540358273e+001,-2.81129915756430e+000

3.83193185478053e+005,-1.18386808501293e+001,-2.84543671852348e+000

3.88542363006410e+005,-1.18393039453584e+001,-2.88000625755008e+000

3.93966212270369e+005,-1.18399230917275e+001,-2.91501534281842e+000

3.99465775648511e+005,-1.18405380642050e+001,-2.95047168258119e+000

4.05042110070485e+005,-1.18411486427667e+001,-2.98638312476507e+000

4.10696287220124e+005,-1.18417546126308e+001,-3.02275765651247e+000

4.16429393741414e+005,-1.18423557644774e+001,-3.05960340367469e+000

4.22242531447321e+005,-1.18429518946500e+001,-3.09692863026764e+000

4.28136817531551e+005,-1.18435428053400e+001,-3.13474173789273e+000

4.34113384783250e+005,-1.18441283047535e+001,-3.17305126513370e+000

4.40173381804713e+005,-1.18447082072606e+001,-3.21186588693759e+000

4.46317973232124e+005,-1.18452823335259e+001,-3.25119441398490e+000

4.52548339959385e+005,-1.18458505106217e+001,-3.29104579205833e+000

4.58865679365059e+005,-1.18464125721229e+001,-3.33142910141773e+000

4.65271205542494e+005,-1.18469683581838e+001,-3.37235355618732e+000

4.71766149533147e+005,-1.18475177155980e+001,-3.41382850376302e+000

4.78351759563174e+005,-1.18480604978395e+001,-3.45586342424774e+000

4.85029301283321e+005,-1.18485965650880e+001,-3.49846792991972e+000

4.91800058012158e+005,-1.18491257842362e+001,-3.54165176474177e+000

4.98665330982714e+005,-1.18496480288813e+001,-3.58542480391711e+000

5.05626439592555e+005,-1.18501631793007e+001,-3.62979705349889e+000

5.12684721657352e+005,-1.18506711224114e+001,-3.67477865005591e+000

5.19841533667984e+005,-1.18511717517157e+001,-3.72037986040407e+000

5.27098251051240e+005,-1.18516649672313e+001,-3.76661108140653e+000

5.34456268434150e+005,-1.18521506754086e+001,-3.81348283984616e+000

5.41916999912011e+005,-1.18526287890345e+001,-3.86100579237569e+000

