Freq.,VOut,OutRef

1.00000000000000e+004,-1.12008016376740e+001,-3.93986902632698e-002

1.01395947979003e+004,-1.12008021220991e+001,-3.99485726917748e-002

1.02811382665607e+004,-1.12008026201146e+001,-4.05061268352486e-002

1.04246576084112e+004,-1.12008031321015e+001,-4.10714596001523e-002

1.05701804056138e+004,-1.12008036584508e+001,-4.16446793795452e-002

1.07177346253629e+004,-1.12008041995643e+001,-4.22258960718234e-002

1.08673486252606e+004,-1.12008047558555e+001,-4.28152211003529e-002

1.10190511587661e+004,-1.12008053277487e+001,-4.34127674358742e-002

1.11728713807222e+004,-1.12008059156806e+001,-4.40186496165019e-002

1.13288388529580e+004,-1.12008065200997e+001,-4.46329837698114e-002

1.14869835499703e+004,-1.12008071414673e+001,-4.52558876336965e-002

1.16473358646846e+004,-1.12008077802575e+001,-4.58874805784213e-002

1.18099266142953e+004,-1.12008084369573e+001,-4.65278836326271e-002

1.19747870461893e+004,-1.12008091120671e+001,-4.71772195030404e-002

1.21419488439505e+004,-1.12008098061024e+001,-4.78356125901165e-002

1.23114441334492e+004,-1.12008105195914e+001,-4.85031890293853e-002

1.24833054890161e+004,-1.12008112530777e+001,-4.91800766992781e-002

1.26575659397028e+004,-1.12008120071203e+001,-4.98664052476865e-002

1.28342589756290e+004,-1.12008127822936e+001,-5.05623061207242e-002

1.30134185544193e+004,-1.12008135791872e+001,-5.12679125882070e-002

1.31950791077289e+004,-1.12008143984081e+001,-5.19833597576205e-002

1.33792755478611e+004,-1.12008152405794e+001,-5.27087846149096e-002

1.35660432744767e+004,-1.12008161063417e+001,-5.34443260359921e-002

1.37554181813974e+004,-1.12008169963534e+001,-5.41901248216020e-002

1.39474366635040e+004,-1.12008179112915e+001,-5.49463237156304e-002

1.41421356237309e+004,-1.12008188518508e+001,-5.57130674427684e-002

1.43395524801583e+004,-1.12008198187459e+001,-5.64905027256902e-002

1.45397251732031e+004,-1.12008208127116e+001,-5.72787783104695e-002

1.47426921729110e+004,-1.12008218345020e+001,-5.80780450073652e-002

1.49484924863494e+004,-1.12008228848930e+001,-5.88884557019143e-002

1.51571656651040e+004,-1.12008239646813e+001,-5.97101653960119e-002

1.53687518128801e+004,-1.12008250746858e+001,-6.05433312299618e-002

1.55832915932100e+004,-1.12008262157481e+001,-6.13881125121847e-002

1.58008262372675e+004,-1.12008273887329e+001,-6.22446707509670e-002

1.60213975517924e+004,-1.12008285945286e+001,-6.31131696808746e-002

1.62450479271247e+004,-1.12008298340483e+001,-6.39937752942598e-002

1.64718203453514e+004,-1.12008311082304e+001,-6.48866558705920e-002

1.67017583885674e+004,-1.12008324180382e+001,-6.57919820131316e-002

1.69349062472505e+004,-1.12008337644626e+001,-6.67099266684436e-002

1.71713087287550e+004,-1.12008351485212e+001,-6.76406651673623e-002

1.74110112659224e+004,-1.12008365712598e+001,-6.85843752521176e-002

1.76540599258131e+004,-1.12008380337525e+001,-6.95412371144607e-002

1.79005014185594e+004,-1.12008395371031e+001,-7.05114334199897e-002

1.81503831063432e+004,-1.12008410824454e+001,-7.14951493494517e-002

1.84037530124975e+004,-1.12008426709448e+001,-7.24925726228220e-002

1.86606598307361e+004,-1.12008443037980e+001,-7.35038935437370e-002

1.89211529345119e+004,-1.12008459822349e+001,-7.45293050244911e-002

1.91852823865052e+004,-1.12008477075185e+001,-7.55690026275822e-002

1.94530989482457e+004,-1.12008494809468e+001,-7.66231845959354e-002

1.97246540898671e+004,-1.12008513038526e+001,-7.76920518925873e-002

1.99999999999999e+004,-1.12008531776057e+001,-7.87758082308711e-002

2.02791895958005e+004,-1.12008551036127e+001,-7.98746601167789e-002

2.05622765331213e+004,-1.12008570833184e+001,-8.09888168836573e-002

2.08493152168224e+004,-1.12008591182076e+001,-8.21184907239266e-002

2.11403608112276e+004,-1.12008612098041e+001,-8.32638967395226e-002

2.14354692507258e+004,-1.12008633596746e+001,-8.44252529625320e-002

2.17346972505211e+004,-1.12008655694269e+001,-8.56027804108751e-002

2.20381023175322e+004,-1.12008678407129e+001,-8.67967031149241e-002

2.23457427614443e+004,-1.12008701752293e+001,-8.80072481614216e-002

2.26576777059159e+004,-1.12008725747185e+001,-8.92346457331343e-002

2.29739670999406e+004,-1.12008750409694e+001,-9.04791291507159e-002

2.32946717293690e+004,-1.12008775758201e+001,-9.17409349070091e-002

2.36198532285905e+004,-1.12008801811568e+001,-9.30203027183117e-002

2.39495740923785e+004,-1.12008828589178e+001,-9.43174755531777e-002

2.42838976879009e+004,-1.12008856110927e+001,-9.56326996847093e-002

2.46228882668982e+004,-1.12008884397242e+001,-9.69662247308517e-002

2.49666109780322e+004,-1.12008913469099e+001,-9.83183036933835e-002

2.53151318794055e+004,-1.12008943348038e+001,-9.96891930021240e-002

2.56685179512580e+004,-1.12008974056170e+001,-1.01079152562269e-001

2.60268371088386e+004,-1.12009005616194e+001,-1.02488445796019e-001

2.63901582154578e+004,-1.12009038051419e+001,-1.03917339684030e-001

2.67585510957221e+004,-1.12009071385765e+001,-1.05366104818451e-001

2.71320865489533e+004,-1.12009105643791e+001,-1.06835015441508e-001

2.75108363627948e+004,-1.12009140850706e+001,-1.08324349491544e-001

2.78948733270080e+004,-1.12009177032385e+001,-1.09834388653355e-001

2.82842712474618e+004,-1.12009214215385e+001,-1.11365418402683e-001

2.86791049603164e+004,-1.12009252426958e+001,-1.12917728055303e-001

2.90794503464061e+004,-1.12009291695081e+001,-1.14491610809488e-001

2.94853843458219e+004,-1.12009332048460e+001,-1.16087363799148e-001

2.98969849726987e+004,-1.12009373516547e+001,-1.17705288143207e-001

3.03143313302078e+004,-1.12009416129572e+001,-1.19345688989678e-001

3.07375036257601e+004,-1.12009459918548e+001,-1.21008875567635e-001

3.11665831864199e+004,-1.12009504915296e+001,-1.22695161237324e-001

3.16016524745350e+004,-1.12009551152458e+001,-1.24404863543122e-001

3.20427951035848e+004,-1.12009598663527e+001,-1.26138304257085e-001

3.24900958542493e+004,-1.12009647482859e+001,-1.27895809434016e-001

3.29436406907028e+004,-1.12009697645690e+001,-1.29677709467678e-001

3.34035167771346e+004,-1.12009749188166e+001,-1.31484339133033e-001

3.38698124945009e+004,-1.12009802147358e+001,-1.33316037645248e-001

3.43426174575100e+004,-1.12009856561278e+001,-1.35173148713628e-001

3.48220225318448e+004,-1.12009912468918e+001,-1.37056020585294e-001

3.53081198516260e+004,-1.12009969910247e+001,-1.38965006110931e-001

3.58010028371187e+004,-1.12010028926253e+001,-1.40900462790371e-001

3.63007662126863e+004,-1.12010089558957e+001,-1.42862752829098e-001

3.68075060249948e+004,-1.12010151851436e+001,-1.44852243192977e-001

3.73213196614721e+004,-1.12010215847848e+001,-1.46869305663344e-001

3.78423058690237e+004,-1.12010281593452e+001,-1.48914316891706e-001

3.83705647730104e+004,-1.12010349134635e+001,-1.50987658455386e-001

3.89061978964912e+004,-1.12010418518935e+001,-1.53089716913862e-001

3.94493081797342e+004,-1.12010489795061e+001,-1.55220883865552e-001

3.99999999999998e+004,-1.12010563012921e+001,-1.57381556003431e-001

4.05583791916010e+004,-1.12010638223653e+001,-1.59572135169226e-001

4.11245530662425e+004,-1.12010715479630e+001,-1.61793028419237e-001

4.16986304336447e+004,-1.12010794834506e+001,-1.64044648071628e-001

4.22807216224550e+004,-1.12010876343233e+001,-1.66327411767724e-001

4.28709385014515e+004,-1.12010960062079e+001,-1.68641742535286e-001

4.34693945010421e+004,-1.12011046048664e+001,-1.70988068839269e-001

4.40762046350642e+004,-1.12011134361983e+001,-1.73366824642309e-001

4.46914855228886e+004,-1.12011225062426e+001,-1.75778449465971e-001

4.53153554118317e+004,-1.12011318211805e+001,-1.78223388449822e-001

4.59479341998812e+004,-1.12011413873389e+001,-1.80702092403888e-001

4.65893434587380e+004,-1.12011512111914e+001,-1.83215017877947e-001

4.72397064571810e+004,-1.12011612993620e+001,-1.85762627212757e-001

4.78991481847569e+004,-1.12011716586274e+001,-1.88345388602994e-001

4.85677953758016e+004,-1.12011822959189e+001,-1.90963776158998e-001

4.92457765337964e+004,-1.12011932183258e+001,-1.93618269962514e-001

4.99332219560642e+004,-1.12012044330971e+001,-1.96309356129360e-001

5.06302637588109e+004,-1.12012159476446e+001,-1.99037526869627e-001

5.13370359025159e+004,-1.12012277695446e+001,-2.01803280547021e-001

5.20536742176771e+004,-1.12012399065409e+001,-2.04607121740288e-001

5.27803164309155e+004,-1.12012523665469e+001,-2.07449561301515e-001

5.35171021914442e+004,-1.12012651576474e+001,-2.10331116420626e-001

5.42641730979066e+004,-1.12012782881020e+001,-2.13252310680922e-001

5.50216727255895e+004,-1.12012917663458e+001,-2.16213674124282e-001

5.57897466540159e+004,-1.12013056009925e+001,-2.19215743309475e-001

5.65685424949235e+004,-1.12013198008361e+001,-2.22259061372787e-001

5.73582099206328e+004,-1.12013343748526e+001,-2.25344178090009e-001

5.81589006928121e+004,-1.12013493322020e+001,-2.28471649937128e-001

5.89707686916437e+004,-1.12013646822302e+001,-2.31642040148833e-001

5.97939699453972e+004,-1.12013804344701e+001,-2.34855918782676e-001

6.06286626604156e+004,-1.12013965986435e+001,-2.38113862776299e-001

6.14750072515201e+004,-1.12014131846621e+001,-2.41416456013149e-001

6.23331663728396e+004,-1.12014302026290e+001,-2.44764289377873e-001

6.32033049490698e+004,-1.12014476628395e+001,-2.48157960820033e-001

6.40855902071694e+004,-1.12014655757818e+001,-2.51598075416197e-001

6.49801917084985e+004,-1.12014839521383e+001,-2.55085245426549e-001

6.58872813814055e+004,-1.12015028027852e+001,-2.58620090361136e-001

6.68070335542691e+004,-1.12015221387932e+001,-2.62203237037542e-001

6.77396249890018e+004,-1.12015419714280e+001,-2.65835319641491e-001

6.86852349150199e+004,-1.12015623121492e+001,-2.69516979790296e-001

6.96440450636895e+004,-1.12015831726104e+001,-2.73248866592978e-001

7.06162397032520e+004,-1.12016045646583e+001,-2.77031636711646e-001

7.16020056742374e+004,-1.12016265003321e+001,-2.80865954423258e-001

7.26015324253724e+004,-1.12016489918613e+001,-2.84752491681211e-001

7.36150120499896e+004,-1.12016720516652e+001,-2.88691928178014e-001

7.46426393229441e+004,-1.12016956923502e+001,-2.92684951406177e-001

7.56846117380472e+004,-1.12017199267075e+001,-2.96732256723093e-001

7.67411295460207e+004,-1.12017447677108e+001,-3.00834547413898e-001

7.78123957929823e+004,-1.12017702285132e+001,-3.04992534751776e-001

7.88986163594682e+004,-1.12017963224430e+001,-3.09206938067874e-001

7.99999999999995e+004,-1.12018230630010e+001,-3.13478484810736e-001

8.11167583832018e+004,-1.12018504638554e+001,-3.17807910613951e-001

8.22491061324848e+004,-1.12018785388367e+001,-3.22195959364935e-001

8.33972608672892e+004,-1.12019073019331e+001,-3.26643383267049e-001

8.45614432449099e+004,-1.12019367672844e+001,-3.31150942912094e-001

8.57418770029029e+004,-1.12019669491753e+001,-3.35719407348855e-001

8.69387890020841e+004,-1.12019978620290e+001,-3.40349554152369e-001

8.81524092701283e+004,-1.12020295203995e+001,-3.45042169497102e-001

8.93829710457770e+004,-1.12020619389633e+001,-3.49798048230778e-001

9.06307108236633e+004,-1.12020951325113e+001,-3.54617993948609e-001

9.18958683997622e+004,-1.12021291159387e+001,-3.59502819072947e-001

9.31786869174758e+004,-1.12021639042352e+001,-3.64453344930116e-001

9.44794129143618e+004,-1.12021995124752e+001,-3.69470401831713e-001

9.57982963695136e+004,-1.12022359558049e+001,-3.74554829162192e-001

9.71355907516031e+004,-1.12022732494313e+001,-3.79707475462426e-001

9.84915530675926e+004,-1.12023114086090e+001,-3.84929198519590e-001

9.98664439121282e+004,-1.12023504486265e+001,-3.90220865462571e-001

1.01260527517622e+005,-1.12023903847922e+001,-3.95583352854138e-001

1.02674071805032e+005,-1.12024312324184e+001,-4.01017546794549e-001

1.04107348435354e+005,-1.12024730068061e+001,-4.06524343024847e-001

1.05560632861831e+005,-1.12025157232277e+001,-4.12104647032474e-001

1.07034204382888e+005,-1.12025593969100e+001,-4.17759374166144e-001

1.08528346195813e+005,-1.12026040430144e+001,-4.23489449754788e-001

1.10043345451179e+005,-1.12026496766188e+001,-4.29295809227942e-001

1.11579493308032e+005,-1.12026963126967e+001,-4.35179398244472e-001

1.13137084989847e+005,-1.12027439660963e+001,-4.41141172829151e-001

1.14716419841265e+005,-1.12027926515183e+001,-4.47182099511459e-001

1.16317801385624e+005,-1.12028423834931e+001,-4.53303155474852e-001

1.17941537383287e+005,-1.12028931763570e+001,-4.59505328709213e-001

1.19587939890794e+005,-1.12029450442281e+001,-4.65789618174033e-001

1.21257325320831e+005,-1.12029980009795e+001,-4.72157033971031e-001

1.22950014503040e+005,-1.12030520602145e+001,-4.78608597518497e-001

1.24666332745679e+005,-1.12031072352383e+001,-4.85145341741793e-001

1.26406609898139e+005,-1.12031635390301e+001,-4.91768311269963e-001

1.28171180414339e+005,-1.12032209842150e+001,-4.98478562639548e-001

1.29960383416997e+005,-1.12032795830337e+001,-5.05277164514645e-001

1.31774562762811e+005,-1.12033393473120e+001,-5.12165197913073e-001

1.33614067108538e+005,-1.12034002884306e+001,-5.19143756444830e-001

1.35479249978003e+005,-1.12034624172924e+001,-5.26213946561270e-001

1.37370469830040e+005,-1.12035257442909e+001,-5.33376887819406e-001

1.39288090127379e+005,-1.12035902792764e+001,-5.40633713156512e-001

1.41232479406504e+005,-1.12036560315235e+001,-5.47985569177108e-001

1.43204011348474e+005,-1.12037230096965e+001,-5.55433616453291e-001

1.45203064850745e+005,-1.12037912218150e+001,-5.62979029843858e-001

1.47230024099979e+005,-1.12038606752194e+001,-5.70622998821291e-001

1.49285278645888e+005,-1.12039313765360e+001,-5.78366727816058e-001

1.51369223476094e+005,-1.12040033316417e+001,-5.86211436577446e-001

1.53482259092041e+005,-1.12040765456286e+001,-5.94158360549113e-001

1.55624791585964e+005,-1.12041510227691e+001,-6.02208751258763e-001

1.57797232718936e+005,-1.12042267664801e+001,-6.10363876728121e-001

1.59999999999999e+005,-1.12043037792886e+001,-6.18625021894355e-001

1.62233516766403e+005,-1.12043820627966e+001,-6.26993489052766e-001

1.64498212264969e+005,-1.12044616176468e+001,-6.35470598314183e-001

1.66794521734578e+005,-1.12045424434889e+001,-6.44057688079822e-001

1.69122886489819e+005,-1.12046245389458e+001,-6.52756115535714e-001

1.71483754005805e+005,-1.12047079015819e+001,-6.61567257160855e-001

1.73877578004168e+005,-1.12047925278713e+001,-6.70492509255128e-001

1.76304818540256e+005,-1.12048784131665e+001,-6.79533288487034e-001

1.78765942091554e+005,-1.12049655516697e+001,-6.88691032455026e-001

1.81261421647326e+005,-1.12050539364042e+001,-6.97967200267558e-001

1.83791736799524e+005,-1.12051435591876e+001,-7.07363273142161e-001

1.86357373834951e+005,-1.12052344106061e+001,-7.16880755020393e-001

1.88958825828723e+005,-1.12053264799915e+001,-7.26521173200099e-001

1.91596592739027e+005,-1.12054197553988e+001,-7.36286078981232e-001

1.94271181503206e+005,-1.12055142235864e+001,-7.46177048334541e-001

1.96983106135185e+005,-1.12056098699977e+001,-7.56195682579089e-001

1.99732887824256e+005,-1.12057066787465e+001,-7.66343609077203e-001

2.02521055035243e+005,-1.12058046326020e+001,-7.76622481947768e-001

2.05348143610063e+005,-1.12059037129792e+001,-7.87033982786023e-001

2.08214696870707e+005,-1.12060038999294e+001,-7.97579821402947e-001

2.11121265723661e+005,-1.12061051721350e+001,-8.08261736574891e-001

2.14068408765776e+005,-1.12062075069058e+001,-8.19081496802972e-001

2.17056692391625e+005,-1.12063108801794e+001,-8.30040901085790e-001

2.20086690902357e+005,-1.12064152665235e+001,-8.41141779701048e-001

2.23158986616063e+005,-1.12065206391415e+001,-8.52385994993875e-001

2.26274169979693e+005,-1.12066269698816e+001,-8.63775442176054e-001

2.29432839682530e+005,-1.12067342292482e+001,-8.75312050129724e-001

2.32635602771247e+005,-1.12068423864175e+001,-8.86997782215436e-001

2.35883074766574e+005,-1.12069514092551e+001,-8.98834637088208e-001

2.39175879781588e+005,-1.12070612643382e+001,-9.10824649510809e-001

2.42514650641661e+005,-1.12071719169797e+001,-9.22969891174372e-001

2.45900029006080e+005,-1.12072833312564e+001,-9.35272471515835e-001

2.49332665491357e+005,-1.12073954700403e+001,-9.47734538536269e-001

2.52813219796278e+005,-1.12075082950324e+001,-9.60358279616132e-001

2.56342360828676e+005,-1.12076217668004e+001,-9.73145922327782e-001

2.59920766833993e+005,-1.12077358448193e+001,-9.86099735243611e-001

2.63549125525621e+005,-1.12078504875145e+001,-9.99222028736805e-001

2.67228134217075e+005,-1.12079656523084e+001,-1.01251515577664e+000

2.70958499956006e+005,-1.12080812956689e+001,-1.02598151271648e+000

2.74740939660078e+005,-1.12081973731619e+001,-1.03962354006934e+000

2.78576180254757e+005,-1.12083138395049e+001,-1.05344372327432e+000

2.82464958813007e+005,-1.12084306486235e+001,-1.06744459345486e+000

2.86408022696948e+005,-1.12085477537109e+001,-1.08162872815842e+000

2.90406129701488e+005,-1.12086651072876e+001,-1.09599875208763e+000

2.94460048199957e+005,-1.12087826612648e+001,-1.11055733781735e+000

2.98570557291775e+005,-1.12089003670081e+001,-1.12530720649252e+000

3.02738446952187e+005,-1.12090181754036e+001,-1.14025112851659e+000

3.06964518184081e+005,-1.12091360369244e+001,-1.15539192421813e+000

3.11249583171928e+005,-1.12092539016987e+001,-1.17073246450664e+000

3.15594465437872e+005,-1.12093717195782e+001,-1.18627567150682e+000

3.19999999999997e+005,-1.12094894402073e+001,-1.20202451917966e+000

3.24467033532806e+005,-1.12096070130929e+001,-1.21798203392234e+000

3.28996424529938e+005,-1.12097243876734e+001,-1.23415129515610e+000

3.33589043469155e+005,-1.12098415133884e+001,-1.25053543589298e+000

3.38245772979638e+005,-1.12099583397477e+001,-1.26713764328753e+000

3.42967508011610e+005,-1.12100748163991e+001,-1.28396115917158e+000

3.47755156008335e+005,-1.12101908931964e+001,-1.30100928057447e+000

3.52609637080511e+005,-1.12103065202654e+001,-1.31828536022597e+000

3.57531884183106e+005,-1.12104216480689e+001,-1.33579280704394e+000

3.62522843294651e+005,-1.12105362274702e+001,-1.35353508661173e+000

3.67583473599047e+005,-1.12106502097947e+001,-1.37151572163688e+000

3.72714747669902e+005,-1.12107635468899e+001,-1.38973829240237e+000

3.77917651657445e+005,-1.12108761911824e+001,-1.40820643720466e+000

3.83193185478053e+005,-1.12109880957337e+001,-1.42692385278003e+000

3.88542363006410e+005,-1.12110992142930e+001,-1.44589429472471e+000

3.93966212270369e+005,-1.12112095013470e+001,-1.46512157790603e+000

3.99465775648511e+005,-1.12113189121675e+001,-1.48460957686683e+000

4.05042110070485e+005,-1.12114274028558e+001,-1.50436222622536e+000

4.10696287220124e+005,-1.12115349303843e+001,-1.52438352107085e+000

4.16429393741414e+005,-1.12116414526346e+001,-1.54467751735765e+000

4.22242531447321e+005,-1.12117469284326e+001,-1.56524833229882e+000

4.28136817531551e+005,-1.12118513175809e+001,-1.58610014475830e+000

4.34113384783250e+005,-1.12119545808867e+001,-1.60723719564748e+000

4.40173381804713e+005,-1.12120566801870e+001,-1.62866378832630e+000

4.46317973232124e+005,-1.12121575783710e+001,-1.65038428900520e+000

4.52548339959385e+005,-1.12122572393976e+001,-1.67240312715976e+000

4.58865679365059e+005,-1.12123556283112e+001,-1.69472479594785e+000

4.65271205542494e+005,-1.12124527112526e+001,-1.71735385264072e+000

4.71766149533147e+005,-1.12125484554675e+001,-1.74029491906352e+000

4.78351759563174e+005,-1.12126428293113e+001,-1.76355268204765e+000

4.85029301283321e+005,-1.12127358022510e+001,-1.78713189389757e+000

4.91800058012158e+005,-1.12128273448631e+001,-1.81103737287423e+000

4.98665330982714e+005,-1.12129174288290e+001,-1.83527400369315e+000

5.05626439592555e+005,-1.12130060269276e+001,-1.85984673803964e+000

5.12684721657352e+005,-1.12130931130239e+001,-1.88476059510555e+000

5.19841533667984e+005,-1.12131786620558e+001,-1.91002066214381e+000

5.27098251051240e+005,-1.12132626500174e+001,-1.93563209504464e+000

5.34456268434150e+005,-1.12133450539401e+001,-1.96160011893412e+000

5.41916999912011e+005,-1.12134258518708e+001,-1.98793002879482e+000

