Freq.,VOut,OutRef

1.00000000000000e+004,-1.71812357194361e+001,-1.54691235451205e-001

1.01395947979003e+004,-1.71812392771962e+001,-1.56849919665998e-001

1.02811382665607e+004,-1.71812429347789e+001,-1.59038707245143e-001

1.04246576084112e+004,-1.71812466949789e+001,-1.61258017114648e-001

1.05701804056138e+004,-1.71812505606693e+001,-1.63508273992227e-001

1.07177346253629e+004,-1.71812545348031e+001,-1.65789908466172e-001

1.08673486252606e+004,-1.71812586204155e+001,-1.68103357077675e-001

1.10190511587661e+004,-1.71812628206265e+001,-1.70449062398248e-001

1.11728713807222e+004,-1.71812671386429e+001,-1.72827473112431e-001

1.13288388529580e+004,-1.71812715777607e+001,-1.75239044101087e-001

1.14869835499703e+004,-1.71812761413680e+001,-1.77684236522398e-001

1.16473358646846e+004,-1.71812808329467e+001,-1.80163517901598e-001

1.18099266142953e+004,-1.71812856560760e+001,-1.82677362211298e-001

1.19747870461893e+004,-1.71812906144345e+001,-1.85226249962031e-001

1.21419488439505e+004,-1.71812957118031e+001,-1.87810668287151e-001

1.23114441334492e+004,-1.71813009520678e+001,-1.90431111035902e-001

1.24833054890161e+004,-1.71813063392226e+001,-1.93088078858227e-001

1.26575659397028e+004,-1.71813118773725e+001,-1.95782079300997e-001

1.28342589756290e+004,-1.71813175707364e+001,-1.98513626896369e-001

1.30134185544193e+004,-1.71813234236505e+001,-2.01283243257645e-001

1.31950791077289e+004,-1.71813294405711e+001,-2.04091457173390e-001

1.33792755478611e+004,-1.71813356260784e+001,-2.06938804701421e-001

1.35660432744767e+004,-1.71813419848796e+001,-2.09825829267001e-001

1.37554181813974e+004,-1.71813485218119e+001,-2.12753081762921e-001

1.39474366635040e+004,-1.71813552418474e+001,-2.15721120643641e-001

1.41421356237309e+004,-1.71813621500949e+001,-2.18730512031208e-001

1.43395524801583e+004,-1.71813692518057e+001,-2.21781829810773e-001

1.45397251732031e+004,-1.71813765523756e+001,-2.24875655739272e-001

1.47426921729110e+004,-1.71813840573502e+001,-2.28012579544733e-001

1.49484924863494e+004,-1.71813917724281e+001,-2.31193199034427e-001

1.51571656651040e+004,-1.71813997034656e+001,-2.34418120199418e-001

1.53687518128801e+004,-1.71814078564807e+001,-2.37687957322156e-001

1.55832915932100e+004,-1.71814162376572e+001,-2.41003333087750e-001

1.58008262372675e+004,-1.71814248533505e+001,-2.44364878687990e-001

1.60213975517924e+004,-1.71814337100903e+001,-2.47773233939504e-001

1.62450479271247e+004,-1.71814428145868e+001,-2.51229047391753e-001

1.64718203453514e+004,-1.71814521737348e+001,-2.54732976443166e-001

1.67017583885674e+004,-1.71814617946193e+001,-2.58285687453714e-001

1.69349062472505e+004,-1.71814716845201e+001,-2.61887855862043e-001

1.71713087287550e+004,-1.71814818509169e+001,-2.65540166305092e-001

1.74110112659224e+004,-1.71814923014956e+001,-2.69243312731706e-001

1.76540599258131e+004,-1.71815030441526e+001,-2.72997998529113e-001

1.79005014185594e+004,-1.71815140870015e+001,-2.76804936638295e-001

1.81503831063432e+004,-1.71815254383782e+001,-2.80664849679187e-001

1.84037530124975e+004,-1.71815371068472e+001,-2.84578470075393e-001

1.86606598307361e+004,-1.71815491012073e+001,-2.88546540176849e-001

1.89211529345119e+004,-1.71815614304987e+001,-2.92569812386343e-001

1.91852823865052e+004,-1.71815741040084e+001,-2.96649049288683e-001

1.94530989482457e+004,-1.71815871312773e+001,-3.00785023778298e-001

1.97246540898671e+004,-1.71816005221067e+001,-3.04978519189713e-001

1.99999999999999e+004,-1.71816142865656e+001,-3.09230329427897e-001

2.02791895958005e+004,-1.71816284349974e+001,-3.13541259100536e-001

2.05622765331213e+004,-1.71816429780268e+001,-3.17912123654577e-001

2.08493152168224e+004,-1.71816579265681e+001,-3.22343749507980e-001

2.11403608112276e+004,-1.71816732918323e+001,-3.26836974185720e-001

2.14354692507258e+004,-1.71816890853344e+001,-3.31392646461861e-001

2.17346972505211e+004,-1.71817053189024e+001,-3.36011626490543e-001

2.20381023175322e+004,-1.71817220046844e+001,-3.40694785954156e-001

2.23457427614443e+004,-1.71817391551577e+001,-3.45443008197115e-001

2.26576777059159e+004,-1.71817567831369e+001,-3.50257188372329e-001

2.29739670999406e+004,-1.71817749017832e+001,-3.55138233581772e-001

2.32946717293690e+004,-1.71817935246123e+001,-3.60087063024387e-001

2.36198532285905e+004,-1.71818126655048e+001,-3.65104608137032e-001

2.39495740923785e+004,-1.71818323387145e+001,-3.70191812745763e-001

2.42838976879009e+004,-1.71818525588789e+001,-3.75349633209014e-001

2.46228882668982e+004,-1.71818733410281e+001,-3.80579038569900e-001

2.49666109780322e+004,-1.71818947005956e+001,-3.85881010704241e-001

2.53151318794055e+004,-1.71819166534279e+001,-3.91256544472237e-001

2.56685179512580e+004,-1.71819392157955e+001,-3.96706647868832e-001

2.60268371088386e+004,-1.71819624044034e+001,-4.02232342177465e-001

2.63901582154578e+004,-1.71819862364018e+001,-4.07834662123327e-001

2.67585510957221e+004,-1.71820107293975e+001,-4.13514656029392e-001

2.71320865489533e+004,-1.71820359014657e+001,-4.19273385967514e-001

2.75108363627948e+004,-1.71820617711606e+001,-4.25111927921081e-001

2.78948733270080e+004,-1.71820883575284e+001,-4.31031371935657e-001

2.82842712474618e+004,-1.71821156801188e+001,-4.37032822280583e-001

2.86791049603164e+004,-1.71821437589978e+001,-4.43117397605334e-001

2.90794503464061e+004,-1.71821726147600e+001,-4.49286231099991e-001

2.94853843458219e+004,-1.71822022685415e+001,-4.55540470654234e-001

2.98969849726987e+004,-1.71822327420334e+001,-4.61881279017164e-001

3.03143313302078e+004,-1.71822640574949e+001,-4.68309833958797e-001

3.07375036257601e+004,-1.71822962377674e+001,-4.74827328428940e-001

3.11665831864199e+004,-1.71823293062876e+001,-4.81434970723160e-001

3.16016524745350e+004,-1.71823632871027e+001,-4.88133984639769e-001

3.20427951035848e+004,-1.71823982048842e+001,-4.94925609644308e-001

3.24900958542493e+004,-1.71824340849426e+001,-5.01811101032782e-001

3.29436406907028e+004,-1.71824709532429e+001,-5.08791730091105e-001

3.34035167771346e+004,-1.71825088364192e+001,-5.15868784261477e-001

3.38698124945009e+004,-1.71825477617909e+001,-5.23043567299427e-001

3.43426174575100e+004,-1.71825877573776e+001,-5.30317399442330e-001

3.48220225318448e+004,-1.71826288519158e+001,-5.37691617567708e-001

3.53081198516260e+004,-1.71826710748748e+001,-5.45167575356178e-001

3.58010028371187e+004,-1.71827144564734e+001,-5.52746643451937e-001

3.63007662126863e+004,-1.71827590276965e+001,-5.60430209626541e-001

3.68075060249948e+004,-1.71828048203121e+001,-5.68219678937582e-001

3.73213196614721e+004,-1.71828518668888e+001,-5.76116473888127e-001

3.78423058690237e+004,-1.71829002008126e+001,-5.84122034588085e-001

3.83705647730104e+004,-1.71829498563055e+001,-5.92237818911072e-001

3.89061978964912e+004,-1.71830008684425e+001,-6.00465302653189e-001

3.94493081797342e+004,-1.71830532731705e+001,-6.08805979686647e-001

3.99999999999998e+004,-1.71831071073257e+001,-6.17261362120386e-001

4.05583791916010e+004,-1.71831624086531e+001,-6.25832980448644e-001

4.11245530662425e+004,-1.71832192158245e+001,-6.34522383707111e-001

4.16986304336447e+004,-1.71832775684572e+001,-6.43331139624112e-001

4.22807216224550e+004,-1.71833375071337e+001,-6.52260834767310e-001

4.28709385014515e+004,-1.71833990734203e+001,-6.61313074695792e-001

4.34693945010421e+004,-1.71834623098863e+001,-6.70489484102994e-001

4.40762046350642e+004,-1.71835272601238e+001,-6.79791706960418e-001

4.46914855228886e+004,-1.71835939687665e+001,-6.89221406663228e-001

4.53153554118317e+004,-1.71836624815099e+001,-6.98780266166063e-001

4.59479341998812e+004,-1.71837328451305e+001,-7.08469988120422e-001

4.65893434587380e+004,-1.71838051075052e+001,-7.18292295012770e-001

4.72397064571810e+004,-1.71838793176315e+001,-7.28248929291917e-001

4.78991481847569e+004,-1.71839555256461e+001,-7.38341653502318e-001

4.85677953758016e+004,-1.71840337828455e+001,-7.48572250407316e-001

4.92457765337964e+004,-1.71841141417047e+001,-7.58942523113074e-001

4.99332219560642e+004,-1.71841966558966e+001,-7.69454295188896e-001

5.06302637588109e+004,-1.71842813803115e+001,-7.80109410782805e-001

5.13370359025159e+004,-1.71843683710756e+001,-7.90909734735654e-001

5.20536742176771e+004,-1.71844576855703e+001,-8.01857152688948e-001

5.27803164309155e+004,-1.71845493824502e+001,-8.12953571190190e-001

5.35171021914442e+004,-1.71846435216614e+001,-8.24200917795862e-001

5.42641730979066e+004,-1.71847401644598e+001,-8.35601141167047e-001

5.50216727255895e+004,-1.71848393734279e+001,-8.47156211163049e-001

5.57897466540159e+004,-1.71849412124922e+001,-8.58868118930027e-001

5.65685424949235e+004,-1.71850457469393e+001,-8.70738876987358e-001

5.73582099206328e+004,-1.71851530434325e+001,-8.82770519302425e-001

5.81589006928121e+004,-1.71852631700265e+001,-8.94965101370717e-001

5.89707686916437e+004,-1.71853761961825e+001,-9.07324700283061e-001

5.97939699453972e+004,-1.71854921927815e+001,-9.19851414792604e-001

6.06286626604156e+004,-1.71856112321383e+001,-9.32547365372826e-001

6.14750072515201e+004,-1.71857333880129e+001,-9.45414694276015e-001

6.23331663728396e+004,-1.71858587356222e+001,-9.58455565580327e-001

6.32033049490698e+004,-1.71859873516500e+001,-9.71672165238173e-001

6.40855902071694e+004,-1.71861193142564e+001,-9.85066701113033e-001

6.49801917084985e+004,-1.71862547030855e+001,-9.98641403015221e-001

6.58872813814055e+004,-1.71863935992719e+001,-1.01239852273319e+000

6.68070335542691e+004,-1.71865360854467e+001,-1.02634033405485e+000

6.77396249890018e+004,-1.71866822457402e+001,-1.04046913278978e+000

6.86852349150199e+004,-1.71868321657850e+001,-1.05478723678188e+000

6.96440450636895e+004,-1.71869859327162e+001,-1.06929698591825e+000

7.06162397032520e+004,-1.71871436351700e+001,-1.08400074213585e+000

7.16020056742374e+004,-1.71873053632811e+001,-1.09890088941921e+000

7.26015324253724e+004,-1.71874712086771e+001,-1.11399983379649e+000

7.36150120499896e+004,-1.71876412644715e+001,-1.12930000333089e+000

7.46426393229441e+004,-1.71878156252543e+001,-1.14480384810753e+000

7.56846117380472e+004,-1.71879943870798e+001,-1.16051384021670e+000

7.67411295460207e+004,-1.71881776474528e+001,-1.17643247373377e+000

7.78123957929823e+004,-1.71883655053114e+001,-1.19256226469588e+000

7.88986163594682e+004,-1.71885580610072e+001,-1.20890575107735e+000

7.99999999999995e+004,-1.71887554162833e+001,-1.22546549275928e+000

8.11167583832018e+004,-1.71889576742479e+001,-1.24224407150353e+000

8.22491061324848e+004,-1.71891649393465e+001,-1.25924409091901e+000

8.33972608672892e+004,-1.71893773173291e+001,-1.27646817643286e+000

8.45614432449099e+004,-1.71895949152153e+001,-1.29391897525740e+000

8.57418770029029e+004,-1.71898178412550e+001,-1.31159915636333e+000

8.69387890020841e+004,-1.71900462048856e+001,-1.32951141044893e+000

8.81524092701283e+004,-1.71902801166854e+001,-1.34765844991679e+000

8.93829710457770e+004,-1.71905196883231e+001,-1.36604300885123e+000

9.06307108236633e+004,-1.71907650325028e+001,-1.38466784300109e+000

9.18958683997622e+004,-1.71910162629049e+001,-1.40353572976887e+000

9.31786869174758e+004,-1.71912734941222e+001,-1.42264946820717e+000

9.44794129143618e+004,-1.71915368415925e+001,-1.44201187902106e+000

9.57982963695136e+004,-1.71918064215247e+001,-1.46162580458274e+000

9.71355907516031e+004,-1.71920823508218e+001,-1.48149410895533e+000

9.84915530675926e+004,-1.71923647469977e+001,-1.50161967792962e+000

9.98664439121282e+004,-1.71926537280894e+001,-1.52200541907599e+000

1.01260527517622e+005,-1.71929494125639e+001,-1.54265426180989e+000

1.02674071805032e+005,-1.71932519192198e+001,-1.56356915747605e+000

1.04107348435354e+005,-1.71935613670831e+001,-1.58475307945346e+000

1.05560632861831e+005,-1.71938778752980e+001,-1.60620902327932e+000

1.07034204382888e+005,-1.71942015630117e+001,-1.62794000679815e+000

1.08528346195813e+005,-1.71945325492536e+001,-1.64994907033587e+000

1.10043345451179e+005,-1.71948709528089e+001,-1.67223927690071e+000

1.11579493308032e+005,-1.71952168920859e+001,-1.69481371241793e+000

1.13137084989847e+005,-1.71955704849783e+001,-1.71767548599230e+000

1.14716419841265e+005,-1.71959318487208e+001,-1.74082773020926e+000

1.16317801385624e+005,-1.71963010997394e+001,-1.76427360147334e+000

1.17941537383287e+005,-1.71966783534956e+001,-1.78801628038545e+000

1.19587939890794e+005,-1.71970637243251e+001,-1.81205897216485e+000

1.21257325320831e+005,-1.71974573252707e+001,-1.83640490711712e+000

1.22950014503040e+005,-1.71978592679091e+001,-1.86105734115081e+000

1.24666332745679e+005,-1.71982696621732e+001,-1.88601955634468e+000

1.26406609898139e+005,-1.71986886161677e+001,-1.91129486157346e+000

1.28171180414339e+005,-1.71991162359811e+001,-1.93688659318756e+000

1.29960383416997e+005,-1.71995526254909e+001,-1.96279811575632e+000

1.31774562762811e+005,-1.71999978861657e+001,-1.98903282287526e+000

1.33614067108538e+005,-1.72004521168615e+001,-2.01559413803918e+000

1.35479249978003e+005,-1.72009154136146e+001,-2.04248551558804e+000

1.37370469830040e+005,-1.72013878694298e+001,-2.06971044172437e+000

1.39288090127379e+005,-1.72018695740660e+001,-2.09727243560842e+000

1.41232479406504e+005,-1.72023606138176e+001,-2.12517505053399e+000

1.43204011348474e+005,-1.72028610712938e+001,-2.15342187518377e+000

1.45203064850745e+005,-1.72033710251956e+001,-2.18201653497399e+000

1.47230024099979e+005,-1.72038905500905e+001,-2.21096269348618e+000

1.49285278645888e+005,-1.72044197161867e+001,-2.24026405398879e+000

1.51369223476094e+005,-1.72049585891057e+001,-2.26992436105516e+000

1.53482259092041e+005,-1.72055072296559e+001,-2.29994740227564e+000

1.55624791585964e+005,-1.72060656936057e+001,-2.33033701006901e+000

1.57797232718936e+005,-1.72066340314583e+001,-2.36109706359592e+000

1.59999999999999e+005,-1.72072122882291e+001,-2.39223149077182e+000

1.62233516766403e+005,-1.72078005032244e+001,-2.42374427038622e+000

1.64498212264969e+005,-1.72083987098251e+001,-2.45563943432800e+000

1.66794521734578e+005,-1.72090069352737e+001,-2.48792106991484e+000

1.69122886489819e+005,-1.72096252004667e+001,-2.52059332233293e+000

1.71483754005805e+005,-1.72102535197531e+001,-2.55366039718337e+000

1.73877578004168e+005,-1.72108919007401e+001,-2.58712656313595e+000

1.76304818540256e+005,-1.72115403441059e+001,-2.62099615469279e+000

1.78765942091554e+005,-1.72121988434217e+001,-2.65527357505801e+000

1.81261421647326e+005,-1.72128673849838e+001,-2.68996329911348e+000

1.83791736799524e+005,-1.72135459476552e+001,-2.72506987650237e+000

1.86357373834951e+005,-1.72142345027199e+001,-2.76059793481205e+000

1.88958825828723e+005,-1.72149330137492e+001,-2.79655218286148e+000

1.91596592739027e+005,-1.72156414364815e+001,-2.83293741408482e+000

1.94271181503206e+005,-1.72163597187171e+001,-2.86975851001212e+000

1.96983106135185e+005,-1.72170878002274e+001,-2.90702044384045e+000

1.99732887824256e+005,-1.72178256126813e+001,-2.94472828409306e+000

2.02521055035243e+005,-1.72185730795884e+001,-2.98288719836218e+000

2.05348143610063e+005,-1.72193301162602e+001,-3.02150245712945e+000

2.08214696870707e+005,-1.72200966297902e+001,-3.06057943765962e+000

2.11121265723661e+005,-1.72208725190541e+001,-3.10012362796197e+000

2.14068408765776e+005,-1.72216576747291e+001,-3.14014063081016e+000

2.17056692391625e+005,-1.72224519793362e+001,-3.18063616781873e+000

2.20086690902357e+005,-1.72232553073019e+001,-3.22161608356487e+000

2.23158986616063e+005,-1.72240675250445e+001,-3.26308634975024e+000

2.26274169979693e+005,-1.72248884910806e+001,-3.30505306939394e+000

2.29432839682530e+005,-1.72257180561572e+001,-3.34752248105011e+000

2.32635602771247e+005,-1.72265560634051e+001,-3.39050096303934e+000

2.35883074766574e+005,-1.72274023485174e+001,-3.43399503768688e+000

2.39175879781588e+005,-1.72282567399511e+001,-3.47801137555885e+000

2.42514650641661e+005,-1.72291190591529e+001,-3.52255679968749e+000

2.45900029006080e+005,-1.72299891208087e+001,-3.56763828977344e+000

2.49332665491357e+005,-1.72308667331169e+001,-3.61326298636182e+000

2.52813219796278e+005,-1.72317516980851e+001,-3.65943819497627e+000

2.56342360828676e+005,-1.72326438118501e+001,-3.70617139020610e+000

2.59920766833993e+005,-1.72335428650203e+001,-3.75347021973686e+000

2.63549125525621e+005,-1.72344486430411e+001,-3.80134250831278e+000

2.67228134217075e+005,-1.72353609265803e+001,-3.84979626162534e+000

2.70958499956006e+005,-1.72362794919359e+001,-3.89883967011930e+000

2.74740939660078e+005,-1.72372041114632e+001,-3.94848111270396e+000

2.78576180254757e+005,-1.72381345540206e+001,-3.99872916036822e+000

2.82464958813007e+005,-1.72390705854339e+001,-4.04959257968645e+000

2.86408022696948e+005,-1.72400119689776e+001,-4.10108033621017e+000

2.90406129701488e+005,-1.72409584658712e+001,-4.15320159774013e+000

2.94460048199957e+005,-1.72419098357909e+001,-4.20596573747122e+000

2.98570557291775e+005,-1.72428658373938e+001,-4.25938233700577e+000

3.02738446952187e+005,-1.72438262288539e+001,-4.31346118922940e+000

3.06964518184081e+005,-1.72447907684087e+001,-4.36821230104693e+000

3.11249583171928e+005,-1.72457592149143e+001,-4.42364589597382e+000

3.15594465437872e+005,-1.72467313284079e+001,-4.47977241658075e+000

3.19999999999997e+005,-1.72477068706758e+001,-4.53660252678907e+000

3.24467033532806e+005,-1.72486856058260e+001,-4.59414711401729e+000

3.28996424529938e+005,-1.72496673008626e+001,-4.65241729117628e+000

3.33589043469155e+005,-1.72506517262621e+001,-4.71142439851428e+000

3.38245772979638e+005,-1.72516386565477e+001,-4.77118000531434e+000

3.42967508011610e+005,-1.72526278708626e+001,-4.83169591144289e+000

3.47755156008335e+005,-1.72536191535394e+001,-4.89298414875532e+000

3.52609637080511e+005,-1.72546122946628e+001,-4.95505698235941e+000

3.57531884183106e+005,-1.72556070906278e+001,-5.01792691174247e+000

3.62522843294651e+005,-1.72566033446875e+001,-5.08160667176599e+000

3.67583473599047e+005,-1.72576008674929e+001,-5.14610923353237e+000

3.72714747669902e+005,-1.72585994776210e+001,-5.21144780513296e+000

3.77917651657445e+005,-1.72595990020915e+001,-5.27763583227871e+000

3.83193185478053e+005,-1.72605992768692e+001,-5.34468699882688e+000

3.88542363006410e+005,-1.72616001473536e+001,-5.41261522720513e+000

3.93966212270369e+005,-1.72626014688520e+001,-5.48143467874607e+000

3.99465775648511e+005,-1.72636031070372e+001,-5.55115975393790e+000

4.05042110070485e+005,-1.72646049383878e+001,-5.62180509260070e+000

4.10696287220124e+005,-1.72656068506115e+001,-5.69338557399758e+000

4.16429393741414e+005,-1.72666087430498e+001,-5.76591631688984e+000

4.22242531447321e+005,-1.72676105270642e+001,-5.83941267954475e+000

4.28136817531551e+005,-1.72686121264037e+001,-5.91389025970823e+000

4.34113384783250e+005,-1.72696134775523e+001,-5.98936489454873e+000

4.40173381804713e+005,-1.72706145300581e+001,-6.06585266058301e+000

4.46317973232124e+005,-1.72716152468423e+001,-6.14336987359602e+000

4.52548339959385e+005,-1.72726156044886e+001,-6.22193308856073e+000

4.58865679365059e+005,-1.72736155935141e+001,-6.30155909956879e+000

4.65271205542494e+005,-1.72746152186207e+001,-6.38226493978184e+000

4.71766149533147e+005,-1.72756144989273e+001,-6.46406788141303e+000

4.78351759563174e+005,-1.72766134681847e+001,-6.54698543574442e+000

4.85029301283321e+005,-1.72776121749720e+001,-6.63103535319196e+000

4.91800058012158e+005,-1.72786106828762e+001,-6.71623562342521e+000

4.98665330982714e+005,-1.72796090706546e+001,-6.80260447554821e+000

5.05626439592555e+005,-1.72806074323819e+001,-6.89016037835132e+000

5.12684721657352e+005,-1.72816058775823e+001,-6.97892204063809e+000

5.19841533667984e+005,-1.72826045313466e+001,-7.06890841163619e+000

5.27098251051240e+005,-1.72836035344367e+001,-7.16013868149687e+000

5.34456268434150e+005,-1.72846030433771e+001,-7.25263228188968e+000

5.41916999912011e+005,-1.72856032305353e+001,-7.34640888669635e+000

