Freq.,VOut,OutRef

1.00000000000000e+004,-9.97393541012371e+000,-6.89635075607911e-002

1.01395947979003e+004,-9.97393730732981e+000,-6.99257991449580e-002

1.02811382665607e+004,-9.97393925776257e+000,-7.09015067240963e-002

1.04246576084112e+004,-9.97394126291200e+000,-7.18908168549769e-002

1.05701804056138e+004,-9.97394332430982e+000,-7.28939186665377e-002

1.07177346253629e+004,-9.97394544353003e+000,-7.39110038984342e-002

1.08673486252606e+004,-9.97394762219124e+000,-7.49422669289631e-002

1.10190511587661e+004,-9.97394986195606e+000,-7.59879048220337e-002

1.11728713807222e+004,-9.97395216453459e+000,-7.70481173485951e-002

1.13288388529580e+004,-9.97395453168380e+000,-7.81231070351114e-002

1.14869835499703e+004,-9.97395696520955e+000,-7.92130791966207e-002

1.16473358646846e+004,-9.97395946696819e+000,-8.03182419712316e-002

1.18099266142953e+004,-9.97396203886741e+000,-8.14388063620205e-002

1.19747870461893e+004,-9.97396468286839e+000,-8.25749862700192e-002

1.21419488439505e+004,-9.97396740098624e+000,-8.37269985399010e-002

1.23114441334492e+004,-9.97397019529289e+000,-8.48950629897518e-002

1.24833054890161e+004,-9.97397306791711e+000,-8.60794024602895e-002

1.26575659397028e+004,-9.97397602104679e+000,-8.72802428511174e-002

1.28342589756290e+004,-9.97397905693089e+000,-8.84978131577872e-002

1.30134185544193e+004,-9.97398217788052e+000,-8.97323455178686e-002

1.31950791077289e+004,-9.97398538627111e+000,-9.09840752481095e-002

1.33792755478611e+004,-9.97398868454405e+000,-9.22532408886612e-002

1.35660432744767e+004,-9.97399207520781e+000,-9.35400842481171e-002

1.37554181813974e+004,-9.97399556084093e+000,-9.48448504406545e-002

1.39474366635040e+004,-9.97399914409316e+000,-9.61677879326102e-002

1.41421356237309e+004,-9.97400282768771e+000,-9.75091485862105e-002

1.43395524801583e+004,-9.97400661442298e+000,-9.88691877039341e-002

1.45397251732031e+004,-9.97401050717472e+000,-1.00248164073749e-001

1.47426921729110e+004,-9.97401450889826e+000,-1.01646340013305e-001

1.49484924863494e+004,-9.97401862263071e+000,-1.03063981415307e-001

1.51571656651040e+004,-9.97402285149278e+000,-1.04501357796650e-001

1.53687518128801e+004,-9.97402719869180e+000,-1.05958742340598e-001

1.55832915932100e+004,-9.97403166752294e+000,-1.07436411950285e-001

1.58008262372675e+004,-9.97403626137275e+000,-1.08934647290354e-001

1.60213975517924e+004,-9.97404098372089e+000,-1.10453732839463e-001

1.62450479271247e+004,-9.97404583814272e+000,-1.11993956938333e-001

1.64718203453514e+004,-9.97405082831253e+000,-1.13555611835369e-001

1.67017583885674e+004,-9.97405595800500e+000,-1.15138993743723e-001

1.69349062472505e+004,-9.97406123109923e+000,-1.16744402883449e-001

1.71713087287550e+004,-9.97406665158025e+000,-1.18372143540667e-001

1.74110112659224e+004,-9.97407222354310e+000,-1.20022524110252e-001

1.76540599258131e+004,-9.97407795119475e+000,-1.21695857155159e-001

1.79005014185594e+004,-9.97408383885794e+000,-1.23392459452214e-001

1.81503831063432e+004,-9.97408989097362e+000,-1.25112652049904e-001

1.84037530124975e+004,-9.97409611210416e+000,-1.26856760321061e-001

1.86606598307361e+004,-9.97410250693690e+000,-1.28625114014447e-001

1.89211529345119e+004,-9.97410908028751e+000,-1.30418047308723e-001

1.91852823865052e+004,-9.97411583710291e+000,-1.32235898870008e-001

1.94530989482457e+004,-9.97412278246540e+000,-1.34079011903637e-001

1.97246540898671e+004,-9.97412992159557e+000,-1.35947734213225e-001

1.99999999999999e+004,-9.97413725985607e+000,-1.37842418256569e-001

2.02791895958005e+004,-9.97414480275623e+000,-1.39763421196092e-001

2.05622765331213e+004,-9.97415255595445e+000,-1.41711104965778e-001

2.08493152168224e+004,-9.97416052526309e+000,-1.43685836321744e-001

2.11403608112276e+004,-9.97416871665300e+000,-1.45687986897403e-001

2.14354692507258e+004,-9.97417713625580e+000,-1.47717933273414e-001

2.17346972505211e+004,-9.97418579036982e+000,-1.49776057025304e-001

2.20381023175322e+004,-9.97419468546392e+000,-1.51862744786045e-001

2.23457427614443e+004,-9.97420382818167e+000,-1.53978388306360e-001

2.26576777059159e+004,-9.97421322534570e+000,-1.56123384516615e-001

2.29739670999406e+004,-9.97422288396310e+000,-1.58298135581647e-001

2.32946717293690e+004,-9.97423281122942e+000,-1.60503048966727e-001

2.36198532285905e+004,-9.97424301453411e+000,-1.62738537493517e-001

2.39495740923785e+004,-9.97425350146462e+000,-1.65005019408321e-001

2.42838976879009e+004,-9.97426427981235e+000,-1.67302918436927e-001

2.46228882668982e+004,-9.97427535757749e+000,-1.69632663849224e-001

2.49666109780322e+004,-9.97428674297429e+000,-1.71994690521595e-001

2.53151318794055e+004,-9.97429844443629e+000,-1.74389439000429e-001

2.56685179512580e+004,-9.97431047062215e+000,-1.76817355563012e-001

2.60268371088386e+004,-9.97432283042141e+000,-1.79278892279869e-001

2.63901582154578e+004,-9.97433553295966e+000,-1.81774507081639e-001

2.67585510957221e+004,-9.97434858760515e+000,-1.84304663817593e-001

2.71320865489533e+004,-9.97436200397437e+000,-1.86869832322645e-001

2.75108363627948e+004,-9.97437579193839e+000,-1.89470488479121e-001

2.78948733270080e+004,-9.97438996162879e+000,-1.92107114283220e-001

2.82842712474618e+004,-9.97440452344472e+000,-1.94780197904262e-001

2.86791049603164e+004,-9.97441948805882e+000,-1.97490233752156e-001

2.90794503464061e+004,-9.97443486642407e+000,-2.00237722541288e-001

2.94853843458219e+004,-9.97445066978075e+000,-2.03023171351612e-001

2.98969849726987e+004,-9.97446690966324e+000,-2.05847093694635e-001

3.03143313302078e+004,-9.97448359790694e+000,-2.08710009577899e-001

3.07375036257601e+004,-9.97450074665553e+000,-2.11612445567215e-001

3.11665831864199e+004,-9.97451836836869e+000,-2.14554934849052e-001

3.16016524745350e+004,-9.97453647582885e+000,-2.17538017297052e-001

3.20427951035848e+004,-9.97455508214907e+000,-2.20562239533577e-001

3.24900958542493e+004,-9.97457420078133e+000,-2.23628154989782e-001

3.29436406907028e+004,-9.97459384552329e+000,-2.26736323973796e-001

3.34035167771346e+004,-9.97461403052710e+000,-2.29887313728290e-001

3.38698124945009e+004,-9.97463477030745e+000,-2.33081698492810e-001

3.43426174575100e+004,-9.97465607974901e+000,-2.36320059569384e-001

3.48220225318448e+004,-9.97467797411623e+000,-2.39602985374917e-001

3.53081198516260e+004,-9.97470046906032e+000,-2.42931071510771e-001

3.58010028371187e+004,-9.97472358062875e+000,-2.46304920816405e-001

3.63007662126863e+004,-9.97474732527368e+000,-2.49725143431295e-001

3.68075060249948e+004,-9.97477171986140e+000,-2.53192356848196e-001

3.73213196614721e+004,-9.97479678168005e+000,-2.56707185979620e-001

3.78423058690237e+004,-9.97482252844997e+000,-2.60270263205503e-001

3.83705647730104e+004,-9.97484897833216e+000,-2.63882228434146e-001

3.89061978964912e+004,-9.97487614993766e+000,-2.67543729156066e-001

3.94493081797342e+004,-9.97490406233717e+000,-2.71255420496440e-001

3.99999999999998e+004,-9.97493273507052e+000,-2.75017965267399e-001

4.05583791916010e+004,-9.97496218815559e+000,-2.78832034023913e-001

4.11245530662425e+004,-9.97499244209901e+000,-2.82698305107050e-001

4.16986304336447e+004,-9.97502351790473e+000,-2.86617464699981e-001

4.22807216224550e+004,-9.97505543708487e+000,-2.90590206869000e-001

4.28709385014515e+004,-9.97508822166881e+000,-2.94617233614029e-001

4.34693945010421e+004,-9.97512189421302e+000,-2.98699254913155e-001

4.40762046350642e+004,-9.97515647781173e+000,-3.02836988760794e-001

4.46914855228886e+004,-9.97519199610577e+000,-3.07031161216347e-001

4.53153554118317e+004,-9.97522847329370e+000,-3.11282506434974e-001

4.59479341998812e+004,-9.97526593414068e+000,-3.15591766712746e-001

4.65893434587380e+004,-9.97530440398899e+000,-3.19959692517963e-001

4.72397064571810e+004,-9.97534390876802e+000,-3.24387042524708e-001

4.78991481847569e+004,-9.97538447500359e+000,-3.28874583646814e-001

4.85677953758016e+004,-9.97542612982836e+000,-3.33423091063809e-001

4.92457765337964e+004,-9.97546890099108e+000,-3.38033348250810e-001

4.99332219560642e+004,-9.97551281686672e+000,-3.42706146999110e-001

5.06302637588109e+004,-9.97555790646533e+000,-3.47442287443352e-001

5.13370359025159e+004,-9.97560419944213e+000,-3.52242578075879e-001

5.20536742176771e+004,-9.97565172610625e+000,-3.57107835766336e-001

5.27803164309155e+004,-9.97570051743002e+000,-3.62038885775128e-001

5.35171021914442e+004,-9.97575060505780e+000,-3.67036561763646e-001

5.42641730979066e+004,-9.97580202131416e+000,-3.72101705805554e-001

5.50216727255895e+004,-9.97585479921325e+000,-3.77235168386385e-001

5.57897466540159e+004,-9.97590897246570e+000,-3.82437808412130e-001

5.65685424949235e+004,-9.97596457548723e+000,-3.87710493204014e-001

5.73582099206328e+004,-9.97602164340558e+000,-3.93054098495550e-001

5.81589006928121e+004,-9.97608021206781e+000,-3.98469508425827e-001

5.89707686916437e+004,-9.97614031804675e+000,-4.03957615527361e-001

5.97939699453972e+004,-9.97620199864719e+000,-4.09519320712955e-001

6.06286626604156e+004,-9.97626529191136e+000,-4.15155533258315e-001

6.14750072515201e+004,-9.97633023662445e+000,-4.20867170778997e-001

6.23331663728396e+004,-9.97639687231881e+000,-4.26655159207411e-001

6.32033049490698e+004,-9.97646523927805e+000,-4.32520432763014e-001

6.40855902071694e+004,-9.97653537854011e+000,-4.38463933921638e-001

6.49801917084985e+004,-9.97660733189974e+000,-4.44486613380455e-001

6.58872813814055e+004,-9.97668114191070e+000,-4.50589430015486e-001

6.68070335542691e+004,-9.97675685188623e+000,-4.56773350841207e-001

6.77396249890018e+004,-9.97683450589923e+000,-4.63039350964554e-001

6.86852349150199e+004,-9.97691414878147e+000,-4.69388413532666e-001

6.96440450636895e+004,-9.97699582612178e+000,-4.75821529680250e-001

7.06162397032520e+004,-9.97707958426292e+000,-4.82339698472365e-001

7.16020056742374e+004,-9.97716547029780e+000,-4.88943926843225e-001

7.26015324253724e+004,-9.97725353206406e+000,-4.95635229532991e-001

7.36150120499896e+004,-9.97734381813776e+000,-5.02414629019687e-001

7.46426393229441e+004,-9.97743637782577e+000,-5.09283155448238e-001

7.56846117380472e+004,-9.97753126115617e+000,-5.16241846558950e-001

7.67411295460207e+004,-9.97762851886792e+000,-5.23291747611011e-001

7.78123957929823e+004,-9.97772820239906e+000,-5.30433911300609e-001

7.88986163594682e+004,-9.97783036387218e+000,-5.37669397685082e-001

7.99999999999995e+004,-9.97793505607985e+000,-5.44999274094488e-001

8.11167583832018e+004,-9.97804233246686e+000,-5.52424615049830e-001

8.22491061324848e+004,-9.97815224711141e+000,-5.59946502174978e-001

8.33972608672892e+004,-9.97826485470409e+000,-5.67566024109760e-001

8.45614432449099e+004,-9.97838021052513e+000,-5.75284276418892e-001

8.57418770029029e+004,-9.97849837041891e+000,-5.83102361506322e-001

8.69387890020841e+004,-9.97861939076740e+000,-5.91021388521930e-001

8.81524092701283e+004,-9.97874332845999e+000,-5.99042473276362e-001

8.93829710457770e+004,-9.97887024086218e+000,-6.07166738151106e-001

9.06307108236633e+004,-9.97900018578133e+000,-6.15395312011473e-001

9.18958683997622e+004,-9.97913322142942e+000,-6.23729330126009e-001

9.31786869174758e+004,-9.97926940638427e+000,-6.32169934081139e-001

9.44794129143618e+004,-9.97940879954742e+000,-6.40718271704797e-001

9.57982963695136e+004,-9.97955146009911e+000,-6.49375496993283e-001

9.71355907516031e+004,-9.97969744745077e+000,-6.58142770042784e-001

9.84915530675926e+004,-9.97984682119502e+000,-6.67021256982873e-001

9.98664439121282e+004,-9.97999964105137e+000,-6.76012129925628e-001

1.01260527517622e+005,-9.98015596681043e+000,-6.85116566911853e-001

1.02674071805032e+005,-9.98031585827373e+000,-6.94335751874634e-001

1.04107348435354e+005,-9.98047937519124e+000,-7.03670874606911e-001

1.05560632861831e+005,-9.98064657719526e+000,-7.13123130741349e-001

1.07034204382888e+005,-9.98081752373122e+000,-7.22693721742242e-001

1.08528346195813e+005,-9.98099227398442e+000,-7.32383854913517e-001

1.10043345451179e+005,-9.98117088680487e+000,-7.42194743413240e-001

1.11579493308032e+005,-9.98135342062727e+000,-7.52127606291680e-001

1.13137084989847e+005,-9.98153993338854e+000,-7.62183668540897e-001

1.14716419841265e+005,-9.98173048244120e+000,-7.72364161166850e-001

1.16317801385624e+005,-9.98192512446380e+000,-7.82670321277497e-001

1.17941537383287e+005,-9.98212391536810e+000,-7.93103392193014e-001

1.19587939890794e+005,-9.98232691020206e+000,-8.03664623580886e-001

1.21257325320831e+005,-9.98253416305032e+000,-8.14355271612405e-001

1.22950014503040e+005,-9.98274572693049e+000,-8.25176599147884e-001

1.24666332745679e+005,-9.98296165368719e+000,-8.36129875945666e-001

1.26406609898139e+005,-9.98318199388200e+000,-8.47216378903385e-001

1.28171180414339e+005,-9.98340679668049e+000,-8.58437392330504e-001

1.29960383416997e+005,-9.98363610973648e+000,-8.69794208250576e-001

1.31774562762811e+005,-9.98386997907335e+000,-8.81288126739916e-001

1.33614067108538e+005,-9.98410844896227e+000,-8.92920456301812e-001

1.35479249978003e+005,-9.98435156179806e+000,-9.04692514278661e-001

1.37370469830040e+005,-9.98459935797282e+000,-9.16605627302807e-001

1.39288090127379e+005,-9.98485187574664e+000,-9.28661131790464e-001

1.41232479406504e+005,-9.98510915111722e+000,-9.40860374474852e-001

1.43204011348474e+005,-9.98537121768644e+000,-9.53204712990559e-001

1.45203064850745e+005,-9.98563810652668e+000,-9.65695516495048e-001

1.47230024099979e+005,-9.98590984604468e+000,-9.78334166347619e-001

1.49285278645888e+005,-9.98618646184551e+000,-9.91122056828294e-001

1.51369223476094e+005,-9.98646797659456e+000,-1.00406059591607e+000

1.53482259092041e+005,-9.98675440988062e+000,-1.01715120611097e+000

1.55624791585964e+005,-9.98704577807733e+000,-1.03039532531845e+000

1.57797232718936e+005,-9.98734209420654e+000,-1.04379440777906e+000

1.59999999999999e+005,-9.98764336780123e+000,-1.05734992506090e+000

1.62233516766403e+005,-9.98794960477032e+000,-1.07106336710407e+000

1.64498212264969e+005,-9.98826080726452e+000,-1.08493624332555e+000

1.66794521734578e+005,-9.98857697354477e+000,-1.09897008377844e+000

1.69122886489819e+005,-9.98889809785236e+000,-1.11316644037412e+000

1.71483754005805e+005,-9.98922417028300e+000,-1.12752688815768e+000

1.73877578004168e+005,-9.98955517666357e+000,-1.14205302664581e+000

1.76304818540256e+005,-9.98989109843279e+000,-1.15674648122363e+000

1.78765942091554e+005,-9.99023191252696e+000,-1.17160890459641e+000

1.81261421647326e+005,-9.99057759127022e+000,-1.18664197830087e+000

1.83791736799524e+005,-9.99092810226987e+000,-1.20184741427670e+000

1.86357373834951e+005,-9.99128340831882e+000,-1.21722695648698e+000

1.88958825828723e+005,-9.99164346730325e+000,-1.23278238260133e+000

1.91596592739027e+005,-9.99200823211840e+000,-1.24851550572524e+000

1.94271181503206e+005,-9.99237765059121e+000,-1.26442817618660e+000

1.96983106135185e+005,-9.99275166541127e+000,-1.28052228336851e+000

1.99732887824256e+005,-9.99313021407041e+000,-1.29679975759069e+000

2.02521055035243e+005,-9.99351322881125e+000,-1.31326257203500e+000

2.05348143610063e+005,-9.99390063658513e+000,-1.32991274471419e+000

2.08214696870707e+005,-9.99429235902028e+000,-1.34675234047873e+000

2.11121265723661e+005,-9.99468831240005e+000,-1.36378347305973e+000

2.14068408765776e+005,-9.99508840765218e+000,-1.38100830714429e+000

2.17056692391625e+005,-9.99549255034911e+000,-1.39842906047895e+000

2.20086690902357e+005,-9.99590064071958e+000,-1.41604800599970e+000

2.23158986616063e+005,-9.99631257367224e+000,-1.43386747397924e+000

2.26274169979693e+005,-9.99672823883152e+000,-1.45188985419173e+000

2.29432839682530e+005,-9.99714752058473e+000,-1.47011759809196e+000

2.32635602771247e+005,-9.99757029814276e+000,-1.48855322099683e+000

2.35883074766574e+005,-9.99799644561269e+000,-1.50719930427083e+000

2.39175879781588e+005,-9.99842583208294e+000,-1.52605849751012e+000

2.42514650641661e+005,-9.99885832172116e+000,-1.54513352071699e+000

2.45900029006080e+005,-9.99929377388486e+000,-1.56442716646066e+000

2.49332665491357e+005,-9.99973204324416e+000,-1.58394230202229e+000

2.52813219796278e+005,-1.00001729799173e+001,-1.60368187151495e+000

2.56342360828676e+005,-1.00006164296178e+001,-1.62364889797409e+000

2.59920766833993e+005,-1.00010622338139e+001,-1.64384648541918e+000

2.63549125525621e+005,-1.00015102298994e+001,-1.66427782087026e+000

2.67228134217075e+005,-1.00019602513756e+001,-1.68494617632651e+000

2.70958499956006e+005,-1.00024121280441e+001,-1.70585491069318e+000

2.74740939660078e+005,-1.00028656862100e+001,-1.72700747165752e+000

2.78576180254757e+005,-1.00033207488941e+001,-1.74840739750739e+000

2.82464958813007e+005,-1.00037771360553e+001,-1.77005831888808e+000

2.86408022696948e+005,-1.00042346648208e+001,-1.79196396049215e+000

2.90406129701488e+005,-1.00046931497242e+001,-1.81412814268362e+000

2.94460048199957e+005,-1.00051524029505e+001,-1.83655478304817e+000

2.98570557291775e+005,-1.00056122345880e+001,-1.85924789786720e+000

3.02738446952187e+005,-1.00060724528851e+001,-1.88221160351524e+000

3.06964518184081e+005,-1.00065328645118e+001,-1.90545011777664e+000

3.11249583171928e+005,-1.00069932748254e+001,-1.92896776107984e+000

3.15594465437872e+005,-1.00074534881388e+001,-1.95276895764898e+000

3.19999999999997e+005,-1.00079133079906e+001,-1.97685823656964e+000

3.24467033532806e+005,-1.00083725374168e+001,-2.00124023276916e+000

3.28996424529938e+005,-1.00088309792225e+001,-2.02591968791270e+000

3.33589043469155e+005,-1.00092884362521e+001,-2.05090145121260e+000

3.38245772979638e+005,-1.00097447116591e+001,-2.07619048015352e+000

3.42967508011610e+005,-1.00101996091721e+001,-2.10179184113289e+000

3.47755156008335e+005,-1.00106529333581e+001,-2.12771071002114e+000

3.52609637080511e+005,-1.00111044898810e+001,-2.15395237263859e+000

3.57531884183106e+005,-1.00115540857547e+001,-2.18052222515782e+000

3.62522843294651e+005,-1.00120015295903e+001,-2.20742577442689e+000

3.67583473599047e+005,-1.00124466318369e+001,-2.23466863822238e+000

3.72714747669902e+005,-1.00128892050134e+001,-2.26225654543444e+000

3.77917651657445e+005,-1.00133290639329e+001,-2.29019533618360e+000

3.83193185478053e+005,-1.00137660259182e+001,-2.31849096187826e+000

3.88542363006410e+005,-1.00141999110066e+001,-2.34714948521516e+000

3.93966212270369e+005,-1.00146305421446e+001,-2.37617708012842e+000

3.99465775648511e+005,-1.00150577453728e+001,-2.40558003168752e+000

4.05042110070485e+005,-1.00154813499979e+001,-2.43536473595747e+000

4.10696287220124e+005,-1.00159011887534e+001,-2.46553769981786e+000

4.16429393741414e+005,-1.00163170979491e+001,-2.49610554075182e+000

4.22242531447321e+005,-1.00167289176061e+001,-2.52707498660761e+000

4.28136817531551e+005,-1.00171364915811e+001,-2.55845287533854e+000

4.34113384783250e+005,-1.00175396676762e+001,-2.59024615472857e+000

4.40173381804713e+005,-1.00179382977363e+001,-2.62246188210604e+000

4.46317973232124e+005,-1.00183322377327e+001,-2.65510722405402e+000

4.52548339959385e+005,-1.00187213478344e+001,-2.68818945612184e+000

4.58865679365059e+005,-1.00191054924648e+001,-2.72171596254026e+000

4.65271205542494e+005,-1.00194845403462e+001,-2.75569423595289e+000

4.71766149533147e+005,-1.00198583645310e+001,-2.79013187715969e+000

4.78351759563174e+005,-1.00202268424194e+001,-2.82503659488574e+000

4.85029301283321e+005,-1.00205898557649e+001,-2.86041620557588e+000

4.91800058012158e+005,-1.00209472906675e+001,-2.89627863322007e+000

4.98665330982714e+005,-1.00212990375537e+001,-2.93263190921676e+000

5.05626439592555e+005,-1.00216449911460e+001,-2.96948417227596e+000

5.12684721657352e+005,-1.00219850504195e+001,-3.00684366836588e+000

5.19841533667984e+005,-1.00223191185481e+001,-3.04471875071151e+000

5.27098251051240e+005,-1.00226471028398e+001,-3.08311787984138e+000

5.34456268434150e+005,-1.00229689146620e+001,-3.12204962369342e+000

5.41916999912011e+005,-1.00232844693560e+001,-3.16152265777795e+000

