Freq.,VOut,OutRef

1.00000000000000e+004,-7.88106812651010e+000,-4.46040768890740e-002

1.01395947979003e+004,-7.88107230370962e+000,-4.52258445250618e-002

1.02811382665607e+004,-7.88107659810193e+000,-4.58562543116296e-002

1.04246576084112e+004,-7.88108101296922e+000,-4.64954252952716e-002

1.05701804056138e+004,-7.88108555168280e+000,-4.71434781328277e-002

1.07177346253629e+004,-7.88109021770866e+000,-4.78005350908635e-002

1.08673486252606e+004,-7.88109501461090e+000,-4.84667200593441e-002

1.10190511587661e+004,-7.88109994605050e+000,-4.91421585981138e-002

1.11728713807222e+004,-7.88110501579219e+000,-4.98269779283701e-002

1.13288388529580e+004,-7.88111022770458e+000,-5.05213069708338e-002

1.14869835499703e+004,-7.88111558576426e+000,-5.12252763583752e-002

1.16473358646846e+004,-7.88112109405849e+000,-5.19390184573818e-002

1.18099266142953e+004,-7.88112675678804e+000,-5.26626673896134e-002

1.19747870461893e+004,-7.88113257827022e+000,-5.33963590545322e-002

1.21419488439505e+004,-7.88113856294322e+000,-5.41402311404925e-002

1.23114441334492e+004,-7.88114471536781e+000,-5.48944231583296e-002

1.24833054890161e+004,-7.88115104023180e+000,-5.56590764532799e-002

1.26575659397028e+004,-7.88115754235243e+000,-5.64343342344690e-002

1.28342589756290e+004,-7.88116422668187e+000,-5.72203415824589e-002

1.30134185544193e+004,-7.88117109830914e+000,-5.80172454828419e-002

1.31950791077289e+004,-7.88117816246381e+000,-5.88251948465706e-002

1.33792755478611e+004,-7.88118542452143e+000,-5.96443405224274e-002

1.35660432744767e+004,-7.88119289000638e+000,-6.04748353252661e-002

1.37554181813974e+004,-7.88120056459562e+000,-6.13168340594718e-002

1.39474366635040e+004,-7.88120845412321e+000,-6.21704935379142e-002

1.41421356237309e+004,-7.88121656458600e+000,-6.30359725951420e-002

1.43395524801583e+004,-7.88122490214482e+000,-6.39134321300469e-002

1.45397251732031e+004,-7.88123347313226e+000,-6.48030351051059e-002

1.47426921729110e+004,-7.88124228405591e+000,-6.57049465785763e-002

1.49484924863494e+004,-7.88125134160291e+000,-6.66193337262400e-002

1.51571656651040e+004,-7.88126065264516e+000,-6.75463658619406e-002

1.53687518128801e+004,-7.88127022424413e+000,-6.84862144599775e-002

1.55832915932100e+004,-7.88128006365566e+000,-6.94390531785665e-002

1.58008262372675e+004,-7.88129017833651e+000,-7.04050578740337e-002

1.60213975517924e+004,-7.88130057594915e+000,-7.13844066257237e-002

1.62450479271247e+004,-7.88131126436592e+000,-7.23772797663188e-002

1.64718203453514e+004,-7.88132225167731e+000,-7.33838598862619e-002

1.67017583885674e+004,-7.88133354619448e+000,-7.44043318771976e-002

1.69349062472505e+004,-7.88134515645931e+000,-7.54388829254902e-002

1.71713087287550e+004,-7.88135709124723e+000,-7.64877025556161e-002

1.74110112659224e+004,-7.88136935957395e+000,-7.75509826472951e-002

1.76540599258131e+004,-7.88138197070458e+000,-7.86289174393597e-002

1.79005014185594e+004,-7.88139493415563e+000,-7.97217035795750e-002

1.81503831063432e+004,-7.88140825970760e+000,-8.08295401072018e-002

1.84037530124975e+004,-7.88142195740580e+000,-8.19526285122547e-002

1.86606598307361e+004,-7.88143603757233e+000,-8.30911727239322e-002

1.89211529345119e+004,-7.88145051081041e+000,-8.42453791493956e-002

1.91852823865052e+004,-7.88146538801373e+000,-8.54154566791867e-002

1.94530989482457e+004,-7.88148068037293e+000,-8.66016167152350e-002

1.97246540898671e+004,-7.88149639938411e+000,-8.78040731834905e-002

1.99999999999999e+004,-7.88151255685581e+000,-8.90230425583192e-002

2.02791895958005e+004,-7.88152916491916e+000,-9.02587438686904e-002

2.05622765331213e+004,-7.88154623603493e+000,-9.15113987224094e-002

2.08493152168224e+004,-7.88156378300228e+000,-9.27812313223253e-002

2.11403608112276e+004,-7.88158181896775e+000,-9.40684684811940e-002

2.14354692507258e+004,-7.88160035743474e+000,-9.53733396334139e-002

2.17346972505211e+004,-7.88161941227254e+000,-9.66960768512753e-002

2.20381023175322e+004,-7.88163899772554e+000,-9.80369148604541e-002

2.23457427614443e+004,-7.88165912842310e+000,-9.93960910522244e-002

2.26576777059159e+004,-7.88167981939009e+000,-1.00773845490732e-001

2.29739670999406e+004,-7.88170108605636e+000,-1.02170420929796e-001

2.32946717293690e+004,-7.88172294426722e+000,-1.03586062822577e-001

2.36198532285905e+004,-7.88174541029469e+000,-1.05021019326840e-001

2.39495740923785e+004,-7.88176850084819e+000,-1.06475541315128e-001

2.42838976879009e+004,-7.88179223308509e+000,-1.07949882385697e-001

2.46228882668982e+004,-7.88181662462270e+000,-1.09444298864717e-001

2.49666109780322e+004,-7.88184169355020e+000,-1.10959049810000e-001

2.53151318794055e+004,-7.88186745844008e+000,-1.12494397017172e-001

2.56685179512580e+004,-7.88189393836018e+000,-1.14050605023605e-001

2.60268371088386e+004,-7.88192115288684e+000,-1.15627941104390e-001

2.63901582154578e+004,-7.88194912211649e+000,-1.17226675279504e-001

2.67585510957221e+004,-7.88197786668058e+000,-1.18847080298587e-001

2.71320865489533e+004,-7.88200740775674e+000,-1.20489431651978e-001

2.75108363627948e+004,-7.88203776708323e+000,-1.22154007558795e-001

2.78948733270080e+004,-7.88206896697328e+000,-1.23841088956452e-001

2.82842712474618e+004,-7.88210103032800e+000,-1.25550959499739e-001

2.86791049603164e+004,-7.88213398065240e+000,-1.27283905539117e-001

2.90794503464061e+004,-7.88216784206839e+000,-1.29040216118613e-001

2.94853843458219e+004,-7.88220263933045e+000,-1.30820182956402e-001

2.98969849726987e+004,-7.88223839784165e+000,-1.32624100422143e-001

3.03143313302078e+004,-7.88227514366806e+000,-1.34452265524384e-001

3.07375036257601e+004,-7.88231290355454e+000,-1.36304977889372e-001

3.11665831864199e+004,-7.88235170494285e+000,-1.38182539722836e-001

3.16016524745350e+004,-7.88239157598491e+000,-1.40085255803723e-001

3.20427951035848e+004,-7.88243254556232e+000,-1.42013433434971e-001

3.24900958542493e+004,-7.88247464330239e+000,-1.43967382416723e-001

3.29436406907028e+004,-7.88251789959418e+000,-1.45947415019143e-001

3.34035167771346e+004,-7.88256234560866e+000,-1.47953845925193e-001

3.38698124945009e+004,-7.88260801331445e+000,-1.49986992202693e-001

3.43426174575100e+004,-7.88265493549686e+000,-1.52047173251300e-001

3.48220225318448e+004,-7.88270314577663e+000,-1.54134710751964e-001

3.53081198516260e+004,-7.88275267862780e+000,-1.56249928617634e-001

3.58010028371187e+004,-7.88280356939732e+000,-1.58393152932711e-001

3.63007662126863e+004,-7.88285585432445e+000,-1.60564711889697e-001

3.68075060249948e+004,-7.88290957055953e+000,-1.62764935729078e-001

3.73213196614721e+004,-7.88296475618492e+000,-1.64994156660919e-001

3.78423058690237e+004,-7.88302145023385e+000,-1.67252708797779e-001

3.83705647730104e+004,-7.88307969271150e+000,-1.69540928070380e-001

3.89061978964912e+004,-7.88313952461510e+000,-1.71859152144949e-001

3.94493081797342e+004,-7.88320098795457e+000,-1.74207720334139e-001

3.99999999999998e+004,-7.88326412577490e+000,-1.76586973493550e-001

4.05583791916010e+004,-7.88332898217383e+000,-1.78997253942132e-001

4.11245530662425e+004,-7.88339560232704e+000,-1.81438905331792e-001

4.16986304336447e+004,-7.88346403250756e+000,-1.83912272548474e-001

4.22807216224550e+004,-7.88353432010715e+000,-1.86417701595158e-001

4.28709385014515e+004,-7.88360651365877e+000,-1.88955539462771e-001

4.34693945010421e+004,-7.88368066285837e+000,-1.91526133999295e-001

4.40762046350642e+004,-7.88375681858658e+000,-1.94129833774248e-001

4.46914855228886e+004,-7.88383503293037e+000,-1.96766987935073e-001

4.53153554118317e+004,-7.88391535920566e+000,-1.99437946052434e-001

4.59479341998812e+004,-7.88399785197906e+000,-2.02143057961548e-001

4.65893434587380e+004,-7.88408256709016e+000,-2.04882673595107e-001

4.72397064571810e+004,-7.88416956167225e+000,-2.07657142814940e-001

4.78991481847569e+004,-7.88425889417595e+000,-2.10466815218964e-001

4.85677953758016e+004,-7.88435062439004e+000,-2.13312039954565e-001

4.92457765337964e+004,-7.88444481346246e+000,-2.16193165524052e-001

4.99332219560642e+004,-7.88454152392284e+000,-2.19110539567415e-001

5.06302637588109e+004,-7.88464081970286e+000,-2.22064508650963e-001

5.13370359025159e+004,-7.88474276615770e+000,-2.25055418035386e-001

5.20536742176771e+004,-7.88484743008595e+000,-2.28083611444070e-001

5.27803164309155e+004,-7.88495487975006e+000,-2.31149430814207e-001

5.35171021914442e+004,-7.88506518489578e+000,-2.34253216043184e-001

5.42641730979066e+004,-7.88517841677175e+000,-2.37395304718583e-001

5.50216727255895e+004,-7.88529464814816e+000,-2.40576031841397e-001

5.57897466540159e+004,-7.88541395333416e+000,-2.43795729542493e-001

5.65685424949235e+004,-7.88553640819606e+000,-2.47054726778517e-001

5.73582099206328e+004,-7.88566209017308e+000,-2.50353349027663e-001

5.81589006928121e+004,-7.88579107829371e+000,-2.53691917964084e-001

5.89707686916437e+004,-7.88592345319063e+000,-2.57070751125564e-001

5.97939699453972e+004,-7.88605929711357e+000,-2.60490161575353e-001

6.06286626604156e+004,-7.88619869394392e+000,-2.63950457534139e-001

6.14750072515201e+004,-7.88634172920442e+000,-2.67451942024136e-001

6.23331663728396e+004,-7.88648849007086e+000,-2.70994912480541e-001

6.32033049490698e+004,-7.88663906538090e+000,-2.74579660359073e-001

6.40855902071694e+004,-7.88679354564086e+000,-2.78206470736327e-001

6.49801917084985e+004,-7.88695202303311e+000,-2.81875621883269e-001

6.58872813814055e+004,-7.88711459141909e+000,-2.85587384841920e-001

6.68070335542691e+004,-7.88728134634272e+000,-2.89342022977751e-001

6.77396249890018e+004,-7.88745238503108e+000,-2.93139791523186e-001

6.86852349150199e+004,-7.88762780639262e+000,-2.96980937111589e-001

6.96440450636895e+004,-7.88780771101408e+000,-3.00865697293227e-001

7.06162397032520e+004,-7.88799220115439e+000,-3.04794300042318e-001

7.16020056742374e+004,-7.88818138073725e+000,-3.08766963246476e-001

7.26015324253724e+004,-7.88837535533894e+000,-3.12783894195817e-001

7.36150120499896e+004,-7.88857423217689e+000,-3.16845289038645e-001

7.46426393229441e+004,-7.88877812009170e+000,-3.20951332248677e-001

7.56846117380472e+004,-7.88898712952850e+000,-3.25102196065837e-001

7.67411295460207e+004,-7.88920137251492e+000,-3.29298039925437e-001

7.78123957929823e+004,-7.88942096263435e+000,-3.33539009887380e-001

7.88986163594682e+004,-7.88964601499768e+000,-3.37825238040229e-001

7.99999999999995e+004,-7.88987664620996e+000,-3.42156841904904e-001

8.11167583832018e+004,-7.89011297433375e+000,-3.46533923825293e-001

8.22491061324848e+004,-7.89035511884847e+000,-3.50956570349560e-001

8.33972608672892e+004,-7.89060320060528e+000,-3.55424851605324e-001

8.45614432449099e+004,-7.89085734177815e+000,-3.59938820662513e-001

8.57418770029029e+004,-7.89111766581024e+000,-3.64498512891745e-001

8.69387890020841e+004,-7.89138429735502e+000,-3.69103945319174e-001

8.81524092701283e+004,-7.89165736221288e+000,-3.73755115973580e-001

8.93829710457770e+004,-7.89193698726322e+000,-3.78452003226145e-001

9.06307108236633e+004,-7.89222330039088e+000,-3.83194565131097e-001

9.18958683997622e+004,-7.89251643040598e+000,-3.87982738769635e-001

9.31786869174758e+004,-7.89281650696045e+000,-3.92816439580348e-001

9.44794129143618e+004,-7.89312366045691e+000,-3.97695560702035e-001

9.57982963695136e+004,-7.89343802195181e+000,-4.02619972317765e-001

9.71355907516031e+004,-7.89375972305396e+000,-4.07589520993588e-001

9.84915530675926e+004,-7.89408889581485e+000,-4.12604029034810e-001

9.98664439121282e+004,-7.89442567261359e+000,-4.17663293842970e-001

1.01260527517622e+005,-7.89477018603485e+000,-4.22767087286448e-001

1.02674071805032e+005,-7.89512256874050e+000,-4.27915155078247e-001

1.04107348435354e+005,-7.89548295333410e+000,-4.33107216170414e-001

1.05560632861831e+005,-7.89585147221800e+000,-4.38342962166300e-001

1.07034204382888e+005,-7.89622825744456e+000,-4.43622056745153e-001

1.08528346195813e+005,-7.89661344055901e+000,-4.48944135113442e-001

1.10043345451179e+005,-7.89700715243496e+000,-4.54308803480746e-001

1.11579493308032e+005,-7.89740952310420e+000,-4.59715638552419e-001

1.13137084989847e+005,-7.89782068157728e+000,-4.65164187062701e-001

1.14716419841265e+005,-7.89824075565785e+000,-4.70653965331907e-001

1.16317801385624e+005,-7.89866987174891e+000,-4.76184458864377e-001

1.17941537383287e+005,-7.89910815465253e+000,-4.81755121977538e-001

1.19587939890794e+005,-7.89955572736114e+000,-4.87365377481503e-001

1.21257325320831e+005,-7.90001271084310e+000,-4.93014616391834e-001

1.22950014503040e+005,-7.90047922381937e+000,-4.98702197702551e-001

1.24666332745679e+005,-7.90095538253431e+000,-5.04427448202380e-001

1.26406609898139e+005,-7.90144130051971e+000,-5.10189662346182e-001

1.28171180414339e+005,-7.90193708835170e+000,-5.15988102187779e-001

1.29960383416997e+005,-7.90244285340108e+000,-5.21821997375458e-001

1.31774562762811e+005,-7.90295869957804e+000,-5.27690545209905e-001

1.33614067108538e+005,-7.90348472707034e+000,-5.33592910775465e-001

1.35479249978003e+005,-7.90402103207713e+000,-5.39528227137630e-001

1.37370469830040e+005,-7.90456770653654e+000,-5.45495595623639e-001

1.39288090127379e+005,-7.90512483784840e+000,-5.51494086183725e-001

1.41232479406504e+005,-7.90569250859429e+000,-5.57522737827338e-001

1.43204011348474e+005,-7.90627079625177e+000,-5.63580559158017e-001

1.45203064850745e+005,-7.90685977290719e+000,-5.69666528988668e-001

1.47230024099979e+005,-7.90745950496452e+000,-5.75779597059248e-001

1.49285278645888e+005,-7.90807005285384e+000,-5.81918684840022e-001

1.51369223476094e+005,-7.90869147073634e+000,-5.88082686449948e-001

1.53482259092041e+005,-7.90932380621097e+000,-5.94270469663205e-001

1.55624791585964e+005,-7.90996710002016e+000,-6.00480877027237e-001

1.57797232718936e+005,-7.91062138575696e+000,-6.06712727087890e-001

1.59999999999999e+005,-7.91128668957329e+000,-6.12964815726515e-001

1.62233516766403e+005,-7.91196302989280e+000,-6.19235917598541e-001

1.64498212264969e+005,-7.91265041712529e+000,-6.25524787698368e-001

1.66794521734578e+005,-7.91334885338742e+000,-6.31830163027045e-001

1.69122886489819e+005,-7.91405833222838e+000,-6.38150764380197e-001

1.71483754005805e+005,-7.91477883836291e+000,-6.44485298247185e-001

1.73877578004168e+005,-7.91551034741133e+000,-6.50832458828588e-001

1.76304818540256e+005,-7.91625282564928e+000,-6.57190930165531e-001

1.78765942091554e+005,-7.91700622976651e+000,-6.63559388386224e-001

1.81261421647326e+005,-7.91777050663839e+000,-6.69936504056243e-001

1.83791736799524e+005,-7.91854559310770e+000,-6.76320944650010e-001

1.86357373834951e+005,-7.91933141578150e+000,-6.82711377120608e-001

1.88958825828723e+005,-7.92012789084197e+000,-6.89106470577633e-001

1.91596592739027e+005,-7.92093492387223e+000,-6.95504899070046e-001

1.94271181503206e+005,-7.92175240970001e+000,-7.01905344460281e-001

1.96983106135185e+005,-7.92258023225926e+000,-7.08306499390891e-001

1.99732887824256e+005,-7.92341826446959e+000,-7.14707070345070e-001

2.02521055035243e+005,-7.92426636813689e+000,-7.21105780782489e-001

2.05348143610063e+005,-7.92512439387440e+000,-7.27501374353397e-001

2.08214696870707e+005,-7.92599218104644e+000,-7.33892618177935e-001

2.11121265723661e+005,-7.92686955773446e+000,-7.40278306189840e-001

2.14068408765776e+005,-7.92775634072681e+000,-7.46657262533693e-001

2.17056692391625e+005,-7.92865233553355e+000,-7.53028345004456e-001

2.20086690902357e+005,-7.92955733642630e+000,-7.59390448523354e-001

2.23158986616063e+005,-7.93047112650438e+000,-7.65742508639598e-001

2.26274169979693e+005,-7.93139347778634e+000,-7.72083505052963e-001

2.29432839682530e+005,-7.93232415133001e+000,-7.78412465136293e-001

2.32635602771247e+005,-7.93326289737803e+000,-7.84728467462359e-001

2.35883074766574e+005,-7.93420945553285e+000,-7.91030645304800e-001

2.39175879781588e+005,-7.93516355495746e+000,-7.97318190126172e-001

2.42514650641661e+005,-7.93612491460511e+000,-8.03590355020250e-001

2.45900029006080e+005,-7.93709324347627e+000,-8.09846458108639e-001

2.49332665491357e+005,-7.93806824090309e+000,-8.16085885876153e-001

2.52813219796278e+005,-7.93904959686011e+000,-8.22308096441546e-001

2.56342360828676e+005,-7.94003699230301e+000,-8.28512622735857e-001

2.59920766833993e+005,-7.94103009953185e+000,-8.34699075596322e-001

2.63549125525621e+005,-7.94202858258146e+000,-8.40867146745054e-001

2.67228134217075e+005,-7.94303209763392e+000,-8.47016611664822e-001

2.70958499956006e+005,-7.94404029345677e+000,-8.53147332337289e-001

2.74740939660078e+005,-7.94505281186259e+000,-8.59259259849944e-001

2.78576180254757e+005,-7.94606928819038e+000,-8.65352436853780e-001

2.82464958813007e+005,-7.94708935180579e+000,-8.71426999872797e-001

2.86408022696948e+005,-7.94811262662197e+000,-8.77483181436028e-001

2.90406129701488e+005,-7.94913873163566e+000,-8.83521312050063e-001

2.94460048199957e+005,-7.95016728147983e+000,-8.89541821983549e-001

2.98570557291775e+005,-7.95119788698934e+000,-8.95545242871483e-001

3.02738446952187e+005,-7.95223015577992e+000,-9.01532209118314e-001

3.06964518184081e+005,-7.95326369283622e+000,-9.07503459112665e-001

3.11249583171928e+005,-7.95429810110895e+000,-9.13459836233762e-001

3.15594465437872e+005,-7.95533298211831e+000,-9.19402289655303e-001

3.19999999999997e+005,-7.95636793656179e+000,-9.25331874941137e-001

3.24467033532806e+005,-7.95740256492464e+000,-9.31249754432577e-001

3.28996424529938e+005,-7.95843646809156e+000,-9.37157197418994e-001

3.33589043469155e+005,-7.95946924795557e+000,-9.43055580109094e-001

3.38245772979638e+005,-7.96050050802462e+000,-9.48946385384525e-001

3.42967508011610e+005,-7.96152985402233e+000,-9.54831202351680e-001

3.47755156008335e+005,-7.96255689448150e+000,-9.60711725685806e-001

3.52609637080511e+005,-7.96358124132812e+000,-9.66589754781067e-001

3.57531884183106e+005,-7.96460251045502e+000,-9.72467192696689e-001

3.62522843294651e+005,-7.96562032228147e+000,-9.78346044924248e-001

3.67583473599047e+005,-7.96663430229920e+000,-9.84228417963046e-001

3.72714747669902e+005,-7.96764408160194e+000,-9.90116517722735e-001

3.77917651657445e+005,-7.96864929739670e+000,-9.96012647758482e-001

3.83193185478053e+005,-7.96964959349635e+000,-1.00191920734522e+000

3.88542363006410e+005,-7.97064462079154e+000,-1.00783868939906e+000

3.93966212270369e+005,-7.97163403770019e+000,-1.01377367826300e+000

3.99465775648511e+005,-7.97261751059498e+000,-1.01972684735406e+000

4.05042110070485e+005,-7.97359471420574e+000,-1.02570095669711e+000

4.10696287220124e+005,-7.97456533199818e+000,-1.03169885034020e+000

4.16429393741414e+005,-7.97552905652533e+000,-1.03772345368227e+000

4.22242531447321e+005,-7.97648558975439e+000,-1.04377777070053e+000

4.28136817531551e+005,-7.97743464336544e+000,-1.04986488111176e+000

4.34113384783250e+005,-7.97837593902324e+000,-1.05598793746510e+000

4.40173381804713e+005,-7.97930920862202e+000,-1.06215016217800e+000

4.46317973232124e+005,-7.98023419450159e+000,-1.06835484453905e+000

4.52548339959385e+005,-7.98115064963651e+000,-1.07460533767252e+000

4.58865679365059e+005,-7.98205833779722e+000,-1.08090505548756e+000

4.65271205542494e+005,-7.98295703368367e+000,-1.08725746962007e+000

4.71766149533147e+005,-7.98384652303180e+000,-1.09366610637489e+000

4.78351759563174e+005,-7.98472660269346e+000,-1.10013454368190e+000

4.85029301283321e+005,-7.98559708068935e+000,-1.10666640807799e+000

4.91800058012158e+005,-7.98645777623721e+000,-1.11326537171685e+000

4.98665330982714e+005,-7.98730851975390e+000,-1.11993514942645e+000

5.05626439592555e+005,-7.98814915283400e+000,-1.12667949581251e+000

5.12684721657352e+005,-7.98897952820415e+000,-1.13350220242643e+000

5.19841533667984e+005,-7.98979950965573e+000,-1.14040709499371e+000

5.27098251051240e+005,-7.99060897195486e+000,-1.14739803072304e+000

5.34456268434150e+005,-7.99140780073189e+000,-1.15447889569450e+000

5.41916999912011e+005,-7.99219589235200e+000,-1.16165360233082e+000

