Freq.,VOut,OutRef

1.00000000000000e+004,-2.45994970416139e+001,-2.52323117157996e-001

1.01395947979003e+004,-2.45994998683524e+001,-2.55844969081555e-001

1.02811382665607e+004,-2.45995027744402e+001,-2.59415965246244e-001

1.04246576084112e+004,-2.45995057621009e+001,-2.63036790876586e-001

1.05701804056138e+004,-2.45995088336207e+001,-2.66708140728578e-001

1.07177346253629e+004,-2.45995119913493e+001,-2.70430719219711e-001

1.08673486252606e+004,-2.45995152377023e+001,-2.74205240564917e-001

1.10190511587661e+004,-2.45995185751627e+001,-2.78032428910359e-001

1.11728713807222e+004,-2.45995220062829e+001,-2.81913018470230e-001

1.13288388529580e+004,-2.45995255336861e+001,-2.85847753667895e-001

1.14869835499703e+004,-2.45995291600690e+001,-2.89837389273738e-001

1.16473358646846e+004,-2.45995328882038e+001,-2.93882690548450e-001

1.18099266142953e+004,-2.45995367209398e+001,-2.97984433387917e-001

1.19747870461893e+004,-2.45995406612054e+001,-3.02143404471472e-001

1.21419488439505e+004,-2.45995447120114e+001,-3.06360401406792e-001

1.23114441334492e+004,-2.45995488764517e+001,-3.10636232883796e-001

1.24833054890161e+004,-2.45995531577070e+001,-3.14971718824725e-001

1.26575659397028e+004,-2.45995575590464e+001,-3.19367690538857e-001

1.28342589756290e+004,-2.45995620838303e+001,-3.23824990879730e-001

1.30134185544193e+004,-2.45995667355121e+001,-3.28344474404768e-001

1.31950791077289e+004,-2.45995715176419e+001,-3.32927007532890e-001

1.33792755478611e+004,-2.45995764338686e+001,-3.37573468709796e-001

1.35660432744767e+004,-2.45995814879420e+001,-3.42284748573913e-001

1.37554181813974e+004,-2.45995866837170e+001,-3.47061750119477e-001

1.39474366635040e+004,-2.45995920251551e+001,-3.51905388870684e-001

1.41421356237309e+004,-2.45995975163283e+001,-3.56816593049388e-001

1.43395524801583e+004,-2.45996031614214e+001,-3.61796303752326e-001

1.45397251732031e+004,-2.45996089647358e+001,-3.66845475124277e-001

1.47426921729110e+004,-2.45996149306922e+001,-3.71965074538381e-001

1.49484924863494e+004,-2.45996210638339e+001,-3.77156082777374e-001

1.51571656651040e+004,-2.45996273688306e+001,-3.82419494214207e-001

1.53687518128801e+004,-2.45996338504812e+001,-3.87756317001509e-001

1.55832915932100e+004,-2.45996405137179e+001,-3.93167573254698e-001

1.58008262372675e+004,-2.45996473636095e+001,-3.98654299247995e-001

1.60213975517924e+004,-2.45996544053652e+001,-4.04217545602203e-001

1.62450479271247e+004,-2.45996616443388e+001,-4.09858377483569e-001

1.64718203453514e+004,-2.45996690860319e+001,-4.15577874800233e-001

1.67017583885674e+004,-2.45996767360986e+001,-4.21377132402950e-001

1.69349062472505e+004,-2.45996846003492e+001,-4.27257260288862e-001

1.71713087287550e+004,-2.45996926847550e+001,-4.33219383804459e-001

1.74110112659224e+004,-2.45997009954520e+001,-4.39264643859441e-001

1.76540599258131e+004,-2.45997095387457e+001,-4.45394197130977e-001

1.79005014185594e+004,-2.45997183211159e+001,-4.51609216282013e-001

1.81503831063432e+004,-2.45997273492210e+001,-4.57910890175866e-001

1.84037530124975e+004,-2.45997366299032e+001,-4.64300424096183e-001

1.86606598307361e+004,-2.45997461701930e+001,-4.70779039968049e-001

1.89211529345119e+004,-2.45997559773149e+001,-4.77347976583185e-001

1.91852823865052e+004,-2.45997660586924e+001,-4.84008489825927e-001

1.94530989482457e+004,-2.45997764219527e+001,-4.90761852907016e-001

1.97246540898671e+004,-2.45997870749333e+001,-4.97609356593048e-001

1.99999999999999e+004,-2.45997980256871e+001,-5.04552309444608e-001

2.02791895958005e+004,-2.45998092824875e+001,-5.11592038056283e-001

2.05622765331213e+004,-2.45998208538360e+001,-5.18729887294827e-001

2.08493152168224e+004,-2.45998327484665e+001,-5.25967220549324e-001

2.11403608112276e+004,-2.45998449753525e+001,-5.33305419975076e-001

2.14354692507258e+004,-2.45998575437134e+001,-5.40745886746779e-001

2.17346972505211e+004,-2.45998704630208e+001,-5.48290041312209e-001

2.20381023175322e+004,-2.45998837430054e+001,-5.55939323648499e-001

2.23457427614443e+004,-2.45998973936637e+001,-5.63695193523963e-001

2.26576777059159e+004,-2.45999114252655e+001,-5.71559130760516e-001

2.29739670999406e+004,-2.45999258483603e+001,-5.79532635501110e-001

2.32946717293690e+004,-2.45999406737853e+001,-5.87617228479088e-001

2.36198532285905e+004,-2.45999559126732e+001,-5.95814451289178e-001

2.39495740923785e+004,-2.45999715764592e+001,-6.04125866668546e-001

2.42838976879009e+004,-2.45999876768895e+001,-6.12553058772120e-001

2.46228882668982e+004,-2.46000042260295e+001,-6.21097633455411e-001

2.49666109780322e+004,-2.46000212362717e+001,-6.29761218564201e-001

2.53151318794055e+004,-2.46000387203446e+001,-6.38545464219919e-001

2.56685179512580e+004,-2.46000566913214e+001,-6.47452043114991e-001

2.60268371088386e+004,-2.46000751626288e+001,-6.56482650807244e-001

2.63901582154578e+004,-2.46000941480564e+001,-6.65639006020721e-001

2.67585510957221e+004,-2.46001136617658e+001,-6.74922850947635e-001

2.71320865489533e+004,-2.46001337183005e+001,-6.84335951554697e-001

2.75108363627948e+004,-2.46001543325954e+001,-6.93880097893822e-001

2.78948733270080e+004,-2.46001755199870e+001,-7.03557104414760e-001

2.82842712474618e+004,-2.46001972962238e+001,-7.13368810280671e-001

2.86791049603164e+004,-2.46002196774767e+001,-7.23317079690510e-001

2.90794503464061e+004,-2.46002426803497e+001,-7.33403802200633e-001

2.94853843458219e+004,-2.46002663218908e+001,-7.43630893052230e-001

2.98969849726987e+004,-2.46002906196036e+001,-7.54000293503567e-001

3.03143313302078e+004,-2.46003155914582e+001,-7.64513971163418e-001

3.07375036257601e+004,-2.46003412559035e+001,-7.75173920327602e-001

3.11665831864199e+004,-2.46003676318791e+001,-7.85982162321047e-001

3.16016524745350e+004,-2.46003947388268e+001,-7.96940745844800e-001

3.20427951035848e+004,-2.46004225967042e+001,-8.08051747320744e-001

3.24900958542493e+004,-2.46004512259969e+001,-8.19317271246158e-001

3.29436406907028e+004,-2.46004806477312e+001,-8.30739450549305e-001

3.34035167771346e+004,-2.46005108834881e+001,-8.42320446947796e-001

3.38698124945009e+004,-2.46005419554163e+001,-8.54062451311997e-001

3.43426174575100e+004,-2.46005738862465e+001,-8.65967684031114e-001

3.48220225318448e+004,-2.46006066993050e+001,-8.78038395382684e-001

3.53081198516260e+004,-2.46006404185285e+001,-8.90276865907998e-001

3.58010028371187e+004,-2.46006750684786e+001,-9.02685406787876e-001

3.63007662126863e+004,-2.46007106743569e+001,-9.15266360223457e-001

3.68075060249948e+004,-2.46007472620198e+001,-9.28022099821672e-001

3.73213196614721e+004,-2.46007848579945e+001,-9.40955030982395e-001

3.78423058690237e+004,-2.46008234894946e+001,-9.54067591289551e-001

3.83705647730104e+004,-2.46008631844362e+001,-9.67362250908057e-001

3.89061978964912e+004,-2.46009039714539e+001,-9.80841512980701e-001

3.94493081797342e+004,-2.46009458799182e+001,-9.94507914031656e-001

3.99999999999998e+004,-2.46009889399515e+001,-1.00836402437148e+000

4.05583791916010e+004,-2.46010331824461e+001,-1.02241244850655e+000

4.11245530662425e+004,-2.46010786390812e+001,-1.03665582555259e+000

4.16986304336447e+004,-2.46011253423406e+001,-1.05109682965013e+000

4.22807216224550e+004,-2.46011733255310e+001,-1.06573817038546e+000

4.28709385014515e+004,-2.46012226227999e+001,-1.08058259321322e+000

4.34693945010421e+004,-2.46012732691547e+001,-1.09563287988234e+000

4.40762046350642e+004,-2.46013253004808e+001,-1.11089184886818e+000

4.46914855228886e+004,-2.46013787535613e+001,-1.12636235580459e+000

4.53153554118317e+004,-2.46014336660956e+001,-1.14204729392156e+000

4.59479341998812e+004,-2.46014900767196e+001,-1.15794959448576e+000

4.65893434587380e+004,-2.46015480250249e+001,-1.17407222724357e+000

4.72397064571810e+004,-2.46016075515794e+001,-1.19041820086843e+000

4.78991481847569e+004,-2.46016686979466e+001,-1.20699056341203e+000

4.85677953758016e+004,-2.46017315067069e+001,-1.22379240275727e+000

4.92457765337964e+004,-2.46017960214776e+001,-1.24082684707479e+000

4.99332219560642e+004,-2.46018622869338e+001,-1.25809706528395e+000

5.06302637588109e+004,-2.46019303488294e+001,-1.27560626751605e+000

5.13370359025159e+004,-2.46020002540181e+001,-1.29335770558097e+000

5.20536742176771e+004,-2.46020720504748e+001,-1.31135467343645e+000

5.27803164309155e+004,-2.46021457873162e+001,-1.32960050766294e+000

5.35171021914442e+004,-2.46022215148234e+001,-1.34809858793733e+000

5.42641730979066e+004,-2.46022992844622e+001,-1.36685233751464e+000

5.50216727255895e+004,-2.46023791489055e+001,-1.38586522370903e+000

5.57897466540159e+004,-2.46024611620543e+001,-1.40514075838050e+000

5.65685424949235e+004,-2.46025453790599e+001,-1.42468249842269e+000

5.73582099206328e+004,-2.46026318563448e+001,-1.44449404625669e+000

5.81589006928121e+004,-2.46027206516248e+001,-1.46457905032478e+000

5.89707686916437e+004,-2.46028118239302e+001,-1.48494120558895e+000

5.97939699453972e+004,-2.46029054336272e+001,-1.50558425403399e+000

6.06286626604156e+004,-2.46030015424394e+001,-1.52651198517012e+000

6.14750072515201e+004,-2.46031002134684e+001,-1.54772823654347e+000

6.23331663728396e+004,-2.46032015112152e+001,-1.56923689424631e+000

6.32033049490698e+004,-2.46033055016004e+001,-1.59104189343191e+000

6.40855902071694e+004,-2.46034122519850e+001,-1.61314721883379e+000

6.49801917084985e+004,-2.46035218311903e+001,-1.63555690528628e+000

6.58872813814055e+004,-2.46036343095175e+001,-1.65827503825135e+000

6.68070335542691e+004,-2.46037497587673e+001,-1.68130575434708e+000

6.77396249890018e+004,-2.46038682522583e+001,-1.70465324188040e+000

6.86852349150199e+004,-2.46039898648462e+001,-1.72832174138480e+000

6.96440450636895e+004,-2.46041146729407e+001,-1.75231554616053e+000

7.06162397032520e+004,-2.46042427545235e+001,-1.77663900282099e+000

7.16020056742374e+004,-2.46043741891644e+001,-1.80129651184152e+000

7.26015324253724e+004,-2.46045090580380e+001,-1.82629252811324e+000

7.36150120499896e+004,-2.46046474439376e+001,-1.85163156150437e+000

7.46426393229441e+004,-2.46047894312909e+001,-1.87731817742231e+000

7.56846117380472e+004,-2.46049351061726e+001,-1.90335699738377e+000

7.67411295460207e+004,-2.46050845563172e+001,-1.92975269959187e+000

7.78123957929823e+004,-2.46052378711307e+001,-1.95651001951425e+000

7.88986163594682e+004,-2.46053951417011e+001,-1.98363375047328e+000

7.99999999999995e+004,-2.46055564608073e+001,-2.01112874423878e+000

8.11167583832018e+004,-2.46057219229281e+001,-2.03899991163026e+000

8.22491061324848e+004,-2.46058916242483e+001,-2.06725222312514e+000

8.33972608672892e+004,-2.46060656626649e+001,-2.09589070947575e+000

8.45614432449099e+004,-2.46062441377910e+001,-2.12492046233482e+000

8.57418770029029e+004,-2.46064271509588e+001,-2.15434663488976e+000

8.69387890020841e+004,-2.46066148052202e+001,-2.18417444250706e+000

8.81524092701283e+004,-2.46068072053475e+001,-2.21440916338615e+000

8.93829710457770e+004,-2.46070044578303e+001,-2.24505613922559e+000

9.06307108236633e+004,-2.46072066708722e+001,-2.27612077589877e+000

9.18958683997622e+004,-2.46074139543854e+001,-2.30760854414451e+000

9.31786869174758e+004,-2.46076264199828e+001,-2.33952498026947e+000

9.44794129143618e+004,-2.46078441809689e+001,-2.37187568686452e+000

9.57982963695136e+004,-2.46080673523284e+001,-2.40466633353745e+000

9.71355907516031e+004,-2.46082960507129e+001,-2.43790265765986e+000

9.84915530675926e+004,-2.46085303944251e+001,-2.47159046513285e+000

9.98664439121282e+004,-2.46087705034017e+001,-2.50573563116910e+000

1.01260527517622e+005,-2.46090164991928e+001,-2.54034410109664e+000

1.02674071805032e+005,-2.46092685049406e+001,-2.57542189117943e+000

1.04107348435354e+005,-2.46095266453546e+001,-2.61097508946283e+000

1.05560632861831e+005,-2.46097910466851e+001,-2.64700985664110e+000

1.07034204382888e+005,-2.46100618366941e+001,-2.68353242694766e+000

1.08528346195813e+005,-2.46103391446244e+001,-2.72054910907314e+000

1.10043345451179e+005,-2.46106231011655e+001,-2.75806628710948e+000

1.11579493308032e+005,-2.46109138384181e+001,-2.79609042152324e+000

1.13137084989847e+005,-2.46112114898555e+001,-2.83462805015836e+000

1.14716419841265e+005,-2.46115161902831e+001,-2.87368578927295e+000

1.16317801385624e+005,-2.46118280757957e+001,-2.91327033460522e+000

1.17941537383287e+005,-2.46121472837324e+001,-2.95338846248132e+000

1.19587939890794e+005,-2.46124739526293e+001,-2.99404703095363e+000

1.21257325320831e+005,-2.46128082221703e+001,-3.03525298098287e+000

1.22950014503040e+005,-2.46131502331361e+001,-3.07701333765807e+000

1.24666332745679e+005,-2.46135001273507e+001,-3.11933521146087e+000

1.26406609898139e+005,-2.46138580476266e+001,-3.16222579957389e+000

1.28171180414339e+005,-2.46142241377088e+001,-3.20569238723477e+000

1.29960383416997e+005,-2.46145985422160e+001,-3.24974234914102e+000

1.31774562762811e+005,-2.46149814065823e+001,-3.29438315090310e+000

1.33614067108538e+005,-2.46153728769964e+001,-3.33962235055073e+000

1.35479249978003e+005,-2.46157731003404e+001,-3.38546760009493e+000

1.37370469830040e+005,-2.46161822241285e+001,-3.43192664714479e+000

1.39288090127379e+005,-2.46166003964445e+001,-3.47900733658415e+000

1.41232479406504e+005,-2.46170277658800e+001,-3.52671761230720e+000

1.43204011348474e+005,-2.46174644814721e+001,-3.57506551901847e+000

1.45203064850745e+005,-2.46179106926423e+001,-3.62405920409521e+000

1.47230024099979e+005,-2.46183665491362e+001,-3.67370691951606e+000

1.49285278645888e+005,-2.46188322009642e+001,-3.72401702385855e+000

1.51369223476094e+005,-2.46193077983443e+001,-3.77499798436531e+000

1.53482259092041e+005,-2.46197934916467e+001,-3.82665837908046e+000

1.55624791585964e+005,-2.46202894313416e+001,-3.87900689905936e+000

1.57797232718936e+005,-2.46207957679488e+001,-3.93205235065292e+000

1.59999999999999e+005,-2.46213126519928e+001,-3.98580365786406e+000

1.62233516766403e+005,-2.46218402339600e+001,-4.04026986478338e+000

1.64498212264969e+005,-2.46223786642619e+001,-4.09546013809966e+000

1.66794521734578e+005,-2.46229280932029e+001,-4.15138376968905e+000

1.69122886489819e+005,-2.46234886709539e+001,-4.20805017928167e+000

1.71483754005805e+005,-2.46240605475327e+001,-4.26546891720750e+000

1.73877578004168e+005,-2.46246438727905e+001,-4.32364966722041e+000

1.76304818540256e+005,-2.46252387964070e+001,-4.38260224940135e+000

1.78765942091554e+005,-2.46258454678932e+001,-4.44233662313909e+000

1.81261421647326e+005,-2.46264640366031e+001,-4.50286289018999e+000

1.83791736799524e+005,-2.46270946517551e+001,-4.56419129781248e+000

1.86357373834951e+005,-2.46277374624640e+001,-4.62633224197995e+000

1.88958825828723e+005,-2.46283926177828e+001,-4.68929627066620e+000

1.91596592739027e+005,-2.46290602667574e+001,-4.75309408720504e+000

1.94271181503206e+005,-2.46297405584927e+001,-4.81773655371928e+000

1.96983106135185e+005,-2.46304336422319e+001,-4.88323469462037e+000

1.99732887824256e+005,-2.46311396674491e+001,-4.94959970017273e+000

2.02521055035243e+005,-2.46318587839563e+001,-5.01684293012235e+000

2.05348143610063e+005,-2.46325911420254e+001,-5.08497591738510e+000

2.08214696870707e+005,-2.46333368925251e+001,-5.15401037179291e+000

2.11121265723661e+005,-2.46340961870739e+001,-5.22395818389229e+000

2.14068408765776e+005,-2.46348691782105e+001,-5.29483142879290e+000

2.17056692391625e+005,-2.46356560195797e+001,-5.36664237006114e+000

2.20086690902357e+005,-2.46364568661370e+001,-5.43940346365481e+000

2.23158986616063e+005,-2.46372718743714e+001,-5.51312736189294e+000

2.26274169979693e+005,-2.46381012025454e+001,-5.58782691745734e+000

2.29432839682530e+005,-2.46389450109548e+001,-5.66351518742071e+000

2.32635602771247e+005,-2.46398034622077e+001,-5.74020543729417e+000

2.35883074766574e+005,-2.46406767215218e+001,-5.81791114509077e+000

2.39175879781588e+005,-2.46415649570426e+001,-5.89664600539854e+000

2.42514650641661e+005,-2.46424683401804e+001,-5.97642393345669e+000

2.45900029006080e+005,-2.46433870459677e+001,-6.05725906923065e+000

2.49332665491357e+005,-2.46443212534367e+001,-6.13916578147808e+000

2.52813219796278e+005,-2.46452711460158e+001,-6.22215867180166e+000

2.56342360828676e+005,-2.46462369119474e+001,-6.30625257868138e+000

2.59920766833993e+005,-2.46472187447241e+001,-6.39146258148205e+000

2.63549125525621e+005,-2.46482168435455e+001,-6.47780400442698e+000

2.67228134217075e+005,-2.46492314137937e+001,-6.56529242053652e+000

2.70958499956006e+005,-2.46502626675284e+001,-6.65394365552117e+000

2.74740939660078e+005,-2.46513108240000e+001,-6.74377379162793e+000

2.78576180254757e+005,-2.46523761101818e+001,-6.83479917143070e+000

2.82464958813007e+005,-2.46534587613191e+001,-6.92703640156319e+000

2.86408022696948e+005,-2.46545590214971e+001,-7.02050235638596e+000

2.90406129701488e+005,-2.46556771442237e+001,-7.11521418158603e+000

2.94460048199957e+005,-2.46568133930299e+001,-7.21118929770291e+000

2.98570557291775e+005,-2.46579680420852e+001,-7.30844540357800e+000

3.02738446952187e+005,-2.46591413768280e+001,-7.40700047972243e+000

3.06964518184081e+005,-2.46603336946099e+001,-7.50687279160190e+000

3.11249583171928e+005,-2.46615453053539e+001,-7.60808089283371e+000

3.15594465437872e+005,-2.46627765322246e+001,-7.71064362829534e+000

3.19999999999997e+005,-2.46640277123110e+001,-7.81458013714016e+000

3.24467033532806e+005,-2.46652991973203e+001,-7.91990985572135e+000

3.28996424529938e+005,-2.46665913542814e+001,-8.02665252041959e+000

3.33589043469155e+005,-2.46679045662589e+001,-8.13482817037706e+000

3.38245772979638e+005,-2.46692392330751e+001,-8.24445715013419e+000

3.42967508011610e+005,-2.46705957720407e+001,-8.35556011217085e+000

3.47755156008335e+005,-2.46719746186923e+001,-8.46815801935197e+000

3.52609637080511e+005,-2.46733762275364e+001,-8.58227214727804e+000

3.57531884183106e+005,-2.46748010727999e+001,-8.69792408654247e+000

3.62522843294651e+005,-2.46762496491850e+001,-8.81513574489531e+000

3.67583473599047e+005,-2.46777224726292e+001,-8.93392934931771e+000

3.72714747669902e+005,-2.46792200810689e+001,-9.05432744800741e+000

3.77917651657445e+005,-2.46807430352069e+001,-9.17635291227755e+000

3.83193185478053e+005,-2.46822919192823e+001,-9.30002893837350e+000

3.88542363006410e+005,-2.46838673418435e+001,-9.42537904920747e+000

3.93966212270369e+005,-2.46854699365227e+001,-9.55242709601670e+000

3.99465775648511e+005,-2.46871003628125e+001,-9.68119725994762e+000

4.05042110070485e+005,-2.46887593068445e+001,-9.81171405356722e+000

4.10696287220124e+005,-2.46904474821680e+001,-9.94400232231003e+000

4.16429393741414e+005,-2.46921656305312e+001,-1.00780872458577e+001

4.22242531447321e+005,-2.46939145226629e+001,-1.02139943394607e+001

4.28136817531551e+005,-2.46956949590551e+001,-1.03517494552018e+001

4.34113384783250e+005,-2.46975077707470e+001,-1.04913787832064e+001

4.40173381804713e+005,-2.46993538201101e+001,-1.06329088528023e+001

4.46317973232124e+005,-2.47012340016353e+001,-1.07763665336325e+001

4.52548339959385e+005,-2.47031492427203e+001,-1.09217790367252e+001

4.58865679365059e+005,-2.47051005044603e+001,-1.10691739155214e+001

4.65271205542494e+005,-2.47070887824402e+001,-1.12185790668638e+001

4.71766149533147e+005,-2.47091151075293e+001,-1.13700227319526e+001

4.78351759563174e+005,-2.47111805466801e+001,-1.15235334972630e+001

4.85029301283321e+005,-2.47132862037290e+001,-1.16791402954353e+001

4.91800058012158e+005,-2.47154332202026e+001,-1.18368724061310e+001

4.98665330982714e+005,-2.47176227761276e+001,-1.19967594568614e+001

5.05626439592555e+005,-2.47198560908467e+001,-1.21588314237870e+001

5.12684721657352e+005,-2.47221344238397e+001,-1.23231186324884e+001

5.19841533667984e+005,-2.47244590755514e+001,-1.24896517587099e+001

5.27098251051240e+005,-2.47268313882267e+001,-1.26584618290737e+001

5.34456268434150e+005,-2.47292527467535e+001,-1.28295802217644e+001

5.41916999912011e+005,-2.47317245795139e+001,-1.30030386671836e+001

