Freq.,VOut,OutRef

1.00000000000000e+004,-1.87676457148360e+001,-2.91391803571134e-001

1.01395947979003e+004,-1.87676487020890e+001,-2.95458991182404e-001

1.02811382665607e+004,-1.87676517731920e+001,-2.99582933821004e-001

1.04246576084112e+004,-1.87676549304949e+001,-3.03764422876179e-001

1.05701804056138e+004,-1.87676581764127e+001,-3.08004260748605e-001

1.07177346253629e+004,-1.87676615134287e+001,-3.12303260998656e-001

1.08673486252606e+004,-1.87676649440948e+001,-3.16662248506006e-001

1.10190511587661e+004,-1.87676684710344e+001,-3.21082059620885e-001

1.11728713807222e+004,-1.87676720969443e+001,-3.25563542325913e-001

1.13288388529580e+004,-1.87676758245963e+001,-3.30107556393745e-001

1.14869835499703e+004,-1.87676796568395e+001,-3.34714973553657e-001

1.16473358646846e+004,-1.87676835966025e+001,-3.39386677652405e-001

1.18099266142953e+004,-1.87676876468960e+001,-3.44123564822142e-001

1.19747870461893e+004,-1.87676918108140e+001,-3.48926543652332e-001

1.21419488439505e+004,-1.87676960915369e+001,-3.53796535359099e-001

1.23114441334492e+004,-1.87677004923340e+001,-3.58734473958521e-001

1.24833054890161e+004,-1.87677050165653e+001,-3.63741306445480e-001

1.26575659397028e+004,-1.87677096676848e+001,-3.68817992968916e-001

1.28342589756290e+004,-1.87677144492424e+001,-3.73965507016155e-001

1.30134185544193e+004,-1.87677193648867e+001,-3.79184835593365e-001

1.31950791077289e+004,-1.87677244183682e+001,-3.84476979414130e-001

1.33792755478611e+004,-1.87677296135413e+001,-3.89842953085170e-001

1.35660432744767e+004,-1.87677349543680e+001,-3.95283785298242e-001

1.37554181813974e+004,-1.87677404449203e+001,-4.00800519024428e-001

1.39474366635040e+004,-1.87677460893832e+001,-4.06394211708694e-001

1.41421356237309e+004,-1.87677518920583e+001,-4.12065935467937e-001

1.43395524801583e+004,-1.87677578573665e+001,-4.17816777294074e-001

1.45397251732031e+004,-1.87677639898514e+001,-4.23647839257298e-001

1.47426921729110e+004,-1.87677702941830e+001,-4.29560238709511e-001

1.49484924863494e+004,-1.87677767751605e+001,-4.35555108497855e-001

1.51571656651040e+004,-1.87677834377164e+001,-4.41633597173954e-001

1.53687518128801e+004,-1.87677902869201e+001,-4.47796869209911e-001

1.55832915932100e+004,-1.87677973279813e+001,-4.54046105213788e-001

1.58008262372675e+004,-1.87678045662539e+001,-4.60382502153260e-001

1.60213975517924e+004,-1.87678120072406e+001,-4.66807273574449e-001

1.62450479271247e+004,-1.87678196565958e+001,-4.73321649832857e-001

1.64718203453514e+004,-1.87678275201307e+001,-4.79926878317963e-001

1.67017583885674e+004,-1.87678356038171e+001,-4.86624223689098e-001

1.69349062472505e+004,-1.87678439137921e+001,-4.93414968106329e-001

1.71713087287550e+004,-1.87678524563621e+001,-5.00300411472620e-001

1.74110112659224e+004,-1.87678612380076e+001,-5.07281871672619e-001

1.76540599258131e+004,-1.87678702653883e+001,-5.14360684816953e-001

1.79005014185594e+004,-1.87678795453474e+001,-5.21538205489505e-001

1.81503831063432e+004,-1.87678890849169e+001,-5.28815806998561e-001

1.84037530124975e+004,-1.87678988913225e+001,-5.36194881631212e-001

1.86606598307361e+004,-1.87679089719891e+001,-5.43676840906999e-001

1.89211529345119e+004,-1.87679193345457e+001,-5.51263115842392e-001

1.91852823865052e+004,-1.87679299868314e+001,-5.58955157210621e-001

1.94530989482457e+004,-1.87679409369006e+001,-5.66754435811187e-001

1.97246540898671e+004,-1.87679521930294e+001,-5.74662442737059e-001

1.99999999999999e+004,-1.87679637637207e+001,-5.82680689651734e-001

2.02791895958005e+004,-1.87679756577111e+001,-5.90810709061861e-001

2.05622765331213e+004,-1.87679878839764e+001,-5.99054054601950e-001

2.08493152168224e+004,-1.87680004517387e+001,-6.07412301315497e-001

2.11403608112276e+004,-1.87680133704724e+001,-6.15887045942811e-001

2.14354692507258e+004,-1.87680266499112e+001,-6.24479907212682e-001

2.17346972505211e+004,-1.87680403000549e+001,-6.33192526136053e-001

2.20381023175322e+004,-1.87680543311764e+001,-6.42026566304303e-001

2.23457427614443e+004,-1.87680687538292e+001,-6.50983714191331e-001

2.26576777059159e+004,-1.87680835788545e+001,-6.60065679458710e-001

2.29739670999406e+004,-1.87680988173889e+001,-6.69274195264316e-001

2.32946717293690e+004,-1.87681144808723e+001,-6.78611018576228e-001

2.36198532285905e+004,-1.87681305810556e+001,-6.88077930487495e-001

2.39495740923785e+004,-1.87681471300093e+001,-6.97676736539176e-001

2.42838976879009e+004,-1.87681641401312e+001,-7.07409267041212e-001

2.46228882668982e+004,-1.87681816241558e+001,-7.17277377403717e-001

2.49666109780322e+004,-1.87681995951623e+001,-7.27282948466916e-001

2.53151318794055e+004,-1.87682180665840e+001,-7.37427886836345e-001

2.56685179512580e+004,-1.87682370522175e+001,-7.47714125224216e-001

2.60268371088386e+004,-1.87682565662317e+001,-7.58143622793410e-001

2.63901582154578e+004,-1.87682766231778e+001,-7.68718365502231e-001

2.67585510957221e+004,-1.87682972379994e+001,-7.79440366458536e-001

2.71320865489533e+004,-1.87683184260417e+001,-7.90311666274866e-001

2.75108363627948e+004,-1.87683402030626e+001,-8.01334333428302e-001

2.78948733270080e+004,-1.87683625852431e+001,-8.12510464622721e-001

2.82842712474618e+004,-1.87683855891977e+001,-8.23842185158521e-001

2.86791049603164e+004,-1.87684092319857e+001,-8.35331649304299e-001

2.90794503464061e+004,-1.87684335311224e+001,-8.46981040671692e-001

2.94853843458219e+004,-1.87684585045910e+001,-8.58792572596109e-001

2.98969849726987e+004,-1.87684841708535e+001,-8.70768488522447e-001

3.03143313302078e+004,-1.87685105488636e+001,-8.82911062392176e-001

3.07375036257601e+004,-1.87685376580785e+001,-8.95222599036347e-001

3.11665831864199e+004,-1.87685655184714e+001,-9.07705434573149e-001

3.16016524745350e+004,-1.87685941505447e+001,-9.20361936808709e-001

3.20427951035848e+004,-1.87686235753427e+001,-9.33194505642812e-001

3.24900958542493e+004,-1.87686538144652e+001,-9.46205573478307e-001

3.29436406907028e+004,-1.87686848900810e+001,-9.59397605635558e-001

3.34035167771346e+004,-1.87687168249416e+001,-9.72773100770689e-001

3.38698124945009e+004,-1.87687496423957e+001,-9.86334591297935e-001

3.43426174575100e+004,-1.87687833664036e+001,-1.00008464381618e+000

3.48220225318448e+004,-1.87688180215518e+001,-1.01402585954094e+000

3.53081198516260e+004,-1.87688536330681e+001,-1.02816087473871e+000

3.58010028371187e+004,-1.87688902268365e+001,-1.04249236116887e+000

3.63007662126863e+004,-1.87689278294138e+001,-1.05702302652427e+000

3.68075060249948e+004,-1.87689664680442e+001,-1.07175561488329e+000

3.73213196614721e+004,-1.87690061706764e+001,-1.08669290716053e+000

3.78423058690237e+004,-1.87690469659797e+001,-1.10183772156329e+000

3.83705647730104e+004,-1.87690888833603e+001,-1.11719291405538e+000

3.89061978964912e+004,-1.87691319529793e+001,-1.13276137881917e+000

3.94493081797342e+004,-1.87691762057690e+001,-1.14854604872934e+000

3.99999999999998e+004,-1.87692216734510e+001,-1.16454989582386e+000

4.05583791916010e+004,-1.87692683885538e+001,-1.18077593178446e+000

4.11245530662425e+004,-1.87693163844310e+001,-1.19722720841889e+000

4.16986304336447e+004,-1.87693656952798e+001,-1.21390681814721e+000

4.22807216224550e+004,-1.87694163561594e+001,-1.23081789449396e+000

4.28709385014515e+004,-1.87694684030102e+001,-1.24796361258311e+000

4.34693945010421e+004,-1.87695218726727e+001,-1.26534718963820e+000

4.40762046350642e+004,-1.87695768029070e+001,-1.28297188548581e+000

4.46914855228886e+004,-1.87696332324123e+001,-1.30084100306475e+000

4.53153554118317e+004,-1.87696912008475e+001,-1.31895788893617e+000

4.59479341998812e+004,-1.87697507488500e+001,-1.33732593380326e+000

4.65893434587380e+004,-1.87698119180576e+001,-1.35594857302822e+000

4.72397064571810e+004,-1.87698747511277e+001,-1.37482928716040e+000

4.78991481847569e+004,-1.87699392917586e+001,-1.39397160246336e+000

4.85677953758016e+004,-1.87700055847106e+001,-1.41337909144797e+000

4.92457765337964e+004,-1.87700736758267e+001,-1.43305537340989e+000

4.99332219560642e+004,-1.87701436120539e+001,-1.45300411497073e+000

5.06302637588109e+004,-1.87702154414648e+001,-1.47322903062334e+000

5.13370359025159e+004,-1.87702892132788e+001,-1.49373388328051e+000

5.20536742176771e+004,-1.87703649778838e+001,-1.51452248482986e+000

5.27803164309155e+004,-1.87704427868579e+001,-1.53559869668920e+000

5.35171021914442e+004,-1.87705226929910e+001,-1.55696643036908e+000

5.42641730979066e+004,-1.87706047503066e+001,-1.57862964803890e+000

5.50216727255895e+004,-1.87706890140838e+001,-1.60059236309449e+000

5.57897466540159e+004,-1.87707755408787e+001,-1.62285864073365e+000

5.65685424949235e+004,-1.87708643885463e+001,-1.64543259853197e+000

5.73582099206328e+004,-1.87709556162622e+001,-1.66831840702674e+000

5.81589006928121e+004,-1.87710492845439e+001,-1.69152029029973e+000

5.89707686916437e+004,-1.87711454552725e+001,-1.71504252656963e+000

5.97939699453972e+004,-1.87712441917138e+001,-1.73888944878490e+000

6.06286626604156e+004,-1.87713455585394e+001,-1.76306544522122e+000

6.14750072515201e+004,-1.87714496218475e+001,-1.78757496008582e+000

6.23331663728396e+004,-1.87715564491831e+001,-1.81242249412288e+000

6.32033049490698e+004,-1.87716661095589e+001,-1.83761260522416e+000

6.40855902071694e+004,-1.87717786734745e+001,-1.86314990904563e+000

6.49801917084985e+004,-1.87718942129359e+001,-1.88903907962753e+000

6.58872813814055e+004,-1.87720128014748e+001,-1.91528485001775e+000

6.68070335542691e+004,-1.87721345141668e+001,-1.94189201290296e+000

6.77396249890018e+004,-1.87722594276491e+001,-1.96886542124144e+000

6.86852349150199e+004,-1.87723876201384e+001,-1.99620998890344e+000

6.96440450636895e+004,-1.87725191714465e+001,-2.02393069131568e+000

7.06162397032520e+004,-1.87726541629973e+001,-2.05203256611065e+000

7.16020056742374e+004,-1.87727926778410e+001,-2.08052071378328e+000

7.26015324253724e+004,-1.87729348006686e+001,-2.10940029835185e+000

7.36150120499896e+004,-1.87730806178255e+001,-2.13867654802455e+000

7.46426393229441e+004,-1.87732302173231e+001,-2.16835475587574e+000

7.56846117380472e+004,-1.87733836888509e+001,-2.19844028052367e+000

7.67411295460207e+004,-1.87735411237862e+001,-2.22893854682066e+000

7.78123957929823e+004,-1.87737026152029e+001,-2.25985504654562e+000

7.88986163594682e+004,-1.87738682578796e+001,-2.29119533910901e+000

7.99999999999995e+004,-1.87740381483055e+001,-2.32296505226211e+000

8.11167583832018e+004,-1.87742123846858e+001,-2.35516988281667e+000

8.22491061324848e+004,-1.87743910669448e+001,-2.38781559737394e+000

8.33972608672892e+004,-1.87745742967279e+001,-2.42090803306329e+000

8.45614432449099e+004,-1.87747621774017e+001,-2.45445309828980e+000

8.57418770029029e+004,-1.87749548140528e+001,-2.48845677349407e+000

8.69387890020841e+004,-1.87751523134840e+001,-2.52292511192343e+000

8.81524092701283e+004,-1.87753547842097e+001,-2.55786424041431e+000

8.93829710457770e+004,-1.87755623364481e+001,-2.59328036018926e+000

9.06307108236633e+004,-1.87757750821126e+001,-2.62917974766593e+000

9.18958683997622e+004,-1.87759931348003e+001,-2.66556875528243e+000

9.31786869174758e+004,-1.87762166097782e+001,-2.70245381233673e+000

9.44794129143618e+004,-1.87764456239678e+001,-2.73984142584329e+000

9.57982963695136e+004,-1.87766802959270e+001,-2.77773818140765e+000

9.71355907516031e+004,-1.87769207458296e+001,-2.81615074411861e+000

9.84915530675926e+004,-1.87771670954419e+001,-2.85508585946107e+000

9.98664439121282e+004,-1.87774194680981e+001,-2.89455035424888e+000

1.01260527517622e+005,-1.87776779886717e+001,-2.93455113758048e+000

1.02674071805032e+005,-1.87779427835446e+001,-2.97509520181894e+000

1.04107348435354e+005,-1.87782139805744e+001,-3.01618962359427e+000

1.05560632861831e+005,-1.87784917090581e+001,-3.05784156483497e+000

1.07034204382888e+005,-1.87787760996932e+001,-3.10005827382507e+000

1.08528346195813e+005,-1.87790672845363e+001,-3.14284708629302e+000

1.10043345451179e+005,-1.87793653969589e+001,-3.18621542652826e+000

1.11579493308032e+005,-1.87796705716003e+001,-3.23017080853449e+000

1.13137084989847e+005,-1.87799829443177e+001,-3.27472083721382e+000

1.14716419841265e+005,-1.87803026521338e+001,-3.31987320958914e+000

1.16317801385624e+005,-1.87806298331818e+001,-3.36563571606467e+000

1.17941537383287e+005,-1.87809646266467e+001,-3.41201624172583e+000

1.19587939890794e+005,-1.87813071727061e+001,-3.45902276768115e+000

1.21257325320831e+005,-1.87816576124658e+001,-3.50666337244922e+000

1.22950014503040e+005,-1.87820160878956e+001,-3.55494623339050e+000

1.24666332745679e+005,-1.87823827417609e+001,-3.60387962818799e+000

1.26406609898139e+005,-1.87827577175528e+001,-3.65347193637879e+000

1.28171180414339e+005,-1.87831411594167e+001,-3.70373164093694e+000

1.29960383416997e+005,-1.87835332120777e+001,-3.75466732991188e+000

1.31774562762811e+005,-1.87839340207659e+001,-3.80628769812381e+000

1.33614067108538e+005,-1.87843437311389e+001,-3.85860154891771e+000

1.35479249978003e+005,-1.87847624892038e+001,-3.91161779597937e+000

1.37370469830040e+005,-1.87851904412381e+001,-3.96534546521430e+000

1.39288090127379e+005,-1.87856277337100e+001,-4.01979369669221e+000

1.41232479406504e+005,-1.87860745131974e+001,-4.07497174666153e+000

1.43204011348474e+005,-1.87865309263086e+001,-4.13088898963034e+000

1.45203064850745e+005,-1.87869971196014e+001,-4.18755492052234e+000

1.47230024099979e+005,-1.87874732395043e+001,-4.24497915690592e+000

1.49285278645888e+005,-1.87879594322381e+001,-4.30317144129867e+000

1.51369223476094e+005,-1.87884558437388e+001,-4.36214164355107e+000

1.53482259092041e+005,-1.87889626195832e+001,-4.42189976330875e+000

1.55624791585964e+005,-1.87894799049164e+001,-4.48245593255548e+000

1.57797232718936e+005,-1.87900078443822e+001,-4.54382041824127e+000

1.59999999999999e+005,-1.87905465820576e+001,-4.60600362499151e+000

1.62233516766403e+005,-1.87910962613907e+001,-4.66901609790359e+000

1.64498212264969e+005,-1.87916570251436e+001,-4.73286852542852e+000

1.66794521734578e+005,-1.87922290153402e+001,-4.79757174234134e+000

1.69122886489819e+005,-1.87928123732205e+001,-4.86313673279674e+000

1.71483754005805e+005,-1.87934072392006e+001,-4.92957463347557e+000

1.73877578004168e+005,-1.87940137528406e+001,-4.99689673681783e+000

1.76304818540256e+005,-1.87946320528196e+001,-5.06511449434527e+000

1.78765942091554e+005,-1.87952622769203e+001,-5.13423952007061e+000

1.81261421647326e+005,-1.87959045620214e+001,-5.20428359399556e+000

1.83791736799524e+005,-1.87965590441012e+001,-5.27525866569543e+000

1.86357373834951e+005,-1.87972258582512e+001,-5.34717685798719e+000

1.88958825828723e+005,-1.87979051387014e+001,-5.42005047068434e+000

1.91596592739027e+005,-1.87985970188572e+001,-5.49389198443209e+000

1.94271181503206e+005,-1.87993016313496e+001,-5.56871406462363e+000

1.96983106135185e+005,-1.88000191080990e+001,-5.64452956539347e+000

1.99732887824256e+005,-1.88007495803922e+001,-5.72135153368720e+000

2.02521055035243e+005,-1.88014931789758e+001,-5.79919321340121e+000

2.05348143610063e+005,-1.88022500341637e+001,-5.87806804959428e+000

2.08214696870707e+005,-1.88030202759621e+001,-5.95798969276098e+000

2.11121265723661e+005,-1.88038040342098e+001,-6.03897200316895e+000

2.14068408765776e+005,-1.88046014387375e+001,-6.12102905525128e+000

2.17056692391625e+005,-1.88054126195435e+001,-6.20417514205297e+000

2.20086690902357e+005,-1.88062377069893e+001,-6.28842477972285e+000

2.23158986616063e+005,-1.88070768320129e+001,-6.37379271205023e+000

2.26274169979693e+005,-1.88079301263622e+001,-6.46029391503704e+000

2.29432839682530e+005,-1.88087977228475e+001,-6.54794360150236e+000

2.32635602771247e+005,-1.88096797556151e+001,-6.63675722571231e+000

2.35883074766574e+005,-1.88105763604399e+001,-6.72675048803064e+000

2.39175879781588e+005,-1.88114876750396e+001,-6.81793933958194e+000

2.42514650641661e+005,-1.88124138394090e+001,-6.91033998692297e+000

2.45900029006080e+005,-1.88133549961756e+001,-7.00396889671520e+000

2.49332665491357e+005,-1.88143112909755e+001,-7.09884280039216e+000

2.52813219796278e+005,-1.88152828728502e+001,-7.19497869881474e+000

2.56342360828676e+005,-1.88162698946648e+001,-7.29239386690854e+000

2.59920766833993e+005,-1.88172725135460e+001,-7.39110585827662e+000

2.63549125525621e+005,-1.88182908913402e+001,-7.49113250978221e+000

2.67228134217075e+005,-1.88193251950928e+001,-7.59249194609199e+000

2.70958499956006e+005,-1.88203755975459e+001,-7.69520258417885e+000

2.74740939660078e+005,-1.88214422776561e+001,-7.79928313777327e+000

2.78576180254757e+005,-1.88225254211306e+001,-7.90475262176137e+000

2.82464958813007e+005,-1.88236252209819e+001,-8.01163035652081e+000

2.86408022696948e+005,-1.88247418780997e+001,-8.11993597219252e+000

2.90406129701488e+005,-1.88258756018403e+001,-8.22968941288051e+000

2.94460048199957e+005,-1.88270266106319e+001,-8.34091094077771e+000

2.98570557291775e+005,-1.88281951325955e+001,-8.45362114021049e+000

3.02738446952187e+005,-1.88293814061809e+001,-8.56784092160217e+000

3.06964518184081e+005,-1.88305856808165e+001,-8.68359152534716e+000

3.11249583171928e+005,-1.88318082175717e+001,-8.80089452559716e+000

3.15594465437872e+005,-1.88330492898327e+001,-8.91977183395370e+000

3.19999999999997e+005,-1.88343091839885e+001,-9.04024570306645e+000

3.24467033532806e+005,-1.88355882001281e+001,-9.16233873013451e+000

3.28996424529938e+005,-1.88368866527468e+001,-9.28607386031126e+000

3.33589043469155e+005,-1.88382048714619e+001,-9.41147439000895e+000

3.38245772979638e+005,-1.88395432017352e+001,-9.53856397010610e+000

3.42967508011610e+005,-1.88409020056029e+001,-9.66736660905529e+000

3.47755156008335e+005,-1.88422816624117e+001,-9.79790667589300e+000

3.52609637080511e+005,-1.88436825695596e+001,-9.93020890315201e+000

3.57531884183106e+005,-1.88451051432414e+001,-1.00642983896786e+001

3.62522843294651e+005,-1.88465498191973e+001,-1.02002006033559e+001

3.67583473599047e+005,-1.88480170534649e+001,-1.03379413837340e+001

3.72714747669902e+005,-1.88495073231330e+001,-1.04775469445728e+001

3.77917651657445e+005,-1.88510211270967e+001,-1.06190438762973e+001

3.83193185478053e+005,-1.88525589868138e+001,-1.07624591483694e+001

3.88542363006410e+005,-1.88541214470608e+001,-1.09078201115803e+001

3.93966212270369e+005,-1.88557090766898e+001,-1.10551545002668e+001

3.99465775648511e+005,-1.88573224693838e+001,-1.12044904344541e+001

4.05042110070485e+005,-1.88589622444113e+001,-1.13558564219312e+001

4.10696287220124e+005,-1.88606290473801e+001,-1.15092813602603e+001

4.16429393741414e+005,-1.88623235509895e+001,-1.16647945387274e+001

4.22242531447321e+005,-1.88640464557799e+001,-1.18224256402350e+001

4.28136817531551e+005,-1.88657984908825e+001,-1.19822047431440e+001

4.34113384783250e+005,-1.88675804147652e+001,-1.21441623230660e+001

4.40173381804713e+005,-1.88693930159786e+001,-1.23083292546130e+001

4.46317973232124e+005,-1.88712371138990e+001,-1.24747368131055e+001

4.52548339959385e+005,-1.88731135594709e+001,-1.26434166762449e+001

4.58865679365059e+005,-1.88750232359476e+001,-1.28144009257527e+001

4.65271205542494e+005,-1.88769670596316e+001,-1.29877220489792e+001

4.71766149533147e+005,-1.88789459806132e+001,-1.31634129404866e+001

4.78351759563174e+005,-1.88809609835104e+001,-1.33415069036073e+001

4.85029301283321e+005,-1.88830130882079e+001,-1.35220376519805e+001

4.91800058012158e+005,-1.88851033505971e+001,-1.37050393110694e+001

4.98665330982714e+005,-1.88872328633172e+001,-1.38905464196610e+001

5.05626439592555e+005,-1.88894027564987e+001,-1.40785939313485e+001

5.12684721657352e+005,-1.88916141985083e+001,-1.42692172159984e+001

5.19841533667984e+005,-1.88938683966971e+001,-1.44624520612020e+001

5.27098251051240e+005,-1.88961665981528e+001,-1.46583346737128e+001

5.34456268434150e+005,-1.88985100904556e+001,-1.48569016808670e+001

5.41916999912011e+005,-1.89009002024390e+001,-1.50581901319879e+001

