Freq.,VOut,OutRef

1.00000000000000e+004,-2.20552600207033e+001,-4.47844119793769e-001

1.01395947979003e+004,-2.20552655146774e+001,-4.54095042933938e-001

1.02811382665607e+004,-2.20552711629115e+001,-4.60433193995412e-001

1.04246576084112e+004,-2.20552769697313e+001,-4.66859789290122e-001

1.05701804056138e+004,-2.20552829395832e+001,-4.73376062054078e-001

1.07177346253629e+004,-2.20552890770383e+001,-4.79983262677696e-001

1.08673486252606e+004,-2.20552953867952e+001,-4.86682658944888e-001

1.10190511587661e+004,-2.20553018736842e+001,-4.93475536273355e-001

1.11728713807222e+004,-2.20553085426703e+001,-5.00363197956306e-001

1.13288388529580e+004,-2.20553153988572e+001,-5.07346965411832e-001

1.14869835499703e+004,-2.20553224474916e+001,-5.14428178430411e-001

1.16473358646846e+004,-2.20553296939663e+001,-5.21608195430023e-001

1.18099266142953e+004,-2.20553371438251e+001,-5.28888393711680e-001

1.19747870461893e+004,-2.20553448027663e+001,-5.36270169720753e-001

1.21419488439505e+004,-2.20553526766476e+001,-5.43754939310579e-001

1.23114441334492e+004,-2.20553607714897e+001,-5.51344138009758e-001

1.24833054890161e+004,-2.20553690934821e+001,-5.59039221291293e-001

1.26575659397028e+004,-2.20553776489863e+001,-5.66841664850859e-001

1.28342589756290e+004,-2.20553864445416e+001,-5.74752964880551e-001

1.30134185544193e+004,-2.20553954868697e+001,-5.82774638354865e-001

1.31950791077289e+004,-2.20554047828796e+001,-5.90908223312798e-001

1.33792755478611e+004,-2.20554143396732e+001,-5.99155279149750e-001

1.35660432744767e+004,-2.20554241645497e+001,-6.07517386910862e-001

1.37554181813974e+004,-2.20554342650125e+001,-6.15996149585370e-001

1.39474366635040e+004,-2.20554446487733e+001,-6.24593192411686e-001

1.41421356237309e+004,-2.20554553237592e+001,-6.33310163179055e-001

1.43395524801583e+004,-2.20554662981176e+001,-6.42148732538478e-001

1.45397251732031e+004,-2.20554775802229e+001,-6.51110594316430e-001

1.47426921729110e+004,-2.20554891786823e+001,-6.60197465831053e-001

1.49484924863494e+004,-2.20555011023428e+001,-6.69411088213048e-001

1.51571656651040e+004,-2.20555133602971e+001,-6.78753226734076e-001

1.53687518128801e+004,-2.20555259618910e+001,-6.88225671133458e-001

1.55832915932100e+004,-2.20555389167299e+001,-6.97830235955510e-001

1.58008262372675e+004,-2.20555522346860e+001,-7.07568760886659e-001

1.60213975517924e+004,-2.20555659259061e+001,-7.17443111097685e-001

1.62450479271247e+004,-2.20555800008182e+001,-7.27455177593468e-001

1.64718203453514e+004,-2.20555944701403e+001,-7.37606877563805e-001

1.67017583885674e+004,-2.20556093448873e+001,-7.47900154740441e-001

1.69349062472505e+004,-2.20556246363799e+001,-7.58336979757859e-001

1.71713087287550e+004,-2.20556403562528e+001,-7.68919350519391e-001

1.74110112659224e+004,-2.20556565164628e+001,-7.79649292568325e-001

1.76540599258131e+004,-2.20556731292983e+001,-7.90528859462596e-001

1.79005014185594e+004,-2.20556902073878e+001,-8.01560133156297e-001

1.81503831063432e+004,-2.20557077637094e+001,-8.12745224382669e-001

1.84037530124975e+004,-2.20557258116005e+001,-8.24086273045555e-001

1.86606598307361e+004,-2.20557443647670e+001,-8.35585448614262e-001

1.89211529345119e+004,-2.20557634372940e+001,-8.47244950523501e-001

1.91852823865052e+004,-2.20557830436556e+001,-8.59067008577356e-001

1.94530989482457e+004,-2.20558031987257e+001,-8.71053883361127e-001

1.97246540898671e+004,-2.20558239177890e+001,-8.83207866654489e-001

1.99999999999999e+004,-2.20558452165514e+001,-8.95531281854156e-001

2.02791895958005e+004,-2.20558671111523e+001,-9.08026484398345e-001

2.05622765331213e+004,-2.20558896181758e+001,-9.20695862198103e-001

2.08493152168224e+004,-2.20559127546627e+001,-9.33541836073645e-001

2.11403608112276e+004,-2.20559365381229e+001,-9.46566860196395e-001

2.14354692507258e+004,-2.20559609865482e+001,-9.59773422535490e-001

2.17346972505211e+004,-2.20559861184250e+001,-9.73164045311635e-001

2.20381023175322e+004,-2.20560119527475e+001,-9.86741285454961e-001

2.23457427614443e+004,-2.20560385090318e+001,-1.00050773506920e+000

2.26576777059159e+004,-2.20560658073294e+001,-1.01446602189918e+000

2.29739670999406e+004,-2.20560938682415e+001,-1.02861880981015e+000

2.32946717293690e+004,-2.20561227129343e+001,-1.04296879926418e+000

2.36198532285905e+004,-2.20561523631532e+001,-1.05751872781030e+000

2.39495740923785e+004,-2.20561828412388e+001,-1.07227137057612e+000

2.42838976879009e+004,-2.20562141701426e+001,-1.08722954076504e+000

2.46228882668982e+004,-2.20562463734433e+001,-1.10239609016138e+000

2.49666109780322e+004,-2.20562794753629e+001,-1.11777390964248e+000

2.53151318794055e+004,-2.20563135007844e+001,-1.13336592969145e+000

2.56685179512580e+004,-2.20563484752690e+001,-1.14917512092194e+000

2.60268371088386e+004,-2.20563844250738e+001,-1.16520449460669e+000

2.63901582154578e+004,-2.20564213771703e+001,-1.18145710321047e+000

2.67585510957221e+004,-2.20564593592630e+001,-1.19793604093177e+000

2.71320865489533e+004,-2.20564983998088e+001,-1.21464444424992e+000

2.75108363627948e+004,-2.20565385280365e+001,-1.23158549247730e+000

2.78948733270080e+004,-2.20565797739672e+001,-1.24876240831909e+000

2.82842712474618e+004,-2.20566221684343e+001,-1.26617845843919e+000

2.86791049603164e+004,-2.20566657431057e+001,-1.28383695403119e+000

2.90794503464061e+004,-2.20567105305041e+001,-1.30174125139804e+000

2.94853843458219e+004,-2.20567565640303e+001,-1.31989475253549e+000

2.98969849726987e+004,-2.20568038779849e+001,-1.33830090572484e+000

3.03143313302078e+004,-2.20568525075923e+001,-1.35696320612712e+000

3.07375036257601e+004,-2.20569024890235e+001,-1.37588519639186e+000

3.11665831864199e+004,-2.20569538594212e+001,-1.39507046726326e+000

3.16016524745350e+004,-2.20570066569242e+001,-1.41452265819931e+000

3.20427951035848e+004,-2.20570609206924e+001,-1.43424545799522e+000

3.24900958542493e+004,-2.20571166909333e+001,-1.45424260541280e+000

3.29436406907028e+004,-2.20571740089284e+001,-1.47451788981736e+000

3.34035167771346e+004,-2.20572329170599e+001,-1.49507515182129e+000

3.38698124945009e+004,-2.20572934588387e+001,-1.51591828393294e+000

3.43426174575100e+004,-2.20573556789328e+001,-1.53705123121353e+000

3.48220225318448e+004,-2.20574196231957e+001,-1.55847799193994e+000

3.53081198516260e+004,-2.20574853386963e+001,-1.58020261827501e+000

3.58010028371187e+004,-2.20575528737490e+001,-1.60222921694217e+000

3.63007662126863e+004,-2.20576222779444e+001,-1.62456194990923e+000

3.68075060249948e+004,-2.20576936021805e+001,-1.64720503507805e+000

3.73213196614721e+004,-2.20577668986951e+001,-1.67016274698000e+000

3.78423058690237e+004,-2.20578422210983e+001,-1.69343941747774e+000

3.83705647730104e+004,-2.20579196244059e+001,-1.71703943647642e+000

3.89061978964912e+004,-2.20579991650731e+001,-1.74096725263830e+000

3.94493081797342e+004,-2.20580809010299e+001,-1.76522737410475e+000

3.99999999999998e+004,-2.20581648917156e+001,-1.78982436922579e+000

4.05583791916010e+004,-2.20582511981154e+001,-1.81476286729551e+000

4.11245530662425e+004,-2.20583398827970e+001,-1.84004755929373e+000

4.16986304336447e+004,-2.20584310099476e+001,-1.86568319863490e+000

4.22807216224550e+004,-2.20585246454125e+001,-1.89167460192282e+000

4.28709385014515e+004,-2.20586208567332e+001,-1.91802664971300e+000

4.34693945010421e+004,-2.20587197131877e+001,-1.94474428727854e+000

4.40762046350642e+004,-2.20588212858295e+001,-1.97183252538680e+000

4.46914855228886e+004,-2.20589256475293e+001,-1.99929644107873e+000

4.53153554118317e+004,-2.20590328730158e+001,-2.02714117845614e+000

4.59479341998812e+004,-2.20591430389182e+001,-2.05537194947554e+000

4.65893434587380e+004,-2.20592562238090e+001,-2.08399403474692e+000

4.72397064571810e+004,-2.20593725082469e+001,-2.11301278434111e+000

4.78991481847569e+004,-2.20594919748217e+001,-2.14243361860072e+000

4.85677953758016e+004,-2.20596147081985e+001,-2.17226202895861e+000

4.92457765337964e+004,-2.20597407951629e+001,-2.20250357876373e+000

4.99332219560642e+004,-2.20598703246677e+001,-2.23316390411017e+000

5.06302637588109e+004,-2.20600033878788e+001,-2.26424871467487e+000

5.13370359025159e+004,-2.20601400782232e+001,-2.29576379455974e+000

5.20536742176771e+004,-2.20602804914354e+001,-2.32771500314236e+000

5.27803164309155e+004,-2.20604247256077e+001,-2.36010827592843e+000

5.35171021914442e+004,-2.20605728812372e+001,-2.39294962541410e+000

5.42641730979066e+004,-2.20607250612767e+001,-2.42624514195282e+000

5.50216727255895e+004,-2.20608813711835e+001,-2.46000099462833e+000

5.57897466540159e+004,-2.20610419189707e+001,-2.49422343213215e+000

5.65685424949235e+004,-2.20612068152575e+001,-2.52891878365006e+000

5.73582099206328e+004,-2.20613761733207e+001,-2.56409345975197e+000

5.81589006928121e+004,-2.20615501091462e+001,-2.59975395328861e+000

5.89707686916437e+004,-2.20617287414814e+001,-2.63590684029376e+000

5.97939699453972e+004,-2.20619121918870e+001,-2.67255878089338e+000

6.06286626604156e+004,-2.20621005847903e+001,-2.70971652022015e+000

6.14750072515201e+004,-2.20622940475375e+001,-2.74738688933426e+000

6.23331663728396e+004,-2.20624927104470e+001,-2.78557680614952e+000

6.32033049490698e+004,-2.20626967068630e+001,-2.82429327636728e+000

6.40855902071694e+004,-2.20629061732082e+001,-2.86354339441500e+000

6.49801917084985e+004,-2.20631212490379e+001,-2.90333434439224e+000

6.58872813814055e+004,-2.20633420770931e+001,-2.94367340102286e+000

6.68070335542691e+004,-2.20635688033537e+001,-2.98456793061385e+000

6.77396249890018e+004,-2.20638015770923e+001,-3.02602539202066e+000

6.86852349150199e+004,-2.20640405509270e+001,-3.06805333762002e+000

6.96440450636895e+004,-2.20642858808744e+001,-3.11065941428936e+000

7.06162397032520e+004,-2.20645377264023e+001,-3.15385136439421e+000

7.16020056742374e+004,-2.20647962504818e+001,-3.19763702678341e+000

7.26015324253724e+004,-2.20650616196394e+001,-3.24202433779063e+000

7.36150120499896e+004,-2.20653340040081e+001,-3.28702133224659e+000

7.46426393229441e+004,-2.20656135773784e+001,-3.33263614449813e+000

7.56846117380472e+004,-2.20659005172483e+001,-3.37887700943709e+000

7.67411295460207e+004,-2.20661950048730e+001,-3.42575226353762e+000

7.78123957929823e+004,-2.20664972253129e+001,-3.47327034590523e+000

7.88986163594682e+004,-2.20668073674820e+001,-3.52143979933426e+000

7.99999999999995e+004,-2.20671256241943e+001,-3.57026927137769e+000

8.11167583832018e+004,-2.20674521922097e+001,-3.61976751542748e+000

8.22491061324848e+004,-2.20677872722782e+001,-3.66994339180766e+000

8.33972608672892e+004,-2.20681310691838e+001,-3.72080586888067e+000

8.45614432449099e+004,-2.20684837917861e+001,-3.77236402416681e+000

8.57418770029029e+004,-2.20688456530612e+001,-3.82462704547795e+000

8.69387890020841e+004,-2.20692168701408e+001,-3.87760423206737e+000

8.81524092701283e+004,-2.20695976643495e+001,-3.93130499579530e+000

8.93829710457770e+004,-2.20699882612415e+001,-3.98573886231194e+000

9.06307108236633e+004,-2.20703888906340e+001,-4.04091547225891e+000

9.18958683997622e+004,-2.20707997866402e+001,-4.09684458249026e+000

9.31786869174758e+004,-2.20712211876997e+001,-4.15353606731364e+000

9.44794129143618e+004,-2.20716533366069e+001,-4.21099991975477e+000

9.57982963695136e+004,-2.20720964805379e+001,-4.26924625284361e+000

9.71355907516031e+004,-2.20725508710748e+001,-4.32828530092711e+000

9.84915530675926e+004,-2.20730167642283e+001,-4.38812742100636e+000

9.98664439121282e+004,-2.20734944204576e+001,-4.44878309410413e+000

1.01260527517622e+005,-2.20739841046884e+001,-4.51026292665954e+000

1.02674071805032e+005,-2.20744860863291e+001,-4.57257765195608e+000

1.04107348435354e+005,-2.20750006392835e+001,-4.63573813158177e+000

1.05560632861831e+005,-2.20755280419628e+001,-4.69975535692495e+000

1.07034204382888e+005,-2.20760685772938e+001,-4.76464045070739e+000

1.08528346195813e+005,-2.20766225327259e+001,-4.83040466855688e+000

1.10043345451179e+005,-2.20771902002351e+001,-4.89705940062095e+000

1.11579493308032e+005,-2.20777718763268e+001,-4.96461617322414e+000

1.13137084989847e+005,-2.20783678620355e+001,-5.03308665057283e+000

1.14716419841265e+005,-2.20789784629225e+001,-5.10248263650698e+000

1.16317801385624e+005,-2.20796039890727e+001,-5.17281607630408e+000

1.17941537383287e+005,-2.20802447550881e+001,-5.24409905853624e+000

1.19587939890794e+005,-2.20809010800808e+001,-5.31634381698385e+000

1.21257325320831e+005,-2.20815732876638e+001,-5.38956273260811e+000

1.22950014503040e+005,-2.20822617059407e+001,-5.46376833558502e+000

1.24666332745679e+005,-2.20829666674942e+001,-5.53897330740469e+000

1.26406609898139e+005,-2.20836885093741e+001,-5.61519048303710e+000

1.28171180414339e+005,-2.20844275730840e+001,-5.69243285316834e+000

1.29960383416997e+005,-2.20851842045683e+001,-5.77071356651041e+000

1.31774562762811e+005,-2.20859587541989e+001,-5.85004593218606e+000

1.33614067108538e+005,-2.20867515767629e+001,-5.93044342219330e+000

1.35479249978003e+005,-2.20875630314501e+001,-6.01191967395130e+000

1.37370469830040e+005,-2.20883934818427e+001,-6.09448849293030e+000

1.39288090127379e+005,-2.20892432959062e+001,-6.17816385537010e+000

1.41232479406504e+005,-2.20901128459830e+001,-6.26295991108693e+000

1.43204011348474e+005,-2.20910025087882e+001,-6.34889098637419e+000

1.45203064850745e+005,-2.20919126654093e+001,-6.43597158699805e+000

1.47230024099979e+005,-2.20928437013095e+001,-6.52421640129119e+000

1.49285278645888e+005,-2.20937960063363e+001,-6.61364030334488e+000

1.51369223476094e+005,-2.20947699747347e+001,-6.70425835630560e+000

1.53482259092041e+005,-2.20957660051669e+001,-6.79608581577391e+000

1.55624791585964e+005,-2.20967845007391e+001,-6.88913813331044e+000

1.57797232718936e+005,-2.20978258690359e+001,-6.98343096004847e+000

1.59999999999999e+005,-2.20988905221629e+001,-7.07898015041593e+000

1.62233516766403e+005,-2.20999788767994e+001,-7.17580176596731e+000

1.64498212264969e+005,-2.21010913542609e+001,-7.27391207932642e+000

1.66794521734578e+005,-2.21022283805736e+001,-7.37332757823991e+000

1.69122886489819e+005,-2.21033903865609e+001,-7.47406496974292e+000

1.71483754005805e+005,-2.21045778079430e+001,-7.57614118443550e+000

1.73877578004168e+005,-2.21057910854515e+001,-7.67957338087031e+000

1.76304818540256e+005,-2.21070306649592e+001,-7.78437895004976e+000

1.78765942091554e+005,-2.21082969976265e+001,-7.89057552003145e+000

1.81261421647326e+005,-2.21095905400653e+001,-7.99818096064113e+000

1.83791736799524e+005,-2.21109117545223e+001,-8.10721338828982e+000

1.86357373834951e+005,-2.21122611090814e+001,-8.21769117089221e+000

1.88958825828723e+005,-2.21136390778878e+001,-8.32963293288507e+000

1.91596592739027e+005,-2.21150461413941e+001,-8.44305756033994e+000

1.94271181503206e+005,-2.21164827866296e+001,-8.55798420616686e+000

1.96983106135185e+005,-2.21179495074940e+001,-8.67443229540514e+000

1.99732887824256e+005,-2.21194468050767e+001,-8.79242153059469e+000

2.02521055035243e+005,-2.21209751880030e+001,-8.91197189722333e+000

2.05348143610063e+005,-2.21225351728073e+001,-9.03310366924373e+000

2.08214696870707e+005,-2.21241272843352e+001,-9.15583741465310e+000

2.11121265723661e+005,-2.21257520561754e+001,-9.28019400112841e+000

2.14068408765776e+005,-2.21274100311221e+001,-9.40619460171020e+000

2.17056692391625e+005,-2.21291017616686e+001,-9.53386070052514e+000

2.20086690902357e+005,-2.21308278105331e+001,-9.66321409854131e+000

2.23158986616063e+005,-2.21325887512178e+001,-9.79427691934543e+000

2.26274169979693e+005,-2.21343851686017e+001,-9.92707161493216e+000

2.29432839682530e+005,-2.21362176595670e+001,-1.00616209714976e+001

2.32635602771247e+005,-2.21380868336615e+001,-1.01979481152247e+001

2.35883074766574e+005,-2.21399933137949e+001,-1.03360765180521e+001

2.39175879781588e+005,-2.21419377369720e+001,-1.04760300034138e+001

2.42514650641661e+005,-2.21439207550613e+001,-1.06178327519388e+001

2.45900029006080e+005,-2.21459430355994e+001,-1.07615093071016e+001

2.49332665491357e+005,-2.21480052626322e+001,-1.09070845808096e+001

2.52813219796278e+005,-2.21501081375920e+001,-1.10545838589161e+001

2.56342360828676e+005,-2.21522523802106e+001,-1.12040328066492e+001

2.59920766833993e+005,-2.21544387294683e+001,-1.13554574739432e+001

2.63549125525621e+005,-2.21566679445788e+001,-1.15088843006611e+001

2.67228134217075e+005,-2.21589408060085e+001,-1.16643401216975e+001

2.70958499956006e+005,-2.21612581165311e+001,-1.18218521719493e+001

2.74740939660078e+005,-2.21636207023160e+001,-1.19814480911442e+001

2.78576180254757e+005,-2.21660294140495e+001,-1.21431559285148e+001

2.82464958813007e+005,-2.21684851280891e+001,-1.23070041473083e+001

2.86408022696948e+005,-2.21709887476490e+001,-1.24730216291214e+001

2.90406129701488e+005,-2.21735412040162e+001,-1.26412376780490e+001

2.94460048199957e+005,-2.21761434577963e+001,-1.28116820246394e+001

2.98570557291775e+005,-2.21787965001869e+001,-1.29843848296446e+001

3.02738446952187e+005,-2.21815013542797e+001,-1.31593766875577e+001

3.06964518184081e+005,-2.21842590763863e+001,-1.33366886299288e+001

3.11249583171928e+005,-2.21870707573907e+001,-1.35163521284530e+001

3.15594465437872e+005,-2.21899375241231e+001,-1.36983990978206e+001

3.19999999999997e+005,-2.21928605407565e+001,-1.38828618983258e+001

3.24467033532806e+005,-2.21958410102234e+001,-1.40697733382254e+001

3.28996424529938e+005,-2.21988801756508e+001,-1.42591666758434e+001

3.33589043469155e+005,-2.22019793218127e+001,-1.44510756214165e+001

3.38245772979638e+005,-2.22051397765986e+001,-1.46455343386745e+001

3.42967508011610e+005,-2.22083629124954e+001,-1.48425774461547e+001

3.47755156008335e+005,-2.22116501480831e+001,-1.50422400182439e+001

3.52609637080511e+005,-2.22150029495404e+001,-1.52445575859480e+001

3.57531884183106e+005,-2.22184228321610e+001,-1.54495661373850e+001

3.62522843294651e+005,-2.22219113618777e+001,-1.56573021180009e+001

3.67583473599047e+005,-2.22254701567929e+001,-1.58678024305066e+001

3.72714747669902e+005,-2.22291008887151e+001,-1.60811044345353e+001

3.77917651657445e+005,-2.22328052846990e+001,-1.62972459460197e+001

3.83193185478053e+005,-2.22365851285882e+001,-1.65162652362893e+001

3.88542363006410e+005,-2.22404422625598e+001,-1.67382010308869e+001

3.93966212270369e+005,-2.22443785886683e+001,-1.69630925081061e+001

3.99465775648511e+005,-2.22483960703897e+001,-1.71909792972499e+001

4.05042110070485e+005,-2.22524967341623e+001,-1.74219014766094e+001

4.10696287220124e+005,-2.22566826709249e+001,-1.76558995711674e+001

4.16429393741414e+005,-2.22609560376512e+001,-1.78930145500230e+001

4.22242531447321e+005,-2.22653190588782e+001,-1.81332878235418e+001

4.28136817531551e+005,-2.22697740282296e+001,-1.83767612402306e+001

4.34113384783250e+005,-2.22743233099309e+001,-1.86234770833382e+001

4.40173381804713e+005,-2.22789693403187e+001,-1.88734780671815e+001

4.46317973232124e+005,-2.22837146293395e+001,-1.91268073331990e+001

4.52548339959385e+005,-2.22885617620411e+001,-1.93835084457311e+001

4.58865679365059e+005,-2.22935134000526e+001,-1.96436253875259e+001

4.65271205542494e+005,-2.22985722830551e+001,-1.99072025549724e+001

4.71766149533147e+005,-2.23037412302398e+001,-2.01742847530573e+001

4.78351759563174e+005,-2.23090231417554e+001,-2.04449171900475e+001

4.85029301283321e+005,-2.23144210001422e+001,-2.07191454718935e+001

4.91800058012158e+005,-2.23199378717531e+001,-2.09970155963542e+001

4.98665330982714e+005,-2.23255769081605e+001,-2.12785739468387e+001

5.05626439592555e+005,-2.23313413475492e+001,-2.15638672859643e+001

5.12684721657352e+005,-2.23372345160930e+001,-2.18529427488255e+001

5.19841533667984e+005,-2.23432598293159e+001,-2.21458478359709e+001

5.27098251051240e+005,-2.23494207934357e+001,-2.24426304060846e+001

5.34456268434150e+005,-2.23557210066903e+001,-2.27433386683660e+001

5.41916999912011e+005,-2.23621641606449e+001,-2.30480211746044e+001

