Freq.,VOut,OutRef

1.00000000000000e+004,-1.62876583086787e+001,-1.62575484508423e-001

1.01395947979003e+004,-1.62876604100851e+001,-1.64844538370975e-001

1.02811382665607e+004,-1.62876625704557e+001,-1.67145249433695e-001

1.04246576084112e+004,-1.62876647914419e+001,-1.69478058865739e-001

1.05701804056138e+004,-1.62876670747408e+001,-1.71843413968193e-001

1.07177346253629e+004,-1.62876694220971e+001,-1.74241768249576e-001

1.08673486252606e+004,-1.62876718353040e+001,-1.76673581516982e-001

1.10190511587661e+004,-1.62876743162047e+001,-1.79139319959535e-001

1.11728713807222e+004,-1.62876768666939e+001,-1.81639456236338e-001

1.13288388529580e+004,-1.62876794887187e+001,-1.84174469567996e-001

1.14869835499703e+004,-1.62876821842806e+001,-1.86744845822847e-001

1.16473358646846e+004,-1.62876849554371e+001,-1.89351077608830e-001

1.18099266142953e+004,-1.62876878043027e+001,-1.91993664367367e-001

1.19747870461893e+004,-1.62876907330507e+001,-1.94673112466726e-001

1.21419488439505e+004,-1.62876937439152e+001,-1.97389935294114e-001

1.23114441334492e+004,-1.62876968391919e+001,-2.00144653356057e-001

1.24833054890161e+004,-1.62877000212406e+001,-2.02937794372750e-001

1.26575659397028e+004,-1.62877032924869e+001,-2.05769893375386e-001

1.28342589756290e+004,-1.62877066554235e+001,-2.08641492808823e-001

1.30134185544193e+004,-1.62877101126124e+001,-2.11553142631864e-001

1.31950791077289e+004,-1.62877136666866e+001,-2.14505400419799e-001

1.33792755478611e+004,-1.62877173203527e+001,-2.17498831464987e-001

1.35660432744767e+004,-1.62877210763914e+001,-2.20534008890023e-001

1.37554181813974e+004,-1.62877249376617e+001,-2.23611513742973e-001

1.39474366635040e+004,-1.62877289071012e+001,-2.26731935114296e-001

1.41421356237309e+004,-1.62877329877288e+001,-2.29895870242568e-001

1.43395524801583e+004,-1.62877371826474e+001,-2.33103924624438e-001

1.45397251732031e+004,-1.62877414950454e+001,-2.36356712129481e-001

1.47426921729110e+004,-1.62877459282000e+001,-2.39654855108914e-001

1.49484924863494e+004,-1.62877504854788e+001,-2.42998984514490e-001

1.51571656651040e+004,-1.62877551703422e+001,-2.46389740014839e-001

1.53687518128801e+004,-1.62877599863467e+001,-2.49827770110176e-001

1.55832915932100e+004,-1.62877649371470e+001,-2.53313732254598e-001

1.58008262372675e+004,-1.62877700264984e+001,-2.56848292974945e-001

1.60213975517924e+004,-1.62877752582600e+001,-2.60432127995771e-001

1.62450479271247e+004,-1.62877806363975e+001,-2.64065922358757e-001

1.64718203453514e+004,-1.62877861649860e+001,-2.67750370551321e-001

1.67017583885674e+004,-1.62877918482124e+001,-2.71486176634820e-001

1.69349062472505e+004,-1.62877976903795e+001,-2.75274054367809e-001

1.71713087287550e+004,-1.62878036959079e+001,-2.79114727342559e-001

1.74110112659224e+004,-1.62878098693405e+001,-2.83008929111392e-001

1.76540599258131e+004,-1.62878162153443e+001,-2.86957403323359e-001

1.79005014185594e+004,-1.62878227387151e+001,-2.90960903857207e-001

1.81503831063432e+004,-1.62878294443802e+001,-2.95020194958870e-001

1.84037530124975e+004,-1.62878363374020e+001,-2.99136051379361e-001

1.86606598307361e+004,-1.62878434229817e+001,-3.03309258515039e-001

1.89211529345119e+004,-1.62878507064631e+001,-3.07540612547225e-001

1.91852823865052e+004,-1.62878581933360e+001,-3.11830920590087e-001

1.94530989482457e+004,-1.62878658892405e+001,-3.16181000829996e-001

1.97246540898671e+004,-1.62878737999711e+001,-3.20591682674766e-001

1.99999999999999e+004,-1.62878819314803e+001,-3.25063806902249e-001

2.02791895958005e+004,-1.62878902898830e+001,-3.29598225810110e-001

2.05622765331213e+004,-1.62878988814612e+001,-3.34195803366575e-001

2.08493152168224e+004,-1.62879077126673e+001,-3.38857415367004e-001

2.11403608112276e+004,-1.62879167901300e+001,-3.43583949584309e-001

2.14354692507258e+004,-1.62879261206579e+001,-3.48376305931410e-001

2.17346972505211e+004,-1.62879357112446e+001,-3.53235396616368e-001

2.20381023175322e+004,-1.62879455690736e+001,-3.58162146303679e-001

2.23457427614443e+004,-1.62879557015230e+001,-3.63157492278337e-001

2.26576777059159e+004,-1.62879661161707e+001,-3.68222384610225e-001

2.29739670999406e+004,-1.62879768207998e+001,-3.73357786316421e-001

2.32946717293690e+004,-1.62879878234035e+001,-3.78564673533746e-001

2.36198532285905e+004,-1.62879991321909e+001,-3.83844035686043e-001

2.39495740923785e+004,-1.62880107555923e+001,-3.89196875656244e-001

2.42838976879009e+004,-1.62880227022652e+001,-3.94624209960591e-001

2.46228882668982e+004,-1.62880349810997e+001,-4.00127068921834e-001

2.49666109780322e+004,-1.62880476012248e+001,-4.05706496849805e-001

2.53151318794055e+004,-1.62880605720144e+001,-4.11363552215268e-001

2.56685179512580e+004,-1.62880739030935e+001,-4.17099307836815e-001

2.60268371088386e+004,-1.62880876043445e+001,-4.22914851058253e-001

2.63901582154578e+004,-1.62881016859140e+001,-4.28811283936248e-001

2.67585510957221e+004,-1.62881161582189e+001,-4.34789723425511e-001

2.71320865489533e+004,-1.62881310319537e+001,-4.40851301567957e-001

2.75108363627948e+004,-1.62881463180974e+001,-4.46997165681098e-001

2.78948733270080e+004,-1.62881620279201e+001,-4.53228478552147e-001

2.82842712474618e+004,-1.62881781729910e+001,-4.59546418629719e-001

2.86791049603164e+004,-1.62881947651851e+001,-4.65952180220596e-001

2.90794503464061e+004,-1.62882118166912e+001,-4.72446973686951e-001

2.94853843458219e+004,-1.62882293400192e+001,-4.79032025646125e-001

2.98969849726987e+004,-1.62882473480083e+001,-4.85708579170867e-001

3.03143313302078e+004,-1.62882658538350e+001,-4.92477893992649e-001

3.07375036257601e+004,-1.62882848710209e+001,-4.99341246706514e-001

3.11665831864199e+004,-1.62883044134415e+001,-5.06299930976841e-001

3.16016524745350e+004,-1.62883244953342e+001,-5.13355257746849e-001

3.20427951035848e+004,-1.62883451313073e+001,-5.20508555447455e-001

3.24900958542493e+004,-1.62883663363488e+001,-5.27761170210239e-001

3.29436406907028e+004,-1.62883881258351e+001,-5.35114466079240e-001

3.34035167771346e+004,-1.62884105155402e+001,-5.42569825229209e-001

3.38698124945009e+004,-1.62884335216452e+001,-5.50128648178131e-001

3.43426174575100e+004,-1.62884571607475e+001,-5.57792354010198e-001

3.48220225318448e+004,-1.62884814498705e+001,-5.65562380592571e-001

3.53081198516260e+004,-1.62885064064732e+001,-5.73440184800526e-001

3.58010028371187e+004,-1.62885320484604e+001,-5.81427242738369e-001

3.63007662126863e+004,-1.62885583941926e+001,-5.89525049964319e-001

3.68075060249948e+004,-1.62885854624958e+001,-5.97735121720607e-001

3.73213196614721e+004,-1.62886132726729e+001,-6.06058993156889e-001

3.78423058690237e+004,-1.62886418445128e+001,-6.14498219563597e-001

3.83705647730104e+004,-1.62886711983024e+001,-6.23054376601079e-001

3.89061978964912e+004,-1.62887013548367e+001,-6.31729060532086e-001

3.94493081797342e+004,-1.62887323354295e+001,-6.40523888457102e-001

3.99999999999998e+004,-1.62887641619250e+001,-6.49440498548516e-001

4.05583791916010e+004,-1.62887968567085e+001,-6.58480550287467e-001

4.11245530662425e+004,-1.62888304427183e+001,-6.67645724700930e-001

4.16986304336447e+004,-1.62888649434563e+001,-6.76937724602707e-001

4.22807216224550e+004,-1.62889003830003e+001,-6.86358274830846e-001

4.28709385014515e+004,-1.62889367860149e+001,-6.95909122492551e-001

4.34693945010421e+004,-1.62889741777638e+001,-7.05592037203475e-001

4.40762046350642e+004,-1.62890125841210e+001,-7.15408811334517e-001

4.46914855228886e+004,-1.62890520315833e+001,-7.25361260252496e-001

4.53153554118317e+004,-1.62890925472818e+001,-7.35451222569479e-001

4.59479341998812e+004,-1.62891341589936e+001,-7.45680560388757e-001

4.65893434587380e+004,-1.62891768951545e+001,-7.56051159548619e-001

4.72397064571810e+004,-1.62892207848702e+001,-7.66564929876110e-001

4.78991481847569e+004,-1.62892658579292e+001,-7.77223805431941e-001

4.85677953758016e+004,-1.62893121448140e+001,-7.88029744761525e-001

4.92457765337964e+004,-1.62893596767135e+001,-7.98984731146639e-001

4.99332219560642e+004,-1.62894084855349e+001,-8.10090772855053e-001

5.06302637588109e+004,-1.62894586039158e+001,-8.21349903391175e-001

5.13370359025159e+004,-1.62895100652354e+001,-8.32764181751329e-001

5.20536742176771e+004,-1.62895629036268e+001,-8.44335692674926e-001

5.27803164309155e+004,-1.62896171539883e+001,-8.56066546896750e-001

5.35171021914442e+004,-1.62896728519951e+001,-8.67958881401714e-001

5.42641730979066e+004,-1.62897300341102e+001,-8.80014859678381e-001

5.50216727255895e+004,-1.62897887375957e+001,-8.92236671973914e-001

5.57897466540159e+004,-1.62898490005236e+001,-9.04626535547699e-001

5.65685424949235e+004,-1.62899108617866e+001,-9.17186694926510e-001

5.73582099206328e+004,-1.62899743611079e+001,-9.29919422160437e-001

5.81589006928121e+004,-1.62900395390518e+001,-9.42827017077426e-001

5.89707686916437e+004,-1.62901064370328e+001,-9.55911807539039e-001

5.97939699453972e+004,-1.62901750973251e+001,-9.69176149696041e-001

6.06286626604156e+004,-1.62902455630717e+001,-9.82622428243833e-001

6.14750072515201e+004,-1.62903178782920e+001,-9.96253056680739e-001

6.23331663728396e+004,-1.62903920878903e+001,-1.01007047756136e+000

6.32033049490698e+004,-1.62904682376632e+001,-1.02407716275441e+000

6.40855902071694e+004,-1.62905463743053e+001,-1.03827561370096e+000

6.49801917084985e+004,-1.62906265454167e+001,-1.05266836166806e+000

6.58872813814055e+004,-1.62907087995070e+001,-1.06725796800925e+000

6.68070335542691e+004,-1.62907931860007e+001,-1.08204702442109e+000

6.77396249890018e+004,-1.62908797552410e+001,-1.09703815320063e+000

6.86852349150199e+004,-1.62909685584924e+001,-1.11223400750531e+000

6.96440450636895e+004,-1.62910596479430e+001,-1.12763727161089e+000

7.06162397032520e+004,-1.62911530767055e+001,-1.14325066117366e+000

7.16020056742374e+004,-1.62912488988173e+001,-1.15907692348872e+000

7.26015324253724e+004,-1.62913471692394e+001,-1.17511883775456e+000

7.36150120499896e+004,-1.62914479438544e+001,-1.19137921533382e+000

7.46426393229441e+004,-1.62915512794626e+001,-1.20786090002060e+000

7.56846117380472e+004,-1.62916572337778e+001,-1.22456676830461e+000

7.67411295460207e+004,-1.62917658654211e+001,-1.24149972963905e+000

7.78123957929823e+004,-1.62918772339131e+001,-1.25866272671274e+000

7.88986163594682e+004,-1.62919913996651e+001,-1.27605873572128e+000

7.99999999999995e+004,-1.62921084239682e+001,-1.29369076664275e+000

8.11167583832018e+004,-1.62922283689816e+001,-1.31156186351580e+000

8.22491061324848e+004,-1.62923512977180e+001,-1.32967510472183e+000

8.33972608672892e+004,-1.62924772740277e+001,-1.34803360327089e+000

8.45614432449099e+004,-1.62926063625814e+001,-1.36664050709122e+000

8.57418770029029e+004,-1.62927386288498e+001,-1.38549899932461e+000

8.69387890020841e+004,-1.62928741390824e+001,-1.40461229862622e+000

8.81524092701283e+004,-1.62930129602831e+001,-1.42398365947010e+000

8.93829710457770e+004,-1.62931551601840e+001,-1.44361637246373e+000

9.06307108236633e+004,-1.62933008072173e+001,-1.46351376466485e+000

9.18958683997622e+004,-1.62934499704840e+001,-1.48367919991061e+000

9.31786869174758e+004,-1.62936027197207e+001,-1.50411607915408e+000

9.44794129143618e+004,-1.62937591252637e+001,-1.52482784080774e+000

9.57982963695136e+004,-1.62939192580105e+001,-1.54581796110128e+000

9.71355907516031e+004,-1.62940831893785e+001,-1.56708995444573e+000

9.84915530675926e+004,-1.62942509912609e+001,-1.58864737381423e+000

9.98664439121282e+004,-1.62944227359799e+001,-1.61049381113213e+000

1.01260527517622e+005,-1.62945984962374e+001,-1.63263289768242e+000

1.02674071805032e+005,-1.62947783450612e+001,-1.65506830452719e+000

1.04107348435354e+005,-1.62949623557504e+001,-1.67780374294408e+000

1.05560632861831e+005,-1.62951506018158e+001,-1.70084296487978e+000

1.07034204382888e+005,-1.62953431569183e+001,-1.72418976342417e+000

1.08528346195813e+005,-1.62955400948037e+001,-1.74784797330150e+000

1.10043345451179e+005,-1.62957414892342e+001,-1.77182147138669e+000

1.11579493308032e+005,-1.62959474139172e+001,-1.79611417724010e+000

1.13137084989847e+005,-1.62961579424303e+001,-1.82073005367040e+000

1.14716419841265e+005,-1.62963731481436e+001,-1.84567310732064e+000

1.16317801385624e+005,-1.62965931041379e+001,-1.87094738928288e+000

1.17941537383287e+005,-1.62968178831208e+001,-1.89655699574128e+000

1.19587939890794e+005,-1.62970475573389e+001,-1.92250606864542e+000

1.21257325320831e+005,-1.62972821984871e+001,-1.94879879641710e+000

1.22950014503040e+005,-1.62975218776142e+001,-1.97543941469011e+000

1.24666332745679e+005,-1.62977666650268e+001,-2.00243220708637e+000

1.26406609898139e+005,-1.62980166301887e+001,-2.02978150602896e+000

1.28171180414339e+005,-1.62982718416189e+001,-2.05749169359635e+000

1.29960383416997e+005,-1.62985323667854e+001,-2.08556720241560e+000

1.31774562762811e+005,-1.62987982719977e+001,-2.11401251660043e+000

1.33614067108538e+005,-1.62990696222960e+001,-2.14283217273459e+000

1.35479249978003e+005,-1.62993464813387e+001,-2.17203076090051e+000

1.37370469830040e+005,-1.62996289112871e+001,-2.20161292575886e+000

1.39288090127379e+005,-1.62999169726889e+001,-2.23158336767727e+000

1.41232479406504e+005,-1.63002107243599e+001,-2.26194684391241e+000

1.43204011348474e+005,-1.63005102232636e+001,-2.29270816984672e+000

1.45203064850745e+005,-1.63008155243907e+001,-2.32387222028016e+000

1.47230024099979e+005,-1.63011266806367e+001,-2.35544393078159e+000

1.49285278645888e+005,-1.63014437426802e+001,-2.38742829909824e+000

1.51369223476094e+005,-1.63017667588596e+001,-2.41983038662643e+000

1.53482259092041e+005,-1.63020957750507e+001,-2.45265531994683e+000

1.55624791585964e+005,-1.63024308345450e+001,-2.48590829242102e+000

1.57797232718936e+005,-1.63027719779284e+001,-2.51959456585556e+000

1.59999999999999e+005,-1.63031192429613e+001,-2.55371947223195e+000

1.62233516766403e+005,-1.63034726644611e+001,-2.58828841550413e+000

1.64498212264969e+005,-1.63038322741855e+001,-2.62330687346524e+000

1.66794521734578e+005,-1.63041981007203e+001,-2.65878039968244e+000

1.69122886489819e+005,-1.63045701693692e+001,-2.69471462550241e+000

1.71483754005805e+005,-1.63049485020469e+001,-2.73111526212892e+000

1.73877578004168e+005,-1.63053331171782e+001,-2.76798810276651e+000

1.76304818540256e+005,-1.63057240295996e+001,-2.80533902484034e+000

1.78765942091554e+005,-1.63061212504678e+001,-2.84317399228157e+000

1.81261421647326e+005,-1.63065247871733e+001,-2.88149905788624e+000

1.83791736799524e+005,-1.63069346432605e+001,-2.92032036574134e+000

1.86357373834951e+005,-1.63073508183547e+001,-2.95964415372065e+000

1.88958825828723e+005,-1.63077733080965e+001,-2.99947675604685e+000

1.91596592739027e+005,-1.63082021040849e+001,-3.03982460591987e+000

1.94271181503206e+005,-1.63086371938278e+001,-3.08069423821076e+000

1.96983106135185e+005,-1.63090785607028e+001,-3.12209229221600e+000

1.99732887824256e+005,-1.63095261839266e+001,-3.16402551447331e+000

2.02521055035243e+005,-1.63099800385360e+001,-3.20650076163416e+000

2.05348143610063e+005,-1.63104400953782e+001,-3.24952500339294e+000

2.08214696870707e+005,-1.63109063211130e+001,-3.29310532546682e+000

2.11121265723661e+005,-1.63113786782266e+001,-3.33724893262486e+000

2.14068408765776e+005,-1.63118571250573e+001,-3.38196315176224e+000

2.17056692391625e+005,-1.63123416158339e+001,-3.42725543501783e+000

2.20086690902357e+005,-1.63128321007269e+001,-3.47313336292644e+000

2.23158986616063e+005,-1.63133285259128e+001,-3.51960464760813e+000

2.26274169979693e+005,-1.63138308336517e+001,-3.56667713598446e+000

2.29432839682530e+005,-1.63143389623792e+001,-3.61435881302043e+000

2.32635602771247e+005,-1.63148528468118e+001,-3.66265780498575e+000

2.35883074766574e+005,-1.63153724180662e+001,-3.71158238273321e+000

2.39175879781588e+005,-1.63158976037937e+001,-3.76114096498473e+000

2.42514650641661e+005,-1.63164283283276e+001,-3.81134212162478e+000

2.45900029006080e+005,-1.63169645128459e+001,-3.86219457699303e+000

2.49332665491357e+005,-1.63175060755479e+001,-3.91370721317184e+000

2.52813219796278e+005,-1.63180529318442e+001,-3.96588907326457e+000

2.56342360828676e+005,-1.63186049945618e+001,-4.01874936465713e+000

2.59920766833993e+005,-1.63191621741623e+001,-4.07229746226008e+000

2.63549125525621e+005,-1.63197243789728e+001,-4.12654291172541e+000

2.67228134217075e+005,-1.63202915154315e+001,-4.18149543263213e+000

2.70958499956006e+005,-1.63208634883441e+001,-4.23716492163782e+000

2.74740939660078e+005,-1.63214402011541e+001,-4.29356145558902e+000

2.78576180254757e+005,-1.63220215562233e+001,-4.35069529458887e+000

2.82464958813007e+005,-1.63226074551245e+001,-4.40857688501583e+000

2.86408022696948e+005,-1.63231977989441e+001,-4.46721686248992e+000

2.90406129701488e+005,-1.63237924885951e+001,-4.52662605478336e+000

2.94460048199957e+005,-1.63243914251383e+001,-4.58681548467272e+000

2.98570557291775e+005,-1.63249945101132e+001,-4.64779637272759e+000

3.02738446952187e+005,-1.63256016458754e+001,-4.70958014003511e+000

3.06964518184081e+005,-1.63262127359415e+001,-4.77217841085859e+000

3.11249583171928e+005,-1.63268276853397e+001,-4.83560301522520e+000

3.15594465437872e+005,-1.63274464009656e+001,-4.89986599144489e+000

3.19999999999997e+005,-1.63280687919423e+001,-4.96497958855755e+000

3.24467033532806e+005,-1.63286947699840e+001,-5.03095626870860e+000

3.28996424529938e+005,-1.63293242497617e+001,-5.09780870945262e+000

3.33589043469155e+005,-1.63299571492707e+001,-5.16554980598403e+000

3.38245772979638e+005,-1.63305933901994e+001,-5.23419267329870e+000

3.42967508011610e+005,-1.63312328982966e+001,-5.30375064828459e+000

3.47755156008335e+005,-1.63318756037392e+001,-5.37423729174443e+000

3.52609637080511e+005,-1.63325214414970e+001,-5.44566639035233e+000

3.57531884183106e+005,-1.63331703516953e+001,-5.51805195854611e+000

3.62522843294651e+005,-1.63338222799736e+001,-5.59140824036035e+000

3.67583473599047e+005,-1.63344771778410e+001,-5.66574971119893e+000

3.72714747669902e+005,-1.63351350030252e+001,-5.74109107955622e+000

3.77917651657445e+005,-1.63357957198172e+001,-5.81744728868652e+000

3.83193185478053e+005,-1.63364592994087e+001,-5.89483351822716e+000

3.88542363006410e+005,-1.63371257202234e+001,-5.97326518578133e+000

3.93966212270369e+005,-1.63377949682407e+001,-6.05275794846212e+000

3.99465775648511e+005,-1.63384670373112e+001,-6.13332770440694e+000

4.05042110070485e+005,-1.63391419294645e+001,-6.21499059426275e+000

4.10696287220124e+005,-1.63398196552079e+001,-6.29776300265169e+000

4.16429393741414e+005,-1.63405002338163e+001,-6.38166155961972e+000

4.22242531447321e+005,-1.63411836936134e+001,-6.46670314207555e+000

4.28136817531551e+005,-1.63418700722425e+001,-6.55290487522341e+000

4.34113384783250e+005,-1.63425594169293e+001,-6.64028413399800e+000

4.40173381804713e+005,-1.63432517847337e+001,-6.72885854450517e+000

4.46317973232124e+005,-1.63439472427930e+001,-6.81864598547530e+000

4.52548339959385e+005,-1.63446458685557e+001,-6.90966458973309e+000

4.58865679365059e+005,-1.63453477500053e+001,-7.00193274569242e+000

4.65271205542494e+005,-1.63460529858756e+001,-7.09546909887791e+000

4.71766149533147e+005,-1.63467616858566e+001,-7.19029255348196e+000

4.78351759563174e+005,-1.63474739707922e+001,-7.28642227395981e+000

4.85029301283321e+005,-1.63481899728693e+001,-7.38387768666847e+000

4.91800058012158e+005,-1.63489098357988e+001,-7.48267848155520e+000

4.98665330982714e+005,-1.63496337149896e+001,-7.58284461389813e+000

5.05626439592555e+005,-1.63503617777147e+001,-7.68439630610546e+000

5.12684721657352e+005,-1.63510942032719e+001,-7.78735404957476e+000

5.19841533667984e+005,-1.63518311831371e+001,-7.89173860661974e+000

5.27098251051240e+005,-1.63525729211131e+001,-7.99757101246346e+000

5.34456268434150e+005,-1.63533196334729e+001,-8.10487257730571e+000

5.41916999912011e+005,-1.63540715490991e+001,-8.21366488846454e+000

