Freq.,VOut,OutRef

1.00000000000000e+004,-2.97317055636536e+001,-4.92447258213611e-001

1.01395947979003e+004,-2.97317121467339e+001,-4.99320768165079e-001

1.02811382665607e+004,-2.97317189146853e+001,-5.06290194912864e-001

1.04246576084112e+004,-2.97317258726936e+001,-5.13356875971676e-001

1.05701804056138e+004,-2.97317330260897e+001,-5.20522167467422e-001

1.07177346253629e+004,-2.97317403803537e+001,-5.27787444392726e-001

1.08673486252606e+004,-2.97317479411190e+001,-5.35154100869679e-001

1.10190511587661e+004,-2.97317557141766e+001,-5.42623550411483e-001

1.11728713807222e+004,-2.97317637054795e+001,-5.50197226193896e-001

1.13288388529580e+004,-2.97317719211472e+001,-5.57876581322025e-001

1.14869835499703e+004,-2.97317803674703e+001,-5.65663089109099e-001

1.16473358646846e+004,-2.97317890509154e+001,-5.73558243353862e-001

1.18099266142953e+004,-2.97317979781296e+001,-5.81563558623574e-001

1.19747870461893e+004,-2.97318071559460e+001,-5.89680570539961e-001

1.21419488439505e+004,-2.97318165913885e+001,-5.97910836069602e-001

1.23114441334492e+004,-2.97318262916775e+001,-6.06255933817797e-001

1.24833054890161e+004,-2.97318362642349e+001,-6.14717464326429e-001

1.26575659397028e+004,-2.97318465166900e+001,-6.23297050377359e-001

1.28342589756290e+004,-2.97318570568850e+001,-6.31996337297163e-001

1.30134185544193e+004,-2.97318678928813e+001,-6.40816993266904e-001

1.31950791077289e+004,-2.97318790329651e+001,-6.49760709638480e-001

1.33792755478611e+004,-2.97318904856540e+001,-6.58829201250772e-001

1.35660432744767e+004,-2.97319022597033e+001,-6.68024206754187e-001

1.37554181813974e+004,-2.97319143641125e+001,-6.77347488936450e-001

1.39474366635040e+004,-2.97319268081320e+001,-6.86800835054786e-001

1.41421356237309e+004,-2.97319396012705e+001,-6.96386057170885e-001

1.43395524801583e+004,-2.97319527533012e+001,-7.06104992492730e-001

1.45397251732031e+004,-2.97319662742703e+001,-7.15959503717165e-001

1.47426921729110e+004,-2.97319801745038e+001,-7.25951479380307e-001

1.49484924863494e+004,-2.97319944646151e+001,-7.36082834211197e-001

1.51571656651040e+004,-2.97320091555134e+001,-7.46355509490815e-001

1.53687518128801e+004,-2.97320242584118e+001,-7.56771473414855e-001

1.55832915932100e+004,-2.97320397848353e+001,-7.67332721460616e-001

1.58008262372675e+004,-2.97320557466298e+001,-7.78041276761989e-001

1.60213975517924e+004,-2.97320721559706e+001,-7.88899190486317e-001

1.62450479271247e+004,-2.97320890253719e+001,-7.99908542215080e-001

1.64718203453514e+004,-2.97321063676954e+001,-8.11071440335067e-001

1.67017583885674e+004,-2.97321241961610e+001,-8.22390022426676e-001

1.69349062472505e+004,-2.97321425243551e+001,-8.33866455666447e-001

1.71713087287550e+004,-2.97321613662423e+001,-8.45502937225514e-001

1.74110112659224e+004,-2.97321807361745e+001,-8.57301694679843e-001

1.76540599258131e+004,-2.97322006489021e+001,-8.69264986423911e-001

1.79005014185594e+004,-2.97322211195849e+001,-8.81395102087371e-001

1.81503831063432e+004,-2.97322421638033e+001,-8.93694362961012e-001

1.84037530124975e+004,-2.97322637975693e+001,-9.06165122425098e-001

1.86606598307361e+004,-2.97322860373391e+001,-9.18809766384916e-001

1.89211529345119e+004,-2.97323089000250e+001,-9.31630713709245e-001

1.91852823865052e+004,-2.97323324030072e+001,-9.44630416679166e-001

1.94530989482457e+004,-2.97323565641475e+001,-9.57811361438115e-001

1.97246540898671e+004,-2.97323814018015e+001,-9.71176068449065e-001

1.99999999999999e+004,-2.97324069348332e+001,-9.84727092957629e-001

2.02791895958005e+004,-2.97324331826274e+001,-9.98467025461712e-001

2.05622765331213e+004,-2.97324601651052e+001,-1.01239849218558e+000

2.08493152168224e+004,-2.97324879027374e+001,-1.02652415556103e+000

2.11403608112276e+004,-2.97325164165603e+001,-1.04084671471297e+000

2.14354692507258e+004,-2.97325457281905e+001,-1.05536890595385e+000

2.17346972505211e+004,-2.97325758598409e+001,-1.07009350328037e+000

2.20381023175322e+004,-2.97326068343364e+001,-1.08502331888046e+000

2.23457427614443e+004,-2.97326386751310e+001,-1.10016120364249e+000

2.26576777059159e+004,-2.97326714063242e+001,-1.11551004767309e+000

2.29739670999406e+004,-2.97327050526789e+001,-1.13107278082188e+000

2.32946717293690e+004,-2.97327396396385e+001,-1.14685237321045e+000

2.36198532285905e+004,-2.97327751933462e+001,-1.16285183576868e+000

2.39495740923785e+004,-2.97328117406630e+001,-1.17907422077734e+000

2.42838976879009e+004,-2.97328493091870e+001,-1.19552262241825e+000

2.46228882668982e+004,-2.97328879272736e+001,-1.21220017732933e+000

2.49666109780322e+004,-2.97329276240552e+001,-1.22911006516765e+000

2.53151318794055e+004,-2.97329684294621e+001,-1.24625550917766e+000

2.56685179512580e+004,-2.97330103742441e+001,-1.26363977676820e+000

2.60268371088386e+004,-2.97330534899918e+001,-1.28126618009328e+000

2.63901582154578e+004,-2.97330978091590e+001,-1.29913807664335e+000

2.67585510957221e+004,-2.97331433650859e+001,-1.31725886983982e+000

2.71320865489533e+004,-2.97331901920225e+001,-1.33563200963818e+000

2.75108363627948e+004,-2.97332383251522e+001,-1.35426099313921e+000

2.78948733270080e+004,-2.97332878006169e+001,-1.37314936520403e+000

2.82842712474618e+004,-2.97333386555421e+001,-1.39230071907931e+000

2.86791049603164e+004,-2.97333909280628e+001,-1.41171869702664e+000

2.90794503464061e+004,-2.97334446573496e+001,-1.43140699096194e+000

2.94853843458219e+004,-2.97334998836363e+001,-1.45136934309965e+000

2.98969849726987e+004,-2.97335566482476e+001,-1.47160954660422e+000

3.03143313302078e+004,-2.97336149936271e+001,-1.49213144625063e+000

3.07375036257601e+004,-2.97336749633669e+001,-1.51293893908963e+000

3.11665831864199e+004,-2.97337366022373e+001,-1.53403597512222e+000

3.16016524745350e+004,-2.97337999562170e+001,-1.55542655798013e+000

3.20427951035848e+004,-2.97338650725248e+001,-1.57711474561338e+000

3.24900958542493e+004,-2.97339319996509e+001,-1.59910465098714e+000

3.29436406907028e+004,-2.97340007873904e+001,-1.62140044278294e+000

3.34035167771346e+004,-2.97340714868761e+001,-1.64400634610936e+000

3.38698124945009e+004,-2.97341441506127e+001,-1.66692664321972e+000

3.43426174575100e+004,-2.97342188325126e+001,-1.69016567423585e+000

3.48220225318448e+004,-2.97342955879303e+001,-1.71372783788106e+000

3.53081198516260e+004,-2.97343744737006e+001,-1.73761759221883e+000

3.58010028371187e+004,-2.97344555481743e+001,-1.76183945540021e+000

3.63007662126863e+004,-2.97345388712580e+001,-1.78639800641777e+000

3.68075060249948e+004,-2.97346245044519e+001,-1.81129788586726e+000

3.73213196614721e+004,-2.97347125108906e+001,-1.83654379671615e+000

3.78423058690237e+004,-2.97348029553832e+001,-1.86214050508021e+000

3.83705647730104e+004,-2.97348959044555e+001,-1.88809284100763e+000

3.89061978964912e+004,-2.97349914263922e+001,-1.91440569926949e+000

3.94493081797342e+004,-2.97350895912801e+001,-1.94108404015838e+000

3.99999999999998e+004,-2.97351904710532e+001,-1.96813289029420e+000

4.05583791916010e+004,-2.97352941395370e+001,-1.99555734343647e+000

4.11245530662425e+004,-2.97354006724954e+001,-2.02336256130651e+000

4.16986304336447e+004,-2.97355101476773e+001,-2.05155377441342e+000

4.22807216224550e+004,-2.97356226448647e+001,-2.08013628288948e+000

4.28709385014515e+004,-2.97357382459219e+001,-2.10911545733281e+000

4.34693945010421e+004,-2.97358570348454e+001,-2.13849673965590e+000

4.40762046350642e+004,-2.97359790978142e+001,-2.16828564394350e+000

4.46914855228886e+004,-2.97361045232425e+001,-2.19848775731429e+000

4.53153554118317e+004,-2.97362334018319e+001,-2.22910874079419e+000

4.59479341998812e+004,-2.97363658266252e+001,-2.26015433019221e+000

4.65893434587380e+004,-2.97365018930615e+001,-2.29163033698712e+000

4.72397064571810e+004,-2.97366416990316e+001,-2.32354264921760e+000

4.78991481847569e+004,-2.97367853449347e+001,-2.35589723238347e+000

4.85677953758016e+004,-2.97369329337364e+001,-2.38870013034954e+000

4.92457765337964e+004,-2.97370845710269e+001,-2.42195746625954e+000

4.99332219560642e+004,-2.97372403650809e+001,-2.45567544345601e+000

5.06302637588109e+004,-2.97374004269179e+001,-2.48986034640610e+000

5.13370359025159e+004,-2.97375648703641e+001,-2.52451854163527e+000

5.20536742176771e+004,-2.97377338121147e+001,-2.55965647866747e+000

5.27803164309155e+004,-2.97379073717972e+001,-2.59528069097170e+000

5.35171021914442e+004,-2.97380856720362e+001,-2.63139779691559e+000

5.42641730979066e+004,-2.97382688385180e+001,-2.66801450072552e+000

5.50216727255895e+004,-2.97384570000576e+001,-2.70513759345354e+000

5.57897466540159e+004,-2.97386502886652e+001,-2.74277395395002e+000

5.65685424949235e+004,-2.97388488396144e+001,-2.78093054984498e+000

5.73582099206328e+004,-2.97390527915112e+001,-2.81961443853329e+000

5.81589006928121e+004,-2.97392622863635e+001,-2.85883276816830e+000

5.89707686916437e+004,-2.97394774696515e+001,-2.89859277866160e+000

5.97939699453972e+004,-2.97396984903993e+001,-2.93890180268922e+000

6.06286626604156e+004,-2.97399255012468e+001,-2.97976726670456e+000

6.14750072515201e+004,-2.97401586585224e+001,-3.02119669195735e+000

6.23331663728396e+004,-2.97403981223168e+001,-3.06319769552058e+000

6.32033049490698e+004,-2.97406440565570e+001,-3.10577799132307e+000

6.40855902071694e+004,-2.97408966290811e+001,-3.14894539118839e+000

6.49801917084985e+004,-2.97411560117140e+001,-3.19270780588244e+000

6.58872813814055e+004,-2.97414223803431e+001,-3.23707324616671e+000

6.68070335542691e+004,-2.97416959149951e+001,-3.28204982385797e+000

6.77396249890018e+004,-2.97419767999126e+001,-3.32764575289713e+000

6.86852349150199e+004,-2.97422652236321e+001,-3.37386935042376e+000

6.96440450636895e+004,-2.97425613790616e+001,-3.42072903785841e+000

7.06162397032520e+004,-2.97428654635585e+001,-3.46823334199411e+000

7.16020056742374e+004,-2.97431776790083e+001,-3.51639089609373e+000

7.26015324253724e+004,-2.97434982319034e+001,-3.56521044099682e+000

7.36150120499896e+004,-2.97438273334216e+001,-3.61470082623535e+000

7.46426393229441e+004,-2.97441651995056e+001,-3.66487101115649e+000

7.56846117380472e+004,-2.97445120509410e+001,-3.71573006605752e+000

7.67411295460207e+004,-2.97448681134365e+001,-3.76728717332691e+000

7.78123957929823e+004,-2.97452336177020e+001,-3.81955162859800e+000

7.88986163594682e+004,-2.97456087995277e+001,-3.87253284191237e+000

7.99999999999995e+004,-2.97459938998626e+001,-3.92624033889347e+000

8.11167583832018e+004,-2.97463891648928e+001,-3.98068376193389e+000

8.22491061324848e+004,-2.97467948461196e+001,-4.03587287139170e+000

8.33972608672892e+004,-2.97472112004366e+001,-4.09181754680306e+000

8.45614432449099e+004,-2.97476384902077e+001,-4.14852778810555e+000

8.57418770029029e+004,-2.97480769833427e+001,-4.20601371687792e+000

8.69387890020841e+004,-2.97485269533738e+001,-4.26428557759394e+000

8.81524092701283e+004,-2.97489886795307e+001,-4.32335373889215e+000

8.93829710457770e+004,-2.97494624468155e+001,-4.38322869486378e+000

9.06307108236633e+004,-2.97499485460761e+001,-4.44392106635804e+000

9.18958683997622e+004,-2.97504472740792e+001,-4.50544160230586e+000

9.31786869174758e+004,-2.97509589335827e+001,-4.56780118106576e+000

9.44794129143618e+004,-2.97514838334064e+001,-4.63101081178929e+000

9.57982963695136e+004,-2.97520222885026e+001,-4.69508163581081e+000

9.71355907516031e+004,-2.97525746200248e+001,-4.76002492806129e+000

9.84915530675926e+004,-2.97531411553962e+001,-4.82585209850691e+000

9.98664439121282e+004,-2.97537222283765e+001,-4.89257469361625e+000

1.01260527517622e+005,-2.97543181791281e+001,-4.96020439785547e+000

1.02674071805032e+005,-2.97549293542806e+001,-5.02875303521422e+000

1.04107348435354e+005,-2.97555561069950e+001,-5.09823257076507e+000

1.05560632861831e+005,-2.97561987970266e+001,-5.16865511225486e+000

1.07034204382888e+005,-2.97568577907864e+001,-5.24003291173480e+000

1.08528346195813e+005,-2.97575334614020e+001,-5.31237836722739e+000

1.10043345451179e+005,-2.97582261887779e+001,-5.38570402443379e+000

1.11579493308032e+005,-2.97589363596540e+001,-5.46002257848467e+000

1.13137084989847e+005,-2.97596643676647e+001,-5.53534687573419e+000

1.14716419841265e+005,-2.97604106133961e+001,-5.61168991560254e+000

1.16317801385624e+005,-2.97611755044436e+001,-5.68906485246790e+000

1.17941537383287e+005,-2.97619594554689e+001,-5.76748499760962e+000

1.19587939890794e+005,-2.97627628882569e+001,-5.84696382120606e+000

1.21257325320831e+005,-2.97635862317727e+001,-5.92751495439052e+000

1.22950014503040e+005,-2.97644299222191e+001,-6.00915219136516e+000

1.24666332745679e+005,-2.97652944030940e+001,-6.09188949157912e+000

1.26406609898139e+005,-2.97661801252502e+001,-6.17574098197001e+000

1.28171180414339e+005,-2.97670875469544e+001,-6.26072095927393e+000

1.29960383416997e+005,-2.97680171339497e+001,-6.34684389240603e+000

1.31774562762811e+005,-2.97689693595186e+001,-6.43412442491360e+000

1.33614067108538e+005,-2.97699447045490e+001,-6.52257737750596e+000

1.35479249978003e+005,-2.97709436576035e+001,-6.61221775066097e+000

1.37370469830040e+005,-2.97719667149911e+001,-6.70306072731486e+000

1.39288090127379e+005,-2.97730143808436e+001,-6.79512167563390e+000

1.41232479406504e+005,-2.97740871671956e+001,-6.88841615187353e+000

1.43204011348474e+005,-2.97751855940710e+001,-6.98295990332441e+000

1.45203064850745e+005,-2.97763101895731e+001,-7.07876887135104e+000

1.47230024099979e+005,-2.97774614899835e+001,-7.17585919452185e+000

1.49285278645888e+005,-2.97786400398664e+001,-7.27424721183457e+000

1.51369223476094e+005,-2.97798463921815e+001,-7.37394946603896e+000

1.53482259092041e+005,-2.97810811084055e+001,-7.47498270705682e+000

1.55624791585964e+005,-2.97823447586637e+001,-7.57736389550284e+000

1.57797232718936e+005,-2.97836379218715e+001,-7.68111020630505e+000

1.59999999999999e+005,-2.97849611858872e+001,-7.78623903242870e+000

1.62233516766403e+005,-2.97863151476783e+001,-7.89276798870060e+000

1.64498212264969e+005,-2.97877004134999e+001,-8.00071491573829e+000

1.66794521734578e+005,-2.97891175990883e+001,-8.11009788398074e+000

1.69122886489819e+005,-2.97905673298703e+001,-8.22093519782138e+000

1.71483754005805e+005,-2.97920502411885e+001,-8.33324539984249e+000

1.73877578004168e+005,-2.97935669785449e+001,-8.44704727515168e+000

1.76304818540256e+005,-2.97951181978633e+001,-8.56235985581489e+000

1.78765942091554e+005,-2.97967045657716e+001,-8.67920242538756e+000

1.81261421647326e+005,-2.97983267599057e+001,-8.79759452353994e+000

1.83791736799524e+005,-2.97999854692357e+001,-8.91755595077356e+000

1.86357373834951e+005,-2.98016813944161e+001,-9.03910677322507e+000

1.88958825828723e+005,-2.98034152481600e+001,-9.16226732755484e+000

1.91596592739027e+005,-2.98051877556411e+001,-9.28705822591416e+000

1.94271181503206e+005,-2.98069996549210e+001,-9.41350036098679e+000

1.96983106135185e+005,-2.98088516974071e+001,-9.54161491109849e+000

1.99732887824256e+005,-2.98107446483383e+001,-9.67142334539088e+000

2.02521055035243e+005,-2.98126792873030e+001,-9.80294742904803e+000

2.05348143610063e+005,-2.98146564087880e+001,-9.93620922857387e+000

2.08214696870707e+005,-2.98166768227616e+001,-1.00712311171090e+001

2.11121265723661e+005,-2.98187413552895e+001,-1.02080357797792e+001

2.14068408765776e+005,-2.98208508491866e+001,-1.03466462190686e+001

2.17056692391625e+005,-2.98230061647048e+001,-1.04870857602041e+001

2.20086690902357e+005,-2.98252081802572e+001,-1.06293780565460e+001

2.23158986616063e+005,-2.98274577931807e+001,-1.07735470949696e+001

2.26274169979693e+005,-2.98297559205362e+001,-1.09196172012310e+001

2.29432839682530e+005,-2.98321034999484e+001,-1.10676130453019e+001

2.32635602771247e+005,-2.98345014904855e+001,-1.12175596466649e+001

2.35883074766574e+005,-2.98369508735782e+001,-1.13694823795546e+001

2.39175879781588e+005,-2.98394526539799e+001,-1.15234069781341e+001

2.42514650641661e+005,-2.98420078607677e+001,-1.16793595415915e+001

2.45900029006080e+005,-2.98446175483839e+001,-1.18373665391471e+001

2.49332665491357e+005,-2.98472827977189e+001,-1.19974548149539e+001

2.52813219796278e+005,-2.98500047172351e+001,-1.21596515928799e+001

2.56342360828676e+005,-2.98527844441319e+001,-1.23239844811603e+001

2.59920766833993e+005,-2.98556231455508e+001,-1.24904814769024e+001

2.63549125525621e+005,-2.98585220198212e+001,-1.26591709704322e+001

2.67228134217075e+005,-2.98614822977462e+001,-1.28300817494687e+001

2.70958499956006e+005,-2.98645052439269e+001,-1.30032430031102e+001

2.74740939660078e+005,-2.98675921581261e+001,-1.31786843256236e+001

2.78576180254757e+005,-2.98707443766688e+001,-1.33564357200189e+001

2.82464958813007e+005,-2.98739632738803e+001,-1.35365276013980e+001

2.86408022696948e+005,-2.98772502635597e+001,-1.37189908000661e+001

2.90406129701488e+005,-2.98806068004876e+001,-1.39038565643912e+001

2.94460048199957e+005,-2.98840343819685e+001,-1.40911565634013e+001

2.98570557291775e+005,-2.98875345494039e+001,-1.42809228891064e+001

3.02738446952187e+005,-2.98911088898970e+001,-1.44731880585367e+001

3.06964518184081e+005,-2.98947590378863e+001,-1.46679850154823e+001

3.11249583171928e+005,-2.98984866768076e+001,-1.48653471319279e+001

3.15594465437872e+005,-2.99022935407806e+001,-1.50653082091719e+001

3.19999999999997e+005,-2.99061814163222e+001,-1.52679024786188e+001

3.24467033532806e+005,-2.99101521440801e+001,-1.54731646022395e+001

3.28996424529938e+005,-2.99142076205894e+001,-1.56811296726897e+001

3.33589043469155e+005,-2.99183498000475e+001,-1.58918332130792e+001

3.38245772979638e+005,-2.99225806961056e+001,-1.61053111763853e+001

3.42967508011610e+005,-2.99269023836777e+001,-1.63215999445053e+001

3.47755156008335e+005,-2.99313170007612e+001,-1.65407363269403e+001

3.52609637080511e+005,-2.99358267502703e+001,-1.67627575591070e+001

3.57531884183106e+005,-2.99404339018791e+001,-1.69877013002722e+001

3.62522843294651e+005,-2.99451407938728e+001,-1.72156056311060e+001

3.67583473599047e+005,-2.99499498350047e+001,-1.74465090508493e+001

3.72714747669902e+005,-2.99548635063578e+001,-1.76804504740949e+001

3.77917651657445e+005,-2.99598843632087e+001,-1.79174692271751e+001

3.83193185478053e+005,-2.99650150368920e+001,-1.81576050441590e+001

3.88542363006410e+005,-2.99702582366637e+001,-1.84008980624519e+001

3.93966212270369e+005,-2.99756167515617e+001,-1.86473888179993e+001

3.99465775648511e+005,-2.99810934522614e+001,-1.88971182400909e+001

4.05042110070485e+005,-2.99866912929250e+001,-1.91501276457662e+001

4.10696287220124e+005,-2.99924133130425e+001,-1.94064587338174e+001

4.16429393741414e+005,-2.99982626392632e+001,-1.96661535783913e+001

4.22242531447321e+005,-3.00042424872157e+001,-1.99292546221875e+001

4.28136817531551e+005,-3.00103561633147e+001,-2.01958046692533e+001

4.34113384783250e+005,-3.00166070665533e+001,-2.04658468773727e+001

4.40173381804713e+005,-3.00229986902789e+001,-2.07394247500507e+001

4.46317973232124e+005,-3.00295346239515e+001,-2.10165821280902e+001

4.52548339959385e+005,-3.00362185548820e+001,-2.12973631807616e+001

4.58865679365059e+005,-3.00430542699505e+001,-2.15818123965620e+001

4.65271205542494e+005,-3.00500456573005e+001,-2.18699745735665e+001

4.71766149533147e+005,-3.00571967080107e+001,-2.21618948093654e+001

4.78351759563174e+005,-3.00645115177388e+001,-2.24576184905889e+001

4.85029301283321e+005,-3.00719942883399e+001,-2.27571912820173e+001

4.91800058012158e+005,-3.00796493294533e+001,-2.30606591152728e+001

4.98665330982714e+005,-3.00874810600606e+001,-2.33680681770934e+001

5.05626439592555e+005,-3.00954940100090e+001,-2.36794648971841e+001

5.12684721657352e+005,-3.01036928215003e+001,-2.39948959356457e+001

5.19841533667984e+005,-3.01120822505441e+001,-2.43144081699760e+001

5.27098251051240e+005,-3.01206671683705e+001,-2.46380486816439e+001

5.34456268434150e+005,-3.01294525628033e+001,-2.49658647422309e+001

5.41916999912011e+005,-3.01384435395886e+001,-2.52979037991396e+001

