Freq.,VOut,OutRef

1.00000000000000e+004,-2.17220935495589e+001,-3.53787757666518e-002

1.01395947979003e+004,-2.17220939355339e+001,-3.58725665559103e-002

1.02811382665607e+004,-2.17220943323384e+001,-3.63732470792817e-002

1.04246576084112e+004,-2.17220947402757e+001,-3.68809133720354e-002

1.05701804056138e+004,-2.17220951596580e+001,-3.73956628018411e-002

1.07177346253629e+004,-2.17220955908046e+001,-3.79175940984760e-002

1.08673486252606e+004,-2.17220960340460e+001,-3.84468073503340e-002

1.10190511587661e+004,-2.17220964897198e+001,-3.89834040485532e-002

1.11728713807222e+004,-2.17220969581743e+001,-3.95274870869391e-002

1.13288388529580e+004,-2.17220974397669e+001,-4.00791607906337e-002

1.14869835499703e+004,-2.17220979348654e+001,-4.06385309309754e-002

1.16473358646846e+004,-2.17220984438474e+001,-4.12057047516744e-002

1.18099266142953e+004,-2.17220989671014e+001,-4.17807909820445e-002

1.19747870461893e+004,-2.17220995050263e+001,-4.23638998625883e-002

1.21419488439505e+004,-2.17221000580324e+001,-4.29551431617844e-002

1.23114441334492e+004,-2.17221006265413e+001,-4.35546342012751e-002

1.24833054890161e+004,-2.17221012109861e+001,-4.41624878744522e-002

1.26575659397028e+004,-2.17221018118123e+001,-4.47788206658401e-002

1.28342589756290e+004,-2.17221024294779e+001,-4.54037506764285e-002

1.30134185544193e+004,-2.17221030644528e+001,-4.60373976479727e-002

1.31950791077289e+004,-2.17221037172211e+001,-4.66798829766012e-002

1.33792755478611e+004,-2.17221043882795e+001,-4.73313297449649e-002

1.35660432744767e+004,-2.17221050781382e+001,-4.79918627430998e-002

1.37554181813974e+004,-2.17221057873228e+001,-4.86616084831800e-002

1.39474366635040e+004,-2.17221065163721e+001,-4.93406952377220e-002

1.41421356237309e+004,-2.17221072658407e+001,-5.00292530496651e-002

1.43395524801583e+004,-2.17221080362981e+001,-5.07274137657779e-002

1.45397251732031e+004,-2.17221088283302e+001,-5.14353110550959e-002

1.47426921729110e+004,-2.17221096425379e+001,-5.21530804424068e-002

1.49484924863494e+004,-2.17221104795402e+001,-5.28808593193585e-002

1.51571656651040e+004,-2.17221113399721e+001,-5.36187869836640e-002

1.53687518128801e+004,-2.17221122244865e+001,-5.43670046597337e-002

1.55832915932100e+004,-2.17221131337546e+001,-5.51256555204468e-002

1.58008262372675e+004,-2.17221140684658e+001,-5.58948847213509e-002

1.60213975517924e+004,-2.17221150293281e+001,-5.66748394243538e-002

1.62450479271247e+004,-2.17221160170701e+001,-5.74656688190909e-002

1.64718203453514e+004,-2.17221170324399e+001,-5.82675241591274e-002

1.67017583885674e+004,-2.17221180762056e+001,-5.90805587892094e-002

1.69349062472505e+004,-2.17221191491576e+001,-5.99049281632142e-002

1.71713087287550e+004,-2.17221202521073e+001,-6.07407898864870e-002

1.74110112659224e+004,-2.17221213858882e+001,-6.15883037362086e-002

1.76540599258131e+004,-2.17221225513576e+001,-6.24476316900732e-002

1.79005014185594e+004,-2.17221237493955e+001,-6.33189379620150e-002

1.81503831063432e+004,-2.17221249809065e+001,-6.42023890259616e-002

1.84037530124975e+004,-2.17221262468192e+001,-6.50981536531837e-002

1.86606598307361e+004,-2.17221275480892e+001,-6.60064029311741e-002

1.89211529345119e+004,-2.17221288856970e+001,-6.69273103087406e-002

1.91852823865052e+004,-2.17221302606499e+001,-6.78610516201064e-002

1.94530989482457e+004,-2.17221316739834e+001,-6.88078051146079e-002

1.97246540898671e+004,-2.17221331267610e+001,-6.97677514944811e-002

1.99999999999999e+004,-2.17221346200749e+001,-7.07410739458118e-002

2.02791895958005e+004,-2.17221361550474e+001,-7.17279581696864e-002

2.05622765331213e+004,-2.17221377328316e+001,-7.27285924137123e-002

2.08493152168224e+004,-2.17221393546115e+001,-7.37431675140586e-002

2.11403608112276e+004,-2.17221410216035e+001,-7.47718769214024e-002

2.14354692507258e+004,-2.17221427350569e+001,-7.58149167407496e-002

2.17346972505211e+004,-2.17221444962552e+001,-7.68724857613251e-002

2.20381023175322e+004,-2.17221463065167e+001,-7.79447854959367e-002

2.23457427614443e+004,-2.17221481671948e+001,-7.90320202185853e-002

2.26576777059159e+004,-2.17221500796801e+001,-8.01343969957122e-002

2.29739670999406e+004,-2.17221520454009e+001,-8.12521257235698e-002

2.32946717293690e+004,-2.17221540658232e+001,-8.23854191723181e-002

2.36198532285905e+004,-2.17221561424537e+001,-8.35344930112923e-002

2.39495740923785e+004,-2.17221582768386e+001,-8.46995658593706e-002

2.42838976879009e+004,-2.17221604705662e+001,-8.58808593158534e-002

2.46228882668982e+004,-2.17221627252675e+001,-8.70785980003863e-002

2.49666109780322e+004,-2.17221650426171e+001,-8.82930095939495e-002

2.53151318794055e+004,-2.17221674243345e+001,-8.95243248770501e-002

2.56685179512580e+004,-2.17221698721849e+001,-9.07727777721657e-002

2.60268371088386e+004,-2.17221723879815e+001,-9.20386053776708e-002

2.63901582154578e+004,-2.17221749735848e+001,-9.33220480188546e-002

2.67585510957221e+004,-2.17221776309052e+001,-9.46233492827496e-002

2.71320865489533e+004,-2.17221803619045e+001,-9.59427560571419e-002

2.75108363627948e+004,-2.17221831685957e+001,-9.72805185825360e-002

2.78948733270080e+004,-2.17221860530458e+001,-9.86368904837635e-002

2.82842712474618e+004,-2.17221890173758e+001,-1.00012128823501e-001

2.86791049603164e+004,-2.17221920637637e+001,-1.01406494135814e-001

2.90794503464061e+004,-2.17221951944437e+001,-1.02820250480635e-001

2.94853843458219e+004,-2.17221984117098e+001,-1.04253665477618e-001

2.98969849726987e+004,-2.17222017179156e+001,-1.05707010359694e-001

3.03143313302078e+004,-2.17222051154767e+001,-1.07180560012946e-001

3.07375036257601e+004,-2.17222086068717e+001,-1.08674593024195e-001

3.11665831864199e+004,-2.17222121946439e+001,-1.10189391729841e-001

3.16016524745350e+004,-2.17222158814028e+001,-1.11725242256818e-001

3.20427951035848e+004,-2.17222196698260e+001,-1.13282434573404e-001

3.24900958542493e+004,-2.17222235626601e+001,-1.14861262536807e-001

3.29436406907028e+004,-2.17222275627228e+001,-1.16462023941006e-001

3.34035167771346e+004,-2.17222316729044e+001,-1.18085020563448e-001

3.38698124945009e+004,-2.17222358961699e+001,-1.19730558214427e-001

3.43426174575100e+004,-2.17222402355598e+001,-1.21398946788623e-001

3.48220225318448e+004,-2.17222446941932e+001,-1.23090500309798e-001

3.53081198516260e+004,-2.17222492752679e+001,-1.24805536987002e-001

3.58010028371187e+004,-2.17222539820636e+001,-1.26544379260373e-001

3.63007662126863e+004,-2.17222588179431e+001,-1.28307353853687e-001

3.68075060249948e+004,-2.17222637863543e+001,-1.30094791825029e-001

3.73213196614721e+004,-2.17222688908317e+001,-1.31907028620110e-001

3.78423058690237e+004,-2.17222741349987e+001,-1.33744404123949e-001

3.83705647730104e+004,-2.17222795225698e+001,-1.35607262709753e-001

3.89061978964912e+004,-2.17222850573516e+001,-1.37495953297796e-001

3.94493081797342e+004,-2.17222907432457e+001,-1.39410829404489e-001

3.99999999999998e+004,-2.17222965842504e+001,-1.41352249195771e-001

4.05583791916010e+004,-2.17223025844622e+001,-1.43320575545476e-001

4.11245530662425e+004,-2.17223087480787e+001,-1.45316176084334e-001

4.16986304336447e+004,-2.17223150794001e+001,-1.47339423258228e-001

4.22807216224550e+004,-2.17223215828313e+001,-1.49390694382007e-001

4.28709385014515e+004,-2.17223282628842e+001,-1.51470371695670e-001

4.34693945010421e+004,-2.17223351241792e+001,-1.53578842421079e-001

4.40762046350642e+004,-2.17223421714486e+001,-1.55716498813067e-001

4.46914855228886e+004,-2.17223494095370e+001,-1.57883738224461e-001

4.53153554118317e+004,-2.17223568434050e+001,-1.60080963154583e-001

4.59479341998812e+004,-2.17223644781303e+001,-1.62308581311391e-001

4.65893434587380e+004,-2.17223723189101e+001,-1.64567005668352e-001

4.72397064571810e+004,-2.17223803710634e+001,-1.66856654520206e-001

4.78991481847569e+004,-2.17223886400330e+001,-1.69177951543921e-001

4.85677953758016e+004,-2.17223971313878e+001,-1.71531325852755e-001

4.92457765337964e+004,-2.17224058508245e+001,-1.73917212060972e-001

4.99332219560642e+004,-2.17224148041703e+001,-1.76336050335165e-001

5.06302637588109e+004,-2.17224239973844e+001,-1.78788286462490e-001

5.13370359025159e+004,-2.17224334365604e+001,-1.81274371901215e-001

5.20536742176771e+004,-2.17224431279282e+001,-1.83794763847169e-001

5.27803164309155e+004,-2.17224530778563e+001,-1.86349925290105e-001

5.35171021914442e+004,-2.17224632928534e+001,-1.88940325075009e-001

5.42641730979066e+004,-2.17224737795707e+001,-1.91566437961958e-001

5.50216727255895e+004,-2.17224845448034e+001,-1.94228744687770e-001

5.57897466540159e+004,-2.17224955954930e+001,-1.96927732026120e-001

5.65685424949235e+004,-2.17225069387287e+001,-1.99663892850784e-001

5.73582099206328e+004,-2.17225185817494e+001,-2.02437726192765e-001

5.81589006928121e+004,-2.17225305319455e+001,-2.05249737305063e-001

5.89707686916437e+004,-2.17225427968600e+001,-2.08100437725951e-001

5.97939699453972e+004,-2.17225553841906e+001,-2.10990345336243e-001

6.06286626604156e+004,-2.17225683017908e+001,-2.13919984425717e-001

6.14750072515201e+004,-2.17225815576712e+001,-2.16889885754115e-001

6.23331663728396e+004,-2.17225951600009e+001,-2.19900586613949e-001

6.32033049490698e+004,-2.17226091171088e+001,-2.22952630892563e-001

6.40855902071694e+004,-2.17226234374840e+001,-2.26046569138621e-001

6.49801917084985e+004,-2.17226381297776e+001,-2.29182958620350e-001

6.58872813814055e+004,-2.17226532028025e+001,-2.32362363393595e-001

6.68070335542691e+004,-2.17226686655345e+001,-2.35585354365676e-001

6.77396249890018e+004,-2.17226845271125e+001,-2.38852509357300e-001

6.86852349150199e+004,-2.17227007968392e+001,-2.42164413167660e-001

6.96440450636895e+004,-2.17227174841806e+001,-2.45521657642351e-001

7.06162397032520e+004,-2.17227345987666e+001,-2.48924841732903e-001

7.16020056742374e+004,-2.17227521503896e+001,-2.52374571570887e-001

7.26015324253724e+004,-2.17227701490051e+001,-2.55871460526109e-001

7.36150120499896e+004,-2.17227886047303e+001,-2.59416129277117e-001

7.46426393229441e+004,-2.17228075278431e+001,-2.63009205878855e-001

7.56846117380472e+004,-2.17228269287815e+001,-2.66651325826749e-001

7.67411295460207e+004,-2.17228468181410e+001,-2.70343132129899e-001

7.78123957929823e+004,-2.17228672066736e+001,-2.74085275376390e-001

7.88986163594682e+004,-2.17228881052853e+001,-2.77878413804087e-001

7.99999999999995e+004,-2.17229095250342e+001,-2.81723213370394e-001

8.11167583832018e+004,-2.17229314771269e+001,-2.85620347825148e-001

8.22491061324848e+004,-2.17229539729162e+001,-2.89570498780602e-001

8.33972608672892e+004,-2.17229770238973e+001,-2.93574355784577e-001

8.45614432449099e+004,-2.17230006417037e+001,-2.97632616398009e-001

8.57418770029029e+004,-2.17230248381038e+001,-3.01745986265474e-001

8.69387890020841e+004,-2.17230496249955e+001,-3.05915179195888e-001

8.81524092701283e+004,-2.17230750144012e+001,-3.10140917238814e-001

8.93829710457770e+004,-2.17231010184631e+001,-3.14423930762404e-001

9.06307108236633e+004,-2.17231276494365e+001,-3.18764958537794e-001

9.18958683997622e+004,-2.17231549196835e+001,-3.23164747820328e-001

9.31786869174758e+004,-2.17231828416664e+001,-3.27624054434497e-001

9.44794129143618e+004,-2.17232114279401e+001,-3.32143642861667e-001

9.57982963695136e+004,-2.17232406911444e+001,-3.36724286327081e-001

9.71355907516031e+004,-2.17232706439955e+001,-3.41366766893344e-001

9.84915530675926e+004,-2.17233012992767e+001,-3.46071875556093e-001

9.98664439121282e+004,-2.17233326698295e+001,-3.50840412336151e-001

1.01260527517622e+005,-2.17233647685430e+001,-3.55673186383300e-001

1.02674071805032e+005,-2.17233976083434e+001,-3.60571016078725e-001

1.04107348435354e+005,-2.17234312021825e+001,-3.65534729141332e-001

1.05560632861831e+005,-2.17234655630267e+001,-3.70565162734300e-001

1.07034204382888e+005,-2.17235007038429e+001,-3.75663163587006e-001

1.08528346195813e+005,-2.17235366375870e+001,-3.80829588104775e-001

1.10043345451179e+005,-2.17235733771893e+001,-3.86065302495655e-001

1.11579493308032e+005,-2.17236109355401e+001,-3.91371182897968e-001

1.13137084989847e+005,-2.17236493254752e+001,-3.96748115509334e-001

1.14716419841265e+005,-2.17236885597597e+001,-4.02196996727878e-001

1.16317801385624e+005,-2.17237286510720e+001,-4.07718733291530e-001

1.17941537383287e+005,-2.17237696119866e+001,-4.13314242430483e-001

1.19587939890794e+005,-2.17238114549571e+001,-4.18984452017539e-001

1.21257325320831e+005,-2.17238541922973e+001,-4.24730300734676e-001

1.22950014503040e+005,-2.17238978361628e+001,-4.30552738237846e-001

1.24666332745679e+005,-2.17239423985314e+001,-4.36452725333077e-001

1.26406609898139e+005,-2.17239878911835e+001,-4.42431234159889e-001

1.28171180414339e+005,-2.17240343256807e+001,-4.48489248383675e-001

1.29960383416997e+005,-2.17240817133455e+001,-4.54627763392536e-001

1.31774562762811e+005,-2.17241300652392e+001,-4.60847786505902e-001

1.33614067108538e+005,-2.17241793921397e+001,-4.67150337192868e-001

1.35479249978003e+005,-2.17242297045191e+001,-4.73536447296001e-001

1.37370469830040e+005,-2.17242810125204e+001,-4.80007161268946e-001

1.39288090127379e+005,-2.17243333259341e+001,-4.86563536422864e-001

1.41232479406504e+005,-2.17243866541742e+001,-4.93206643180755e-001

1.43204011348474e+005,-2.17244410062546e+001,-4.99937565346691e-001

1.45203064850745e+005,-2.17244963907637e+001,-5.06757400384076e-001

1.47230024099979e+005,-2.17245528158409e+001,-5.13667259704693e-001

1.49285278645888e+005,-2.17246102891508e+001,-5.20668268970796e-001

1.51369223476094e+005,-2.17246688178593e+001,-5.27761568409258e-001

1.53482259092041e+005,-2.17247284086075e+001,-5.34948313138549e-001

1.55624791585964e+005,-2.17247890674883e+001,-5.42229673506334e-001

1.57797232718936e+005,-2.17248508000204e+001,-5.49606835441815e-001

1.59999999999999e+005,-2.17249136111246e+001,-5.57081000822371e-001

1.62233516766403e+005,-2.17249775050990e+001,-5.64653387850285e-001

1.64498212264969e+005,-2.17250424855955e+001,-5.72325231446319e-001

1.66794521734578e+005,-2.17251085555961e+001,-5.80097783655488e-001

1.69122886489819e+005,-2.17251757173903e+001,-5.87972314066257e-001

1.71483754005805e+005,-2.17252439725522e+001,-5.95950110246223e-001

1.73877578004168e+005,-2.17253133219198e+001,-6.04032478187972e-001

1.76304818540256e+005,-2.17253837655737e+001,-6.12220742773505e-001

1.78765942091554e+005,-2.17254553028175e+001,-6.20516248247418e-001

1.81261421647326e+005,-2.17255279321592e+001,-6.28920358710285e-001

1.83791736799524e+005,-2.17256016512932e+001,-6.37434458620936e-001

1.86357373834951e+005,-2.17256764570847e+001,-6.46059953313038e-001

1.88958825828723e+005,-2.17257523455537e+001,-6.54798269529725e-001

1.91596592739027e+005,-2.17258293118625e+001,-6.63650855964665e-001

1.94271181503206e+005,-2.17259073503026e+001,-6.72619183822745e-001

1.96983106135185e+005,-2.17259864542852e+001,-6.81704747388104e-001

1.99732887824256e+005,-2.17260666163324e+001,-6.90909064607631e-001

2.02521055035243e+005,-2.17261478280704e+001,-7.00233677684363e-001

2.05348143610063e+005,-2.17262300802246e+001,-7.09680153685290e-001

2.08214696870707e+005,-2.17263133626172e+001,-7.19250085155219e-001

2.11121265723661e+005,-2.17263976641661e+001,-7.28945090744920e-001

2.14068408765776e+005,-2.17264829728871e+001,-7.38766815847303e-001

2.17056692391625e+005,-2.17265692758973e+001,-7.48716933241888e-001

2.20086690902357e+005,-2.17266565594214e+001,-7.58797143749122e-001

2.23158986616063e+005,-2.17267448088007e+001,-7.69009176889021e-001

2.26274169979693e+005,-2.17268340085038e+001,-7.79354791550154e-001

2.29432839682530e+005,-2.17269241421403e+001,-7.89835776662553e-001

2.32635602771247e+005,-2.17270151924773e+001,-8.00453951873493e-001

2.35883074766574e+005,-2.17271071414576e+001,-8.11211168231979e-001

2.39175879781588e+005,-2.17271999702216e+001,-8.22109308872477e-001

2.42514650641661e+005,-2.17272936591310e+001,-8.33150289700552e-001

2.45900029006080e+005,-2.17273881877952e+001,-8.44336060082670e-001

2.49332665491357e+005,-2.17274835351009e+001,-8.55668603534675e-001

2.52813219796278e+005,-2.17275796792434e+001,-8.67149938407604e-001

2.56342360828676e+005,-2.17276765977612e+001,-8.78782118575587e-001

2.59920766833993e+005,-2.17277742675723e+001,-8.90567234118493e-001

2.63549125525621e+005,-2.17278726650141e+001,-9.02507412000140e-001

2.67228134217075e+005,-2.17279717658841e+001,-9.14604816746338e-001

2.70958499956006e+005,-2.17280715454844e+001,-9.26861651111983e-001

2.74740939660078e+005,-2.17281719786675e+001,-9.39280156746365e-001

2.78576180254757e+005,-2.17282730398843e+001,-9.51862614848623e-001

2.82464958813007e+005,-2.17283747032343e+001,-9.64611346817715e-001

2.86408022696948e+005,-2.17284769425180e+001,-9.77528714891252e-001

2.90406129701488e+005,-2.17285797312898e+001,-9.90617122777683e-001

2.94460048199957e+005,-2.17286830429143e+001,-1.00387901627687e+000

2.98570557291775e+005,-2.17287868506221e+001,-1.01731688389125e+000

3.02738446952187e+005,-2.17288911275689e+001,-1.03093325742597e+000

3.06964518184081e+005,-2.17289958468938e+001,-1.04473071257747e+000

3.11249583171928e+005,-2.17291009817807e+001,-1.05871186951045e+000

3.15594465437872e+005,-2.17292065055180e+001,-1.07287939342531e+000

3.19999999999997e+005,-2.17293123915615e+001,-1.08723599510913e+000

3.24467033532806e+005,-2.17294186135961e+001,-1.10178443147970e+000

3.28996424529938e+005,-2.17295251455984e+001,-1.11652750611312e+000

3.33589043469155e+005,-2.17296319618993e+001,-1.13146806976352e+000

3.38245772979638e+005,-2.17297390372467e+001,-1.14660902086663e+000

3.42967508011610e+005,-2.17298463468680e+001,-1.16195330603639e+000

3.47755156008335e+005,-2.17299538665318e+001,-1.17750392054745e+000

3.52609637080511e+005,-2.17300615726096e+001,-1.19326390880753e+000

3.57531884183106e+005,-2.17301694421367e+001,-1.20923636482016e+000

3.62522843294651e+005,-2.17302774528718e+001,-1.22542443263677e+000

3.67583473599047e+005,-2.17303855833562e+001,-1.24183130680159e+000

3.72714747669902e+005,-2.17304938129711e+001,-1.25846023278597e+000

3.77917651657445e+005,-2.17306021219945e+001,-1.27531450741717e+000

3.83193185478053e+005,-2.17307104916557e+001,-1.29239747930009e+000

3.88542363006410e+005,-2.17308189041893e+001,-1.30971254923164e+000

3.93966212270369e+005,-2.17309273428867e+001,-1.32726317061283e+000

3.99465775648511e+005,-2.17310357921461e+001,-1.34505284985589e+000

4.05042110070485e+005,-2.17311442375211e+001,-1.36308514678823e+000

4.10696287220124e+005,-2.17312526657669e+001,-1.38136367505518e+000

4.16429393741414e+005,-2.17313610648842e+001,-1.39989210252387e+000

4.22242531447321e+005,-2.17314694241624e+001,-1.41867415168415e+000

4.28136817531551e+005,-2.17315777342193e+001,-1.43771360005365e+000

4.34113384783250e+005,-2.17316859870394e+001,-1.45701428058739e+000

4.40173381804713e+005,-2.17317941760100e+001,-1.47658008208649e+000

4.46317973232124e+005,-2.17319022959554e+001,-1.49641494961697e+000

4.52548339959385e+005,-2.17320103431682e+001,-1.51652288493254e+000

4.58865679365059e+005,-2.17321183154396e+001,-1.53690794690494e+000

4.65271205542494e+005,-2.17322262120867e+001,-1.55757425196356e+000

4.71766149533147e+005,-2.17323340339781e+001,-1.57852597454548e+000

4.78351759563174e+005,-2.17324417835578e+001,-1.59976734755302e+000

4.85029301283321e+005,-2.17325494648667e+001,-1.62130266282805e+000

4.91800058012158e+005,-2.17326570835621e+001,-1.64313627163570e+000

4.98665330982714e+005,-2.17327646469362e+001,-1.66527258516218e+000

5.05626439592555e+005,-2.17328721639320e+001,-1.68771607502935e+000

5.12684721657352e+005,-2.17329796451580e+001,-1.71047127382276e+000

5.19841533667984e+005,-2.17330871029010e+001,-1.73354277563785e+000

5.27098251051240e+005,-2.17331945511378e+001,-1.75693523664272e+000

5.34456268434150e+005,-2.17333020055458e+001,-1.78065337565855e+000

5.41916999912011e+005,-2.17334094835111e+001,-1.80470197476106e+000

