Freq.,VOut,OutRef

1.00000000000000e+004,-2.40342160451828e+001,-2.28832878793563e-001

1.01395947979003e+004,-2.40342197083135e+001,-2.32026604990600e-001

1.02811382665607e+004,-2.40342234742476e+001,-2.35264885881036e-001

1.04246576084112e+004,-2.40342273458649e+001,-2.38548342236326e-001

1.05701804056138e+004,-2.40342313261259e+001,-2.41877603442508e-001

1.07177346253629e+004,-2.40342354180730e+001,-2.45253307621280e-001

1.08673486252606e+004,-2.40342396248343e+001,-2.48676101744965e-001

1.10190511587661e+004,-2.40342439496249e+001,-2.52146641760823e-001

1.11728713807222e+004,-2.40342483957490e+001,-2.55665592716382e-001

1.13288388529580e+004,-2.40342529666040e+001,-2.59233628876184e-001

1.14869835499703e+004,-2.40342576656807e+001,-2.62851433858048e-001

1.16473358646846e+004,-2.40342624965682e+001,-2.66519700751164e-001

1.18099266142953e+004,-2.40342674629553e+001,-2.70239132251412e-001

1.19747870461893e+004,-2.40342725686332e+001,-2.74010440792856e-001

1.21419488439505e+004,-2.40342778174992e+001,-2.77834348675736e-001

1.23114441334492e+004,-2.40342832135586e+001,-2.81711588206556e-001

1.24833054890161e+004,-2.40342887609286e+001,-2.85642901830431e-001

1.26575659397028e+004,-2.40342944638406e+001,-2.89629042271054e-001

1.28342589756290e+004,-2.40343003266441e+001,-2.93670772669208e-001

1.30134185544193e+004,-2.40343063538089e+001,-2.97768866727737e-001

1.31950791077289e+004,-2.40343125499297e+001,-3.01924108850628e-001

1.33792755478611e+004,-2.40343189197283e+001,-3.06137294291416e-001

1.35660432744767e+004,-2.40343254680582e+001,-3.10409229297824e-001

1.37554181813974e+004,-2.40343321999075e+001,-3.14740731263461e-001

1.39474366635040e+004,-2.40343391204024e+001,-3.19132628878623e-001

1.41421356237309e+004,-2.40343462348118e+001,-3.23585762279397e-001

1.43395524801583e+004,-2.40343535485508e+001,-3.28100983207097e-001

1.45397251732031e+004,-2.40343610671840e+001,-3.32679155163962e-001

1.47426921729110e+004,-2.40343687964309e+001,-3.37321153569179e-001

1.49484924863494e+004,-2.40343767421693e+001,-3.42027865921877e-001

1.51571656651040e+004,-2.40343849104398e+001,-3.46800191963394e-001

1.53687518128801e+004,-2.40343933074499e+001,-3.51639043844121e-001

1.55832915932100e+004,-2.40344019395793e+001,-3.56545346284815e-001

1.58008262372675e+004,-2.40344108133839e+001,-3.61520036751448e-001

1.60213975517924e+004,-2.40344199356011e+001,-3.66564065621821e-001

1.62450479271247e+004,-2.40344293131541e+001,-3.71678396362289e-001

1.64718203453514e+004,-2.40344389531574e+001,-3.76864005700284e-001

1.67017583885674e+004,-2.40344488629222e+001,-3.82121883800508e-001

1.69349062472505e+004,-2.40344590499612e+001,-3.87453034448618e-001

1.71713087287550e+004,-2.40344695219943e+001,-3.92858475228989e-001

1.74110112659224e+004,-2.40344802869540e+001,-3.98339237710780e-001

1.76540599258131e+004,-2.40344913529916e+001,-4.03896367631779e-001

1.79005014185594e+004,-2.40345027284826e+001,-4.09530925089179e-001

1.81503831063432e+004,-2.40345144220329e+001,-4.15243984728387e-001

1.84037530124975e+004,-2.40345264424853e+001,-4.21036635935345e-001

1.86606598307361e+004,-2.40345387989254e+001,-4.26909983031807e-001

1.89211529345119e+004,-2.40345515006882e+001,-4.32865145475156e-001

1.91852823865052e+004,-2.40345645573652e+001,-4.38903258052656e-001

1.94530989482457e+004,-2.40345779788104e+001,-4.45025471089325e-001

1.97246540898671e+004,-2.40345917751484e+001,-4.51232950646363e-001

1.99999999999999e+004,-2.40346059567807e+001,-4.57526878733233e-001

2.02791895958005e+004,-2.40346205343937e+001,-4.63908453509820e-001

2.05622765331213e+004,-2.40346355189656e+001,-4.70378889505244e-001

2.08493152168224e+004,-2.40346509217750e+001,-4.76939417824246e-001

2.11403608112276e+004,-2.40346667544080e+001,-4.83591286368348e-001

2.14354692507258e+004,-2.40346830287670e+001,-4.90335760052250e-001

2.17346972505211e+004,-2.40346997570786e+001,-4.97174121022467e-001

2.20381023175322e+004,-2.40347169519024e+001,-5.04107668884617e-001

2.23457427614443e+004,-2.40347346261396e+001,-5.11137720925375e-001

2.26576777059159e+004,-2.40347527930420e+001,-5.18265612342150e-001

2.29739670999406e+004,-2.40347714662214e+001,-5.25492696472230e-001

2.32946717293690e+004,-2.40347906596584e+001,-5.32820345027743e-001

2.36198532285905e+004,-2.40348103877129e+001,-5.40249948327316e-001

2.39495740923785e+004,-2.40348306651332e+001,-5.47782915537290e-001

2.42838976879009e+004,-2.40348515070665e+001,-5.55420674909368e-001

2.46228882668982e+004,-2.40348729290690e+001,-5.63164674023505e-001

2.49666109780322e+004,-2.40348949471164e+001,-5.71016380035026e-001

2.53151318794055e+004,-2.40349175776155e+001,-5.78977279917579e-001

2.56685179512580e+004,-2.40349408374138e+001,-5.87048880717478e-001

2.60268371088386e+004,-2.40349647438122e+001,-5.95232709802266e-001

2.63901582154578e+004,-2.40349893145758e+001,-6.03530315117734e-001

2.67585510957221e+004,-2.40350145679462e+001,-6.11943265443074e-001

2.71320865489533e+004,-2.40350405226530e+001,-6.20473150651685e-001

2.75108363627948e+004,-2.40350671979267e+001,-6.29121581972506e-001

2.78948733270080e+004,-2.40350946135112e+001,-6.37890192253371e-001

2.82842712474618e+004,-2.40351227896765e+001,-6.46780636228848e-001

2.86791049603164e+004,-2.40351517472321e+001,-6.55794590787895e-001

2.90794503464061e+004,-2.40351815075408e+001,-6.64933755244918e-001

2.94853843458219e+004,-2.40352120925315e+001,-6.74199851615110e-001

2.98969849726987e+004,-2.40352435247143e+001,-6.83594624886900e-001

3.03143313302078e+004,-2.40352758271945e+001,-6.93119843303094e-001

3.07375036257601e+004,-2.40353090236866e+001,-7.02777298640172e-001

3.11665831864199e+004,-2.40353431385305e+001,-7.12568806489499e-001

3.16016524745350e+004,-2.40353781967055e+001,-7.22496206542490e-001

3.20427951035848e+004,-2.40354142238467e+001,-7.32561362879364e-001

3.24900958542493e+004,-2.40354512462606e+001,-7.42766164254261e-001

3.29436406907028e+004,-2.40354892909410e+001,-7.53112524389883e-001

3.34035167771346e+004,-2.40355283855857e+001,-7.63602382268000e-001

3.38698124945009e+004,-2.40355685586133e+001,-7.74237702426041e-001

3.43426174575100e+004,-2.40356098391803e+001,-7.85020475252740e-001

3.48220225318448e+004,-2.40356522571983e+001,-7.95952717287599e-001

3.53081198516260e+004,-2.40356958433520e+001,-8.07036471521604e-001

3.58010028371187e+004,-2.40357406291168e+001,-8.18273807700564e-001

3.63007662126863e+004,-2.40357866467775e+001,-8.29666822627347e-001

3.68075060249948e+004,-2.40358339294469e+001,-8.41217640469835e-001

3.73213196614721e+004,-2.40358825110842e+001,-8.52928413068194e-001

3.78423058690237e+004,-2.40359324265153e+001,-8.64801320242878e-001

3.83705647730104e+004,-2.40359837114510e+001,-8.76838570107142e-001

3.89061978964912e+004,-2.40360364025080e+001,-8.89042399378698e-001

3.94493081797342e+004,-2.40360905372280e+001,-9.01415073692952e-001

3.99999999999998e+004,-2.40361461540992e+001,-9.13958887917745e-001

4.05583791916010e+004,-2.40362032925760e+001,-9.26676166470449e-001

4.11245530662425e+004,-2.40362619931003e+001,-9.39569263635400e-001

4.16986304336447e+004,-2.40363222971230e+001,-9.52640563881431e-001

4.22807216224550e+004,-2.40363842471249e+001,-9.65892482182164e-001

4.28709385014515e+004,-2.40364478866390e+001,-9.79327464336582e-001

4.34693945010421e+004,-2.40365132602718e+001,-9.92947987290675e-001

4.40762046350642e+004,-2.40365804137262e+001,-1.00675655945766e+000

4.46914855228886e+004,-2.40366493938232e+001,-1.02075572104358e+000

4.53153554118317e+004,-2.40367202485249e+001,-1.03494804436895e+000

4.59479341998812e+004,-2.40367930269572e+001,-1.04933613419275e+000

4.65893434587380e+004,-2.40368677794323e+001,-1.06392262803862e+000

4.72397064571810e+004,-2.40369445574725e+001,-1.07871019651670e+000

4.78991481847569e+004,-2.40370234138327e+001,-1.09370154365090e+000

4.85677953758016e+004,-2.40371044025241e+001,-1.10889940720323e+000

4.92457765337964e+004,-2.40371875788373e+001,-1.12430655899904e+000

4.99332219560642e+004,-2.40372729993660e+001,-1.13992580525223e+000

5.06302637588109e+004,-2.40373607220303e+001,-1.15575998688963e+000

5.13370359025159e+004,-2.40374508061002e+001,-1.17181197987702e+000

5.20536742176771e+004,-2.40375433122190e+001,-1.18808469554258e+000

5.27803164309155e+004,-2.40376383024267e+001,-1.20458108090228e+000

5.35171021914442e+004,-2.40377358401834e+001,-1.22130411898169e+000

5.42641730979066e+004,-2.40378359903924e+001,-1.23825682914062e+000

5.50216727255895e+004,-2.40379388194230e+001,-1.25544226739509e+000

5.57897466540159e+004,-2.40380443951338e+001,-1.27286352673856e+000

5.65685424949235e+004,-2.40381527868948e+001,-1.29052373746393e+000

5.73582099206328e+004,-2.40382640656095e+001,-1.30842606748338e+000

5.81589006928121e+004,-2.40383783037375e+001,-1.32657372264703e+000

5.89707686916437e+004,-2.40384955753158e+001,-1.34496994706145e+000

5.97939699453972e+004,-2.40386159559793e+001,-1.36361802340760e+000

6.06286626604156e+004,-2.40387395229821e+001,-1.38252127325713e+000

6.14750072515201e+004,-2.40388663552173e+001,-1.40168305738645e+000

6.23331663728396e+004,-2.40389965332364e+001,-1.42110677609292e+000

6.32033049490698e+004,-2.40391301392681e+001,-1.44079586950598e+000

6.40855902071694e+004,-2.40392672572363e+001,-1.46075381790185e+000

6.49801917084985e+004,-2.40394079727773e+001,-1.48098414201177e+000

6.58872813814055e+004,-2.40395523732561e+001,-1.50149040333554e+000

6.68070335542691e+004,-2.40397005477817e+001,-1.52227620444795e+000

6.77396249890018e+004,-2.40398525872216e+001,-1.54334518931013e+000

6.86852349150199e+004,-2.40400085842149e+001,-1.56470104357508e+000

6.96440450636895e+004,-2.40401686331839e+001,-1.58634749489806e+000

7.06162397032520e+004,-2.40403328303457e+001,-1.60828831324067e+000

7.16020056742374e+004,-2.40405012737207e+001,-1.63052731117946e+000

7.26015324253724e+004,-2.40406740631406e+001,-1.65306834421344e+000

7.36150120499896e+004,-2.40408513002552e+001,-1.67591531106967e+000

7.46426393229441e+004,-2.40410330885362e+001,-1.69907215401251e+000

7.56846117380472e+004,-2.40412195332809e+001,-1.72254285915130e+000

7.67411295460207e+004,-2.40414107416125e+001,-1.74633145675060e+000

7.78123957929823e+004,-2.40416068224791e+001,-1.77044202154215e+000

7.88986163594682e+004,-2.40418078866513e+001,-1.79487867303718e+000

7.99999999999995e+004,-2.40420140467161e+001,-1.81964557584357e+000

8.11167583832018e+004,-2.40422254170696e+001,-1.84474693998424e+000

8.22491061324848e+004,-2.40424421139071e+001,-1.87018702121986e+000

8.33972608672892e+004,-2.40426642552102e+001,-1.89597012137530e+000

8.45614432449099e+004,-2.40428919607319e+001,-1.92210058867231e+000

8.57418770029029e+004,-2.40431253519781e+001,-1.94858281806577e+000

8.69387890020841e+004,-2.40433645521873e+001,-1.97542125158723e+000

8.81524092701283e+004,-2.40436096863061e+001,-2.00262037869731e+000

8.93829710457770e+004,-2.40438608809622e+001,-2.03018473664330e+000

9.06307108236633e+004,-2.40441182644346e+001,-2.05811891082816e+000

9.18958683997622e+004,-2.40443819666191e+001,-2.08642753518866e+000

9.31786869174758e+004,-2.40446521189916e+001,-2.11511529258494e+000

9.44794129143618e+004,-2.40449288545674e+001,-2.14418691520374e+000

9.57982963695136e+004,-2.40452123078562e+001,-2.17364718497356e+000

9.71355907516031e+004,-2.40455026148145e+001,-2.20350093399537e+000

9.84915530675926e+004,-2.40457999127927e+001,-2.23375304499179e+000

9.98664439121282e+004,-2.40461043404793e+001,-2.26440845177218e+000

1.01260527517622e+005,-2.40464160378406e+001,-2.29547213971772e+000

1.02674071805032e+005,-2.40467351460560e+001,-2.32694914628862e+000

1.04107348435354e+005,-2.40470618074493e+001,-2.35884456155370e+000

1.05560632861831e+005,-2.40473961654156e+001,-2.39116352874571e+000

1.07034204382888e+005,-2.40477383643444e+001,-2.42391124484211e+000

1.08528346195813e+005,-2.40480885495367e+001,-2.45709296117666e+000

1.10043345451179e+005,-2.40484468671197e+001,-2.49071398407985e+000

1.11579493308032e+005,-2.40488134639553e+001,-2.52477967555390e+000

1.13137084989847e+005,-2.40491884875453e+001,-2.55929545398326e+000

1.14716419841265e+005,-2.40495720859315e+001,-2.59426679488119e+000

1.16317801385624e+005,-2.40499644075914e+001,-2.62969923167883e+000

1.17941537383287e+005,-2.40503656013298e+001,-2.66559835655494e+000

1.19587939890794e+005,-2.40507758161659e+001,-2.70196982131242e+000

1.21257325320831e+005,-2.40511952012157e+001,-2.73881933830099e+000

1.22950014503040e+005,-2.40516239055715e+001,-2.77615268139156e+000

1.24666332745679e+005,-2.40520620781757e+001,-2.81397568700455e+000

1.26406609898139e+005,-2.40525098676922e+001,-2.85229425519135e+000

1.28171180414339e+005,-2.40529674223731e+001,-2.89111435077840e+000

1.29960383416997e+005,-2.40534348899226e+001,-2.93044200457047e+000

1.31774562762811e+005,-2.40539124173573e+001,-2.97028331461802e+000

1.33614067108538e+005,-2.40544001508633e+001,-3.01064444755582e+000

1.35479249978003e+005,-2.40548982356512e+001,-3.05153164000681e+000

1.37370469830040e+005,-2.40554068158082e+001,-3.09295120006292e+000

1.39288090127379e+005,-2.40559260341484e+001,-3.13490950884094e+000

1.41232479406504e+005,-2.40564560320613e+001,-3.17741302211649e+000

1.43204011348474e+005,-2.40569969493595e+001,-3.22046827204023e+000

1.45203064850745e+005,-2.40575489241249e+001,-3.26408186893962e+000

1.47230024099979e+005,-2.40581120925552e+001,-3.30826050320506e+000

1.49285278645888e+005,-2.40586865888107e+001,-3.35301094726773e+000

1.51369223476094e+005,-2.40592725448613e+001,-3.39834005766829e+000

1.53482259092041e+005,-2.40598700903354e+001,-3.44425477722026e+000

1.55624791585964e+005,-2.40604793523709e+001,-3.49076213726848e+000

1.57797232718936e+005,-2.40611004554682e+001,-3.53786926004691e+000

1.59999999999999e+005,-2.40617335213476e+001,-3.58558336113605e+000

1.62233516766403e+005,-2.40623786688094e+001,-3.63391175202108e+000

1.64498212264969e+005,-2.40630360136005e+001,-3.68286184275343e+000

1.66794521734578e+005,-2.40637056682851e+001,-3.73244114471571e+000

1.69122886489819e+005,-2.40643877421227e+001,-3.78265727349040e+000

1.71483754005805e+005,-2.40650823409534e+001,-3.83351795183565e+000

1.73877578004168e+005,-2.40657895670904e+001,-3.88503101276325e+000

1.76304818540256e+005,-2.40665095192230e+001,-3.93720440272415e+000

1.78765942091554e+005,-2.40672422923282e+001,-3.99004618489592e+000

1.81261421647326e+005,-2.40679879775934e+001,-4.04356454257675e+000

1.83791736799524e+005,-2.40687466623512e+001,-4.09776778267872e+000

1.86357373834951e+005,-2.40695184300270e+001,-4.15266433932333e+000

1.88958825828723e+005,-2.40703033600988e+001,-4.20826277753663e+000

1.91596592739027e+005,-2.40711015280736e+001,-4.26457179703772e+000

1.94271181503206e+005,-2.40719130054771e+001,-4.32160023612356e+000

1.96983106135185e+005,-2.40727378598613e+001,-4.37935707564243e+000

1.99732887824256e+005,-2.40735761548288e+001,-4.43785144305280e+000

2.02521055035243e+005,-2.40744279500745e+001,-4.49709261656727e+000

2.05348143610063e+005,-2.40752933014474e+001,-4.55709002937070e+000

2.08214696870707e+005,-2.40761722610314e+001,-4.61785327391452e+000

2.11121265723661e+005,-2.40770648772463e+001,-4.67939210627568e+000

2.14068408765776e+005,-2.40779711949716e+001,-4.74171645057824e+000

2.17056692391625e+005,-2.40788912556901e+001,-4.80483640347044e+000

2.20086690902357e+005,-2.40798250976557e+001,-4.86876223865041e+000

2.23158986616063e+005,-2.40807727560837e+001,-4.93350441143394e+000

2.26274169979693e+005,-2.40817342633648e+001,-4.99907356335634e+000

2.29432839682530e+005,-2.40827096493037e+001,-5.06548052680299e+000

2.32635602771247e+005,-2.40836989413810e+001,-5.13273632965787e+000

2.35883074766574e+005,-2.40847021650418e+001,-5.20085219996386e+000

2.39175879781588e+005,-2.40857193440072e+001,-5.26983957058744e+000

2.42514650641661e+005,-2.40867505006127e+001,-5.33971008387693e+000

2.45900029006080e+005,-2.40877956561712e+001,-5.41047559630744e+000

2.49332665491357e+005,-2.40888548313609e+001,-5.48214818310380e+000

2.52813219796278e+005,-2.40899280466383e+001,-5.55474014283367e+000

2.56342360828676e+005,-2.40910153226774e+001,-5.62826400195885e+000

2.59920766833993e+005,-2.40921166808315e+001,-5.70273251934176e+000

2.63549125525621e+005,-2.40932321436206e+001,-5.77815869069320e+000

2.67228134217075e+005,-2.40943617352421e+001,-5.85455575295720e+000

2.70958499956006e+005,-2.40955054821047e+001,-5.93193718862156e+000

2.74740939660078e+005,-2.40966634133847e+001,-6.01031672995065e+000

2.78576180254757e+005,-2.40978355616044e+001,-6.08970836312761e+000

2.82464958813007e+005,-2.40990219632313e+001,-6.17012633230309e+000

2.86408022696948e+005,-2.41002226592969e+001,-6.25158514354180e+000

2.90406129701488e+005,-2.41014376960359e+001,-6.33409956866120e+000

2.94460048199957e+005,-2.41026671255420e+001,-6.41768464895599e+000

2.98570557291775e+005,-2.41039110064417e+001,-6.50235569880358e+000

3.02738446952187e+005,-2.41051694045838e+001,-6.58812830914496e+000

3.06964518184081e+005,-2.41064423937431e+001,-6.67501835083867e+000

3.11249583171928e+005,-2.41077300563384e+001,-6.76304197788041e+000

3.15594465437872e+005,-2.41090324841618e+001,-6.85221563049114e+000

3.19999999999997e+005,-2.41103497791196e+001,-6.94255603806471e+000

3.24467033532806e+005,-2.41116820539822e+001,-7.03408022197865e+000

3.28996424529938e+005,-2.41130294331430e+001,-7.12680549826441e+000

3.33589043469155e+005,-2.41143920533836e+001,-7.22074948013634e+000

3.38245772979638e+005,-2.41157700646452e+001,-7.31593008038254e+000

3.42967508011610e+005,-2.41171636308039e+001,-7.41236551361466e+000

3.47755156008335e+005,-2.41185729304495e+001,-7.51007429838127e+000

3.52609637080511e+005,-2.41199981576664e+001,-7.60907525914536e+000

3.57531884183106e+005,-2.41214395228144e+001,-7.70938752812956e+000

3.62522843294651e+005,-2.41228972533097e+001,-7.81103054703219e+000

3.67583473599047e+005,-2.41243715944048e+001,-7.91402406861817e+000

3.72714747669902e+005,-2.41258628099644e+001,-8.01838815818880e+000

3.77917651657445e+005,-2.41273711832396e+001,-8.12414319493606e+000

3.83193185478053e+005,-2.41288970176365e+001,-8.23130987318683e+000

3.88542363006410e+005,-2.41304406374798e+001,-8.33990920354169e+000

3.93966212270369e+005,-2.41320023887714e+001,-8.44996251391523e+000

3.99465775648511e+005,-2.41335826399408e+001,-8.56149145048584e+000

4.05042110070485e+005,-2.41351817825903e+001,-8.67451797855762e+000

4.10696287220124e+005,-2.41368002322314e+001,-8.78906438334534e+000

4.16429393741414e+005,-2.41384384290137e+001,-8.90515327068832e+000

4.22242531447321e+005,-2.41400968384458e+001,-9.02280756769848e+000

4.28136817531551e+005,-2.41417759521079e+001,-9.14205052335222e+000

4.34113384783250e+005,-2.41434762883556e+001,-9.26290570903236e+000

4.40173381804713e+005,-2.41451983930159e+001,-9.38539701902720e+000

4.46317973232124e+005,-2.41469428400751e+001,-9.50954867099296e+000

4.52548339959385e+005,-2.41487102323575e+001,-9.63538520638859e+000

4.58865679365059e+005,-2.41505012021980e+001,-9.76293149088783e+000

4.65271205542494e+005,-2.41523164121061e+001,-9.89221271477499e+000

4.71766149533147e+005,-2.41541565554241e+001,-1.00232543933318e+001

4.78351759563174e+005,-2.41560223569775e+001,-1.01560823672205e+001

4.85029301283321e+005,-2.41579145737216e+001,-1.02907228028677e+001

4.91800058012158e+005,-2.41598339953814e+001,-1.04272021928569e+001

4.98665330982714e+005,-2.41617814450879e+001,-1.05655473563300e+001

5.05626439592555e+005,-2.41637577800114e+001,-1.07057854394072e+001

5.12684721657352e+005,-2.41657638919912e+001,-1.08479439156248e+001

5.19841533667984e+005,-2.41678007081645e+001,-1.09920505863958e+001

5.27098251051240e+005,-2.41698691915938e+001,-1.11381335814973e+001

5.34456268434150e+005,-2.41719703418952e+001,-1.12862213595841e+001

5.41916999912011e+005,-2.41741051958676e+001,-1.14363427087328e+001

