Freq.,VOut,OutRef

1.00000000000000e+004,-2.30496755888121e+001,-4.67887155734903e-002

1.01395947979003e+004,-2.30496759804223e+001,-4.74417844559371e-002

1.02811382665607e+004,-2.30496763830210e+001,-4.81039665639170e-002

1.04246576084112e+004,-2.30496767969158e+001,-4.87753889746559e-002

1.05701804056138e+004,-2.30496772224232e+001,-4.94561805331520e-002

1.07177346253629e+004,-2.30496776598680e+001,-5.01464718785175e-002

1.08673486252606e+004,-2.30496781095846e+001,-5.08463954641244e-002

1.10190511587661e+004,-2.30496785719164e+001,-5.15560855879417e-002

1.11728713807222e+004,-2.30496790472165e+001,-5.22756784152143e-002

1.13288388529580e+004,-2.30496795358479e+001,-5.30053120039012e-002

1.14869835499703e+004,-2.30496800381836e+001,-5.37451263325087e-002

1.16473358646846e+004,-2.30496805546070e+001,-5.44952633249161e-002

1.18099266142953e+004,-2.30496810855118e+001,-5.52558668812052e-002

1.19747870461893e+004,-2.30496816313033e+001,-5.60270828981614e-002

1.21419488439505e+004,-2.30496821923980e+001,-5.68090592992977e-002

1.23114441334492e+004,-2.30496827692236e+001,-5.76019460673430e-002

1.24833054890161e+004,-2.30496833622196e+001,-5.84058952690255e-002

1.26575659397028e+004,-2.30496839718385e+001,-5.92210610805004e-002

1.28342589756290e+004,-2.30496845985446e+001,-6.00475998216329e-002

1.30134185544193e+004,-2.30496852428153e+001,-6.08856699842740e-002

1.31950791077289e+004,-2.30496859051416e+001,-6.17354322593796e-002

1.33792755478611e+004,-2.30496865860274e+001,-6.25970495722886e-002

1.35660432744767e+004,-2.30496872859914e+001,-6.34706871070423e-002

1.37554181813974e+004,-2.30496880055661e+001,-6.43565123427844e-002

1.39474366635040e+004,-2.30496887452990e+001,-6.52546950832020e-002

1.41421356237309e+004,-2.30496895057528e+001,-6.61654074864133e-002

1.43395524801583e+004,-2.30496902875059e+001,-6.70888241001474e-002

1.45397251732031e+004,-2.30496910911521e+001,-6.80251218971507e-002

1.47426921729110e+004,-2.30496919173027e+001,-6.89744802975842e-002

1.49484924863494e+004,-2.30496927665845e+001,-6.99370812184038e-002

1.51571656651040e+004,-2.30496936396431e+001,-7.09131090905215e-002

1.53687518128801e+004,-2.30496945371410e+001,-7.19027509078474e-002

1.55832915932100e+004,-2.30496954597595e+001,-7.29061962517084e-002

1.58008262372675e+004,-2.30496964081981e+001,-7.39236373344425e-002

1.60213975517924e+004,-2.30496973831763e+001,-7.49552690286166e-002

1.62450479271247e+004,-2.30496983854332e+001,-7.60012889051956e-002

1.64718203453514e+004,-2.30496994157278e+001,-7.70618972761231e-002

1.67017583885674e+004,-2.30497004748409e+001,-7.81372972211079e-002

1.69349062472505e+004,-2.30497015635742e+001,-7.92276946338395e-002

1.71713087287550e+004,-2.30497026827514e+001,-8.03332982580030e-002

1.74110112659224e+004,-2.30497038332194e+001,-8.14543197221716e-002

1.76540599258131e+004,-2.30497050158478e+001,-8.25909735862830e-002

1.79005014185594e+004,-2.30497062315305e+001,-8.37434773752308e-002

1.81503831063432e+004,-2.30497074811855e+001,-8.49120516223199e-002

1.84037530124975e+004,-2.30497087657565e+001,-8.60969199074675e-002

1.86606598307361e+004,-2.30497100862128e+001,-8.72983089008214e-002

1.89211529345119e+004,-2.30497114435503e+001,-8.85164484031021e-002

1.91852823865052e+004,-2.30497128387923e+001,-8.97515713899258e-002

1.94530989482457e+004,-2.30497142729894e+001,-9.10039140546458e-002

1.97246540898671e+004,-2.30497157472220e+001,-9.22737158461237e-002

1.99999999999999e+004,-2.30497172625995e+001,-9.35612195194248e-002

2.02791895958005e+004,-2.30497188202610e+001,-9.48666711807400e-002

2.05622765331213e+004,-2.30497204213778e+001,-9.61903203239981e-002

2.08493152168224e+004,-2.30497220671520e+001,-9.75324198874463e-002

2.11403608112276e+004,-2.30497237588194e+001,-9.88932262905722e-002

2.14354692507258e+004,-2.30497254976487e+001,-1.00272999487717e-001

2.17346972505211e+004,-2.30497272849433e+001,-1.01672003010581e-001

2.20381023175322e+004,-2.30497291220419e+001,-1.03090504020301e-001

2.23457427614443e+004,-2.30497310103197e+001,-1.04528773351622e-001

2.26576777059159e+004,-2.30497329511891e+001,-1.05987085563809e-001

2.29739670999406e+004,-2.30497349461005e+001,-1.07465718993891e-001

2.32946717293690e+004,-2.30497369965438e+001,-1.08964955800546e-001

2.36198532285905e+004,-2.30497391040485e+001,-1.10485082020880e-001

2.39495740923785e+004,-2.30497412701862e+001,-1.12026387617434e-001

2.42838976879009e+004,-2.30497434965704e+001,-1.13589166531547e-001

2.46228882668982e+004,-2.30497457848580e+001,-1.15173716738476e-001

2.49666109780322e+004,-2.30497481367501e+001,-1.16780340299924e-001

2.53151318794055e+004,-2.30497505539942e+001,-1.18409343413848e-001

2.56685179512580e+004,-2.30497530383836e+001,-1.20061036476602e-001

2.60268371088386e+004,-2.30497555917609e+001,-1.21735734128586e-001

2.63901582154578e+004,-2.30497582160167e+001,-1.23433755321142e-001

2.67585510957221e+004,-2.30497609130925e+001,-1.25155423364634e-001

2.71320865489533e+004,-2.30497636849818e+001,-1.26901065989094e-001

2.75108363627948e+004,-2.30497665337304e+001,-1.28671015402851e-001

2.78948733270080e+004,-2.30497694614392e+001,-1.30465608347713e-001

2.82842712474618e+004,-2.30497724702645e+001,-1.32285186160586e-001

2.86791049603164e+004,-2.30497755624193e+001,-1.34130094836476e-001

2.90794503464061e+004,-2.30497787401755e+001,-1.36000685080898e-001

2.94853843458219e+004,-2.30497820058649e+001,-1.37897312377643e-001

2.98969849726987e+004,-2.30497853618801e+001,-1.39820337050889e-001

3.03143313302078e+004,-2.30497888106775e+001,-1.41770124321642e-001

3.07375036257601e+004,-2.30497923547770e+001,-1.43747044378333e-001

3.11665831864199e+004,-2.30497959967647e+001,-1.45751472436275e-001

3.16016524745350e+004,-2.30497997392946e+001,-1.47783788801485e-001

3.20427951035848e+004,-2.30498035850894e+001,-1.49844378940729e-001

3.24900958542493e+004,-2.30498075369425e+001,-1.51933633543875e-001

3.29436406907028e+004,-2.30498115977200e+001,-1.54051948589939e-001

3.34035167771346e+004,-2.30498157703622e+001,-1.56199725416584e-001

3.38698124945009e+004,-2.30498200578850e+001,-1.58377370788102e-001

3.43426174575100e+004,-2.30498244633818e+001,-1.60585296964198e-001

3.48220225318448e+004,-2.30498289900260e+001,-1.62823921765179e-001

3.53081198516260e+004,-2.30498336410717e+001,-1.65093668650424e-001

3.58010028371187e+004,-2.30498384198562e+001,-1.67394966781752e-001

3.63007662126863e+004,-2.30498433298019e+001,-1.69728251098118e-001

3.68075060249948e+004,-2.30498483744182e+001,-1.72093962386355e-001

3.73213196614721e+004,-2.30498535573027e+001,-1.74492547359742e-001

3.78423058690237e+004,-2.30498588821443e+001,-1.76924458723030e-001

3.83705647730104e+004,-2.30498643527245e+001,-1.79390155252214e-001

3.89061978964912e+004,-2.30498699729193e+001,-1.81890101870361e-001

3.94493081797342e+004,-2.30498757467020e+001,-1.84424769717984e-001

3.99999999999998e+004,-2.30498816781446e+001,-1.86994636235287e-001

4.05583791916010e+004,-2.30498877714193e+001,-1.89600185239037e-001

4.11245530662425e+004,-2.30498940308026e+001,-1.92241906994442e-001

4.16986304336447e+004,-2.30499004606751e+001,-1.94920298301680e-001

4.22807216224550e+004,-2.30499070655254e+001,-1.97635862568528e-001

4.28709385014515e+004,-2.30499138499511e+001,-2.00389109895674e-001

4.34693945010421e+004,-2.30499208186619e+001,-2.03180557153477e-001

4.40762046350642e+004,-2.30499279764810e+001,-2.06010728064851e-001

4.46914855228886e+004,-2.30499353283479e+001,-2.08880153288843e-001

4.53153554118317e+004,-2.30499428793205e+001,-2.11789370499627e-001

4.59479341998812e+004,-2.30499506345770e+001,-2.14738924473545e-001

4.65893434587380e+004,-2.30499585994184e+001,-2.17729367172592e-001

4.72397064571810e+004,-2.30499667792708e+001,-2.20761257827355e-001

4.78991481847569e+004,-2.30499751796876e+001,-2.23835163024617e-001

4.85677953758016e+004,-2.30499838063516e+001,-2.26951656791917e-001

4.92457765337964e+004,-2.30499926650774e+001,-2.30111320685979e-001

4.99332219560642e+004,-2.30500017618137e+001,-2.33314743879141e-001

5.06302637588109e+004,-2.30500111026450e+001,-2.36562523248429e-001

5.13370359025159e+004,-2.30500206937948e+001,-2.39855263462586e-001

5.20536742176771e+004,-2.30500305416266e+001,-2.43193577075656e-001

5.27803164309155e+004,-2.30500406526470e+001,-2.46578084612521e-001

5.35171021914442e+004,-2.30500510335076e+001,-2.50009414662883e-001

5.42641730979066e+004,-2.30500616910068e+001,-2.53488203971188e-001

5.50216727255895e+004,-2.30500726320920e+001,-2.57015097531932e-001

5.57897466540159e+004,-2.30500838638619e+001,-2.60590748679224e-001

5.65685424949235e+004,-2.30500953935683e+001,-2.64215819180206e-001

5.73582099206328e+004,-2.30501072286177e+001,-2.67890979334685e-001

5.81589006928121e+004,-2.30501193765741e+001,-2.71616908062801e-001

5.89707686916437e+004,-2.30501318451597e+001,-2.75394293006760e-001

5.97939699453972e+004,-2.30501446422572e+001,-2.79223830624888e-001

6.06286626604156e+004,-2.30501577759114e+001,-2.83106226288589e-001

6.14750072515201e+004,-2.30501712543310e+001,-2.87042194380675e-001

6.23331663728396e+004,-2.30501850858894e+001,-2.91032458394218e-001

6.32033049490698e+004,-2.30501992791268e+001,-2.95077751032011e-001

6.40855902071694e+004,-2.30502138427512e+001,-2.99178814305202e-001

6.49801917084985e+004,-2.30502287856392e+001,-3.03336399637462e-001

6.58872813814055e+004,-2.30502441168373e+001,-3.07551267964534e-001

6.68070335542691e+004,-2.30502598455633e+001,-3.11824189835872e-001

6.77396249890018e+004,-2.30502759812057e+001,-3.16155945520532e-001

6.86852349150199e+004,-2.30502925333259e+001,-3.20547325108645e-001

6.96440450636895e+004,-2.30503095116572e+001,-3.24999128619662e-001

7.06162397032520e+004,-2.30503269261055e+001,-3.29512166107199e-001

7.16020056742374e+004,-2.30503447867498e+001,-3.34087257764792e-001

7.26015324253724e+004,-2.30503631038416e+001,-3.38725234035096e-001

7.36150120499896e+004,-2.30503818878041e+001,-3.43426935720137e-001

7.46426393229441e+004,-2.30504011492324e+001,-3.48193214089423e-001

7.56846117380472e+004,-2.30504208988922e+001,-3.53024930992652e-001

7.67411295460207e+004,-2.30504411477185e+001,-3.57922958972315e-001

7.78123957929823e+004,-2.30504619068145e+001,-3.62888181377933e-001

7.88986163594682e+004,-2.30504831874501e+001,-3.67921492478633e-001

7.99999999999995e+004,-2.30505050010595e+001,-3.73023797583079e-001

8.11167583832018e+004,-2.30505273592392e+001,-3.78196013156834e-001

8.22491061324848e+004,-2.30505502737451e+001,-3.83439066940208e-001

8.33972608672892e+004,-2.30505737564901e+001,-3.88753898070841e-001

8.45614432449099e+004,-2.30505978195405e+001,-3.94141457207369e-001

8.57418770029029e+004,-2.30506224751122e+001,-3.99602706652814e-001

8.69387890020841e+004,-2.30506477355666e+001,-4.05138620483182e-001

8.81524092701283e+004,-2.30506736134067e+001,-4.10750184675945e-001

8.93829710457770e+004,-2.30507001212717e+001,-4.16438397238781e-001

9.06307108236633e+004,-2.30507272719320e+001,-4.22204268346513e-001

9.18958683997622e+004,-2.30507550782832e+001,-4.28048820476152e-001

9.31786869174758e+004,-2.30507835533402e+001,-4.33973088544171e-001

9.44794129143618e+004,-2.30508127102301e+001,-4.39978120049571e-001

9.57982963695136e+004,-2.30508425621855e+001,-4.46064975218132e-001

9.71355907516031e+004,-2.30508731225366e+001,-4.52234727147744e-001

9.84915530675926e+004,-2.30509044047033e+001,-4.58488461961856e-001

9.98664439121282e+004,-2.30509364221857e+001,-4.64827278964409e-001

1.01260527517622e+005,-2.30509691885558e+001,-4.71252290794304e-001

1.02674071805032e+005,-2.30510027174468e+001,-4.77764623592339e-001

1.04107348435354e+005,-2.30510370225437e+001,-4.84365417162889e-001

1.05560632861831e+005,-2.30510721175715e+001,-4.91055825148008e-001

1.07034204382888e+005,-2.30511080162839e+001,-4.97837015202010e-001

1.08528346195813e+005,-2.30511447324516e+001,-5.04710169170238e-001

1.10043345451179e+005,-2.30511822798487e+001,-5.11676483277713e-001

1.11579493308032e+005,-2.30512206722403e+001,-5.18737168316744e-001

1.13137084989847e+005,-2.30512599233678e+001,-5.25893449846872e-001

1.14716419841265e+005,-2.30513000469352e+001,-5.33146568395381e-001

1.16317801385624e+005,-2.30513410565928e+001,-5.40497779668830e-001

1.17941537383287e+005,-2.30513829659228e+001,-5.47948354767190e-001

1.19587939890794e+005,-2.30514257884216e+001,-5.55499580408571e-001

1.21257325320831e+005,-2.30514695374841e+001,-5.63152759158786e-001

1.22950014503040e+005,-2.30515142263853e+001,-5.70909209669296e-001

1.24666332745679e+005,-2.30515598682626e+001,-5.78770266924767e-001

1.26406609898139e+005,-2.30516064760972e+001,-5.86737282496606e-001

1.28171180414339e+005,-2.30516540626946e+001,-5.94811624808045e-001

1.29960383416997e+005,-2.30517026406652e+001,-6.02994679405525e-001

1.31774562762811e+005,-2.30517522224040e+001,-6.11287849241441e-001

1.33614067108538e+005,-2.30518028200704e+001,-6.19692554966416e-001

1.35479249978003e+005,-2.30518544455661e+001,-6.28210235232507e-001

1.37370469830040e+005,-2.30519071105147e+001,-6.36842347005007e-001

1.39288090127379e+005,-2.30519608262392e+001,-6.45590365888971e-001

1.41232479406504e+005,-2.30520156037402e+001,-6.54455786461790e-001

1.43204011348474e+005,-2.30520714536733e+001,-6.63440122624289e-001

1.45203064850745e+005,-2.30521283863266e+001,-6.72544907956720e-001

1.47230024099979e+005,-2.30521864115977e+001,-6.81771696094397e-001

1.49285278645888e+005,-2.30522455389710e+001,-6.91122061109458e-001

1.51369223476094e+005,-2.30523057774945e+001,-7.00597597911434e-001

1.53482259092041e+005,-2.30523671357569e+001,-7.10199922658081e-001

1.55624791585964e+005,-2.30524296218654e+001,-7.19930673178864e-001

1.57797232718936e+005,-2.30524932434216e+001,-7.29791509417619e-001

1.59999999999999e+005,-2.30525580075006e+001,-7.39784113883109e-001

1.62233516766403e+005,-2.30526239206276e+001,-7.49910192120257e-001

1.64498212264969e+005,-2.30526909887568e+001,-7.60171473189973e-001

1.66794521734578e+005,-2.30527592172504e+001,-7.70569710168086e-001

1.69122886489819e+005,-2.30528286108572e+001,-7.81106680659230e-001

1.71483754005805e+005,-2.30528991736932e+001,-7.91784187323366e-001

1.73877578004168e+005,-2.30529709092220e+001,-8.02604058419596e-001

1.76304818540256e+005,-2.30530438202368e+001,-8.13568148364076e-001

1.78765942091554e+005,-2.30531179088430e+001,-8.24678338304334e-001

1.81261421647326e+005,-2.30531931764417e+001,-8.35936536707786e-001

1.83791736799524e+005,-2.30532696237147e+001,-8.47344679965486e-001

1.86357373834951e+005,-2.30533472506107e+001,-8.58904733011811e-001

1.88958825828723e+005,-2.30534260563328e+001,-8.70618689958394e-001

1.91596592739027e+005,-2.30535060393277e+001,-8.82488574740882e-001

1.94271181503206e+005,-2.30535871972764e+001,-8.94516441784214e-001

1.96983106135185e+005,-2.30536695270861e+001,-9.06704376677692e-001

1.99732887824256e+005,-2.30537530248850e+001,-9.19054496866248e-001

2.02521055035243e+005,-2.30538376860179e+001,-9.31568952353782e-001

2.05348143610063e+005,-2.30539235050443e+001,-9.44249926419863e-001

2.08214696870707e+005,-2.30540104757390e+001,-9.57099636347807e-001

2.11121265723661e+005,-2.30540985910936e+001,-9.70120334166626e-001

2.14068408765776e+005,-2.30541878433218e+001,-9.83314307401163e-001

2.17056692391625e+005,-2.30542782238660e+001,-9.96683879834267e-001

2.20086690902357e+005,-2.30543697234062e+001,-1.01023141228030e+000

2.23158986616063e+005,-2.30544623318724e+001,-1.02395930336299e+000

2.26274169979693e+005,-2.30545560384586e+001,-1.03786999030679e+000

2.29432839682530e+005,-2.30546508316394e+001,-1.05196594973286e+000

2.32635602771247e+005,-2.30547466991898e+001,-1.06624969846163e+000

2.35883074766574e+005,-2.30548436282071e+001,-1.08072379432259e+000

2.39175879781588e+005,-2.30549416051354e+001,-1.09539083696744e+000

2.42514650641661e+005,-2.30550406157935e+001,-1.11025346868890e+000

2.45900029006080e+005,-2.30551406454048e+001,-1.12531437523941e+000

2.49332665491357e+005,-2.30552416786293e+001,-1.14057628665783e+000

2.52813219796278e+005,-2.30553436996004e+001,-1.15604197809016e+000

2.56342360828676e+005,-2.30554466919613e+001,-1.17171427061707e+000

2.59920766833993e+005,-2.30555506389068e+001,-1.18759603207586e+000

2.63549125525621e+005,-2.30556555232258e+001,-1.20369017788507e+000

2.67228134217075e+005,-2.30557613273465e+001,-1.21999967186377e+000

2.70958499956006e+005,-2.30558680333851e+001,-1.23652752704861e+000

2.74740939660078e+005,-2.30559756231954e+001,-1.25327680650743e+000

2.78576180254757e+005,-2.30560840784213e+001,-1.27025062414863e+000

2.82464958813007e+005,-2.30561933805513e+001,-1.28745214552242e+000

2.86408022696948e+005,-2.30563035109750e+001,-1.30488458861903e+000

2.90406129701488e+005,-2.30564144510416e+001,-1.32255122465815e+000

2.94460048199957e+005,-2.30565261821195e+001,-1.34045537887202e+000

2.98570557291775e+005,-2.30566386856587e+001,-1.35860043127985e+000

3.02738446952187e+005,-2.30567519432529e+001,-1.37698981745528e+000

3.06964518184081e+005,-2.30568659367050e+001,-1.39562702928302e+000

3.11249583171928e+005,-2.30569806480918e+001,-1.41451561570913e+000

3.15594465437872e+005,-2.30570960598312e+001,-1.43365918347976e+000

3.19999999999997e+005,-2.30572121547490e+001,-1.45306139787224e+000

3.24467033532806e+005,-2.30573289161475e+001,-1.47272598341748e+000

3.28996424529938e+005,-2.30574463278734e+001,-1.49265672460877e+000

3.33589043469155e+005,-2.30575643743872e+001,-1.51285746660856e+000

3.38245772979638e+005,-2.30576830408321e+001,-1.53333211593877e+000

3.42967508011610e+005,-2.30578023131028e+001,-1.55408464116814e+000

3.47755156008335e+005,-2.30579221779144e+001,-1.57511907358824e+000

3.52609637080511e+005,-2.30580426228712e+001,-1.59643950788202e+000

3.57531884183106e+005,-2.30581636365346e+001,-1.61805010278644e+000

3.62522843294651e+005,-2.30582852084904e+001,-1.63995508174637e+000

3.67583473599047e+005,-2.30584073294159e+001,-1.66215873356333e+000

3.72714747669902e+005,-2.30585299911450e+001,-1.68466541304074e+000

3.77917651657445e+005,-2.30586531867337e+001,-1.70747954161954e+000

3.83193185478053e+005,-2.30587769105234e+001,-1.73060560801707e+000

3.88542363006410e+005,-2.30589011582031e+001,-1.75404816885720e+000

3.93966212270369e+005,-2.30590259268709e+001,-1.77781184930242e+000

3.99465775648511e+005,-2.30591512150930e+001,-1.80190134368337e+000

4.05042110070485e+005,-2.30592770229625e+001,-1.82632141612954e+000

4.10696287220124e+005,-2.30594033521553e+001,-1.85107690120076e+000

4.16429393741414e+005,-2.30595302059854e+001,-1.87617270452300e+000

4.22242531447321e+005,-2.30596575894578e+001,-1.90161380342427e+000

4.28136817531551e+005,-2.30597855093204e+001,-1.92740524757924e+000

4.34113384783250e+005,-2.30599139741131e+001,-1.95355215965845e+000

4.40173381804713e+005,-2.30600429942167e+001,-1.98005973598246e+000

4.46317973232124e+005,-2.30601725818985e+001,-2.00693324718883e+000

4.52548339959385e+005,-2.30603027513573e+001,-2.03417803890440e+000

4.58865679365059e+005,-2.30604335187659e+001,-2.06179953243037e+000

4.65271205542494e+005,-2.30605649023125e+001,-2.08980322544069e+000

4.71766149533147e+005,-2.30606969222405e+001,-2.11819469268833e+000

4.78351759563174e+005,-2.30608296008863e+001,-2.14697958673139e+000

4.85029301283321e+005,-2.30609629627156e+001,-2.17616363867058e+000

4.91800058012158e+005,-2.30610970343591e+001,-2.20575265890449e+000

4.98665330982714e+005,-2.30612318446454e+001,-2.23575253790117e+000

5.05626439592555e+005,-2.30613674246343e+001,-2.26616924698841e+000

5.12684721657352e+005,-2.30615038076478e+001,-2.29700883916206e+000

5.19841533667984e+005,-2.30616410293001e+001,-2.32827744991553e+000

5.27098251051240e+005,-2.30617791275272e+001,-2.35998129808899e+000

5.34456268434150e+005,-2.30619181426155e+001,-2.39212668674053e+000

5.41916999912011e+005,-2.30620581172289e+001,-2.42472000403924e+000

