Freq.,VOut,OutRef

1.00000000000000e+004,-8.96194941878896e+000,-1.28197840559360e-001

1.01395947979003e+004,-8.96194983183309e+000,-1.29987304895777e-001

1.02811382665607e+004,-8.96195025645884e+000,-1.31801744523311e-001

1.04246576084112e+004,-8.96195069298991e+000,-1.33641507885269e-001

1.05701804056138e+004,-8.96195114175925e+000,-1.35506948280065e-001

1.07177346253629e+004,-8.96195160310898e+000,-1.37398423929413e-001

1.08673486252606e+004,-8.96195207739059e+000,-1.39316298046992e-001

1.10190511587661e+004,-8.96195256496555e+000,-1.41260938906214e-001

1.11728713807222e+004,-8.96195306620533e+000,-1.43232719911738e-001

1.13288388529580e+004,-8.96195358149168e+000,-1.45232019670580e-001

1.14869835499703e+004,-8.96195411121679e+000,-1.47259222064712e-001

1.16473358646846e+004,-8.96195465578397e+000,-1.49314716322728e-001

1.18099266142953e+004,-8.96195521560742e+000,-1.51398897096270e-001

1.19747870461893e+004,-8.96195579111330e+000,-1.53512164531163e-001

1.21419488439505e+004,-8.96195638273909e+000,-1.55654924349754e-001

1.23114441334492e+004,-8.96195699093476e+000,-1.57827587921470e-001

1.24833054890161e+004,-8.96195761616247e+000,-1.60030572346929e-001

1.26575659397028e+004,-8.96195825889714e+000,-1.62264300534727e-001

1.28342589756290e+004,-8.96195891962702e+000,-1.64529201281094e-001

1.30134185544193e+004,-8.96195959885380e+000,-1.66825709352348e-001

1.31950791077289e+004,-8.96196029709323e+000,-1.69154265566572e-001

1.33792755478611e+004,-8.96196101487480e+000,-1.71515316882006e-001

1.35660432744767e+004,-8.96196175274306e+000,-1.73909316475062e-001

1.37554181813974e+004,-8.96196251125742e+000,-1.76336723831322e-001

1.39474366635040e+004,-8.96196329099274e+000,-1.78798004830850e-001

1.41421356237309e+004,-8.96196409253953e+000,-1.81293631838940e-001

1.43395524801583e+004,-8.96196491650514e+000,-1.83824083789709e-001

1.45397251732031e+004,-8.96196576351291e+000,-1.86389846286301e-001

1.47426921729110e+004,-8.96196663420400e+000,-1.88991411683690e-001

1.49484924863494e+004,-8.96196752923642e+000,-1.91629279190815e-001

1.51571656651040e+004,-8.96196844928728e+000,-1.94303954954893e-001

1.53687518128801e+004,-8.96196939505137e+000,-1.97015952168421e-001

1.55832915932100e+004,-8.96197036724281e+000,-1.99765791159692e-001

1.58008262372675e+004,-8.96197136659585e+000,-2.02553999489194e-001

1.60213975517924e+004,-8.96197239386384e+000,-2.05381112059174e-001

1.62450479271247e+004,-8.96197344982178e+000,-2.08247671202872e-001

1.64718203453514e+004,-8.96197453526530e+000,-2.11154226795725e-001

1.67017583885674e+004,-8.96197565101187e+000,-2.14101336356080e-001

1.69349062472505e+004,-8.96197679790121e+000,-2.17089565151367e-001

1.71713087287550e+004,-8.96197797679644e+000,-2.20119486301748e-001

1.74110112659224e+004,-8.96197918858349e+000,-2.23191680894632e-001

1.76540599258131e+004,-8.96198043417290e+000,-2.26306738088352e-001

1.79005014185594e+004,-8.96198171450018e+000,-2.29465255223962e-001

1.81503831063432e+004,-8.96198303052571e+000,-2.32667837942795e-001

1.84037530124975e+004,-8.96198438323639e+000,-2.35915100294401e-001

1.86606598307361e+004,-8.96198577364585e+000,-2.39207664855583e-001

1.89211529345119e+004,-8.96198720279523e+000,-2.42546162846061e-001

1.91852823865052e+004,-8.96198867175366e+000,-2.45931234249408e-001

1.94530989482457e+004,-8.96199018161935e+000,-2.49363527930670e-001

1.97246540898671e+004,-8.96199173352034e+000,-2.52843701758942e-001

1.99999999999999e+004,-8.96199332861478e+000,-2.56372422732846e-001

2.02791895958005e+004,-8.96199496809257e+000,-2.59950367101021e-001

2.05622765331213e+004,-8.96199665317517e+000,-2.63578220494803e-001

2.08493152168224e+004,-8.96199838511714e+000,-2.67256678052678e-001

2.11403608112276e+004,-8.96200016520678e+000,-2.70986444550856e-001

2.14354692507258e+004,-8.96200199476685e+000,-2.74768234536405e-001

2.17346972505211e+004,-8.96200387515570e+000,-2.78602772459922e-001

2.20381023175322e+004,-8.96200580776774e+000,-2.82490792812209e-001

2.23457427614443e+004,-8.96200779403513e+000,-2.86433040257682e-001

2.26576777059159e+004,-8.96200983542765e+000,-2.90430269779137e-001

2.29739670999406e+004,-8.96201193345476e+000,-2.94483246811986e-001

2.32946717293690e+004,-8.96201408966575e+000,-2.98592747392329e-001

2.36198532285905e+004,-8.96201630565132e+000,-3.02759558296791e-001

2.39495740923785e+004,-8.96201858304403e+000,-3.06984477193231e-001

2.42838976879009e+004,-8.96202092351998e+000,-3.11268312784339e-001

2.46228882668982e+004,-8.96202332879917e+000,-3.15611884962261e-001

2.49666109780322e+004,-8.96202580064726e+000,-3.20016024956637e-001

2.53151318794055e+004,-8.96202834087643e+000,-3.24481575489767e-001

2.56685179512580e+004,-8.96203095134610e+000,-3.29009390934980e-001

2.60268371088386e+004,-8.96203363396488e+000,-3.33600337470529e-001

2.63901582154578e+004,-8.96203639069090e+000,-3.38255293243222e-001

2.67585510957221e+004,-8.96203922353372e+000,-3.42975148527329e-001

2.71320865489533e+004,-8.96204213455515e+000,-3.47760805890592e-001

2.75108363627948e+004,-8.96204512587049e+000,-3.52613180360408e-001

2.78948733270080e+004,-8.96204819965008e+000,-3.57533199589958e-001

2.82842712474618e+004,-8.96205135812006e+000,-3.62521804032367e-001

2.86791049603164e+004,-8.96205460356434e+000,-3.67579947108964e-001

2.90794503464061e+004,-8.96205793832547e+000,-3.72708595386440e-001

2.94853843458219e+004,-8.96206136480598e+000,-3.77908728753933e-001

2.98969849726987e+004,-8.96206488547031e+000,-3.83181340599268e-001

3.03143313302078e+004,-8.96206850284512e+000,-3.88527437996169e-001

3.07375036257601e+004,-8.96207221952202e+000,-3.93948041879835e-001

3.11665831864199e+004,-8.96207603815790e+000,-3.99444187240173e-001

3.16016524745350e+004,-8.96207996147699e+000,-4.05016923305435e-001

3.20427951035848e+004,-8.96208399227228e+000,-4.10667313733673e-001

3.24900958542493e+004,-8.96208813340672e+000,-4.16396436807199e-001

3.29436406907028e+004,-8.96209238781518e+000,-4.22205385624665e-001

3.34035167771346e+004,-8.96209675850533e+000,-4.28095268302793e-001

3.38698124945009e+004,-8.96210124855994e+000,-4.34067208172275e-001

3.43426174575100e+004,-8.96210586113784e+000,-4.40122343982929e-001

3.48220225318448e+004,-8.96211059947599e+000,-4.46261830106423e-001

3.53081198516260e+004,-8.96211546689062e+000,-4.52486836745548e-001

3.58010028371187e+004,-8.96212046677899e+000,-4.58798550144135e-001

3.63007662126863e+004,-8.96212560262123e+000,-4.65198172796446e-001

3.68075060249948e+004,-8.96213087798167e+000,-4.71686923665879e-001

3.73213196614721e+004,-8.96213629651061e+000,-4.78266038400105e-001

3.78423058690237e+004,-8.96214186194590e+000,-4.84936769551814e-001

3.83705647730104e+004,-8.96214757811464e+000,-4.91700386800974e-001

3.89061978964912e+004,-8.96215344893478e+000,-4.98558177181576e-001

3.94493081797342e+004,-8.96215947841697e+000,-5.05511445306050e-001

3.99999999999998e+004,-8.96216567066579e+000,-5.12561513600446e-001

4.05583791916010e+004,-8.96217202988163e+000,-5.19709722535658e-001

4.11245530662425e+004,-8.96217856036263e+000,-5.26957430860851e-001

4.16986304336447e+004,-8.96218526650580e+000,-5.34306015846485e-001

4.22807216224550e+004,-8.96219215280875e+000,-5.41756873524710e-001

4.28709385014515e+004,-8.96219922387171e+000,-5.49311418930493e-001

4.34693945010421e+004,-8.96220648439834e+000,-5.56971086354615e-001

4.40762046350642e+004,-8.96221393919826e+000,-5.64737329586597e-001

4.46914855228886e+004,-8.96222159318756e+000,-5.72611622174563e-001

4.53153554118317e+004,-8.96222945139122e+000,-5.80595457674687e-001

4.59479341998812e+004,-8.96223751894387e+000,-5.88690349914688e-001

4.65893434587380e+004,-8.96224580109180e+000,-5.96897833251722e-001

4.72397064571810e+004,-8.96225430319366e+000,-6.05219462840409e-001

4.78991481847569e+004,-8.96226303072257e+000,-6.13656814896369e-001

4.85677953758016e+004,-8.96227198926680e+000,-6.22211486969768e-001

4.92457765337964e+004,-8.96228118453130e+000,-6.30885098217553e-001

4.99332219560642e+004,-8.96229062233870e+000,-6.39679289679997e-001

5.06302637588109e+004,-8.96230030863040e+000,-6.48595724561195e-001

5.13370359025159e+004,-8.96231024946773e+000,-6.57636088510095e-001

5.20536742176771e+004,-8.96232045103258e+000,-6.66802089908753e-001

5.27803164309155e+004,-8.96233091962848e+000,-6.76095460159202e-001

5.35171021914442e+004,-8.96234166168113e+000,-6.85517953977362e-001

5.42641730979066e+004,-8.96235268373917e+000,-6.95071349686699e-001

5.50216727255895e+004,-8.96236399247426e+000,-7.04757449520746e-001

5.57897466540159e+004,-8.96237559468180e+000,-7.14578079921480e-001

5.65685424949235e+004,-8.96238749728133e+000,-7.24535091844695e-001

5.73582099206328e+004,-8.96239970731570e+000,-7.34630361073276e-001

5.81589006928121e+004,-8.96241223195194e+000,-7.44865788524624e-001

5.89707686916437e+004,-8.96242507848061e+000,-7.55243300567859e-001

5.97939699453972e+004,-8.96243825431474e+000,-7.65764849346547e-001

6.06286626604156e+004,-8.96245176699024e+000,-7.76432413095775e-001

6.14750072515201e+004,-8.96246562416417e+000,-7.87247996472959e-001

6.23331663728396e+004,-8.96247983361405e+000,-7.98213630885754e-001

6.32033049490698e+004,-8.96249440323635e+000,-8.09331374827511e-001

6.40855902071694e+004,-8.96250934104474e+000,-8.20603314214521e-001

6.49801917084985e+004,-8.96252465516869e+000,-8.32031562726042e-001

6.58872813814055e+004,-8.96254035385080e+000,-8.43618262151899e-001

6.68070335542691e+004,-8.96255644544459e+000,-8.55365582741046e-001

6.77396249890018e+004,-8.96257293841175e+000,-8.67275723554040e-001

6.86852349150199e+004,-8.96258984131908e+000,-8.79350912821538e-001

6.96440450636895e+004,-8.96260716283465e+000,-8.91593408307290e-001

7.06162397032520e+004,-8.96262491172428e+000,-9.04005497672664e-001

7.16020056742374e+004,-8.96264309684743e+000,-9.16589498846564e-001

7.26015324253724e+004,-8.96266172715227e+000,-9.29347760402288e-001

7.36150120499896e+004,-8.96268081167040e+000,-9.42282661937626e-001

7.46426393229441e+004,-8.96270035951198e+000,-9.55396614456560e-001

7.56846117380472e+004,-8.96272037985911e+000,-9.68692060760425e-001

7.67411295460207e+004,-8.96274088195952e+000,-9.82171475842191e-001

7.78123957929823e+004,-8.96276187511951e+000,-9.95837367285218e-001

7.88986163594682e+004,-8.96278336869641e+000,-1.00969227566740e+000

7.99999999999995e+004,-8.96280537209021e+000,-1.02373877497289e+000

8.11167583832018e+004,-8.96282789473503e+000,-1.03797947300572e+000

8.22491061324848e+004,-8.96285094608959e+000,-1.05241701181185e+000

8.33972608672892e+004,-8.96287453562718e+000,-1.06705406810679e+000

8.45614432449099e+004,-8.96289867282493e+000,-1.08189335370850e+000

8.57418770029029e+004,-8.96292336715251e+000,-1.09693761597647e+000

8.69387890020841e+004,-8.96294862805987e+000,-1.11218963825888e+000

8.81524092701283e+004,-8.96297446496417e+000,-1.12765224034572e+000

8.93829710457770e+004,-8.96300088723660e+000,-1.14332827892636e+000

9.06307108236633e+004,-8.96302790418721e+000,-1.15922064806018e+000

9.18958683997622e+004,-8.96305552505025e+000,-1.17533227964795e+000

9.31786869174758e+004,-8.96308375896741e+000,-1.19166614391623e+000

9.44794129143618e+004,-8.96311261497100e+000,-1.20822524990762e+000

9.57982963695136e+004,-8.96314210196610e+000,-1.22501264597818e+000

9.71355907516031e+004,-8.96317222871123e+000,-1.24203142030653e+000

9.84915530675926e+004,-8.96320300379871e+000,-1.25928470140991e+000

9.98664439121282e+004,-8.96323443563383e+000,-1.27677565866916e+000

1.01260527517622e+005,-8.96326653241235e+000,-1.29450750286692e+000

1.02674071805032e+005,-8.96329930209845e+000,-1.31248348672959e+000

1.04107348435354e+005,-8.96333275239983e+000,-1.33070690548738e+000

1.05560632861831e+005,-8.96336689074307e+000,-1.34918109743923e+000

1.07034204382888e+005,-8.96340172424747e+000,-1.36790944453149e+000

1.08528346195813e+005,-8.96343725969725e+000,-1.38689537295016e+000

1.10043345451179e+005,-8.96347350351361e+000,-1.40614235372100e+000

1.11579493308032e+005,-8.96351046172475e+000,-1.42565390332687e+000

1.13137084989847e+005,-8.96354813993519e+000,-1.44543358433562e+000

1.14716419841265e+005,-8.96358654329375e+000,-1.46548500604289e+000

1.16317801385624e+005,-8.96362567646048e+000,-1.48581182512824e+000

1.17941537383287e+005,-8.96366554357236e+000,-1.50641774632677e+000

1.19587939890794e+005,-8.96370614820759e+000,-1.52730652311657e+000

1.21257325320831e+005,-8.96374749334897e+000,-1.54848195842155e+000

1.22950014503040e+005,-8.96378958134619e+000,-1.56994790532974e+000

1.24666332745679e+005,-8.96383241387643e+000,-1.59170826783107e+000

1.26406609898139e+005,-8.96387599190444e+000,-1.61376700157036e+000

1.28171180414339e+005,-8.96392031564095e+000,-1.63612811462133e+000

1.29960383416997e+005,-8.96396538450026e+000,-1.65879566827673e+000

1.31774562762811e+005,-8.96401119705665e+000,-1.68177377786010e+000

1.33614067108538e+005,-8.96405775099967e+000,-1.70506661355668e+000

1.35479249978003e+005,-8.96410504308848e+000,-1.72867840126603e+000

1.37370469830040e+005,-8.96415306910503e+000,-1.75261342347528e+000

1.39288090127379e+005,-8.96420182380664e+000,-1.77687602015398e+000

1.41232479406504e+005,-8.96425130087707e+000,-1.80147058967449e+000

1.43204011348474e+005,-8.96430149287738e+000,-1.82640158975199e+000

1.45203064850745e+005,-8.96435239119556e+000,-1.85167353841157e+000

1.47230024099979e+005,-8.96440398599551e+000,-1.87729101497784e+000

1.49285278645888e+005,-8.96445626616578e+000,-1.90325866108980e+000

1.51369223476094e+005,-8.96450921926689e+000,-1.92958118174423e+000

1.53482259092041e+005,-8.96456283147891e+000,-1.95626334636150e+000

1.55624791585964e+005,-8.96461708754832e+000,-1.98330998988063e+000

1.57797232718936e+005,-8.96467197073438e+000,-2.01072601388179e+000

1.59999999999999e+005,-8.96472746275574e+000,-2.03851638773461e+000

1.62233516766403e+005,-8.96478354373636e+000,-2.06668614977706e+000

1.64498212264969e+005,-8.96484019215177e+000,-2.09524040852226e+000

1.66794521734578e+005,-8.96489738477541e+000,-2.12418434389331e+000

1.69122886489819e+005,-8.96495509662484e+000,-2.15352320848954e+000

1.71483754005805e+005,-8.96501330090879e+000,-2.18326232888059e+000

1.73877578004168e+005,-8.96507196897418e+000,-2.21340710693097e+000

1.76304818540256e+005,-8.96513107025397e+000,-2.24396302115511e+000

1.78765942091554e+005,-8.96519057221551e+000,-2.27493562810360e+000

1.81261421647326e+005,-8.96525044031004e+000,-2.30633056377602e+000

1.83791736799524e+005,-8.96531063792267e+000,-2.33815354506912e+000

1.86357373834951e+005,-8.96537112632382e+000,-2.37041037125166e+000

1.88958825828723e+005,-8.96543186462175e+000,-2.40310692547081e+000

1.91596592739027e+005,-8.96549280971632e+000,-2.43624917628818e+000

1.94271181503206e+005,-8.96555391625438e+000,-2.46984317924631e+000

1.96983106135185e+005,-8.96561513658660e+000,-2.50389507846350e+000

1.99732887824256e+005,-8.96567642072609e+000,-2.53841110825933e+000

2.02521055035243e+005,-8.96573771630888e+000,-2.57339759480688e+000

2.05348143610063e+005,-8.96579896855625e+000,-2.60886095781448e+000

2.08214696870707e+005,-8.96586012023909e+000,-2.64480771223514e+000

2.11121265723661e+005,-8.96592111164451e+000,-2.68124447000213e+000

2.14068408765776e+005,-8.96598188054463e+000,-2.71817794179077e+000

2.17056692391625e+005,-8.96604236216755e+000,-2.75561493880719e+000

2.20086690902357e+005,-8.96610248917103e+000,-2.79356237459952e+000

2.23158986616063e+005,-8.96616219161819e+000,-2.83202726689522e+000

2.26274169979693e+005,-8.96622139695606e+000,-2.87101673945941e+000

2.29432839682530e+005,-8.96628002999639e+000,-2.91053802397685e+000

2.32635602771247e+005,-8.96633801289937e+000,-2.95059846195312e+000

2.35883074766574e+005,-8.96639526515945e+000,-2.99120550663704e+000

2.39175879781588e+005,-8.96645170359414e+000,-3.03236672496172e+000

2.42514650641661e+005,-8.96650724233517e+000,-3.07408979950289e+000

2.45900029006080e+005,-8.96656179282197e+000,-3.11638253045480e+000

2.49332665491357e+005,-8.96661526379818e+000,-3.15925283762053e+000

2.52813219796278e+005,-8.96666756130977e+000,-3.20270876241873e+000

2.56342360828676e+005,-8.96671858870632e+000,-3.24675846990080e+000

2.59920766833993e+005,-8.96676824664360e+000,-3.29141025078486e+000

2.63549125525621e+005,-8.96681643308911e+000,-3.33667252349580e+000

2.67228134217075e+005,-8.96686304332901e+000,-3.38255383622052e+000

2.70958499956006e+005,-8.96690796997691e+000,-3.42906286897008e+000

2.74740939660078e+005,-8.96695110298464e+000,-3.47620843564999e+000

2.78576180254757e+005,-8.96699232965415e+000,-3.52399948613998e+000

2.82464958813007e+005,-8.96703153465081e+000,-3.57244510837900e+000

2.86408022696948e+005,-8.96706860001763e+000,-3.62155453045863e+000

2.90406129701488e+005,-8.96710340519058e+000,-3.67133712271861e+000

2.94460048199957e+005,-8.96713582701409e+000,-3.72180239985208e+000

2.98570557291775e+005,-8.96716573975739e+000,-3.77296002301118e+000

3.02738446952187e+005,-8.96719301513041e+000,-3.82481980192032e+000

3.06964518184081e+005,-8.96721752229976e+000,-3.87739169699260e+000

3.11249583171928e+005,-8.96723912790434e+000,-3.93068582144959e+000

3.15594465437872e+005,-8.96725769606984e+000,-3.98471244344686e+000

3.19999999999997e+005,-8.96727308842254e+000,-4.03948198820304e+000

3.24467033532806e+005,-8.96728516410143e+000,-4.09500504013416e+000

3.28996424529938e+005,-8.96729377976892e+000,-4.15129234499271e+000

3.33589043469155e+005,-8.96729878961943e+000,-4.20835481201369e+000

3.38245772979638e+005,-8.96730004538581e+000,-4.26620351606496e+000

3.42967508011610e+005,-8.96729739634311e+000,-4.32484969980737e+000

3.47755156008335e+005,-8.96729068930954e+000,-4.38430477586182e+000

3.52609637080511e+005,-8.96727976864408e+000,-4.44458032898582e+000

3.57531884183106e+005,-8.96726447624101e+000,-4.50568811826197e+000

3.62522843294651e+005,-8.96724465152021e+000,-4.56764007929629e+000

3.67583473599047e+005,-8.96722013141369e+000,-4.63044832643237e+000

3.72714747669902e+005,-8.96719075034794e+000,-4.69412515497859e+000

3.77917651657445e+005,-8.96715634022131e+000,-4.75868304345420e+000

3.83193185478053e+005,-8.96711673037698e+000,-4.82413465585147e+000

3.88542363006410e+005,-8.96707174757058e+000,-4.89049284392119e+000

3.93966212270369e+005,-8.96702121593270e+000,-4.95777064947842e+000

3.99465775648511e+005,-8.96696495692585e+000,-5.02598130673306e+000

4.05042110070485e+005,-8.96690278929559e+000,-5.09513824464890e+000

4.10696287220124e+005,-8.96683452901595e+000,-5.16525508932935e+000

4.16429393741414e+005,-8.96675998922881e+000,-5.23634566643506e+000

4.22242531447321e+005,-8.96667898017665e+000,-5.30842400363609e+000

4.28136817531551e+005,-8.96659130912944e+000,-5.38150433309880e+000

4.34113384783250e+005,-8.96649678030485e+000,-5.45560109401095e+000

4.40173381804713e+005,-8.96639519478153e+000,-5.53072893514828e+000

4.46317973232124e+005,-8.96628635040606e+000,-5.60690271748415e+000

4.52548339959385e+005,-8.96617004169310e+000,-5.68413751684334e+000

4.58865679365059e+005,-8.96604605971810e+000,-5.76244862660733e+000

4.65271205542494e+005,-8.96591419200378e+000,-5.84185156046599e+000

4.71766149533147e+005,-8.96577422239906e+000,-5.92236205522581e+000

4.78351759563174e+005,-8.96562593095114e+000,-6.00399607367218e+000

4.85029301283321e+005,-8.96546909377058e+000,-6.08676980748953e+000

4.91800058012158e+005,-8.96530348288906e+000,-6.17069968024298e+000

4.98665330982714e+005,-8.96512886611015e+000,-6.25580235042200e+000

5.05626439592555e+005,-8.96494500685307e+000,-6.34209471455039e+000

5.12684721657352e+005,-8.96475166398906e+000,-6.42959391036291e+000

5.19841533667984e+005,-8.96454859167098e+000,-6.51831732005249e+000

5.27098251051240e+005,-8.96433553915554e+000,-6.60828257359026e+000

5.34456268434150e+005,-8.96411225061861e+000,-6.69950755212003e+000

5.41916999912011e+005,-8.96387846496356e+000,-6.79201039142921e+000

