Freq.,VOut,OutRef

1.00000000000000e+004,-1.20241296597455e+001,-1.90948337418113e-001

1.01395947979003e+004,-1.20241305087508e+001,-1.93613685772261e-001

1.02811382665607e+004,-1.20241313815721e+001,-1.96316232898010e-001

1.04246576084112e+004,-1.20241322788758e+001,-1.99056497729177e-001

1.05701804056138e+004,-1.20241332013471e+001,-2.01835006425804e-001

1.07177346253629e+004,-1.20241341496902e+001,-2.04652292480691e-001

1.08673486252606e+004,-1.20241351246289e+001,-2.07508896815754e-001

1.10190511587661e+004,-1.20241361269072e+001,-2.10405367889066e-001

1.11728713807222e+004,-1.20241371572893e+001,-2.13342261798727e-001

1.13288388529580e+004,-1.20241382165619e+001,-2.16320142383017e-001

1.14869835499703e+004,-1.20241393055322e+001,-2.19339581338243e-001

1.16473358646846e+004,-1.20241404250306e+001,-2.22401158319198e-001

1.18099266142953e+004,-1.20241415759106e+001,-2.25505461051030e-001

1.19747870461893e+004,-1.20241427590489e+001,-2.28653085445080e-001

1.21419488439505e+004,-1.20241439753470e+001,-2.31844635707879e-001

1.23114441334492e+004,-1.20241452257314e+001,-2.35080724455702e-001

1.24833054890161e+004,-1.20241465111541e+001,-2.38361972836593e-001

1.26575659397028e+004,-1.20241478325937e+001,-2.41689010641390e-001

1.28342589756290e+004,-1.20241491910559e+001,-2.45062476427925e-001

1.30134185544193e+004,-1.20241505875741e+001,-2.48483017641782e-001

1.31950791077289e+004,-1.20241520232108e+001,-2.51951290736097e-001

1.33792755478611e+004,-1.20241534990572e+001,-2.55467961302000e-001

1.35660432744767e+004,-1.20241550162355e+001,-2.59033704187513e-001

1.37554181813974e+004,-1.20241565758985e+001,-2.62649203631579e-001

1.39474366635040e+004,-1.20241581792311e+001,-2.66315153391681e-001

1.41421356237309e+004,-1.20241598274505e+001,-2.70032256876142e-001

1.43395524801583e+004,-1.20241615218082e+001,-2.73801227273407e-001

1.45397251732031e+004,-1.20241632635902e+001,-2.77622787692135e-001

1.47426921729110e+004,-1.20241650541173e+001,-2.81497671297986e-001

1.49484924863494e+004,-1.20241668947475e+001,-2.85426621447017e-001

1.51571656651040e+004,-1.20241687868762e+001,-2.89410391831584e-001

1.53687518128801e+004,-1.20241707319366e+001,-2.93449746622295e-001

1.55832915932100e+004,-1.20241727314023e+001,-2.97545460608265e-001

1.58008262372675e+004,-1.20241747867868e+001,-3.01698319348649e-001

1.60213975517924e+004,-1.20241768996457e+001,-3.05909119317675e-001

1.62450479271247e+004,-1.20241790715772e+001,-3.10178668055269e-001

1.64718203453514e+004,-1.20241813042231e+001,-3.14507784322892e-001

1.67017583885674e+004,-1.20241835992709e+001,-3.18897298251392e-001

1.69349062472505e+004,-1.20241859584542e+001,-3.23348051502213e-001

1.71713087287550e+004,-1.20241883835540e+001,-3.27860897426430e-001

1.74110112659224e+004,-1.20241908764002e+001,-3.32436701222034e-001

1.76540599258131e+004,-1.20241934388730e+001,-3.37076340097473e-001

1.79005014185594e+004,-1.20241960729038e+001,-3.41780703439088e-001

1.81503831063432e+004,-1.20241987804771e+001,-3.46550692975902e-001

1.84037530124975e+004,-1.20242015636314e+001,-3.51387222948511e-001

1.86606598307361e+004,-1.20242044244609e+001,-3.56291220283147e-001

1.89211529345119e+004,-1.20242073651175e+001,-3.61263624761419e-001

1.91852823865052e+004,-1.20242103878106e+001,-3.66305389202869e-001

1.94530989482457e+004,-1.20242134948111e+001,-3.71417479635198e-001

1.97246540898671e+004,-1.20242166884507e+001,-3.76600875482183e-001

1.99999999999999e+004,-1.20242199711250e+001,-3.81856569742224e-001

2.02791895958005e+004,-1.20242233452946e+001,-3.87185569177056e-001

2.05622765331213e+004,-1.20242268134868e+001,-3.92588894497026e-001

2.08493152168224e+004,-1.20242303782976e+001,-3.98067580552376e-001

2.11403608112276e+004,-1.20242340423927e+001,-4.03622676528931e-001

2.14354692507258e+004,-1.20242378085109e+001,-4.09255246137606e-001

2.17346972505211e+004,-1.20242416794641e+001,-4.14966367819281e-001

2.20381023175322e+004,-1.20242456581406e+001,-4.20757134939011e-001

2.23457427614443e+004,-1.20242497475063e+001,-4.26628655994276e-001

2.26576777059159e+004,-1.20242539506072e+001,-4.32582054816889e-001

2.29739670999406e+004,-1.20242582705711e+001,-4.38618470783829e-001

2.32946717293690e+004,-1.20242627106098e+001,-4.44739059027465e-001

2.36198532285905e+004,-1.20242672740211e+001,-4.50944990649140e-001

2.39495740923785e+004,-1.20242719641915e+001,-4.57237452935574e-001

2.42838976879009e+004,-1.20242767845977e+001,-4.63617649579757e-001

2.46228882668982e+004,-1.20242817388095e+001,-4.70086800900396e-001

2.49666109780322e+004,-1.20242868304916e+001,-4.76646144069063e-001

2.53151318794055e+004,-1.20242920634069e+001,-4.83296933335994e-001

2.56685179512580e+004,-1.20242974414176e+001,-4.90040440264148e-001

2.60268371088386e+004,-1.20243029684889e+001,-4.96877953958102e-001

2.63901582154578e+004,-1.20243086486907e+001,-5.03810781304766e-001

2.67585510957221e+004,-1.20243144862011e+001,-5.10840247209290e-001

2.71320865489533e+004,-1.20243204853080e+001,-5.17967694840176e-001

2.75108363627948e+004,-1.20243266504125e+001,-5.25194485874252e-001

2.78948733270080e+004,-1.20243329860313e+001,-5.32522000744863e-001

2.82842712474618e+004,-1.20243394968001e+001,-5.39951638892959e-001

2.86791049603164e+004,-1.20243461874757e+001,-5.47484819021874e-001

2.90794503464061e+004,-1.20243530629393e+001,-5.55122979356893e-001

2.94853843458219e+004,-1.20243601281996e+001,-5.62867577904680e-001

2.98969849726987e+004,-1.20243673883955e+001,-5.70720092718653e-001

3.03143313302078e+004,-1.20243748487995e+001,-5.78682022164325e-001

3.07375036257601e+004,-1.20243825148209e+001,-5.86754885192856e-001

3.11665831864199e+004,-1.20243903920082e+001,-5.94940221614701e-001

3.16016524745350e+004,-1.20243984860536e+001,-6.03239592374999e-001

3.20427951035848e+004,-1.20244068027954e+001,-6.11654579834518e-001

3.24900958542493e+004,-1.20244153482217e+001,-6.20186788057133e-001

3.29436406907028e+004,-1.20244241284737e+001,-6.28837843093593e-001

3.34035167771346e+004,-1.20244331498493e+001,-6.37609393273229e-001

3.38698124945009e+004,-1.20244424188064e+001,-6.46503109499968e-001

3.43426174575100e+004,-1.20244519419669e+001,-6.55520685549040e-001

3.48220225318448e+004,-1.20244617261197e+001,-6.64663838367924e-001

3.53081198516260e+004,-1.20244717782252e+001,-6.73934308381331e-001

3.58010028371187e+004,-1.20244821054179e+001,-6.83333859802035e-001

3.63007662126863e+004,-1.20244927150115e+001,-6.92864280939280e-001

3.68075060249948e+004,-1.20245036145015e+001,-7.02527384517945e-001

3.73213196614721e+004,-1.20245148115699e+001,-7.12325007994508e-001

3.78423058690237e+004,-1.20245263140888e+001,-7.22259013883134e-001

3.83705647730104e+004,-1.20245381301240e+001,-7.32331290082051e-001

3.89061978964912e+004,-1.20245502679398e+001,-7.42543750201419e-001

3.94493081797342e+004,-1.20245627360019e+001,-7.52898333901419e-001

3.99999999999998e+004,-1.20245755429827e+001,-7.63397007226743e-001

4.05583791916010e+004,-1.20245886977642e+001,-7.74041762951799e-001

4.11245530662425e+004,-1.20246022094429e+001,-7.84834620922357e-001

4.16986304336447e+004,-1.20246160873335e+001,-7.95777628410046e-001

4.22807216224550e+004,-1.20246303409731e+001,-8.06872860461896e-001

4.28709385014515e+004,-1.20246449801256e+001,-8.18122420259262e-001

4.34693945010421e+004,-1.20246600147852e+001,-8.29528439480128e-001

4.40762046350642e+004,-1.20246754551814e+001,-8.41093078662369e-001

4.46914855228886e+004,-1.20246913117825e+001,-8.52818527574288e-001

4.53153554118317e+004,-1.20247075952998e+001,-8.64707005588608e-001

4.59479341998812e+004,-1.20247243166922e+001,-8.76760762058659e-001

4.65893434587380e+004,-1.20247414871695e+001,-8.88982076701499e-001

4.72397064571810e+004,-1.20247591181973e+001,-9.01373259980832e-001

4.78991481847569e+004,-1.20247772215004e+001,-9.13936653500430e-001

4.85677953758016e+004,-1.20247958090669e+001,-9.26674630395476e-001

4.92457765337964e+004,-1.20248148931525e+001,-9.39589595732230e-001

4.99332219560642e+004,-1.20248344862838e+001,-9.52683986909445e-001

5.06302637588109e+004,-1.20248546012625e+001,-9.65960274065678e-001

5.13370359025159e+004,-1.20248752511689e+001,-9.79420960490921e-001

5.20536742176771e+004,-1.20248964493654e+001,-9.93068583041791e-001

5.27803164309155e+004,-1.20249182095003e+001,-1.00690571256009e+000

5.35171021914442e+004,-1.20249405455109e+001,-1.02093495429908e+000

5.42641730979066e+004,-1.20249634716269e+001,-1.03515894835078e+000

5.50216727255895e+004,-1.20249870023733e+001,-1.04958037008031e+000

5.57897466540159e+004,-1.20250111525736e+001,-1.06420193056245e+000

5.65685424949235e+004,-1.20250359373522e+001,-1.07902637702549e+000

5.73582099206328e+004,-1.20250613721373e+001,-1.09405649329768e+000

5.81589006928121e+004,-1.20250874726632e+001,-1.10929510025838e+000

5.89707686916437e+004,-1.20251142549720e+001,-1.12474505629602e+000

5.97939699453972e+004,-1.20251417354160e+001,-1.14040925776895e+000

6.06286626604156e+004,-1.20251699306591e+001,-1.15629063947134e+000

6.14750072515201e+004,-1.20251988576782e+001,-1.17239217510493e+000

6.23331663728396e+004,-1.20252285337639e+001,-1.18871687775622e+000

6.32033049490698e+004,-1.20252589765216e+001,-1.20526780037571e+000

6.40855902071694e+004,-1.20252902038716e+001,-1.22204803626689e+000

6.49801917084985e+004,-1.20253222340493e+001,-1.23906071957700e+000

6.58872813814055e+004,-1.20253550856042e+001,-1.25630902579509e+000

6.68070335542691e+004,-1.20253887773998e+001,-1.27379617225418e+000

6.77396249890018e+004,-1.20254233286116e+001,-1.29152541863929e+000

6.86852349150199e+004,-1.20254587587257e+001,-1.30950006750379e+000

6.96440450636895e+004,-1.20254950875364e+001,-1.32772346478706e+000

7.06162397032520e+004,-1.20255323351433e+001,-1.34619900034077e+000

7.16020056742374e+004,-1.20255705219476e+001,-1.36493010846325e+000

7.26015324253724e+004,-1.20256096686489e+001,-1.38392026843421e+000

7.36150120499896e+004,-1.20256497962393e+001,-1.40317300506334e+000

7.46426393229441e+004,-1.20256909259993e+001,-1.42269188923820e+000

7.56846117380472e+004,-1.20257330794908e+001,-1.44248053848512e+000

7.67411295460207e+004,-1.20257762785508e+001,-1.46254261753265e+000

7.78123957929823e+004,-1.20258205452839e+001,-1.48288183888508e+000

7.88986163594682e+004,-1.20258659020534e+001,-1.50350196340139e+000

7.99999999999995e+004,-1.20259123714727e+001,-1.52440680088237e+000

8.11167583832018e+004,-1.20259599763947e+001,-1.54560021066755e+000

8.22491061324848e+004,-1.20260087399009e+001,-1.56708610223714e+000

8.33972608672892e+004,-1.20260586852896e+001,-1.58886843582414e+000

8.45614432449099e+004,-1.20261098360623e+001,-1.61095122303661e+000

8.57418770029029e+004,-1.20261622159101e+001,-1.63333852748534e+000

8.69387890020841e+004,-1.20262158486983e+001,-1.65603446542446e+000

8.81524092701283e+004,-1.20262707584500e+001,-1.67904320640028e+000

8.93829710457770e+004,-1.20263269693288e+001,-1.70236897391033e+000

9.06307108236633e+004,-1.20263845056198e+001,-1.72601604607358e+000

9.18958683997622e+004,-1.20264433917096e+001,-1.74998875630974e+000

9.31786869174758e+004,-1.20265036520653e+001,-1.77429149403446e+000

9.44794129143618e+004,-1.20265653112115e+001,-1.79892870535997e+000

9.57982963695136e+004,-1.20266283937063e+001,-1.82390489381441e+000

9.71355907516031e+004,-1.20266929241161e+001,-1.84922462106989e+000

9.84915530675926e+004,-1.20267589269881e+001,-1.87489250768632e+000

9.98664439121282e+004,-1.20268264268228e+001,-1.90091323386708e+000

1.01260527517622e+005,-1.20268954480429e+001,-1.92729154023259e+000

1.02674071805032e+005,-1.20269660149623e+001,-1.95403222860616e+000

1.04107348435354e+005,-1.20270381517534e+001,-1.98114016281615e+000

1.05560632861831e+005,-1.20271118824114e+001,-2.00862026951752e+000

1.07034204382888e+005,-1.20271872307184e+001,-2.03647753902664e+000

1.08528346195813e+005,-1.20272642202050e+001,-2.06471702617752e+000

1.10043345451179e+005,-1.20273428741110e+001,-2.09334385119423e+000

1.11579493308032e+005,-1.20274232153432e+001,-2.12236320058514e+000

1.13137084989847e+005,-1.20275052664323e+001,-2.15178032805617e+000

1.14716419841265e+005,-1.20275890494880e+001,-2.18160055544586e+000

1.16317801385624e+005,-1.20276745861520e+001,-2.21182927368215e+000

1.17941537383287e+005,-1.20277618975499e+001,-2.24247194376233e+000

1.19587939890794e+005,-1.20278510042401e+001,-2.27353409775783e+000

1.21257325320831e+005,-1.20279419261627e+001,-2.30502133984154e+000

1.22950014503040e+005,-1.20280346825850e+001,-2.33693934734422e+000

1.24666332745679e+005,-1.20281292920465e+001,-2.36929387183473e+000

1.26406609898139e+005,-1.20282257723017e+001,-2.40209074022918e+000

1.28171180414339e+005,-1.20283241402614e+001,-2.43533585592999e+000

1.29960383416997e+005,-1.20284244119320e+001,-2.46903519999321e+000

1.31774562762811e+005,-1.20285266023544e+001,-2.50319483232683e+000

1.33614067108538e+005,-1.20286307255401e+001,-2.53782089292190e+000

1.35479249978003e+005,-1.20287367944066e+001,-2.57291960311647e+000

1.37370469830040e+005,-1.20288448207116e+001,-2.60849726689199e+000

1.39288090127379e+005,-1.20289548149852e+001,-2.64456027220751e+000

1.41232479406504e+005,-1.20290667864621e+001,-2.68111509236708e+000

1.43204011348474e+005,-1.20291807430116e+001,-2.71816828742594e+000

1.45203064850745e+005,-1.20292966910677e+001,-2.75572650563466e+000

1.47230024099979e+005,-1.20294146355574e+001,-2.79379648492205e+000

1.49285278645888e+005,-1.20295345798290e+001,-2.83238505441792e+000

1.51369223476094e+005,-1.20296565255800e+001,-2.87149913601713e+000

1.53482259092041e+005,-1.20297804727840e+001,-2.91114574598611e+000

1.55624791585964e+005,-1.20299064196177e+001,-2.95133199661120e+000

1.57797232718936e+005,-1.20300343623880e+001,-2.99206509789102e+000

1.59999999999999e+005,-1.20301642954593e+001,-3.03335235927278e+000

1.62233516766403e+005,-1.20302962111805e+001,-3.07520119143445e+000

1.64498212264969e+005,-1.20304300998133e+001,-3.11761910811250e+000

1.66794521734578e+005,-1.20305659494608e+001,-3.16061372797442e+000

1.69122886489819e+005,-1.20307037459970e+001,-3.20419277654026e+000

1.71483754005805e+005,-1.20308434729978e+001,-3.24836408815052e+000

1.73877578004168e+005,-1.20309851116733e+001,-3.29313560798002e+000

1.76304818540256e+005,-1.20311286408011e+001,-3.33851539410226e+000

1.78765942091554e+005,-1.20312740366626e+001,-3.38451161960025e+000

1.81261421647326e+005,-1.20314212729803e+001,-3.43113257472511e+000

1.83791736799524e+005,-1.20315703208581e+001,-3.47838666910399e+000

1.86357373834951e+005,-1.20317211487239e+001,-3.52628243399370e+000

1.88958825828723e+005,-1.20318737222752e+001,-3.57482852458410e+000

1.91596592739027e+005,-1.20320280044276e+001,-3.62403372234862e+000

1.94271181503206e+005,-1.20321839552665e+001,-3.67390693743834e+000

1.96983106135185e+005,-1.20323415320030e+001,-3.72445721112663e+000

1.99732887824256e+005,-1.20325006889325e+001,-3.77569371829681e+000

2.02521055035243e+005,-1.20326613773982e+001,-3.82762576997342e+000

2.05348143610063e+005,-1.20328235457584e+001,-3.88026281590020e+000

2.08214696870707e+005,-1.20329871393585e+001,-3.93361444715692e+000

2.11121265723661e+005,-1.20331521005069e+001,-3.98769039882106e+000

2.14068408765776e+005,-1.20333183684569e+001,-4.04250055266701e+000

2.17056692391625e+005,-1.20334858793921e+001,-4.09805493990499e+000

2.20086690902357e+005,-1.20336545664185e+001,-4.15436374395780e+000

2.23158986616063e+005,-1.20338243595602e+001,-4.21143730327158e+000

2.26274169979693e+005,-1.20339951857618e+001,-4.26928611416175e+000

2.29432839682530e+005,-1.20341669688957e+001,-4.32792083369109e+000

2.32635602771247e+005,-1.20343396297746e+001,-4.38735228257777e+000

2.35883074766574e+005,-1.20345130861702e+001,-4.44759144813177e+000

2.39175879781588e+005,-1.20346872528373e+001,-4.50864948721815e+000

2.42514650641661e+005,-1.20348620415431e+001,-4.57053772924601e+000

2.45900029006080e+005,-1.20350373611026e+001,-4.63326767917747e+000

2.49332665491357e+005,-1.20352131174195e+001,-4.69685102056006e+000

2.52813219796278e+005,-1.20353892135320e+001,-4.76129961857618e+000

2.56342360828676e+005,-1.20355655496644e+001,-4.82662552310959e+000

2.59920766833993e+005,-1.20357420232840e+001,-4.89284097182698e+000

2.63549125525621e+005,-1.20359185291628e+001,-4.95995839327184e+000

2.67228134217075e+005,-1.20360949594438e+001,-5.02799040997002e+000

2.70958499956006e+005,-1.20362712037127e+001,-5.09694984154360e+000

2.74740939660078e+005,-1.20364471490733e+001,-5.16684970783351e+000

2.78576180254757e+005,-1.20366226802274e+001,-5.23770323202698e+000

2.82464958813007e+005,-1.20367976795579e+001,-5.30952384379030e+000

2.86408022696948e+005,-1.20369720272169e+001,-5.38232518240438e+000

2.90406129701488e+005,-1.20371456012151e+001,-5.45612109990276e+000

2.94460048199957e+005,-1.20373182775155e+001,-5.53092566421036e+000

2.98570557291775e+005,-1.20374899301286e+001,-5.60675316228253e+000

3.02738446952187e+005,-1.20376604312102e+001,-5.68361810324333e+000

3.06964518184081e+005,-1.20378296511607e+001,-5.76153522152299e+000

3.11249583171928e+005,-1.20379974587254e+001,-5.84051947999502e+000

3.15594465437872e+005,-1.20381637210958e+001,-5.92058607310995e+000

3.19999999999997e+005,-1.20383283040113e+001,-6.00175043002973e+000

3.24467033532806e+005,-1.20384910718604e+001,-6.08402821776099e+000

3.28996424529938e+005,-1.20386518877814e+001,-6.16743534428657e+000

3.33589043469155e+005,-1.20388106137628e+001,-6.25198796169966e+000

3.38245772979638e+005,-1.20389671107410e+001,-6.33770246933785e+000

3.42967508011610e+005,-1.20391212386971e+001,-6.42459551692095e+000

3.47755156008335e+005,-1.20392728567507e+001,-6.51268400769175e+000

3.52609637080511e+005,-1.20394218232508e+001,-6.60198510156470e+000

3.57531884183106e+005,-1.20395679958643e+001,-6.69251621828001e+000

3.62522843294651e+005,-1.20397112316596e+001,-6.78429504056911e+000

3.67583473599047e+005,-1.20398513871871e+001,-6.87733951733183e+000

3.72714747669902e+005,-1.20399883185548e+001,-6.97166786682783e+000

3.77917651657445e+005,-1.20401218814991e+001,-7.06729857988536e+000

3.83193185478053e+005,-1.20402519314508e+001,-7.16425042313063e+000

3.88542363006410e+005,-1.20403783235946e+001,-7.26254244223931e+000

3.93966212270369e+005,-1.20405009129244e+001,-7.36219396521395e+000

3.99465775648511e+005,-1.20406195542912e+001,-7.46322460569214e+000

4.05042110070485e+005,-1.20407341024452e+001,-7.56565426628601e+000

4.10696287220124e+005,-1.20408444120714e+001,-7.66950314195758e+000

4.16429393741414e+005,-1.20409503378185e+001,-7.77479172343571e+000

4.22242531447321e+005,-1.20410517343206e+001,-7.88154080067424e+000

4.28136817531551e+005,-1.20411484562123e+001,-7.98977146635825e+000

4.34113384783250e+005,-1.20412403581366e+001,-8.09950511946096e+000

4.40173381804713e+005,-1.20413272947452e+001,-8.21076346885496e+000

4.46317973232124e+005,-1.20414091206916e+001,-8.32356853698241e+000

4.52548339959385e+005,-1.20414856906176e+001,-8.43794266358581e+000

4.58865679365059e+005,-1.20415568591319e+001,-8.55390850950669e+000

4.65271205542494e+005,-1.20416224807807e+001,-8.67148906055333e+000

4.71766149533147e+005,-1.20416824100128e+001,-8.79070763144105e+000

4.78351759563174e+005,-1.20417365011362e+001,-8.91158786981163e+000

4.85029301283321e+005,-1.20417846082678e+001,-9.03415376033206e+000

4.91800058012158e+005,-1.20418265852766e+001,-9.15842962887948e+000

4.98665330982714e+005,-1.20418622857199e+001,-9.28444014681258e+000

5.05626439592555e+005,-1.20418915627726e+001,-9.41221033533728e+000

5.12684721657352e+005,-1.20419142691503e+001,-9.54176556996532e+000

5.19841533667984e+005,-1.20419302570258e+001,-9.67313158507269e+000

5.27098251051240e+005,-1.20419393779399e+001,-9.80633447856074e+000

5.34456268434150e+005,-1.20419414827061e+001,-9.94140071662121e+000

5.41916999912011e+005,-1.20419364213095e+001,-1.00783571386107e+001

