Freq.,VOut,OutRef

1.00000000000000e+004,-6.63092180374147e-001,-1.09373745518898e-001

1.01395947979003e+004,-6.63092178460422e-001,-1.10900542545282e-001

1.02811382665607e+004,-6.63092176492039e-001,-1.12448652711646e-001

1.04246576084112e+004,-6.63092174467154e-001,-1.14018373533624e-001

1.05701804056138e+004,-6.63092172384286e-001,-1.15610006677037e-001

1.07177346253629e+004,-6.63092170241609e-001,-1.17223858020200e-001

1.08673486252606e+004,-6.63092168037452e-001,-1.18860237710133e-001

1.10190511587661e+004,-6.63092165769926e-001,-1.20519460223686e-001

1.11728713807222e+004,-6.63092163437316e-001,-1.22201844425996e-001

1.13288388529580e+004,-6.63092161037509e-001,-1.23907713635272e-001

1.14869835499703e+004,-6.63092158568731e-001,-1.25637395680182e-001

1.16473358646846e+004,-6.63092156028892e-001,-1.27391222967047e-001

1.18099266142953e+004,-6.63092153415901e-001,-1.29169532541478e-001

1.19747870461893e+004,-6.63092150727548e-001,-1.30972666154162e-001

1.21419488439505e+004,-6.63092147961686e-001,-1.32800970325257e-001

1.23114441334492e+004,-6.63092145115934e-001,-1.34654796412651e-001

1.24833054890161e+004,-6.63092142188104e-001,-1.36534500676924e-001

1.26575659397028e+004,-6.63092139175487e-001,-1.38440444354486e-001

1.28342589756290e+004,-6.63092136075733e-001,-1.40372993720412e-001

1.30134185544193e+004,-6.63092132886298e-001,-1.42332520164007e-001

1.31950791077289e+004,-6.63092129604504e-001,-1.44319400258255e-001

1.33792755478611e+004,-6.63092126227373e-001,-1.46334015833838e-001

1.35660432744767e+004,-6.63092122752424e-001,-1.48376754047338e-001

1.37554181813974e+004,-6.63092119176426e-001,-1.50448007463414e-001

1.39474366635040e+004,-6.63092115496490e-001,-1.52548174123082e-001

1.41421356237309e+004,-6.63092111709472e-001,-1.54677657624839e-001

1.43395524801583e+004,-6.63092107812178e-001,-1.56836867199579e-001

1.45397251732031e+004,-6.63092103801244e-001,-1.59026217790858e-001

1.47426921729110e+004,-6.63092099673298e-001,-1.61246130133274e-001

1.49484924863494e+004,-6.63092095424731e-001,-1.63497030834941e-001

1.51571656651040e+004,-6.63092091052022e-001,-1.65779352456596e-001

1.53687518128801e+004,-6.63092086551305e-001,-1.68093533598274e-001

1.55832915932100e+004,-6.63092081918745e-001,-1.70440018980659e-001

1.58008262372675e+004,-6.63092077150323e-001,-1.72819259532385e-001

1.60213975517924e+004,-6.63092072241891e-001,-1.75231712475264e-001

1.62450479271247e+004,-6.63092067189131e-001,-1.77677841413473e-001

1.64718203453514e+004,-6.63092061987758e-001,-1.80158116420301e-001

1.67017583885674e+004,-6.63092056633080e-001,-1.82673014132039e-001

1.69349062472505e+004,-6.63092051120427e-001,-1.85223017836196e-001

1.71713087287550e+004,-6.63092045444886e-001,-1.87808617566010e-001

1.74110112659224e+004,-6.63092039601639e-001,-1.90430310193009e-001

1.76540599258131e+004,-6.63092033585299e-001,-1.93088599525317e-001

1.79005014185594e+004,-6.63092027390522e-001,-1.95783996402105e-001

1.81503831063432e+004,-6.63092021011781e-001,-1.98517018791700e-001

1.84037530124975e+004,-6.63092014443462e-001,-2.01288191891174e-001

1.86606598307361e+004,-6.63092007679517e-001,-2.04098048229324e-001

1.89211529345119e+004,-6.63092000713828e-001,-2.06947127766117e-001

1.91852823865052e+004,-6.63091993540155e-001,-2.09835977997046e-001

1.94530989482457e+004,-6.63091986151915e-001,-2.12765154059878e-001

1.97246540898671e+004,-6.63091978542332e-001,-2.15735218839371e-001

1.99999999999999e+004,-6.63091970704437e-001,-2.18746743076150e-001

2.02791895958005e+004,-6.63091962630946e-001,-2.21800305476785e-001

2.05622765331213e+004,-6.63091954314516e-001,-2.24896492822512e-001

2.08493152168224e+004,-6.63091945747233e-001,-2.28035900086605e-001

2.11403608112276e+004,-6.63091936921067e-001,-2.31219130544095e-001

2.14354692507258e+004,-6.63091927827929e-001,-2.34446795888016e-001

2.17346972505211e+004,-6.63091918459083e-001,-2.37719516350541e-001

2.20381023175322e+004,-6.63091908805630e-001,-2.41037920818319e-001

2.23457427614443e+004,-6.63091898858420e-001,-2.44402646954595e-001

2.26576777059159e+004,-6.63091888608004e-001,-2.47814341320449e-001

2.29739670999406e+004,-6.63091878044337e-001,-2.51273659502479e-001

2.32946717293690e+004,-6.63091867157364e-001,-2.54781266233476e-001

2.36198532285905e+004,-6.63091855936466e-001,-2.58337835524150e-001

2.39495740923785e+004,-6.63091844370608e-001,-2.61944050790860e-001

2.42838976879009e+004,-6.63091832448611e-001,-2.65600604985838e-001

2.46228882668982e+004,-6.63091820158423e-001,-2.69308200733649e-001

2.49666109780322e+004,-6.63091807488011e-001,-2.73067550461493e-001

2.53151318794055e+004,-6.63091794424778e-001,-2.76879376538501e-001

2.56685179512580e+004,-6.63091780955478e-001,-2.80744411415322e-001

2.60268371088386e+004,-6.63091767066548e-001,-2.84663397761996e-001

2.63901582154578e+004,-6.63091752743892e-001,-2.88637088612710e-001

2.67585510957221e+004,-6.63091737972872e-001,-2.92666247508801e-001

2.71320865489533e+004,-6.63091722738311e-001,-2.96751648646315e-001

2.75108363627948e+004,-6.63091707024497e-001,-3.00894077023724e-001

2.78948733270080e+004,-6.63091690814990e-001,-3.05094328593948e-001

2.82842712474618e+004,-6.63091674092809e-001,-3.09353210415525e-001

2.86791049603164e+004,-6.63091656840488e-001,-3.13671540807357e-001

2.90794503464061e+004,-6.63091639039541e-001,-3.18050149507889e-001

2.94853843458219e+004,-6.63091620671112e-001,-3.22489877831017e-001

2.98969849726987e+004,-6.63091601715443e-001,-3.26991578830732e-001

3.03143313302078e+004,-6.63091582152009e-001,-3.31556117462561e-001

3.07375036257601e+004,-6.63091561959494e-001,-3.36184370750644e-001

3.11665831864199e+004,-6.63091541115810e-001,-3.40877227954707e-001

3.16016524745350e+004,-6.63091519597982e-001,-3.45635590741628e-001

3.20427951035848e+004,-6.63091497382025e-001,-3.50460373359282e-001

3.24900958542493e+004,-6.63091474443187e-001,-3.55352502808934e-001

3.29436406907028e+004,-6.63091450755486e-001,-3.60312919026459e-001

3.34035167771346e+004,-6.63091426292150e-001,-3.65342575059678e-001

3.38698124945009e+004,-6.63091401025229e-001,-3.70442437252922e-001

3.43426174575100e+004,-6.63091374925571e-001,-3.75613485431790e-001

3.48220225318448e+004,-6.63091347962927e-001,-3.80856713090897e-001

3.53081198516260e+004,-6.63091320105791e-001,-3.86173127584478e-001

3.58010028371187e+004,-6.63091291321482e-001,-3.91563750318646e-001

3.63007662126863e+004,-6.63091261575744e-001,-3.97029616949518e-001

3.68075060249948e+004,-6.63091230833064e-001,-4.02571777579229e-001

3.73213196614721e+004,-6.63091199056519e-001,-4.08191296957925e-001

3.78423058690237e+004,-6.63091166207442e-001,-4.13889254688906e-001

3.83705647730104e+004,-6.63091132245816e-001,-4.19666745434065e-001

3.89061978964912e+004,-6.63091097129735e-001,-4.25524879124395e-001

3.94493081797342e+004,-6.63091060815614e-001,-4.31464781173027e-001

3.99999999999998e+004,-6.63091023258150e-001,-4.37487592689738e-001

4.05583791916010e+004,-6.63090984409805e-001,-4.43594470701372e-001

4.11245530662425e+004,-6.63090944221390e-001,-4.49786588371133e-001

4.16986304336447e+004,-6.63090902641357e-001,-4.56065135225411e-001

4.22807216224550e+004,-6.63090859616063e-001,-4.62431317381040e-001

4.28709385014515e+004,-6.63090815089477e-001,-4.68886357775859e-001

4.34693945010421e+004,-6.63090769003358e-001,-4.75431496402796e-001

4.40762046350642e+004,-6.63090721296676e-001,-4.82067990548530e-001

4.46914855228886e+004,-6.63090671905938e-001,-4.88797115033355e-001

4.53153554118317e+004,-6.63090620764797e-001,-4.95620162455378e-001

4.59479341998812e+004,-6.63090567804044e-001,-5.02538443438115e-001

4.65893434587380e+004,-6.63090512951450e-001,-5.09553286881656e-001

4.72397064571810e+004,-6.63090456131485e-001,-5.16666040217223e-001

4.78991481847569e+004,-6.63090397265567e-001,-5.23878069663647e-001

4.85677953758016e+004,-6.63090336271294e-001,-5.31190760491561e-001

4.92457765337964e+004,-6.63090273062844e-001,-5.38605517286078e-001

4.99332219560642e+004,-6.63090207550516e-001,-5.46123764216678e-001

5.06302637588109e+004,-6.63090139640613e-001,-5.53746945309732e-001

5.13370359025159e+004,-6.63090069235173e-001,-5.61476524725710e-001

5.20536742176771e+004,-6.63089996231911e-001,-5.69313987037387e-001

5.27803164309155e+004,-6.63089920523993e-001,-5.77260837515050e-001

5.35171021914442e+004,-6.63089841999578e-001,-5.85318602415314e-001

5.42641730979066e+004,-6.63089760541977e-001,-5.93488829271574e-001

5.50216727255895e+004,-6.63089676029172e-001,-6.01773087190196e-001

5.57897466540159e+004,-6.63089588333479e-001,-6.10172967152881e-001

5.65685424949235e+004,-6.63089497321563e-001,-6.18690082317717e-001

5.73582099206328e+004,-6.63089402853888e-001,-6.27326068330101e-001

5.81589006928121e+004,-6.63089304784659e-001,-6.36082583634303e-001

5.89707686916437e+004,-6.63089202961270e-001,-6.44961309791913e-001

5.97939699453972e+004,-6.63089097224254e-001,-6.53963951801463e-001

6.06286626604156e+004,-6.63088987406736e-001,-6.63092238426458e-001

6.14750072515201e+004,-6.63088873334259e-001,-6.72347922524572e-001

6.23331663728396e+004,-6.63088754824167e-001,-6.81732781383488e-001

6.32033049490698e+004,-6.63088631685552e-001,-6.91248617060232e-001

6.40855902071694e+004,-6.63088503718609e-001,-7.00897256725808e-001

6.49801917084985e+004,-6.63088370714234e-001,-7.10680553014996e-001

6.58872813814055e+004,-6.63088232453819e-001,-7.20600384379280e-001

6.68070335542691e+004,-6.63088088708453e-001,-7.30658655447417e-001

6.77396249890018e+004,-6.63087939238592e-001,-7.40857297388448e-001

6.86852349150199e+004,-6.63087783793783e-001,-7.51198268280641e-001

6.96440450636895e+004,-6.63087622111752e-001,-7.61683553486593e-001

7.06162397032520e+004,-6.63087453918060e-001,-7.72315166032326e-001

7.16020056742374e+004,-6.63087278925579e-001,-7.83095146991547e-001

7.26015324253724e+004,-6.63087096833710e-001,-7.94025565876110e-001

7.36150120499896e+004,-6.63086907327999e-001,-8.05108521031737e-001

7.46426393229441e+004,-6.63086710079216e-001,-8.16346140038345e-001

7.56846117380472e+004,-6.63086504742863e-001,-8.27740580117428e-001

7.67411295460207e+004,-6.63086290958502e-001,-8.39294028543251e-001

7.78123957929823e+004,-6.63086068348760e-001,-8.51008703062387e-001

7.88986163594682e+004,-6.63085836518770e-001,-8.62886852315555e-001

7.99999999999995e+004,-6.63085595055334e-001,-8.74930756269277e-001

8.11167583832018e+004,-6.63085343525972e-001,-8.87142726650540e-001

8.22491061324848e+004,-6.63085081478174e-001,-8.99525107388730e-001

8.33972608672892e+004,-6.63084808438327e-001,-9.12080275063961e-001

8.45614432449099e+004,-6.63084523910939e-001,-9.24810639360873e-001

8.57418770029029e+004,-6.63084227377523e-001,-9.37718643529550e-001

8.69387890020841e+004,-6.63083918295533e-001,-9.50806764852928e-001

8.81524092701283e+004,-6.63083596097391e-001,-9.64077515119280e-001

8.93829710457770e+004,-6.63083260189265e-001,-9.77533441103940e-001

9.06307108236633e+004,-6.63082909949954e-001,-9.91177125055045e-001

9.18958683997622e+004,-6.63082544729566e-001,-1.00501118518831e+000

9.31786869174758e+004,-6.63082163848464e-001,-1.01903827618699e+000

9.44794129143618e+004,-6.63081766595734e-001,-1.03326108971019e+000

9.57982963695136e+004,-6.63081352227840e-001,-1.04768235490780e+000

9.71355907516031e+004,-6.63080919967414e-001,-1.06230483894237e+000

9.84915530675926e+004,-6.63080469001458e-001,-1.07713134751924e+000

9.98664439121282e+004,-6.63079998480057e-001,-1.09216472542295e+000

1.01260527517622e+005,-6.63079507514678e-001,-1.10740785706258e+000

1.02674071805032e+005,-6.63078995176611e-001,-1.12286366702322e+000

1.04107348435354e+005,-6.63078460495096e-001,-1.13853512062724e+000

1.05560632861831e+005,-6.63077902455689e-001,-1.15442522450125e+000

1.07034204382888e+005,-6.63077319998477e-001,-1.17053702715278e+000

1.08528346195813e+005,-6.63076712016050e-001,-1.18687361955489e+000

1.10043345451179e+005,-6.63076077351514e-001,-1.20343813573817e+000

1.11579493308032e+005,-6.63075414796612e-001,-1.22023375339263e+000

1.13137084989847e+005,-6.63074723089545e-001,-1.23726369447637e+000

1.14716419841265e+005,-6.63074000912770e-001,-1.25453122583444e+000

1.16317801385624e+005,-6.63073246890874e-001,-1.27203965982597e+000

1.17941537383287e+005,-6.63072459588056e-001,-1.28979235496026e+000

1.19587939890794e+005,-6.63071637506063e-001,-1.30779271654136e+000

1.21257325320831e+005,-6.63070779081424e-001,-1.32604419732373e+000

1.22950014503040e+005,-6.63069882683138e-001,-1.34455029817492e+000

1.24666332745679e+005,-6.63068946609895e-001,-1.36331456874917e+000

1.26406609898139e+005,-6.63067969087616e-001,-1.38234060817082e+000

1.28171180414339e+005,-6.63066948266460e-001,-1.40163206572672e+000

1.29960383416997e+005,-6.63065882218178e-001,-1.42119264156888e+000

1.31774562762811e+005,-6.63064768933174e-001,-1.44102608742757e+000

1.33614067108538e+005,-6.63063606317421e-001,-1.46113620733464e+000

1.35479249978003e+005,-6.63062392189547e-001,-1.48152685835653e+000

1.37370469830040e+005,-6.63061124277479e-001,-1.50220195133915e+000

1.39288090127379e+005,-6.63059800215581e-001,-1.52316545166216e+000

1.41232479406504e+005,-6.63058417541086e-001,-1.54442138000473e+000

1.43204011348474e+005,-6.63056973690694e-001,-1.56597381312343e+000

1.45203064850745e+005,-6.63055465997459e-001,-1.58782688463868e+000

1.47230024099979e+005,-6.63053891686941e-001,-1.60998478583586e+000

1.49285278645888e+005,-6.63052247873776e-001,-1.63245176647539e+000

1.51369223476094e+005,-6.63050531558001e-001,-1.65523213561596e+000

1.53482259092041e+005,-6.63048739621358e-001,-1.67833026244878e+000

1.55624791585964e+005,-6.63046868823420e-001,-1.70175057714535e+000

1.57797232718936e+005,-6.63044915797787e-001,-1.72549757171558e+000

1.59999999999999e+005,-6.63042877048162e-001,-1.74957580087962e+000

1.62233516766403e+005,-6.63040748944216e-001,-1.77398988295237e+000

1.64498212264969e+005,-6.63038527717837e-001,-1.79874450073948e+000

1.66794521734578e+005,-6.63036209458680e-001,-1.82384440244849e+000

1.69122886489819e+005,-6.63033790110110e-001,-1.84929440261088e+000

1.71483754005805e+005,-6.63031265465110e-001,-1.87509938301876e+000

1.73877578004168e+005,-6.63028631161759e-001,-1.90126429367497e+000

1.76304818540256e+005,-6.63025882679019e-001,-1.92779415375639e+000

1.78765942091554e+005,-6.63023015332330e-001,-1.95469405259138e+000

1.81261421647326e+005,-6.63020024269116e-001,-1.98196915065204e+000

1.83791736799524e+005,-6.63016904464394e-001,-2.00962468055887e+000

1.86357373834951e+005,-6.63013650716181e-001,-2.03766594810197e+000

1.88958825828723e+005,-6.63010257640937e-001,-2.06609833327541e+000

1.91596592739027e+005,-6.63006719668820e-001,-2.09492729132740e+000

1.94271181503206e+005,-6.63003031039341e-001,-2.12415835382449e+000

1.96983106135185e+005,-6.62999185796401e-001,-2.15379712973167e+000

1.99732887824256e+005,-6.62995177783682e-001,-2.18384930650755e+000

2.02521055035243e+005,-6.62991000639873e-001,-2.21432065121561e+000

2.05348143610063e+005,-6.62986647793862e-001,-2.24521701165054e+000

2.08214696870707e+005,-6.62982112459998e-001,-2.27654431748062e+000

2.11121265723661e+005,-6.62977387633210e-001,-2.30830858140653e+000

2.14068408765776e+005,-6.62972466083997e-001,-2.34051590033701e+000

2.17056692391625e+005,-6.62967340353766e-001,-2.37317245657947e+000

2.20086690902357e+005,-6.62962002749648e-001,-2.40628451904952e+000

2.23158986616063e+005,-6.62956445339729e-001,-2.43985844449474e+000

2.26274169979693e+005,-6.62950659947902e-001,-2.47390067873867e+000

2.29432839682530e+005,-6.62944638148824e-001,-2.50841775793984e+000

2.32635602771247e+005,-6.62938371263036e-001,-2.54341630986855e+000

2.35883074766574e+005,-6.62931850351554e-001,-2.57890305520313e+000

2.39175879781588e+005,-6.62925066210936e-001,-2.61488480884161e+000

2.42514650641661e+005,-6.62918009367907e-001,-2.65136848123406e+000

2.45900029006080e+005,-6.62910670074236e-001,-2.68836107973138e+000

2.49332665491357e+005,-6.62903038301299e-001,-2.72586970995381e+000

2.52813219796278e+005,-6.62895103734718e-001,-2.76390157717765e+000

2.56342360828676e+005,-6.62886855768933e-001,-2.80246398774186e+000

2.59920766833993e+005,-6.62878283501647e-001,-2.84156435047241e+000

2.63549125525621e+005,-6.62869375728146e-001,-2.88121017812831e+000

2.67228134217075e+005,-6.62860120935658e-001,-2.92140908886514e+000

2.70958499956006e+005,-6.62850507297451e-001,-2.96216880772068e+000

2.74740939660078e+005,-6.62840522666933e-001,-3.00349716811895e+000

2.78576180254757e+005,-6.62830154571568e-001,-3.04540211339594e+000

2.82464958813007e+005,-6.62819390206711e-001,-3.08789169834622e+000

2.86408022696948e+005,-6.62808216429172e-001,-3.13097409078962e+000

2.90406129701488e+005,-6.62796619750781e-001,-3.17465757316026e+000

2.94460048199957e+005,-6.62784586331635e-001,-3.21895054411666e+000

2.98570557291775e+005,-6.62772101973247e-001,-3.26386152017412e+000

3.02738446952187e+005,-6.62759152111484e-001,-3.30939913735907e+000

3.06964518184081e+005,-6.62745721809268e-001,-3.35557215288602e+000

3.11249583171928e+005,-6.62731795749014e-001,-3.40238944685766e+000

3.15594465437872e+005,-6.62717358224906e-001,-3.44986002398776e+000

3.19999999999997e+005,-6.62702393134856e-001,-3.49799301534786e+000

3.24467033532806e+005,-6.62686883972141e-001,-3.54679768013809e+000

3.28996424529938e+005,-6.62670813816870e-001,-3.59628340748177e+000

3.33589043469155e+005,-6.62654165327019e-001,-3.64645971824475e+000

3.38245772979638e+005,-6.62636920729209e-001,-3.69733626688046e+000

3.42967508011610e+005,-6.62619061809072e-001,-3.74892284329924e+000

3.47755156008335e+005,-6.62600569901418e-001,-3.80122937476400e+000

3.52609637080511e+005,-6.62581425879718e-001,-3.85426592781287e+000

3.57531884183106e+005,-6.62561610145590e-001,-3.90804271020692e+000

3.62522843294651e+005,-6.62541102617508e-001,-3.96257007290645e+000

3.67583473599047e+005,-6.62519882719365e-001,-4.01785851207337e+000

3.72714747669902e+005,-6.62497929368336e-001,-4.07391867110332e+000

3.77917651657445e+005,-6.62475220962455e-001,-4.13076134268431e+000

3.83193185478053e+005,-6.62451735367708e-001,-4.18839747088576e+000

3.88542363006410e+005,-6.62427449904608e-001,-4.24683815327587e+000

3.93966212270369e+005,-6.62402341334065e-001,-4.30609464306951e+000

3.99465775648511e+005,-6.62376385843129e-001,-4.36617835130650e+000

4.05042110070485e+005,-6.62349559029793e-001,-4.42710084906000e+000

4.10696287220124e+005,-6.62321835887481e-001,-4.48887386967715e+000

4.16429393741414e+005,-6.62293190788872e-001,-4.55150931105167e+000

4.22242531447321e+005,-6.62263597469168e-001,-4.61501923792779e+000

4.28136817531551e+005,-6.62233029008705e-001,-4.67941588423869e+000

4.34113384783250e+005,-6.62201457814946e-001,-4.74471165547768e+000

4.40173381804713e+005,-6.62168855604005e-001,-4.81091913110335e+000

4.46317973232124e+005,-6.62135193381298e-001,-4.87805106698003e+000

4.52548339959385e+005,-6.62100441421617e-001,-4.94612039785333e+000

4.58865679365059e+005,-6.62064569248578e-001,-5.01514023986117e+000

4.65271205542494e+005,-6.62027545613332e-001,-5.08512389308214e+000

4.71766149533147e+005,-6.61989338472616e-001,-5.15608484412007e+000

4.78351759563174e+005,-6.61949914966005e-001,-5.22803676872677e+000

4.85029301283321e+005,-6.61909241392604e-001,-5.30099353446317e+000

4.91800058012158e+005,-6.61867283186708e-001,-5.37496920339965e+000

4.98665330982714e+005,-6.61824004893052e-001,-5.44997803485506e+000

5.05626439592555e+005,-6.61779370141071e-001,-5.52603448817730e+000

5.12684721657352e+005,-6.61733341618406e-001,-5.60315322556381e+000

5.19841533667984e+005,-6.61685881043721e-001,-5.68134911492460e+000

5.27098251051240e+005,-6.61636949138547e-001,-5.76063723278659e+000

5.34456268434150e+005,-6.61586505598498e-001,-5.84103286724194e+000

5.41916999912011e+005,-6.61534509063547e-001,-5.92255152093952e+000

