Freq.,VOut,OutRef

1.00000000000000e+004,-2.02428060417851e+001,-3.14666694981862e-001

1.01395947979003e+004,-2.02428092334911e+001,-3.19058793497905e-001

1.02811382665607e+004,-2.02428125147976e+001,-3.23512182862757e-001

1.04246576084112e+004,-2.02428158882162e+001,-3.28027717793100e-001

1.05701804056138e+004,-2.02428193563285e+001,-3.32606264902079e-001

1.07177346253629e+004,-2.02428229217888e+001,-3.37248702857837e-001

1.08673486252606e+004,-2.02428265873247e+001,-3.41955922559962e-001

1.10190511587661e+004,-2.02428303557407e+001,-3.46728827297496e-001

1.11728713807222e+004,-2.02428342299194e+001,-3.51568332928182e-001

1.13288388529580e+004,-2.02428382128235e+001,-3.56475368049876e-001

1.14869835499703e+004,-2.02428423074991e+001,-3.61450874173858e-001

1.16473358646846e+004,-2.02428465170768e+001,-3.66495805906613e-001

1.18099266142953e+004,-2.02428508447747e+001,-3.71611131129366e-001

1.19747870461893e+004,-2.02428552939007e+001,-3.76797831179912e-001

1.21419488439505e+004,-2.02428598678550e+001,-3.82056901040299e-001

1.23114441334492e+004,-2.02428645701325e+001,-3.87389349523312e-001

1.24833054890161e+004,-2.02428694043257e+001,-3.92796199464268e-001

1.26575659397028e+004,-2.02428743741270e+001,-3.98278487913650e-001

1.28342589756290e+004,-2.02428794833319e+001,-4.03837266332262e-001

1.30134185544193e+004,-2.02428847358416e+001,-4.09473600790999e-001

1.31950791077289e+004,-2.02428901356659e+001,-4.15188572171463e-001

1.33792755478611e+004,-2.02428956869262e+001,-4.20983276369348e-001

1.35660432744767e+004,-2.02429013938587e+001,-4.26858824500402e-001

1.37554181813974e+004,-2.02429072608176e+001,-4.32816343110494e-001

1.39474366635040e+004,-2.02429132922781e+001,-4.38856974387866e-001

1.41421356237309e+004,-2.02429194928397e+001,-4.44981876377743e-001

1.43395524801583e+004,-2.02429258672303e+001,-4.51192223198378e-001

1.45397251732031e+004,-2.02429324203087e+001,-4.57489205264257e-001

1.47426921729110e+004,-2.02429391570689e+001,-4.63874029508860e-001

1.49484924863494e+004,-2.02429460826437e+001,-4.70347919608735e-001

1.51571656651040e+004,-2.02429532023082e+001,-4.76912116216260e-001

1.53687518128801e+004,-2.02429605214842e+001,-4.83567877190004e-001

1.55832915932100e+004,-2.02429680457438e+001,-4.90316477831105e-001

1.58008262372675e+004,-2.02429757808138e+001,-4.97159211120942e-001

1.60213975517924e+004,-2.02429837325795e+001,-5.04097387963936e-001

1.62450479271247e+004,-2.02429919070896e+001,-5.11132337432190e-001

1.64718203453514e+004,-2.02430003105603e+001,-5.18265407012590e-001

1.67017583885674e+004,-2.02430089493799e+001,-5.25497962860306e-001

1.69349062472505e+004,-2.02430178301135e+001,-5.32831390051049e-001

1.71713087287550e+004,-2.02430269595082e+001,-5.40267092838923e-001

1.74110112659224e+004,-2.02430363444971e+001,-5.47806494921218e-001

1.76540599258131e+004,-2.02430459922056e+001,-5.55451039697940e-001

1.79005014185594e+004,-2.02430559099557e+001,-5.63202190543405e-001

1.81503831063432e+004,-2.02430661052714e+001,-5.71061431078005e-001

1.84037530124975e+004,-2.02430765858850e+001,-5.79030265439302e-001

1.86606598307361e+004,-2.02430873597414e+001,-5.87110218565001e-001

1.89211529345119e+004,-2.02430984350052e+001,-5.95302836472507e-001

1.91852823865052e+004,-2.02431098200657e+001,-6.03609686545493e-001

1.94530989482457e+004,-2.02431215235434e+001,-6.12032357822260e-001

1.97246540898671e+004,-2.02431335542961e+001,-6.20572461289842e-001

1.99999999999999e+004,-2.02431459214252e+001,-6.29231630180993e-001

2.02791895958005e+004,-2.02431586342826e+001,-6.38011520272011e-001

2.05622765331213e+004,-2.02431717024770e+001,-6.46913810190158e-001

2.08493152168224e+004,-2.02431851358807e+001,-6.55940201720744e-001

2.11403608112276e+004,-2.02431989446377e+001,-6.65092420116198e-001

2.14354692507258e+004,-2.02432131391694e+001,-6.74372214416650e-001

2.17346972505211e+004,-2.02432277301831e+001,-6.83781357766841e-001

2.20381023175322e+004,-2.02432427286796e+001,-6.93321647738014e-001

2.23457427614443e+004,-2.02432581459602e+001,-7.02994906660596e-001

2.26576777059159e+004,-2.02432739936355e+001,-7.12802981951443e-001

2.29739670999406e+004,-2.02432902836335e+001,-7.22747746450308e-001

2.32946717293690e+004,-2.02433070282075e+001,-7.32831098762710e-001

2.36198532285905e+004,-2.02433242399452e+001,-7.43054963600201e-001

2.39495740923785e+004,-2.02433419317774e+001,-7.53421292130779e-001

2.42838976879009e+004,-2.02433601169870e+001,-7.63932062330401e-001

2.46228882668982e+004,-2.02433788092181e+001,-7.74589279340012e-001

2.49666109780322e+004,-2.02433980224859e+001,-7.85394975826478e-001

2.53151318794055e+004,-2.02434177711860e+001,-7.96351212347141e-001

2.56685179512580e+004,-2.02434380701044e+001,-8.07460077720498e-001

2.60268371088386e+004,-2.02434589344283e+001,-8.18723689398837e-001

2.63901582154578e+004,-2.02434803797554e+001,-8.30144193847740e-001

2.67585510957221e+004,-2.02435024221056e+001,-8.41723766928953e-001

2.71320865489533e+004,-2.02435250779313e+001,-8.53464614285997e-001

2.75108363627948e+004,-2.02435483641292e+001,-8.65368971736948e-001

2.78948733270080e+004,-2.02435722980507e+001,-8.77439105672691e-001

2.82842712474618e+004,-2.02435968975151e+001,-8.89677313452716e-001

2.86791049603164e+004,-2.02436221808201e+001,-9.02085923816408e-001

2.90794503464061e+004,-2.02436481667548e+001,-9.14667297288559e-001

2.94853843458219e+004,-2.02436748746126e+001,-9.27423826595971e-001

2.98969849726987e+004,-2.02437023242029e+001,-9.40357937087059e-001

3.03143313302078e+004,-2.02437305358653e+001,-9.53472087154680e-001

3.07375036257601e+004,-2.02437595304824e+001,-9.66768768665762e-001

3.11665831864199e+004,-2.02437893294934e+001,-9.80250507394158e-001

3.16016524745350e+004,-2.02438199549088e+001,-9.93919863458864e-001

3.20427951035848e+004,-2.02438514293237e+001,-1.00777943176690e+000

3.24900958542493e+004,-2.02438837759331e+001,-1.02183184246230e+000

3.29436406907028e+004,-2.02439170185467e+001,-1.03607976137664e+000

3.34035167771346e+004,-2.02439511816038e+001,-1.05052589048730e+000

3.38698124945009e+004,-2.02439862901890e+001,-1.06517296838082e+000

3.43426174575100e+004,-2.02440223700483e+001,-1.08002377071742e+000

3.48220225318448e+004,-2.02440594476048e+001,-1.09508111070589e+000

3.53081198516260e+004,-2.02440975499758e+001,-1.11034783957780e+000

3.58010028371187e+004,-2.02441367049890e+001,-1.12582684707144e+000

3.63007662126863e+004,-2.02441769412000e+001,-1.14152106191647e+000

3.68075060249948e+004,-2.02442182879097e+001,-1.15743345232759e+000

3.73213196614721e+004,-2.02442607751823e+001,-1.17356702649862e+000

3.78423058690237e+004,-2.02443044338632e+001,-1.18992483310591e+000

3.83705647730104e+004,-2.02443492955976e+001,-1.20650996181419e+000

3.89061978964912e+004,-2.02443953928493e+001,-1.22332554378746e+000

3.94493081797342e+004,-2.02444427589201e+001,-1.24037475220515e+000

3.99999999999998e+004,-2.02444914279689e+001,-1.25766080278398e+000

4.05583791916010e+004,-2.02445414350316e+001,-1.27518695430412e+000

4.11245530662425e+004,-2.02445928160418e+001,-1.29295650913968e+000

4.16986304336447e+004,-2.02446456078506e+001,-1.31097281379511e+000

4.22807216224550e+004,-2.02446998482478e+001,-1.32923925944617e+000

4.28709385014515e+004,-2.02447555759832e+001,-1.34775928248628e+000

4.34693945010421e+004,-2.02448128307875e+001,-1.36653636507688e+000

4.40762046350642e+004,-2.02448716533948e+001,-1.38557403570382e+000

4.46914855228886e+004,-2.02449320855644e+001,-1.40487586973727e+000

4.53153554118317e+004,-2.02449941701032e+001,-1.42444548999854e+000

4.59479341998812e+004,-2.02450579508882e+001,-1.44428656733066e+000

4.65893434587380e+004,-2.02451234728903e+001,-1.46440282117323e+000

4.72397064571810e+004,-2.02451907821966e+001,-1.48479802014336e+000

4.78991481847569e+004,-2.02452599260349e+001,-1.50547598262074e+000

4.85677953758016e+004,-2.02453309527970e+001,-1.52644057733872e+000

4.92457765337964e+004,-2.02454039120629e+001,-1.54769572397924e+000

4.99332219560642e+004,-2.02454788546254e+001,-1.56924539377222e+000

5.06302637588109e+004,-2.02455558325144e+001,-1.59109361010230e+000

5.13370359025159e+004,-2.02456348990220e+001,-1.61324444911640e+000

5.20536742176771e+004,-2.02457161087274e+001,-1.63570204034082e+000

5.27803164309155e+004,-2.02457995175219e+001,-1.65847056730021e+000

5.35171021914442e+004,-2.02458851826347e+001,-1.68155426814088e+000

5.42641730979066e+004,-2.02459731626580e+001,-1.70495743626325e+000

5.50216727255895e+004,-2.02460635175731e+001,-1.72868442095326e+000

5.57897466540159e+004,-2.02461563087757e+001,-1.75273962802411e+000

5.65685424949235e+004,-2.02462515991020e+001,-1.77712752045922e+000

5.73582099206328e+004,-2.02463494528546e+001,-1.80185261906279e+000

5.81589006928121e+004,-2.02464499358285e+001,-1.82691950311375e+000

5.89707686916437e+004,-2.02465531153369e+001,-1.85233281102427e+000

5.97939699453972e+004,-2.02466590602371e+001,-1.87809724100643e+000

6.06286626604156e+004,-2.02467678409566e+001,-1.90421755174024e+000

6.14750072515201e+004,-2.02468795295185e+001,-1.93069856304933e+000

6.23331663728396e+004,-2.02469941995676e+001,-1.95754515658085e+000

6.32033049490698e+004,-2.02471119263955e+001,-1.98476227649163e+000

6.40855902071694e+004,-2.02472327869660e+001,-2.01235493013843e+000

6.49801917084985e+004,-2.02473568599402e+001,-2.04032818877585e+000

6.58872813814055e+004,-2.02474842257014e+001,-2.06868718825634e+000

6.68070335542691e+004,-2.02476149663790e+001,-2.09743712974098e+000

6.77396249890018e+004,-2.02477491658732e+001,-2.12658328041112e+000

6.86852349150199e+004,-2.02478869098782e+001,-2.15613097419010e+000

6.96440450636895e+004,-2.02480282859056e+001,-2.18608561246781e+000

7.06162397032520e+004,-2.02481733833070e+001,-2.21645266483571e+000

7.16020056742374e+004,-2.02483222932956e+001,-2.24723766982427e+000

7.26015324253724e+004,-2.02484751089686e+001,-2.27844623565021e+000

7.36150120499896e+004,-2.02486319253270e+001,-2.31008404096962e+000

7.46426393229441e+004,-2.02487928392960e+001,-2.34215683563950e+000

7.56846117380472e+004,-2.02489579497440e+001,-2.37467044148595e+000

7.67411295460207e+004,-2.02491273575013e+001,-2.40763075308041e+000

7.78123957929823e+004,-2.02493011653769e+001,-2.44104373852573e+000

7.88986163594682e+004,-2.02494794781752e+001,-2.47491544024987e+000

7.99999999999995e+004,-2.02496624027113e+001,-2.50925197580882e+000

8.11167583832018e+004,-2.02498500478252e+001,-2.54405953869980e+000

8.22491061324848e+004,-2.02500425243941e+001,-2.57934439918459e+000

8.33972608672892e+004,-2.02502399453453e+001,-2.61511290512331e+000

8.45614432449099e+004,-2.02504424256654e+001,-2.65137148281934e+000

8.57418770029029e+004,-2.02506500824097e+001,-2.68812663787676e+000

8.69387890020841e+004,-2.02508630347100e+001,-2.72538495607012e+000

8.81524092701283e+004,-2.02510814037796e+001,-2.76315310422654e+000

8.93829710457770e+004,-2.02513053129186e+001,-2.80143783112437e+000

9.06307108236633e+004,-2.02515348875157e+001,-2.84024596840331e+000

9.18958683997622e+004,-2.02517702550494e+001,-2.87958443149218e+000

9.31786869174758e+004,-2.02520115450870e+001,-2.91946022055416e+000

9.44794129143618e+004,-2.02522588892819e+001,-2.95988042144588e+000

9.57982963695136e+004,-2.02525124213683e+001,-3.00085220669971e+000

9.71355907516031e+004,-2.02527722771551e+001,-3.04238283652190e+000

9.84915530675926e+004,-2.02530385945165e+001,-3.08447965981275e+000

9.98664439121282e+004,-2.02533115133814e+001,-3.12715011520907e+000

1.01260527517622e+005,-2.02535911757204e+001,-3.17040173214870e+000

1.02674071805032e+005,-2.02538777255304e+001,-3.21424213196007e+000

1.04107348435354e+005,-2.02541713088170e+001,-3.25867902897732e+000

1.05560632861831e+005,-2.02544720735752e+001,-3.30372023168231e+000

1.07034204382888e+005,-2.02547801697676e+001,-3.34937364387511e+000

1.08528346195813e+005,-2.02550957492994e+001,-3.39564726587566e+000

1.10043345451179e+005,-2.02554189659931e+001,-3.44254919575508e+000

1.11579493308032e+005,-2.02557499755591e+001,-3.49008763060259e+000

1.13137084989847e+005,-2.02560889355649e+001,-3.53827086782602e+000

1.14716419841265e+005,-2.02564360054023e+001,-3.58710730648946e+000

1.16317801385624e+005,-2.02567913462518e+001,-3.63660544869001e+000

1.17941537383287e+005,-2.02571551210459e+001,-3.68677390097447e+000

1.19587939890794e+005,-2.02575274944290e+001,-3.73762137579869e+000

1.21257325320831e+005,-2.02579086327169e+001,-3.78915669303172e+000

1.22950014503040e+005,-2.02582987038533e+001,-3.84138878150542e+000

1.24666332745679e+005,-2.02586978773651e+001,-3.89432668061386e+000

1.26406609898139e+005,-2.02591063243165e+001,-3.94797954196144e+000

1.28171180414339e+005,-2.02595242172608e+001,-4.00235663106575e+000

1.29960383416997e+005,-2.02599517301919e+001,-4.05746732911371e+000

1.31774562762811e+005,-2.02603890384943e+001,-4.11332113477469e+000

1.33614067108538e+005,-2.02608363188923e+001,-4.16992766607379e+000

1.35479249978003e+005,-2.02612937493991e+001,-4.22729666232470e+000

1.37370469830040e+005,-2.02617615092649e+001,-4.28543798612777e+000

1.39288090127379e+005,-2.02622397789257e+001,-4.34436162543116e+000

1.41232479406504e+005,-2.02627287399524e+001,-4.40407769566176e+000

1.43204011348474e+005,-2.02632285749996e+001,-4.46459644192418e+000

1.45203064850745e+005,-2.02637394677572e+001,-4.52592824127183e+000

1.47230024099979e+005,-2.02642616029017e+001,-4.58808360505152e+000

1.49285278645888e+005,-2.02647951660502e+001,-4.65107318132320e+000

1.51369223476094e+005,-2.02653403437171e+001,-4.71490775735623e+000

1.53482259092041e+005,-2.02658973232724e+001,-4.77959826220560e+000

1.55624791585964e+005,-2.02664662929045e+001,-4.84515576936753e+000

1.57797232718936e+005,-2.02670474415859e+001,-4.91159149951628e+000

1.59999999999999e+005,-2.02676409590438e+001,-4.97891682332545e+000

1.62233516766403e+005,-2.02682470357352e+001,-5.04714326437104e+000

1.64498212264969e+005,-2.02688658628278e+001,-5.11628250212256e+000

1.66794521734578e+005,-2.02694976321869e+001,-5.18634637501641e+000

1.69122886489819e+005,-2.02701425363692e+001,-5.25734688361808e+000

1.71483754005805e+005,-2.02708007686234e+001,-5.32929619386970e+000

1.73877578004168e+005,-2.02714725228999e+001,-5.40220664042478e+000

1.76304818540256e+005,-2.02721579938683e+001,-5.47609073006941e+000

1.78765942091554e+005,-2.02728573769451e+001,-5.55096114522929e+000

1.81261421647326e+005,-2.02735708683311e+001,-5.62683074756271e+000

1.83791736799524e+005,-2.02742986650598e+001,-5.70371258163738e+000

1.86357373834951e+005,-2.02750409650577e+001,-5.78161987869174e+000

1.88958825828723e+005,-2.02757979672166e+001,-5.86056606047648e+000

1.91596592739027e+005,-2.02765698714796e+001,-5.94056474317741e+000

1.94271181503206e+005,-2.02773568789397e+001,-6.02162974141534e+000

1.96983106135185e+005,-2.02781591919547e+001,-6.10377507232128e+000

1.99732887824256e+005,-2.02789770142757e+001,-6.18701495968447e+000

2.02521055035243e+005,-2.02798105511926e+001,-6.27136383816964e+000

2.05348143610063e+005,-2.02806600096959e+001,-6.35683635760030e+000

2.08214696870707e+005,-2.02815255986558e+001,-6.44344738730430e+000

2.11121265723661e+005,-2.02824075290194e+001,-6.53121202051785e+000

2.14068408765776e+005,-2.02833060140259e+001,-6.62014557884268e+000

2.17056692391625e+005,-2.02842212694419e+001,-6.71026361675379e+000

2.20086690902357e+005,-2.02851535138153e+001,-6.80158192614947e+000

2.23158986616063e+005,-2.02861029687503e+001,-6.89411654094241e+000

2.26274169979693e+005,-2.02870698592021e+001,-6.98788374168347e+000

2.29432839682530e+005,-2.02880544137935e+001,-7.08290006021287e+000

2.32635602771247e+005,-2.02890568651521e+001,-7.17918228433473e+000

2.35883074766574e+005,-2.02900774502701e+001,-7.27674746250697e+000

2.39175879781588e+005,-2.02911164108848e+001,-7.37561290853984e+000

2.42514650641661e+005,-2.02921739938826e+001,-7.47579620630007e+000

2.45900029006080e+005,-2.02932504517242e+001,-7.57731521440983e+000

2.49332665491357e+005,-2.02943460428926e+001,-7.68018807093647e+000

2.52813219796278e+005,-2.02954610323637e+001,-7.78443319806657e+000

2.56342360828676e+005,-2.02965956920983e+001,-7.89006930675566e+000

2.59920766833993e+005,-2.02977503015578e+001,-7.99711540134949e+000

2.63549125525621e+005,-2.02989251482400e+001,-8.10559078416796e+000

2.67228134217075e+005,-2.03001205282382e+001,-8.21551506004709e+000

2.70958499956006e+005,-2.03013367468210e+001,-8.32690814083161e+000

2.74740939660078e+005,-2.03025741190334e+001,-8.43979024981103e+000

2.78576180254757e+005,-2.03038329703186e+001,-8.55418192609636e+000

2.82464958813007e+005,-2.03051136371596e+001,-8.67010402892780e+000

2.86408022696948e+005,-2.03064164677407e+001,-8.78757774190999e+000

2.90406129701488e+005,-2.03077418226280e+001,-8.90662457716904e+000

2.94460048199957e+005,-2.03090900754687e+001,-9.02726637942671e+000

2.98570557291775e+005,-2.03104616137068e+001,-9.14952532998625e+000

3.02738446952187e+005,-2.03118568393174e+001,-9.27342395062590e+000

3.06964518184081e+005,-2.03132761695561e+001,-9.39898510739656e+000

3.11249583171928e+005,-2.03147200377241e+001,-9.52623201431957e+000

3.15594465437872e+005,-2.03161888939483e+001,-9.65518823698094e+000

3.19999999999997e+005,-2.03176832059746e+001,-9.78587769602106e+000

3.24467033532806e+005,-2.03192034599748e+001,-9.91832467051498e+000

3.28996424529938e+005,-2.03207501613645e+001,-1.00525538012439e+001

3.33589043469155e+005,-2.03223238356340e+001,-1.01885900938544e+001

3.38245772979638e+005,-2.03239250291876e+001,-1.03264589219055e+001

3.42967508011610e+005,-2.03255543101939e+001,-1.04661860298027e+001

3.47755156008335e+005,-2.03272122694445e+001,-1.06077975356187e+001

3.52609637080511e+005,-2.03288995212199e+001,-1.07513199338000e+001

3.57531884183106e+005,-2.03306167041639e+001,-1.08967800977624e+001

3.62522843294651e+005,-2.03323644821630e+001,-1.10442052823733e+001

3.67583473599047e+005,-2.03341435452327e+001,-1.11936231263243e+001

3.72714747669902e+005,-2.03359546104079e+001,-1.13450616543946e+001

3.77917651657445e+005,-2.03377984226384e+001,-1.14985492796072e+001

3.83193185478053e+005,-2.03396757556880e+001,-1.16541148052799e+001

3.88542363006410e+005,-2.03415874130371e+001,-1.18117874269735e+001

3.93966212270369e+005,-2.03435342287877e+001,-1.19715967343401e+001

3.99465775648511e+005,-2.03455170685714e+001,-1.21335727128728e+001

4.05042110070485e+005,-2.03475368304592e+001,-1.22977457455620e+001

4.10696287220124e+005,-2.03495944458737e+001,-1.24641466144569e+001

4.16429393741414e+005,-2.03516908805017e+001,-1.26328065021408e+001

4.22242531447321e+005,-2.03538271352096e+001,-1.28037569931172e+001

4.28136817531551e+005,-2.03560042469592e+001,-1.29770300751136e+001

4.34113384783250e+005,-2.03582232897254e+001,-1.31526581403036e+001

4.40173381804713e+005,-2.03604853754146e+001,-1.33306739864508e+001

4.46317973232124e+005,-2.03627916547848e+001,-1.35111108179763e+001

4.52548339959385e+005,-2.03651433183673e+001,-1.36940022469524e+001

4.58865679365059e+005,-2.03675415973901e+001,-1.38793822940248e+001

4.65271205542494e+005,-2.03699877647025e+001,-1.40672853892636e+001

4.71766149533147e+005,-2.03724831357029e+001,-1.42577463729458e+001

4.78351759563174e+005,-2.03750290692682e+001,-1.44508004962712e+001

4.85029301283321e+005,-2.03776269686865e+001,-1.46464834220093e+001

4.91800058012158e+005,-2.03802782825932e+001,-1.48448312250815e+001

4.98665330982714e+005,-2.03829845059100e+001,-1.50458803930751e+001

5.05626439592555e+005,-2.03857471807884e+001,-1.52496678266910e+001

5.12684721657352e+005,-2.03885678975580e+001,-1.54562308401233e+001

5.19841533667984e+005,-2.03914482956794e+001,-1.56656071613693e+001

5.27098251051240e+005,-2.03943900647024e+001,-1.58778349324682e+001

5.34456268434150e+005,-2.03973949452305e+001,-1.60929527096667e+001

5.41916999912011e+005,-2.04004647298918e+001,-1.63109994635082e+001

