Freq.,VOut,OutRef

1.00000000000000e+004,-1.46888211224243e+001,-1.17708652099772e-001

1.01395947979003e+004,-1.46888235932190e+001,-1.19351290141995e-001

1.02811382665607e+004,-1.46888261333357e+001,-1.21016836780410e-001

1.04246576084112e+004,-1.46888287447153e+001,-1.22705610884006e-001

1.05701804056138e+004,-1.46888314293526e+001,-1.24417935735168e-001

1.07177346253629e+004,-1.46888341892981e+001,-1.26154139088534e-001

1.08673486252606e+004,-1.46888370266597e+001,-1.27914553229443e-001

1.10190511587661e+004,-1.46888399436037e+001,-1.29699515039938e-001

1.11728713807222e+004,-1.46888429423567e+001,-1.31509366058244e-001

1.13288388529580e+004,-1.46888460252076e+001,-1.33344452541424e-001

1.14869835499703e+004,-1.46888491945091e+001,-1.35205125529167e-001

1.16473358646846e+004,-1.46888524526786e+001,-1.37091740913798e-001

1.18099266142953e+004,-1.46888558022015e+001,-1.39004659496530e-001

1.19747870461893e+004,-1.46888592456322e+001,-1.40944247060326e-001

1.21419488439505e+004,-1.46888627855959e+001,-1.42910874436056e-001

1.23114441334492e+004,-1.46888664247908e+001,-1.44904917569170e-001

1.24833054890161e+004,-1.46888701659903e+001,-1.46926757588643e-001

1.26575659397028e+004,-1.46888740120444e+001,-1.48976780879543e-001

1.28342589756290e+004,-1.46888779658828e+001,-1.51055379146326e-001

1.30134185544193e+004,-1.46888820305159e+001,-1.53162949494699e-001

1.31950791077289e+004,-1.46888862090383e+001,-1.55299894492904e-001

1.33792755478611e+004,-1.46888905046298e+001,-1.57466622253532e-001

1.35660432744767e+004,-1.46888949205586e+001,-1.59663546504432e-001

1.37554181813974e+004,-1.46888994601837e+001,-1.61891086660564e-001

1.39474366635040e+004,-1.46889041269569e+001,-1.64149667905053e-001

1.41421356237309e+004,-1.46889089244256e+001,-1.66439721263849e-001

1.43395524801583e+004,-1.46889138562353e+001,-1.68761683681962e-001

1.45397251732031e+004,-1.46889189261326e+001,-1.71115998103677e-001

1.47426921729110e+004,-1.46889241379676e+001,-1.73503113551158e-001

1.49484924863494e+004,-1.46889294956967e+001,-1.75923485206966e-001

1.51571656651040e+004,-1.46889350033859e+001,-1.78377574490711e-001

1.53687518128801e+004,-1.46889406652132e+001,-1.80865849148573e-001

1.55832915932100e+004,-1.46889464854720e+001,-1.83388783330288e-001

1.58008262372675e+004,-1.46889524685741e+001,-1.85946857675066e-001

1.60213975517924e+004,-1.46889586190530e+001,-1.88540559399324e-001

1.62450479271247e+004,-1.46889649415673e+001,-1.91170382378906e-001

1.64718203453514e+004,-1.46889714409033e+001,-1.93836827241001e-001

1.67017583885674e+004,-1.46889781219799e+001,-1.96540401445800e-001

1.69349062472505e+004,-1.46889849898503e+001,-1.99281619383563e-001

1.71713087287550e+004,-1.46889920497075e+001,-2.02061002457664e-001

1.74110112659224e+004,-1.46889993068869e+001,-2.04879079178112e-001

1.76540599258131e+004,-1.46890067668700e+001,-2.07736385256732e-001

1.79005014185594e+004,-1.46890144352889e+001,-2.10633463695910e-001

1.81503831063432e+004,-1.46890223179305e+001,-2.13570864882519e-001

1.84037530124975e+004,-1.46890304207399e+001,-2.16549146686681e-001

1.86606598307361e+004,-1.46890387498246e+001,-2.19568874556707e-001

1.89211529345119e+004,-1.46890473114599e+001,-2.22630621612389e-001

1.91852823865052e+004,-1.46890561120921e+001,-2.25734968747757e-001

1.94530989482457e+004,-1.46890651583437e+001,-2.28882504728374e-001

1.97246540898671e+004,-1.46890744570182e+001,-2.32073826288811e-001

1.99999999999999e+004,-1.46890840151040e+001,-2.35309538239124e-001

2.02791895958005e+004,-1.46890938397804e+001,-2.38590253561100e-001

2.05622765331213e+004,-1.46891039384222e+001,-2.41916593514284e-001

2.08493152168224e+004,-1.46891143186040e+001,-2.45289187742158e-001

2.11403608112276e+004,-1.46891249881070e+001,-2.48708674371059e-001

2.14354692507258e+004,-1.46891359549231e+001,-2.52175700120712e-001

2.17346972505211e+004,-1.46891472272610e+001,-2.55690920410840e-001

2.20381023175322e+004,-1.46891588135517e+001,-2.59254999467508e-001

2.23457427614443e+004,-1.46891707224543e+001,-2.62868610432832e-001

2.26576777059159e+004,-1.46891829628621e+001,-2.66532435472718e-001

2.29739670999406e+004,-1.46891955439079e+001,-2.70247165893203e-001

2.32946717293690e+004,-1.46892084749714e+001,-2.74013502244289e-001

2.36198532285905e+004,-1.46892217656848e+001,-2.77832154437638e-001

2.39495740923785e+004,-1.46892354259386e+001,-2.81703841862198e-001

2.42838976879009e+004,-1.46892494658902e+001,-2.85629293489665e-001

2.46228882668982e+004,-1.46892638959684e+001,-2.89609248000214e-001

2.49666109780322e+004,-1.46892787268819e+001,-2.93644453891412e-001

2.53151318794055e+004,-1.46892939696259e+001,-2.97735669597213e-001

2.56685179512580e+004,-1.46893096354890e+001,-3.01883663608940e-001

2.60268371088386e+004,-1.46893257360615e+001,-3.06089214586885e-001

2.63901582154578e+004,-1.46893422832416e+001,-3.10353111488506e-001

2.67585510957221e+004,-1.46893592892446e+001,-3.14676153680284e-001

2.71320865489533e+004,-1.46893767666097e+001,-3.19059151064629e-001

2.75108363627948e+004,-1.46893947282084e+001,-3.23502924199022e-001

2.78948733270080e+004,-1.46894131872530e+001,-3.28008304418831e-001

2.82842712474618e+004,-1.46894321573048e+001,-3.32576133959144e-001

2.86791049603164e+004,-1.46894516522821e+001,-3.37207266081790e-001

2.90794503464061e+004,-1.46894716864701e+001,-3.41902565196161e-001

2.94853843458219e+004,-1.46894922745285e+001,-3.46662906986672e-001

2.98969849726987e+004,-1.46895134315020e+001,-3.51489178534625e-001

3.03143313302078e+004,-1.46895351728280e+001,-3.56382278450452e-001

3.07375036257601e+004,-1.46895575143474e+001,-3.61343116993028e-001

3.11665831864199e+004,-1.46895804723134e+001,-3.66372616202210e-001

3.16016524745350e+004,-1.46896040634013e+001,-3.71471710023714e-001

3.20427951035848e+004,-1.46896283047191e+001,-3.76641344436018e-001

3.24900958542493e+004,-1.46896532138172e+001,-3.81882477579801e-001

3.29436406907028e+004,-1.46896788086983e+001,-3.87196079887171e-001

3.34035167771346e+004,-1.46897051078289e+001,-3.92583134206787e-001

3.38698124945009e+004,-1.46897321301489e+001,-3.98044635936392e-001

3.43426174575100e+004,-1.46897598950833e+001,-4.03581593149851e-001

3.48220225318448e+004,-1.46897884225526e+001,-4.09195026724582e-001

3.53081198516260e+004,-1.46898177329845e+001,-4.14885970473532e-001

3.58010028371187e+004,-1.46898478473248e+001,-4.20655471271285e-001

3.63007662126863e+004,-1.46898787870489e+001,-4.26504589185681e-001

3.68075060249948e+004,-1.46899105741743e+001,-4.32434397602394e-001

3.73213196614721e+004,-1.46899432312710e+001,-4.38445983357255e-001

3.78423058690237e+004,-1.46899767814750e+001,-4.44540446861814e-001

3.83705647730104e+004,-1.46900112484991e+001,-4.50718902233064e-001

3.89061978964912e+004,-1.46900466566461e+001,-4.56982477417723e-001

3.94493081797342e+004,-1.46900830308208e+001,-4.63332314321607e-001

3.99999999999998e+004,-1.46901203965428e+001,-4.69769568935102e-001

4.05583791916010e+004,-1.46901587799585e+001,-4.76295411457547e-001

4.11245530662425e+004,-1.46901982078549e+001,-4.82911026423951e-001

4.16986304336447e+004,-1.46902387076715e+001,-4.89617612826279e-001

4.22807216224550e+004,-1.46902803075140e+001,-4.96416384238239e-001

4.28709385014515e+004,-1.46903230361667e+001,-5.03308568938009e-001

4.34693945010421e+004,-1.46903669231063e+001,-5.10295410026512e-001

4.40762046350642e+004,-1.46904119985145e+001,-5.17378165549927e-001

4.46914855228886e+004,-1.46904582932917e+001,-5.24558108615752e-001

4.53153554118317e+004,-1.46905058390700e+001,-5.31836527510440e-001

4.59479341998812e+004,-1.46905546682264e+001,-5.39214725818057e-001

4.65893434587380e+004,-1.46906048138966e+001,-5.46694022528735e-001

4.72397064571810e+004,-1.46906563099875e+001,-5.54275752156366e-001

4.78991481847569e+004,-1.46907091911913e+001,-5.61961264846183e-001

4.85677953758016e+004,-1.46907634929977e+001,-5.69751926485643e-001

4.92457765337964e+004,-1.46908192517082e+001,-5.77649118808473e-001

4.99332219560642e+004,-1.46908765044481e+001,-5.85654239502909e-001

5.06302637588109e+004,-1.46909352891795e+001,-5.93768702313145e-001

5.13370359025159e+004,-1.46909956447149e+001,-6.01993937137882e-001

5.20536742176771e+004,-1.46910576107285e+001,-6.10331390132834e-001

5.27803164309155e+004,-1.46911212277698e+001,-6.18782523801775e-001

5.35171021914442e+004,-1.46911865372745e+001,-6.27348817093565e-001

5.42641730979066e+004,-1.46912535815776e+001,-6.36031765490336e-001

5.50216727255895e+004,-1.46913224039236e+001,-6.44832881097723e-001

5.57897466540159e+004,-1.46913930484789e+001,-6.53753692727912e-001

5.65685424949235e+004,-1.46914655603419e+001,-6.62795745982892e-001

5.73582099206328e+004,-1.46915399855538e+001,-6.71960603333740e-001

5.81589006928121e+004,-1.46916163711082e+001,-6.81249844198576e-001

5.89707686916437e+004,-1.46916947649606e+001,-6.90665065013098e-001

5.97939699453972e+004,-1.46917752160377e+001,-7.00207879303456e-001

6.06286626604156e+004,-1.46918577742450e+001,-7.09879917750758e-001

6.14750072515201e+004,-1.46919424904752e+001,-7.19682828256497e-001

6.23331663728396e+004,-1.46920294166144e+001,-7.29618276004328e-001

6.32033049490698e+004,-1.46921186055488e+001,-7.39687943513568e-001

6.40855902071694e+004,-1.46922101111698e+001,-7.49893530696099e-001

6.49801917084985e+004,-1.46923039883784e+001,-7.60236754906758e-001

6.58872813814055e+004,-1.46924002930890e+001,-7.70719350989282e-001

6.68070335542691e+004,-1.46924990822317e+001,-7.81343071320883e-001

6.77396249890018e+004,-1.46926004137540e+001,-7.92109685852908e-001

6.86852349150199e+004,-1.46927043466203e+001,-8.03020982149803e-001

6.96440450636895e+004,-1.46928109408122e+001,-8.14078765421686e-001

7.06162397032520e+004,-1.46929202573254e+001,-8.25284858554986e-001

7.16020056742374e+004,-1.46930323581661e+001,-8.36641102145206e-001

7.26015324253724e+004,-1.46931473063463e+001,-8.48149354517473e-001

7.36150120499896e+004,-1.46932651658773e+001,-8.59811491752685e-001

7.46426393229441e+004,-1.46933860017608e+001,-8.71629407707064e-001

7.56846117380472e+004,-1.46935098799797e+001,-8.83605014031241e-001

7.67411295460207e+004,-1.46936368674859e+001,-8.95740240185270e-001

7.78123957929823e+004,-1.46937670321866e+001,-9.08037033455210e-001

7.88986163594682e+004,-1.46939004429291e+001,-9.20497358964844e-001

7.99999999999995e+004,-1.46940371694826e+001,-9.33123199688455e-001

8.11167583832018e+004,-1.46941772825186e+001,-9.45916556461654e-001

8.22491061324848e+004,-1.46943208535883e+001,-9.58879447993193e-001

8.33972608672892e+004,-1.46944679550986e+001,-9.72013910875641e-001

8.45614432449099e+004,-1.46946186602842e+001,-9.85321999598129e-001

8.57418770029029e+004,-1.46947730431787e+001,-9.98805786558060e-001

8.69387890020841e+004,-1.46949311785816e+001,-1.01246736207720e+000

8.81524092701283e+004,-1.46950931420234e+001,-1.02630883441730e+000

8.93829710457770e+004,-1.46952590097274e+001,-1.04033232980247e+000

9.06307108236633e+004,-1.46954288585684e+001,-1.05453999244067e+000

9.18958683997622e+004,-1.46956027660288e+001,-1.06893398455468e+000

9.31786869174758e+004,-1.46957808101506e+001,-1.08351648641393e+000

9.44794129143618e+004,-1.46959630694850e+001,-1.09828969637746e+000

9.57982963695136e+004,-1.46961496230380e+001,-1.11325583093845e+000

9.71355907516031e+004,-1.46963405502126e+001,-1.12841712478230e+000

9.84915530675926e+004,-1.46965359307473e+001,-1.14377583085097e+000

9.98664439121282e+004,-1.46967358446512e+001,-1.15933422041919e+000

1.01260527517622e+005,-1.46969403721351e+001,-1.17509458318183e+000

1.02674071805032e+005,-1.46971495935384e+001,-1.19105922735433e+000

1.04107348435354e+005,-1.46973635892527e+001,-1.20723047978769e+000

1.05560632861831e+005,-1.46975824396410e+001,-1.22361068609880e+000

1.07034204382888e+005,-1.46978062249527e+001,-1.24020221081822e+000

1.08528346195813e+005,-1.46980350252347e+001,-1.25700743755804e+000

1.10043345451179e+005,-1.46982689202384e+001,-1.27402876919649e+000

1.11579493308032e+005,-1.46985079893220e+001,-1.29126862808965e+000

1.13137084989847e+005,-1.46987523113492e+001,-1.30872945630204e+000

1.14716419841265e+005,-1.46990019645832e+001,-1.32641371586619e+000

1.16317801385624e+005,-1.46992570265763e+001,-1.34432388906815e+000

1.17941537383287e+005,-1.46995175740562e+001,-1.36246247876289e+000

1.19587939890794e+005,-1.46997836828066e+001,-1.38083200872019e+000

1.21257325320831e+005,-1.47000554275448e+001,-1.39943502400566e+000

1.22950014503040e+005,-1.47003328817953e+001,-1.41827409139448e+000

1.24666332745679e+005,-1.47006161177577e+001,-1.43735179982613e+000

1.26406609898139e+005,-1.47009052061731e+001,-1.45667076089511e+000

1.28171180414339e+005,-1.47012002161843e+001,-1.47623360938712e+000

1.29960383416997e+005,-1.47015012151941e+001,-1.49604300385620e+000

1.31774562762811e+005,-1.47018082687191e+001,-1.51610162725040e+000

1.33614067108538e+005,-1.47021214402403e+001,-1.53641218758560e+000

1.35479249978003e+005,-1.47024407910506e+001,-1.55697741866860e+000

1.37370469830040e+005,-1.47027663800994e+001,-1.57780008087536e+000

1.39288090127379e+005,-1.47030982638345e+001,-1.59888296198378e+000

1.41232479406504e+005,-1.47034364960413e+001,-1.62022887806252e+000

1.43204011348474e+005,-1.47037811276801e+001,-1.64184067442280e+000

1.45203064850745e+005,-1.47041322067218e+001,-1.66372122662696e+000

1.47230024099979e+005,-1.47044897779816e+001,-1.68587344156582e+000

1.49285278645888e+005,-1.47048538829521e+001,-1.70830025859849e+000

1.51369223476094e+005,-1.47052245596352e+001,-1.73100465076055e+000

1.53482259092041e+005,-1.47056018423743e+001,-1.75398962604278e+000

1.55624791585964e+005,-1.47059857616865e+001,-1.77725822873786e+000

1.57797232718936e+005,-1.47063763440948e+001,-1.80081354086387e+000

1.59999999999999e+005,-1.47067736119631e+001,-1.82465868365646e+000

1.62233516766403e+005,-1.47071775833306e+001,-1.84879681914222e+000

1.64498212264969e+005,-1.47075882717506e+001,-1.87323115178176e+000

1.66794521734578e+005,-1.47080056861306e+001,-1.89796493019422e+000

1.69122886489819e+005,-1.47084298305769e+001,-1.92300144895783e+000

1.71483754005805e+005,-1.47088607042422e+001,-1.94834405048801e+000

1.73877578004168e+005,-1.47092983011787e+001,-1.97399612699384e+000

1.76304818540256e+005,-1.47097426101959e+001,-1.99996112251250e+000

1.78765942091554e+005,-1.47101936147245e+001,-2.02624253502249e+000

1.81261421647326e+005,-1.47106512926871e+001,-2.05284391863141e+000

1.83791736799524e+005,-1.47111156163757e+001,-2.07976888584184e+000

1.86357373834951e+005,-1.47115865523375e+001,-2.10702110989220e+000

1.88958825828723e+005,-1.47120640612694e+001,-2.13460432716907e+000

1.91596592739027e+005,-1.47125480979214e+001,-2.16252233969241e+000

1.94271181503206e+005,-1.47130386110099e+001,-2.19077901767044e+000

1.96983106135185e+005,-1.47135355431421e+001,-2.21937830212053e+000

1.99732887824256e+005,-1.47140388307512e+001,-2.24832420755377e+000

2.02521055035243e+005,-1.47145484040437e+001,-2.27762082472186e+000

2.05348143610063e+005,-1.47150641869589e+001,-2.30727232342011e+000

2.08214696870707e+005,-1.47155860971416e+001,-2.33728295534475e+000

2.11121265723661e+005,-1.47161140459284e+001,-2.36765705699906e+000

2.14068408765776e+005,-1.47166479383481e+001,-2.39839905264536e+000

2.17056692391625e+005,-1.47171876731365e+001,-2.42951345729760e+000

2.20086690902357e+005,-1.47177331427663e+001,-2.46100487974800e+000

2.23158986616063e+005,-1.47182842334927e+001,-2.49287802562513e+000

2.26274169979693e+005,-1.47188408254139e+001,-2.52513770047655e+000

2.29432839682530e+005,-1.47194027925485e+001,-2.55778881286972e+000

2.32635602771247e+005,-1.47199700029288e+001,-2.59083637750683e+000

2.35883074766574e+005,-1.47205423187099e+001,-2.62428551834525e+000

2.39175879781588e+005,-1.47211195962966e+001,-2.65814147172029e+000

2.42514650641661e+005,-1.47217016864852e+001,-2.69240958946134e+000

2.45900029006080e+005,-1.47222884346232e+001,-2.72709534199624e+000

2.49332665491357e+005,-1.47228796807846e+001,-2.76220432143658e+000

2.52813219796278e+005,-1.47234752599618e+001,-2.79774224463852e+000

2.56342360828676e+005,-1.47240750022730e+001,-2.83371495623219e+000

2.59920766833993e+005,-1.47246787331857e+001,-2.87012843161173e+000

2.63549125525621e+005,-1.47252862737554e+001,-2.90698877988375e+000

2.67228134217075e+005,-1.47258974408788e+001,-2.94430224676186e+000

2.70958499956006e+005,-1.47265120475615e+001,-2.98207521740784e+000

2.74740939660078e+005,-1.47271299031996e+001,-3.02031421920817e+000

2.78576180254757e+005,-1.47277508138735e+001,-3.05902592448432e+000

2.82464958813007e+005,-1.47283745826545e+001,-3.09821715312990e+000

2.86408022696948e+005,-1.47290010099234e+001,-3.13789487516828e+000

2.90406129701488e+005,-1.47296298936981e+001,-3.17806621322936e+000

2.94460048199957e+005,-1.47302610299727e+001,-3.21873844493851e+000

2.98570557291775e+005,-1.47308942130640e+001,-3.25991900521601e+000

3.02738446952187e+005,-1.47315292359662e+001,-3.30161548848164e+000

3.06964518184081e+005,-1.47321658907124e+001,-3.34383565076295e+000

3.11249583171928e+005,-1.47328039687416e+001,-3.38658741170477e+000

3.15594465437872e+005,-1.47334432612696e+001,-3.42987885647846e+000

3.19999999999997e+005,-1.47340835596645e+001,-3.47371823758639e+000

3.24467033532806e+005,-1.47347246558233e+001,-3.51811397656733e+000

3.28996424529938e+005,-1.47353663425498e+001,-3.56307466559523e+000

3.33589043469155e+005,-1.47360084139328e+001,-3.60860906897737e+000

3.38245772979638e+005,-1.47366506657226e+001,-3.65472612454958e+000

3.42967508011610e+005,-1.47372928957055e+001,-3.70143494497086e+000

3.47755156008335e+005,-1.47379349040744e+001,-3.74874481891877e+000

3.52609637080511e+005,-1.47385764937948e+001,-3.79666521219111e+000

3.57531884183106e+005,-1.47392174709658e+001,-3.84520576871092e+000

3.62522843294651e+005,-1.47398576451732e+001,-3.89437631144444e+000

3.67583473599047e+005,-1.47404968298360e+001,-3.94418684323150e+000

3.72714747669902e+005,-1.47411348425433e+001,-3.99464754753608e+000

3.77917651657445e+005,-1.47417715053827e+001,-4.04576878911887e+000

3.83193185478053e+005,-1.47424066452569e+001,-4.09756111463908e+000

3.88542363006410e+005,-1.47430400941903e+001,-4.15003525318992e+000

3.93966212270369e+005,-1.47436716896233e+001,-4.20320211677458e+000

3.99465775648511e+005,-1.47443012746937e+001,-4.25707280072826e+000

4.05042110070485e+005,-1.47449286985054e+001,-4.31165858409192e+000

4.10696287220124e+005,-1.47455538163830e+001,-4.36697092994594e+000

4.16429393741414e+005,-1.47461764901128e+001,-4.42302148570948e+000

4.22242531447321e+005,-1.47467965881688e+001,-4.47982208341244e+000

4.28136817531551e+005,-1.47474139859242e+001,-4.53738473994750e+000

4.34113384783250e+005,-1.47480285658479e+001,-4.59572165730869e+000

4.40173381804713e+005,-1.47486402176857e+001,-4.65484522282406e+000

4.46317973232124e+005,-1.47492488386260e+001,-4.71476800939010e+000

4.52548339959385e+005,-1.47498543334512e+001,-4.77550277571189e+000

4.58865679365059e+005,-1.47504566146729e+001,-4.83706246656229e+000

4.65271205542494e+005,-1.47510556026524e+001,-4.89946021305810e+000

4.71766149533147e+005,-1.47516512257064e+001,-4.96270933296857e+000

4.78351759563174e+005,-1.47522434201982e+001,-5.02682333105658e+000

4.85029301283321e+005,-1.47528321306142e+001,-5.09181589946226e+000

4.91800058012158e+005,-1.47534173096269e+001,-5.15770091813301e+000

4.98665330982714e+005,-1.47539989181441e+001,-5.22449245530721e+000

5.05626439592555e+005,-1.47545769253451e+001,-5.29220476805683e+000

5.12684721657352e+005,-1.47551513087040e+001,-5.36085230289281e+000

5.19841533667984e+005,-1.47557220540022e+001,-5.43044969644039e+000

5.27098251051240e+005,-1.47562891553277e+001,-5.50101177618808e+000

5.34456268434150e+005,-1.47568526150651e+001,-5.57255356131349e+000

5.41916999912011e+005,-1.47574124438742e+001,-5.64509026359252e+000

