Freq.,VOut,OutRef

1.00000000000000e+004,-1.67473760764425e+001,-1.40334749296379e-001

1.01395947979003e+004,-1.67473792504603e+001,-1.42293099548274e-001

1.02811382665607e+004,-1.67473825135330e+001,-1.44278759791493e-001

1.04246576084112e+004,-1.67473858681538e+001,-1.46292110093146e-001

1.05701804056138e+004,-1.67473893168855e+001,-1.48333535776308e-001

1.07177346253629e+004,-1.67473928623629e+001,-1.50403427488876e-001

1.08673486252606e+004,-1.67473965072936e+001,-1.52502181280396e-001

1.10190511587661e+004,-1.67474002544611e+001,-1.54630198672007e-001

1.11728713807222e+004,-1.67474041067260e+001,-1.56787886733155e-001

1.13288388529580e+004,-1.67474080670289e+001,-1.58975658152898e-001

1.14869835499703e+004,-1.67474121383921e+001,-1.61193931320220e-001

1.16473358646846e+004,-1.67474163239221e+001,-1.63443130397014e-001

1.18099266142953e+004,-1.67474206268118e+001,-1.65723685397748e-001

1.19747870461893e+004,-1.67474250503427e+001,-1.68036032269709e-001

1.21419488439505e+004,-1.67474295978881e+001,-1.70380612968357e-001

1.23114441334492e+004,-1.67474342729145e+001,-1.72757875542969e-001

1.24833054890161e+004,-1.67474390789849e+001,-1.75168274215633e-001

1.26575659397028e+004,-1.67474440197614e+001,-1.77612269465797e-001

1.28342589756290e+004,-1.67474490990079e+001,-1.80090328110499e-001

1.30134185544193e+004,-1.67474543205923e+001,-1.82602923394432e-001

1.31950791077289e+004,-1.67474596884905e+001,-1.85150535069402e-001

1.33792755478611e+004,-1.67474652067880e+001,-1.87733649490314e-001

1.35660432744767e+004,-1.67474708796843e+001,-1.90352759691295e-001

1.37554181813974e+004,-1.67474767114947e+001,-1.93008365485444e-001

1.39474366635040e+004,-1.67474827066543e+001,-1.95700973548666e-001

1.41421356237309e+004,-1.67474888697214e+001,-1.98431097510906e-001

1.43395524801583e+004,-1.67474952053798e+001,-2.01199258054055e-001

1.45397251732031e+004,-1.67475017184435e+001,-2.04005982996119e-001

1.47426921729110e+004,-1.67475084138593e+001,-2.06851807393918e-001

1.49484924863494e+004,-1.67475152967110e+001,-2.09737273633727e-001

1.51571656651040e+004,-1.67475223722227e+001,-2.12662931529047e-001

1.53687518128801e+004,-1.67475296457631e+001,-2.15629338417922e-001

1.55832915932100e+004,-1.67475371228486e+001,-2.18637059264040e-001

1.58008262372675e+004,-1.67475448091485e+001,-2.21686666752061e-001

1.60213975517924e+004,-1.67475527104877e+001,-2.24778741393925e-001

1.62450479271247e+004,-1.67475608328523e+001,-2.27913871626144e-001

1.64718203453514e+004,-1.67475691823930e+001,-2.31092653915350e-001

1.67017583885674e+004,-1.67475777654298e+001,-2.34315692864387e-001

1.69349062472505e+004,-1.67475865884568e+001,-2.37583601314035e-001

1.71713087287550e+004,-1.67475956581464e+001,-2.40897000453239e-001

1.74110112659224e+004,-1.67476049813547e+001,-2.44256519924012e-001

1.76540599258131e+004,-1.67476145651259e+001,-2.47662797931087e-001

1.79005014185594e+004,-1.67476244166975e+001,-2.51116481356074e-001

1.81503831063432e+004,-1.67476345435056e+001,-2.54618225861680e-001

1.84037530124975e+004,-1.67476449531900e+001,-2.58168696010595e-001

1.86606598307361e+004,-1.67476556535998e+001,-2.61768565373564e-001

1.89211529345119e+004,-1.67476666527990e+001,-2.65418516649129e-001

1.91852823865052e+004,-1.67476779590720e+001,-2.69119241775804e-001

1.94530989482457e+004,-1.67476895809295e+001,-2.72871442050842e-001

1.97246540898671e+004,-1.67477015271147e+001,-2.76675828248606e-001

1.99999999999999e+004,-1.67477138066092e+001,-2.80533120738090e-001

2.02791895958005e+004,-1.67477264286394e+001,-2.84444049605952e-001

2.05622765331213e+004,-1.67477394026831e+001,-2.88409354775415e-001

2.08493152168224e+004,-1.67477527384757e+001,-2.92429786131392e-001

2.11403608112276e+004,-1.67477664460174e+001,-2.96506103641400e-001

2.14354692507258e+004,-1.67477805355801e+001,-3.00639077483191e-001

2.17346972505211e+004,-1.67477950177138e+001,-3.04829488170901e-001

2.20381023175322e+004,-1.67478099032549e+001,-3.09078126679068e-001

2.23457427614443e+004,-1.67478252033331e+001,-3.13385794573271e-001

2.26576777059159e+004,-1.67478409293787e+001,-3.17753304140047e-001

2.29739670999406e+004,-1.67478570931312e+001,-3.22181478514337e-001

2.32946717293690e+004,-1.67478737066466e+001,-3.26671151813349e-001

2.36198532285905e+004,-1.67478907823057e+001,-3.31223169269187e-001

2.39495740923785e+004,-1.67479083328227e+001,-3.35838387359433e-001

2.42838976879009e+004,-1.67479263712535e+001,-3.40517673944230e-001

2.46228882668982e+004,-1.67479449110044e+001,-3.45261908400972e-001

2.49666109780322e+004,-1.67479639658413e+001,-3.50071981759312e-001

2.53151318794055e+004,-1.67479835498986e+001,-3.54948796840435e-001

2.56685179512580e+004,-1.67480036776883e+001,-3.59893268394777e-001

2.60268371088386e+004,-1.67480243641105e+001,-3.64906323237437e-001

2.63901582154578e+004,-1.67480456244616e+001,-3.69988900396051e-001

2.67585510957221e+004,-1.67480674744460e+001,-3.75141951241559e-001

2.71320865489533e+004,-1.67480899301847e+001,-3.80366439637786e-001

2.75108363627948e+004,-1.67481130082268e+001,-3.85663342079431e-001

2.78948733270080e+004,-1.67481367255593e+001,-3.91033647837488e-001

2.82842712474618e+004,-1.67481610996187e+001,-3.96478359100441e-001

2.86791049603164e+004,-1.67481861483014e+001,-4.01998491119961e-001

2.90794503464061e+004,-1.67482118899755e+001,-4.07595072355479e-001

2.94853843458219e+004,-1.67482383434917e+001,-4.13269144620732e-001

2.98969849726987e+004,-1.67482655281952e+001,-4.19021763229540e-001

3.03143313302078e+004,-1.67482934639385e+001,-4.24853997139711e-001

3.07375036257601e+004,-1.67483221710921e+001,-4.30766929104112e-001

3.11665831864199e+004,-1.67483516705581e+001,-4.36761655815237e-001

3.16016524745350e+004,-1.67483819837823e+001,-4.42839288052968e-001

3.20427951035848e+004,-1.67484131327673e+001,-4.49000950834366e-001

3.24900958542493e+004,-1.67484451400853e+001,-4.55247783559950e-001

3.29436406907028e+004,-1.67484780288917e+001,-4.61580940163235e-001

3.34035167771346e+004,-1.67485118229389e+001,-4.68001589257384e-001

3.38698124945009e+004,-1.67485465465893e+001,-4.74510914286243e-001

3.43426174575100e+004,-1.67485822248301e+001,-4.81110113670479e-001

3.48220225318448e+004,-1.67486188832874e+001,-4.87800400956495e-001

3.53081198516260e+004,-1.67486565482400e+001,-4.94583004965863e-001

3.58010028371187e+004,-1.67486952466353e+001,-5.01459169940113e-001

3.63007662126863e+004,-1.67487350061029e+001,-5.08430155691657e-001

3.68075060249948e+004,-1.67487758549709e+001,-5.15497237748035e-001

3.73213196614721e+004,-1.67488178222803e+001,-5.22661707499229e-001

3.78423058690237e+004,-1.67488609378008e+001,-5.29924872345994e-001

3.83705647730104e+004,-1.67489052320472e+001,-5.37288055839851e-001

3.89061978964912e+004,-1.67489507362941e+001,-5.44752597833886e-001

3.94493081797342e+004,-1.67489974825931e+001,-5.52319854620203e-001

3.99999999999998e+004,-1.67490455037882e+001,-5.59991199077461e-001

4.05583791916010e+004,-1.67490948335330e+001,-5.67768020809557e-001

4.11245530662425e+004,-1.67491455063071e+001,-5.75651726285123e-001

4.16986304336447e+004,-1.67491975574321e+001,-5.83643738980481e-001

4.22807216224550e+004,-1.67492510230896e+001,-5.91745499513592e-001

4.28709385014515e+004,-1.67493059403373e+001,-5.99958465781509e-001

4.34693945010421e+004,-1.67493623471268e+001,-6.08284113094748e-001

4.40762046350642e+004,-1.67494202823203e+001,-6.16723934309109e-001

4.46914855228886e+004,-1.67494797857080e+001,-6.25279439958384e-001

4.53153554118317e+004,-1.67495408980254e+001,-6.33952158382263e-001

4.59479341998812e+004,-1.67496036609707e+001,-6.42743635852714e-001

4.65893434587380e+004,-1.67496681172224e+001,-6.51655436698335e-001

4.72397064571810e+004,-1.67497343104562e+001,-6.60689143427647e-001

4.78991481847569e+004,-1.67498022853627e+001,-6.69846356848339e-001

4.85677953758016e+004,-1.67498720876647e+001,-6.79128696183279e-001

4.92457765337964e+004,-1.67499437641341e+001,-6.88537799186148e-001

4.99332219560642e+004,-1.67500173626092e+001,-6.98075322253497e-001

5.06302637588109e+004,-1.67500929320119e+001,-7.07742940531328e-001

5.13370359025159e+004,-1.67501705223641e+001,-7.17542348021338e-001

5.20536742176771e+004,-1.67502501848045e+001,-7.27475257683437e-001

5.27803164309155e+004,-1.67503319716050e+001,-7.37543401534196e-001

5.35171021914442e+004,-1.67504159361866e+001,-7.47748530741606e-001

5.42641730979066e+004,-1.67505021331352e+001,-7.58092415718456e-001

5.50216727255895e+004,-1.67505906182170e+001,-7.68576846208034e-001

5.57897466540159e+004,-1.67506814483937e+001,-7.79203631369309e-001

5.65685424949235e+004,-1.67507746818366e+001,-7.89974599857797e-001

5.73582099206328e+004,-1.67508703779410e+001,-8.00891599900074e-001

5.81589006928121e+004,-1.67509685973393e+001,-8.11956499367461e-001

5.89707686916437e+004,-1.67510694019143e+001,-8.23171185842090e-001

5.97939699453972e+004,-1.67511728548109e+001,-8.34537566682229e-001

6.06286626604156e+004,-1.67512790204480e+001,-8.46057569079180e-001

6.14750072515201e+004,-1.67513879645285e+001,-8.57733140113743e-001

6.23331663728396e+004,-1.67514997540498e+001,-8.69566246804746e-001

6.32033049490698e+004,-1.67516144573123e+001,-8.81558876155808e-001

6.40855902071694e+004,-1.67517321439271e+001,-8.93713035196816e-001

6.49801917084985e+004,-1.67518528848230e+001,-9.06030751017280e-001

6.58872813814055e+004,-1.67519767522519e+001,-9.18514070802628e-001

6.68070335542691e+004,-1.67521038197934e+001,-9.31165061858210e-001

6.77396249890018e+004,-1.67522341623575e+001,-9.43985811632218e-001

6.86852349150199e+004,-1.67523678561864e+001,-9.56978427736333e-001

6.96440450636895e+004,-1.67525049788545e+001,-9.70145037958661e-001

7.06162397032520e+004,-1.67526456092671e+001,-9.83487790271678e-001

7.16020056742374e+004,-1.67527898276568e+001,-9.97008852840327e-001

7.26015324253724e+004,-1.67529377155788e+001,-1.01071041402263e+000

7.36150120499896e+004,-1.67530893559037e+001,-1.02459468236785e+000

7.46426393229441e+004,-1.67532448328088e+001,-1.03866388661114e+000

7.56846117380472e+004,-1.67534042317668e+001,-1.05292027566406e+000

7.67411295460207e+004,-1.67535676395328e+001,-1.06736611860348e+000

7.78123957929823e+004,-1.67537351441281e+001,-1.08200370465624e+000

7.88986163594682e+004,-1.67539068348226e+001,-1.09683534318381e+000

7.99999999999995e+004,-1.67540828021135e+001,-1.11186336366254e+000

8.11167583832018e+004,-1.67542631377024e+001,-1.12709011566446e+000

8.22491061324848e+004,-1.67544479344685e+001,-1.14251796883539e+000

8.33972608672892e+004,-1.67546372864396e+001,-1.15814931287524e+000

8.45614432449099e+004,-1.67548312887595e+001,-1.17398655751686e+000

8.57418770029029e+004,-1.67550300376526e+001,-1.19003213250452e+000

8.69387890020841e+004,-1.67552336303846e+001,-1.20628848757920e+000

8.81524092701283e+004,-1.67554421652202e+001,-1.22275809245933e+000

8.93829710457770e+004,-1.67556557413771e+001,-1.23944343683125e+000

9.06307108236633e+004,-1.67558744589759e+001,-1.25634703033917e+000

9.18958683997622e+004,-1.67560984189865e+001,-1.27347140258447e+000

9.31786869174758e+004,-1.67563277231701e+001,-1.29081910312767e+000

9.44794129143618e+004,-1.67565624740177e+001,-1.30839270150043e+000

9.57982963695136e+004,-1.67568027746837e+001,-1.32619478722369e+000

9.71355907516031e+004,-1.67570487289149e+001,-1.34422796984038e+000

9.84915530675926e+004,-1.67573004409764e+001,-1.36249487895248e+000

9.98664439121282e+004,-1.67575580155709e+001,-1.38099816427744e+000

1.01260527517622e+005,-1.67578215577549e+001,-1.39974049571527e+000

1.02674071805032e+005,-1.67580911728497e+001,-1.41872456343079e+000

1.04107348435354e+005,-1.67583669663462e+001,-1.43795307795789e+000

1.05560632861831e+005,-1.67586490438071e+001,-1.45742877031706e+000

1.07034204382888e+005,-1.67589375107615e+001,-1.47715439215869e+000

1.08528346195813e+005,-1.67592324725966e+001,-1.49713271592741e+000

1.10043345451179e+005,-1.67595340344423e+001,-1.51736653505191e+000

1.11579493308032e+005,-1.67598423010517e+001,-1.53785866416291e+000

1.13137084989847e+005,-1.67601573766765e+001,-1.55861193933793e+000

1.14716419841265e+005,-1.67604793649357e+001,-1.57962921838157e+000

1.16317801385624e+005,-1.67608083686811e+001,-1.60091338113615e+000

1.17941537383287e+005,-1.67611444898556e+001,-1.62246732983051e+000

1.19587939890794e+005,-1.67614878293476e+001,-1.64429398946936e+000

1.21257325320831e+005,-1.67618384868395e+001,-1.66639630825880e+000

1.22950014503040e+005,-1.67621965606514e+001,-1.68877725808344e+000

1.24666332745679e+005,-1.67625621475803e+001,-1.71143983502232e+000

1.26406609898139e+005,-1.67629353427328e+001,-1.73438705992146e+000

1.28171180414339e+005,-1.67633162393554e+001,-1.75762197901228e+000

1.29960383416997e+005,-1.67637049286585e+001,-1.78114766459055e+000

1.31774562762811e+005,-1.67641014996365e+001,-1.80496721574905e+000

1.33614067108538e+005,-1.67645060388845e+001,-1.82908375917142e+000

1.35479249978003e+005,-1.67649186304096e+001,-1.85350044999281e+000

1.37370469830040e+005,-1.67653393554407e+001,-1.87822047272113e+000

1.39288090127379e+005,-1.67657682922328e+001,-1.90324704223320e+000

1.41232479406504e+005,-1.67662055158706e+001,-1.92858340483642e+000

1.43204011348474e+005,-1.67666510980675e+001,-1.95423283941125e+000

1.45203064850745e+005,-1.67671051069641e+001,-1.98019865862575e+000

1.47230024099979e+005,-1.67675676069241e+001,-2.00648421023196e+000

1.49285278645888e+005,-1.67680386583293e+001,-2.03309287844418e+000

1.51369223476094e+005,-1.67685183173739e+001,-2.06002808540078e+000

1.53482259092041e+005,-1.67690066358590e+001,-2.08729329271411e+000

1.55624791585964e+005,-1.67695036609866e+001,-2.11489200310687e+000

1.57797232718936e+005,-1.67700094351556e+001,-2.14282776214190e+000

1.59999999999999e+005,-1.67705239957593e+001,-2.17110416004071e+000

1.62233516766403e+005,-1.67710473749844e+001,-2.19972483359955e+000

1.64498212264969e+005,-1.67715795996148e+001,-2.22869346819633e+000

1.66794521734578e+005,-1.67721206908369e+001,-2.25801379989685e+000

1.69122886489819e+005,-1.67726706640518e+001,-2.28768961765708e+000

1.71483754005805e+005,-1.67732295286908e+001,-2.31772476562087e+000

1.73877578004168e+005,-1.67737972880383e+001,-2.34812314551703e+000

1.76304818540256e+005,-1.67743739390611e+001,-2.37888871915284e+000

1.78765942091554e+005,-1.67749594722455e+001,-2.41002551100429e+000

1.81261421647326e+005,-1.67755538714431e+001,-2.44153761090196e+000

1.83791736799524e+005,-1.67761571137259e+001,-2.47342917681236e+000

1.86357373834951e+005,-1.67767691692519e+001,-2.50570443771173e+000

1.88958825828723e+005,-1.67773900011415e+001,-2.53836769655086e+000

1.91596592739027e+005,-1.67780195653665e+001,-2.57142333331004e+000

1.94271181503206e+005,-1.67786578106512e+001,-2.60487580813689e+000

1.96983106135185e+005,-1.67793046783880e+001,-2.63872966457125e+000

1.99732887824256e+005,-1.67799601025669e+001,-2.67298953284536e+000

2.02521055035243e+005,-1.67806240097205e+001,-2.70766013326189e+000

2.05348143610063e+005,-1.67812963188850e+001,-2.74274627964075e+000

2.08214696870707e+005,-1.67819769415787e+001,-2.77825288283366e+000

2.11121265723661e+005,-1.67826657817963e+001,-2.81418495429797e+000

2.14068408765776e+005,-1.67833627360236e+001,-2.85054760972630e+000

2.17056692391625e+005,-1.67840676932689e+001,-2.88734607272438e+000

2.20086690902357e+005,-1.67847805351155e+001,-2.92458567853324e+000

2.23158986616063e+005,-1.67855011357922e+001,-2.96227187778522e+000

2.26274169979693e+005,-1.67862293622655e+001,-3.00041024029176e+000

2.29432839682530e+005,-1.67869650743523e+001,-3.03900645884937e+000

2.32635602771247e+005,-1.67877081248519e+001,-3.07806635306396e+000

2.35883074766574e+005,-1.67884583597015e+001,-3.11759587317788e+000

2.39175879781588e+005,-1.67892156181510e+001,-3.15760110389860e+000

2.42514650641661e+005,-1.67899797329601e+001,-3.19808826821527e+000

2.45900029006080e+005,-1.67907505306160e+001,-3.23906373120033e+000

2.49332665491357e+005,-1.67915278315734e+001,-3.28053400378227e+000

2.52813219796278e+005,-1.67923114505137e+001,-3.32250574648630e+000

2.56342360828676e+005,-1.67931011966267e+001,-3.36498577313214e+000

2.59920766833993e+005,-1.67938968739107e+001,-3.40798105448026e+000

2.63549125525621e+005,-1.67946982814942e+001,-3.45149872182130e+000

2.67228134217075e+005,-1.67955052139751e+001,-3.49554607049702e+000

2.70958499956006e+005,-1.67963174617793e+001,-3.54013056334888e+000

2.74740939660078e+005,-1.67971348115375e+001,-3.58525983408353e+000

2.78576180254757e+005,-1.67979570464773e+001,-3.63094169055206e+000

2.82464958813007e+005,-1.67987839468334e+001,-3.67718411793043e+000

2.86408022696948e+005,-1.67996152902709e+001,-3.72399528180356e+000

2.90406129701488e+005,-1.68004508523239e+001,-3.77138353113607e+000

2.94460048199957e+005,-1.68012904068462e+001,-3.81935740113600e+000

2.98570557291775e+005,-1.68021337264736e+001,-3.86792561599729e+000

3.02738446952187e+005,-1.68029805830971e+001,-3.91709709152229e+000

3.06964518184081e+005,-1.68038307483446e+001,-3.96688093761875e+000

3.11249583171928e+005,-1.68046839940705e+001,-4.01728646066784e+000

3.15594465437872e+005,-1.68055400928514e+001,-4.06832316576252e+000

3.19999999999997e+005,-1.68063988184873e+001,-4.12000075881256e+000

3.24467033532806e+005,-1.68072599465056e+001,-4.17232914851578e+000

3.28996424529938e+005,-1.68081232546675e+001,-4.22531844819736e+000

3.33589043469155e+005,-1.68089885234752e+001,-4.27897897751307e+000

3.38245772979638e+005,-1.68098555366775e+001,-4.33332126402219e+000

3.42967508011610e+005,-1.68107240817743e+001,-4.38835604462758e+000

3.47755156008335e+005,-1.68115939505165e+001,-4.44409426688945e+000

3.52609637080511e+005,-1.68124649394013e+001,-4.50054709021215e+000

3.57531884183106e+005,-1.68133368501611e+001,-4.55772588690963e+000

3.62522843294651e+005,-1.68142094902450e+001,-4.61564224315384e+000

3.67583473599047e+005,-1.68150826732909e+001,-4.67430795981056e+000

3.72714747669902e+005,-1.68159562195883e+001,-4.73373505316651e+000

3.77917651657445e+005,-1.68168299565292e+001,-4.79393575555794e+000

3.83193185478053e+005,-1.68177037190476e+001,-4.85492251590212e+000

3.88542363006410e+005,-1.68185773500455e+001,-4.91670800014221e+000

3.93966212270369e+005,-1.68194507008044e+001,-4.97930509161094e+000

3.99465775648511e+005,-1.68203236313833e+001,-5.04272689132090e+000

4.05042110070485e+005,-1.68211960109998e+001,-5.10698671819109e+000

4.10696287220124e+005,-1.68220677183960e+001,-5.17209810921520e+000

4.16429393741414e+005,-1.68229386421874e+001,-5.23807481958202e+000

4.22242531447321e+005,-1.68238086811944e+001,-5.30493082275569e+000

4.28136817531551e+005,-1.68246777447574e+001,-5.37268031052529e+000

4.34113384783250e+005,-1.68255457530330e+001,-5.44133769303087e+000

4.40173381804713e+005,-1.68264126372732e+001,-5.51091759877612e+000

4.46317973232124e+005,-1.68272783400861e+001,-5.58143487463747e+000

4.52548339959385e+005,-1.68281428156798e+001,-5.65290458587345e+000

4.58865679365059e+005,-1.68290060300870e+001,-5.72534201615033e+000

4.65271205542494e+005,-1.68298679613737e+001,-5.79876266758458e+000

4.71766149533147e+005,-1.68307285998291e+001,-5.87318226081648e+000

4.78351759563174e+005,-1.68315879481400e+001,-5.94861673511906e+000

4.85029301283321e+005,-1.68324460215476e+001,-6.02508224855222e+000

4.91800058012158e+005,-1.68333028479893e+001,-6.10259517816788e+000

4.98665330982714e+005,-1.68341584682239e+001,-6.18117212027407e+000

5.05626439592555e+005,-1.68350129359435e+001,-6.26082989076532e+000

5.12684721657352e+005,-1.68358663178702e+001,-6.34158552552315e+000

5.19841533667984e+005,-1.68367186938396e+001,-6.42345628089613e+000

5.27098251051240e+005,-1.68375701568723e+001,-6.50645963426282e+000

5.34456268434150e+005,-1.68384208132330e+001,-6.59061328468230e+000

5.41916999912011e+005,-1.68392707824791e+001,-6.67593515363946e+000

