Freq.,VOut,OutRef

1.00000000000000e+004,-2.47216968685394e+001,-3.78728703990214e-001

1.01395947979003e+004,-2.47217014068000e+001,-3.84014931983468e-001

1.02811382665607e+004,-2.47217060724820e+001,-3.89374926349653e-001

1.04246576084112e+004,-2.47217108691583e+001,-3.94809715700488e-001

1.05701804056138e+004,-2.47217158005016e+001,-4.00320342959567e-001

1.07177346253629e+004,-2.47217208702871e+001,-4.05907865559829e-001

1.08673486252606e+004,-2.47217260823961e+001,-4.11573355642313e-001

1.10190511587661e+004,-2.47217314408177e+001,-4.17317900262517e-001

1.11728713807222e+004,-2.47217369496531e+001,-4.23142601591477e-001

1.13288388529580e+004,-2.47217426131176e+001,-4.29048577130340e-001

1.14869835499703e+004,-2.47217484355446e+001,-4.35036959916760e-001

1.16473358646846e+004,-2.47217544213882e+001,-4.41108898743112e-001

1.18099266142953e+004,-2.47217605752273e+001,-4.47265558369496e-001

1.19747870461893e+004,-2.47217669017683e+001,-4.53508119748776e-001

1.21419488439505e+004,-2.47217734058491e+001,-4.59837780245104e-001

1.23114441334492e+004,-2.47217800924426e+001,-4.66255753863746e-001

1.24833054890161e+004,-2.47217869666606e+001,-4.72763271477571e-001

1.26575659397028e+004,-2.47217940337572e+001,-4.79361581060343e-001

1.28342589756290e+004,-2.47218012991334e+001,-4.86051947922063e-001

1.30134185544193e+004,-2.47218087683406e+001,-4.92835654946644e-001

1.31950791077289e+004,-2.47218164470849e+001,-4.99714002835291e-001

1.33792755478611e+004,-2.47218243412318e+001,-5.06688310348259e-001

1.35660432744767e+004,-2.47218324568098e+001,-5.13759914556627e-001

1.37554181813974e+004,-2.47218408000155e+001,-5.20930171090914e-001

1.39474366635040e+004,-2.47218493772183e+001,-5.28200454396056e-001

1.41421356237309e+004,-2.47218581949647e+001,-5.35572157991667e-001

1.43395524801583e+004,-2.47218672599835e+001,-5.43046694729936e-001

1.45397251732031e+004,-2.47218765791908e+001,-5.50625497064720e-001

1.47426921729110e+004,-2.47218861596950e+001,-5.58310017315896e-001

1.49484924863494e+004,-2.47218960088024e+001,-5.66101727944819e-001

1.51571656651040e+004,-2.47219061340223e+001,-5.74002121827725e-001

1.53687518128801e+004,-2.47219165430726e+001,-5.82012712535367e-001

1.55832915932100e+004,-2.47219272438860e+001,-5.90135034615693e-001

1.58008262372675e+004,-2.47219382446152e+001,-5.98370643881428e-001

1.60213975517924e+004,-2.47219495536397e+001,-6.06721117697957e-001

1.62450479271247e+004,-2.47219611795710e+001,-6.15188055281335e-001

1.64718203453514e+004,-2.47219731312601e+001,-6.23773077990929e-001

1.67017583885674e+004,-2.47219854178032e+001,-6.32477829635663e-001

1.69349062472505e+004,-2.47219980485490e+001,-6.41303976776677e-001

1.71713087287550e+004,-2.47220110331050e+001,-6.50253209038818e-001

1.74110112659224e+004,-2.47220243813450e+001,-6.59327239423306e-001

1.76540599258131e+004,-2.47220381034164e+001,-6.68527804624496e-001

1.79005014185594e+004,-2.47220522097472e+001,-6.77856665353582e-001

1.81503831063432e+004,-2.47220667110543e+001,-6.87315606661357e-001

1.84037530124975e+004,-2.47220816183508e+001,-6.96906438272069e-001

1.86606598307361e+004,-2.47220969429542e+001,-7.06630994913934e-001

1.89211529345119e+004,-2.47221126964949e+001,-7.16491136659005e-001

1.91852823865052e+004,-2.47221288909244e+001,-7.26488749266378e-001

1.94530989482457e+004,-2.47221455385242e+001,-7.36625744527557e-001

1.97246540898671e+004,-2.47221626519147e+001,-7.46904060619401e-001

1.99999999999999e+004,-2.47221802440640e+001,-7.57325662459317e-001

2.02791895958005e+004,-2.47221983282982e+001,-7.67892542064600e-001

2.05622765331213e+004,-2.47222169183099e+001,-7.78606718918320e-001

2.08493152168224e+004,-2.47222360281690e+001,-7.89470240337511e-001

2.11403608112276e+004,-2.47222556723324e+001,-8.00485181848564e-001

2.14354692507258e+004,-2.47222758656544e+001,-8.11653647563672e-001

2.17346972505211e+004,-2.47222966233978e+001,-8.22977770564869e-001

2.20381023175322e+004,-2.47223179612444e+001,-8.34459713292224e-001

2.23457427614443e+004,-2.47223398953061e+001,-8.46101667935786e-001

2.26576777059159e+004,-2.47223624421371e+001,-8.57905856832173e-001

2.29739670999406e+004,-2.47223856187451e+001,-8.69874532868765e-001

2.32946717293690e+004,-2.47224094426034e+001,-8.82009979888624e-001

2.36198532285905e+004,-2.47224339316639e+001,-8.94314513103149e-001

2.39495740923785e+004,-2.47224591043688e+001,-9.06790479509536e-001

2.42838976879009e+004,-2.47224849796649e+001,-9.19440258310290e-001

2.46228882668982e+004,-2.47225115770158e+001,-9.32266261343758e-001

2.49666109780322e+004,-2.47225389164161e+001,-9.45270933512452e-001

2.53151318794055e+004,-2.47225670184055e+001,-9.58456753221890e-001

2.56685179512580e+004,-2.47225959040831e+001,-9.71826232821177e-001

2.60268371088386e+004,-2.47226255951219e+001,-9.85381919052057e-001

2.63901582154578e+004,-2.47226561137839e+001,-9.99126393500330e-001

2.67585510957221e+004,-2.47226874829360e+001,-1.01306227305305e+000

2.71320865489533e+004,-2.47227197260654e+001,-1.02719221036102e+000

2.75108363627948e+004,-2.47227528672956e+001,-1.04151889430895e+000

2.78948733270080e+004,-2.47227869314034e+001,-1.05604505048669e+000

2.82842712474618e+004,-2.47228219438359e+001,-1.07077344166846e+000

2.86791049603164e+004,-2.47228579307272e+001,-1.08570686829895e+000

2.90794503464061e+004,-2.47228949189173e+001,-1.10084816897865e+000

2.94853843458219e+004,-2.47229329359691e+001,-1.11620022096416e+000

2.98969849726987e+004,-2.47229720101878e+001,-1.13176594066316e+000

3.03143313302078e+004,-2.47230121706397e+001,-1.14754828414439e+000

3.07375036257601e+004,-2.47230534471716e+001,-1.16355024764742e+000

3.11665831864199e+004,-2.47230958704310e+001,-1.17977486809864e+000

3.16016524745350e+004,-2.47231394718860e+001,-1.19622522363490e+000

3.20427951035848e+004,-2.47231842838468e+001,-1.21290443413088e+000

3.24900958542493e+004,-2.47232303394862e+001,-1.22981566173282e+000

3.29436406907028e+004,-2.47232776728620e+001,-1.24696211139695e+000

3.34035167771346e+004,-2.47233263189392e+001,-1.26434703143461e+000

3.38698124945009e+004,-2.47233763136123e+001,-1.28197371406223e+000

3.43426174575100e+004,-2.47234276937287e+001,-1.29984549595827e+000

3.48220225318448e+004,-2.47234804971128e+001,-1.31796575882239e+000

3.53081198516260e+004,-2.47235347625898e+001,-1.33633792994412e+000

3.58010028371187e+004,-2.47235905300103e+001,-1.35496548277523e+000

3.63007662126863e+004,-2.47236478402760e+001,-1.37385193750863e+000

3.68075060249948e+004,-2.47237067353651e+001,-1.39300086166095e+000

3.73213196614721e+004,-2.47237672583588e+001,-1.41241587066318e+000

3.78423058690237e+004,-2.47238294534677e+001,-1.43210062845578e+000

3.83705647730104e+004,-2.47238933660599e+001,-1.45205884808871e+000

3.89061978964912e+004,-2.47239590426880e+001,-1.47229429232900e+000

3.94493081797342e+004,-2.47240265311179e+001,-1.49281077427231e+000

3.99999999999998e+004,-2.47240958803579e+001,-1.51361215795995e+000

4.05583791916010e+004,-2.47241671406878e+001,-1.53470235900402e+000

4.11245530662425e+004,-2.47242403636894e+001,-1.55608534521350e+000

4.16986304336447e+004,-2.47243156022767e+001,-1.57776513723116e+000

4.22807216224550e+004,-2.47243929107269e+001,-1.59974580917211e+000

4.28709385014515e+004,-2.47244723447127e+001,-1.62203148926944e+000

4.34693945010421e+004,-2.47245539613338e+001,-1.64462636052547e+000

4.40762046350642e+004,-2.47246378191501e+001,-1.66753466136891e+000

4.46914855228886e+004,-2.47247239782147e+001,-1.69076068631502e+000

4.53153554118317e+004,-2.47248125001082e+001,-1.71430878663462e+000

4.59479341998812e+004,-2.47249034479723e+001,-1.73818337102646e+000

4.65893434587380e+004,-2.47249968865455e+001,-1.76238890629510e+000

4.72397064571810e+004,-2.47250928821978e+001,-1.78692991803505e+000

4.78991481847569e+004,-2.47251915029673e+001,-1.81181099131946e+000

4.85677953758016e+004,-2.47252928185961e+001,-1.83703677139455e+000

4.92457765337964e+004,-2.47253969005675e+001,-1.86261196437900e+000

4.99332219560642e+004,-2.47255038221432e+001,-1.88854133796959e+000

5.06302637588109e+004,-2.47256136584016e+001,-1.91482972215034e+000

5.13370359025159e+004,-2.47257264862758e+001,-1.94148200990895e+000

5.20536742176771e+004,-2.47258423845924e+001,-1.96850315795649e+000

5.27803164309155e+004,-2.47259614341108e+001,-1.99589818745436e+000

5.35171021914442e+004,-2.47260837175633e+001,-2.02367218474422e+000

5.42641730979066e+004,-2.47262093196941e+001,-2.05183030208586e+000

5.50216727255895e+004,-2.47263383273010e+001,-2.08037775839612e+000

5.57897466540159e+004,-2.47264708292750e+001,-2.10931983999870e+000

5.65685424949235e+004,-2.47266069166424e+001,-2.13866190137276e+000

5.73582099206328e+004,-2.47267466826054e+001,-2.16840936591257e+000

5.81589006928121e+004,-2.47268902225843e+001,-2.19856772668773e+000

5.89707686916437e+004,-2.47270376342592e+001,-2.22914254721223e+000

5.97939699453972e+004,-2.47271890176124e+001,-2.26013946221532e+000

6.06286626604156e+004,-2.47273444749703e+001,-2.29156417842132e+000

6.14750072515201e+004,-2.47275041110462e+001,-2.32342247533152e+000

6.23331663728396e+004,-2.47276680329829e+001,-2.35572020601303e+000

6.32033049490698e+004,-2.47278363503952e+001,-2.38846329789390e+000

6.40855902071694e+004,-2.47280091754129e+001,-2.42165775356100e+000

6.49801917084985e+004,-2.47281866227226e+001,-2.45530965156738e+000

6.58872813814055e+004,-2.47283688096117e+001,-2.48942514724159e+000

6.68070335542691e+004,-2.47285558560095e+001,-2.52401047350577e+000

6.77396249890018e+004,-2.47287478845307e+001,-2.55907194169743e+000

6.86852349150199e+004,-2.47289450205167e+001,-2.59461594239971e+000

6.96440450636895e+004,-2.47291473920778e+001,-2.63064894627583e+000

7.06162397032520e+004,-2.47293551301347e+001,-2.66717750491255e+000

7.16020056742374e+004,-2.47295683684599e+001,-2.70420825166669e+000

7.26015324253724e+004,-2.47297872437178e+001,-2.74174790252368e+000

7.36150120499896e+004,-2.47300118955055e+001,-2.77980325695922e+000

7.46426393229441e+004,-2.47302424663922e+001,-2.81838119880988e+000

7.56846117380472e+004,-2.47304791019581e+001,-2.85748869715351e+000

7.67411295460207e+004,-2.47307219508329e+001,-2.89713280719509e+000

7.78123957929823e+004,-2.47309711647330e+001,-2.93732067116363e+000

7.88986163594682e+004,-2.47312268984985e+001,-2.97805951921757e+000

7.99999999999995e+004,-2.47314893101289e+001,-3.01935667035841e+000

8.11167583832018e+004,-2.47317585608174e+001,-3.06121953335834e+000

8.22491061324848e+004,-2.47320348149850e+001,-3.10365560769440e+000

8.33972608672892e+004,-2.47323182403131e+001,-3.14667248449699e+000

8.45614432449099e+004,-2.47326090077744e+001,-3.19027784750892e+000

8.57418770029029e+004,-2.47329072916633e+001,-3.23447947405919e+000

8.69387890020841e+004,-2.47332132696241e+001,-3.27928523604776e+000

8.81524092701283e+004,-2.47335271226788e+001,-3.32470310094627e+000

8.93829710457770e+004,-2.47338490352523e+001,-3.37074113281488e+000

9.06307108236633e+004,-2.47341791951963e+001,-3.41740749333365e+000

9.18958683997622e+004,-2.47345177938126e+001,-3.46471044285174e+000

9.31786869174758e+004,-2.47348650258729e+001,-3.51265834145527e+000

9.44794129143618e+004,-2.47352210896382e+001,-3.56125965005409e+000

9.57982963695136e+004,-2.47355861868756e+001,-3.61052293149037e+000

9.71355907516031e+004,-2.47359605228738e+001,-3.66045685166673e+000

9.84915530675926e+004,-2.47363443064559e+001,-3.71107018070056e+000

9.98664439121282e+004,-2.47367377499910e+001,-3.76237179410014e+000

1.01260527517622e+005,-2.47371410694033e+001,-3.81437067396859e+000

1.02674071805032e+005,-2.47375544841789e+001,-3.86707591023519e+000

1.04107348435354e+005,-2.47379782173712e+001,-3.92049670191497e+000

1.05560632861831e+005,-2.47384124956038e+001,-3.97464235840114e+000

1.07034204382888e+005,-2.47388575490711e+001,-4.02952230078796e+000

1.08528346195813e+005,-2.47393136115375e+001,-4.08514606322991e+000

1.10043345451179e+005,-2.47397809203335e+001,-4.14152329433642e+000

1.11579493308032e+005,-2.47402597163508e+001,-4.19866375860519e+000

1.13137084989847e+005,-2.47407502440348e+001,-4.25657733789634e+000

1.14716419841265e+005,-2.47412527513753e+001,-4.31527403294868e+000

1.16317801385624e+005,-2.47417674898956e+001,-4.37476396494135e+000

1.17941537383287e+005,-2.47422947146393e+001,-4.43505737710112e+000

1.19587939890794e+005,-2.47428346841562e+001,-4.49616463636161e+000

1.21257325320831e+005,-2.47433876604863e+001,-4.55809623507110e+000

1.22950014503040e+005,-2.47439539091420e+001,-4.62086279275682e+000

1.24666332745679e+005,-2.47445336990905e+001,-4.68447505794420e+000

1.26406609898139e+005,-2.47451273027338e+001,-4.74894391003656e+000

1.28171180414339e+005,-2.47457349958888e+001,-4.81428036125494e+000

1.29960383416997e+005,-2.47463570577668e+001,-4.88049555864244e+000

1.31774562762811e+005,-2.47469937709527e+001,-4.94760078613564e+000

1.33614067108538e+005,-2.47476454213845e+001,-5.01560746670453e+000

1.35479249978003e+005,-2.47483122983330e+001,-5.08452716456356e+000

1.37370469830040e+005,-2.47489946943828e+001,-5.15437158745863e+000

1.39288090127379e+005,-2.47496929054140e+001,-5.22515258902839e+000

1.41232479406504e+005,-2.47504072305861e+001,-5.29688217124602e+000

1.43204011348474e+005,-2.47511379723235e+001,-5.36957248694228e+000

1.45203064850745e+005,-2.47518854363041e+001,-5.44323584241147e+000

1.47230024099979e+005,-2.47526499314508e+001,-5.51788470010372e+000

1.49285278645888e+005,-2.47534317699272e+001,-5.59353168140570e+000

1.51369223476094e+005,-2.47542312671366e+001,-5.67018956950961e+000

1.53482259092041e+005,-2.47550487417272e+001,-5.74787131237671e+000

1.55624791585964e+005,-2.47558845156017e+001,-5.82659002579099e+000

1.57797232718936e+005,-2.47567389139346e+001,-5.90635899651012e+000

1.59999999999999e+005,-2.47576122651953e+001,-5.98719168551156e+000

1.62233516766403e+005,-2.47585049011794e+001,-6.06910173133654e+000

1.64498212264969e+005,-2.47594171570491e+001,-6.15210295353169e+000

1.66794521734578e+005,-2.47603493713822e+001,-6.23620935618913e+000

1.69122886489819e+005,-2.47613018862319e+001,-6.32143513158675e+000

1.71483754005805e+005,-2.47622750471977e+001,-6.40779466392687e+000

1.73877578004168e+005,-2.47632692035078e+001,-6.49530253317344e+000

1.76304818540256e+005,-2.47642847081151e+001,-6.58397351898847e+000

1.78765942091554e+005,-2.47653219178067e+001,-6.67382260476523e+000

1.81261421647326e+005,-2.47663811933278e+001,-6.76486498175776e+000

1.83791736799524e+005,-2.47674628995226e+001,-6.85711605330422e+000

1.86357373834951e+005,-2.47685674054900e+001,-6.95059143914423e+000

1.88958825828723e+005,-2.47696950847592e+001,-7.04530697982420e+000

1.91596592739027e+005,-2.47708463154817e+001,-7.14127874119133e+000

1.94271181503206e+005,-2.47720214806448e+001,-7.23852301897143e+000

1.96983106135185e+005,-2.47732209683044e+001,-7.33705634342603e+000

1.99732887824256e+005,-2.47744451718398e+001,-7.43689548408684e+000

2.02521055035243e+005,-2.47756944902310e+001,-7.53805745456116e+000

2.05348143610063e+005,-2.47769693283590e+001,-7.64055951740500e+000

2.08214696870707e+005,-2.47782700973307e+001,-7.74441918905581e+000

2.11121265723661e+005,-2.47795972148281e+001,-7.84965424482350e+000

2.14068408765776e+005,-2.47809511054847e+001,-7.95628272392817e+000

2.17056692391625e+005,-2.47823322012868e+001,-8.06432293458295e+000

2.20086690902357e+005,-2.47837409420036e+001,-8.17379345911184e+000

2.23158986616063e+005,-2.47851777756444e+001,-8.28471315909578e+000

2.26274169979693e+005,-2.47866431589446e+001,-8.39710118054092e+000

2.29432839682530e+005,-2.47881375578814e+001,-8.51097695905847e+000

2.32635602771247e+005,-2.47896614482181e+001,-8.62636022505075e+000

2.35883074766574e+005,-2.47912153160796e+001,-8.74327100889242e+000

2.39175879781588e+005,-2.47927996585573e+001,-8.86172964609935e+000

2.42514650641661e+005,-2.47944149843455e+001,-8.98175678247584e+000

2.45900029006080e+005,-2.47960618144080e+001,-9.10337337923175e+000

2.49332665491357e+005,-2.47977406826764e+001,-9.22660071805869e+000

2.52813219796278e+005,-2.47994521367787e+001,-9.35146040615744e+000

2.56342360828676e+005,-2.48011967387994e+001,-9.47797438120675e+000

2.59920766833993e+005,-2.48029750660701e+001,-9.60616491626285e+000

2.63549125525621e+005,-2.48047877119912e+001,-9.73605462458300e+000

2.67228134217075e+005,-2.48066352868833e+001,-9.86766646436013e+000

2.70958499956006e+005,-2.48085184188691e+001,-1.00010237433631e+001

2.74740939660078e+005,-2.48104377547847e+001,-1.01361501234703e+001

2.78576180254757e+005,-2.48123939611193e+001,-1.02730696250900e+001

2.82464958813007e+005,-2.48143877249840e+001,-1.04118066314576e+001

2.86408022696948e+005,-2.48164197551079e+001,-1.05523858928020e+001

2.90406129701488e+005,-2.48184907828611e+001,-1.06948325303724e+001

2.94460048199957e+005,-2.48206015633035e+001,-1.08391720403188e+001

2.98570557291775e+005,-2.48227528762594e+001,-1.09854302974183e+001

3.02738446952187e+005,-2.48249455274160e+001,-1.11336335586401e+001

3.06964518184081e+005,-2.48271803494448e+001,-1.12838084665432e+001

3.11249583171928e+005,-2.48294582031460e+001,-1.14359820525006e+001

3.15594465437872e+005,-2.48317799786135e+001,-1.15901817397442e+001

3.19999999999997e+005,-2.48341465964202e+001,-1.17464353462258e+001

3.24467033532806e+005,-2.48365590088222e+001,-1.19047710872896e+001

3.28996424529938e+005,-2.48390182009809e+001,-1.20652175781512e+001

3.33589043469155e+005,-2.48415251922018e+001,-1.22278038361807e+001

3.38245772979638e+005,-2.48440810371883e+001,-1.23925592829870e+001

3.42967508011610e+005,-2.48466868273116e+001,-1.25595137462981e+001

3.47755156008335e+005,-2.48493436918910e+001,-1.27286974616395e+001

3.52609637080511e+005,-2.48520527994898e+001,-1.29001410738051e+001

3.57531884183106e+005,-2.48548153592190e+001,-1.30738756381221e+001

3.62522843294651e+005,-2.48576326220537e+001,-1.32499326215070e+001

3.67583473599047e+005,-2.48605058821567e+001,-1.34283439033138e+001

3.72714747669902e+005,-2.48634364782112e+001,-1.36091417759738e+001

3.77917651657445e+005,-2.48664257947599e+001,-1.37923589454266e+001

3.83193185478053e+005,-2.48694752635505e+001,-1.39780285313443e+001

3.88542363006410e+005,-2.48725863648873e+001,-1.41661840671470e+001

3.93966212270369e+005,-2.48757606289858e+001,-1.43568594998144e+001

3.99465775648511e+005,-2.48789996373329e+001,-1.45500891894896e+001

4.05042110070485e+005,-2.48823050240492e+001,-1.47459079088817e+001

4.10696287220124e+005,-2.48856784772540e+001,-1.49443508424632e+001

4.16429393741414e+005,-2.48891217404328e+001,-1.51454535854682e+001

4.22242531447321e+005,-2.48926366138062e+001,-1.53492521426875e+001

4.28136817531551e+005,-2.48962249556994e+001,-1.55557829270673e+001

4.34113384783250e+005,-2.48998886839132e+001,-1.57650827581074e+001

4.40173381804713e+005,-2.49036297770952e+001,-1.59771888600632e+001

4.46317973232124e+005,-2.49074502761107e+001,-1.61921388599494e+001

4.52548339959385e+005,-2.49113522854141e+001,-1.64099707853484e+001

4.58865679365059e+005,-2.49153379744200e+001,-1.66307230620208e+001

4.65271205542494e+005,-2.49194095788734e+001,-1.68544345113198e+001

4.71766149533147e+005,-2.49235694022200e+001,-1.70811443474064e+001

4.78351759563174e+005,-2.49278198169755e+001,-1.73108921742675e+001

4.85029301283321e+005,-2.49321632660943e+001,-1.75437179825316e+001

4.91800058012158e+005,-2.49366022643374e+001,-1.77796621460839e+001

4.98665330982714e+005,-2.49411393996398e+001,-1.80187654184747e+001

5.05626439592555e+005,-2.49457773344767e+001,-1.82610689291207e+001

5.12684721657352e+005,-2.49505188072287e+001,-1.85066141792951e+001

5.19841533667984e+005,-2.49553666335463e+001,-1.87554430379018e+001

5.27098251051240e+005,-2.49603237077135e+001,-1.90075977370296e+001

5.34456268434150e+005,-2.49653930040091e+001,-1.92631208672817e+001

5.41916999912011e+005,-2.49705775780677e+001,-1.95220553728754e+001

