Freq.,VOut,OutRef

1.00000000000000e+004,-2.49254691494422e+001,-2.75181903564451e-001

1.01395947979003e+004,-2.49254731100797e+001,-2.79022633056359e-001

1.02811382665607e+004,-2.49254771818843e+001,-2.82916948860231e-001

1.04246576084112e+004,-2.49254813679713e+001,-2.86865597813671e-001

1.05701804056138e+004,-2.49254856715423e+001,-2.90869337131477e-001

1.07177346253629e+004,-2.49254900958888e+001,-2.94928934546063e-001

1.08673486252606e+004,-2.49254946443942e+001,-2.99045168449258e-001

1.10190511587661e+004,-2.49254993205361e+001,-3.03218828043867e-001

1.11728713807222e+004,-2.49255041278892e+001,-3.07450713489489e-001

1.13288388529580e+004,-2.49255090701281e+001,-3.11741636051670e-001

1.14869835499703e+004,-2.49255141510294e+001,-3.16092418259007e-001

1.16473358646846e+004,-2.49255193744757e+001,-3.20503894050928e-001

1.18099266142953e+004,-2.49255247444573e+001,-3.24976908939655e-001

1.19747870461893e+004,-2.49255302650760e+001,-3.29512320166850e-001

1.21419488439505e+004,-2.49255359405478e+001,-3.34110996863887e-001

1.23114441334492e+004,-2.49255417752060e+001,-3.38773820215059e-001

1.24833054890161e+004,-2.49255477735049e+001,-3.43501683622792e-001

1.26575659397028e+004,-2.49255539400226e+001,-3.48295492872671e-001

1.28342589756290e+004,-2.49255602794648e+001,-3.53156166306529e-001

1.30134185544193e+004,-2.49255667966677e+001,-3.58084634991001e-001

1.31950791077289e+004,-2.49255734966028e+001,-3.63081842889648e-001

1.33792755478611e+004,-2.49255803843793e+001,-3.68148747044864e-001

1.35660432744767e+004,-2.49255874652485e+001,-3.73286317749494e-001

1.37554181813974e+004,-2.49255947446078e+001,-3.78495538731904e-001

1.39474366635040e+004,-2.49256022280047e+001,-3.83777407335693e-001

1.41421356237309e+004,-2.49256099211405e+001,-3.89132934707816e-001

1.43395524801583e+004,-2.49256178298748e+001,-3.94563145984441e-001

1.45397251732031e+004,-2.49256259602301e+001,-4.00069080481142e-001

1.47426921729110e+004,-2.49256343183958e+001,-4.05651791885734e-001

1.49484924863494e+004,-2.49256429107332e+001,-4.11312348451989e-001

1.51571656651040e+004,-2.49256517437797e+001,-4.17051833200425e-001

1.53687518128801e+004,-2.49256608242540e+001,-4.22871344112983e-001

1.55832915932100e+004,-2.49256701590611e+001,-4.28771994339948e-001

1.58008262372675e+004,-2.49256797552968e+001,-4.34754912404066e-001

1.60213975517924e+004,-2.49256896202538e+001,-4.40821242405565e-001

1.62450479271247e+004,-2.49256997614263e+001,-4.46972144235475e-001

1.64718203453514e+004,-2.49257101865157e+001,-4.53208793786317e-001

1.67017583885674e+004,-2.49257209034366e+001,-4.59532383169055e-001

1.69349062472505e+004,-2.49257319203219e+001,-4.65944120930256e-001

1.71713087287550e+004,-2.49257432455294e+001,-4.72445232274201e-001

1.74110112659224e+004,-2.49257548876474e+001,-4.79036959284316e-001

1.76540599258131e+004,-2.49257668555014e+001,-4.85720561151018e-001

1.79005014185594e+004,-2.49257791581597e+001,-4.92497314402165e-001

1.81503831063432e+004,-2.49257918049413e+001,-4.99368513131184e-001

1.84037530124975e+004,-2.49258048054212e+001,-5.06335469235407e-001

1.86606598307361e+004,-2.49258181694383e+001,-5.13399512652528e-001

1.89211529345119e+004,-2.49258319071019e+001,-5.20561991601395e-001

1.91852823865052e+004,-2.49258460287996e+001,-5.27824272822642e-001

1.94530989482457e+004,-2.49258605452042e+001,-5.35187741829210e-001

1.97246540898671e+004,-2.49258754672813e+001,-5.42653803154016e-001

1.99999999999999e+004,-2.49258908062981e+001,-5.50223880599126e-001

2.02791895958005e+004,-2.49259065738299e+001,-5.57899417496310e-001

2.05622765331213e+004,-2.49259227817698e+001,-5.65681876960428e-001

2.08493152168224e+004,-2.49259394423363e+001,-5.73572742152503e-001

2.11403608112276e+004,-2.49259565680821e+001,-5.81573516546126e-001

2.14354692507258e+004,-2.49259741719035e+001,-5.89685724188725e-001

2.17346972505211e+004,-2.49259922670484e+001,-5.97910909979229e-001

2.20381023175322e+004,-2.49260108671270e+001,-6.06250639935054e-001

2.23457427614443e+004,-2.49260299861203e+001,-6.14706501472961e-001

2.26576777059159e+004,-2.49260496383904e+001,-6.23280103686166e-001

2.29739670999406e+004,-2.49260698386902e+001,-6.31973077629601e-001

2.32946717293690e+004,-2.49260906021741e+001,-6.40787076602455e-001

2.36198532285905e+004,-2.49261119444083e+001,-6.49723776439385e-001

2.39495740923785e+004,-2.49261338813814e+001,-6.58784875803143e-001

2.42838976879009e+004,-2.49261564295158e+001,-6.67972096478523e-001

2.46228882668982e+004,-2.49261796056787e+001,-6.77287183672086e-001

2.49666109780322e+004,-2.49262034271938e+001,-6.86731906313987e-001

2.53151318794055e+004,-2.49262279118533e+001,-6.96308057361828e-001

2.56685179512580e+004,-2.49262530779296e+001,-7.06017454110211e-001

2.60268371088386e+004,-2.49262789441881e+001,-7.15861938501186e-001

2.63901582154578e+004,-2.49263055298999e+001,-7.25843377440189e-001

2.67585510957221e+004,-2.49263328548544e+001,-7.35963663112818e-001

2.71320865489533e+004,-2.49263609393730e+001,-7.46224713306830e-001

2.75108363627948e+004,-2.49263898043224e+001,-7.56628471735870e-001

2.78948733270080e+004,-2.49264194711287e+001,-7.67176908367984e-001

2.82842712474618e+004,-2.49264499617916e+001,-7.77872019754959e-001

2.86791049603164e+004,-2.49264812988986e+001,-7.88715829368609e-001

2.90794503464061e+004,-2.49265135056403e+001,-7.99710387936686e-001

2.94853843458219e+004,-2.49265466058254e+001,-8.10857773782459e-001

2.98969849726987e+004,-2.49265806238959e+001,-8.22160093171609e-001

3.03143313302078e+004,-2.49266155849434e+001,-8.33619480655577e-001

3.07375036257601e+004,-2.49266515147249e+001,-8.45238099424387e-001

3.11665831864199e+004,-2.49266884396796e+001,-8.57018141658492e-001

3.16016524745350e+004,-2.49267263869456e+001,-8.68961828885177e-001

3.20427951035848e+004,-2.49267653843769e+001,-8.81071412339908e-001

3.24900958542493e+004,-2.49268054605615e+001,-8.93349173326413e-001

3.29436406907028e+004,-2.49268466448386e+001,-9.05797423584454e-001

3.34035167771346e+004,-2.49268889673177e+001,-9.18418505657204e-001

3.38698124945009e+004,-2.49269324588963e+001,-9.31214793265049e-001

3.43426174575100e+004,-2.49269771512795e+001,-9.44188691678655e-001

3.48220225318448e+004,-2.49270230769993e+001,-9.57342638096962e-001

3.53081198516260e+004,-2.49270702694341e+001,-9.70679102029796e-001

3.58010028371187e+004,-2.49271187628289e+001,-9.84200585679415e-001

3.63007662126863e+004,-2.49271685923156e+001,-9.97909624328705e-001

3.68075060249948e+004,-2.49272197939339e+001,-1.01180878672929e+000

3.73213196614721e+004,-2.49272724046528e+001,-1.02590067549468e+000

3.78423058690237e+004,-2.49273264623914e+001,-1.04018792749548e+000

3.83705647730104e+004,-2.49273820060414e+001,-1.05467321425581e+000

3.89061978964912e+004,-2.49274390754893e+001,-1.06935924235481e+000

3.94493081797342e+004,-2.49274977116384e+001,-1.08424875382921e+000

3.99999999999998e+004,-2.49275579564330e+001,-1.09934452657771e+000

4.05583791916010e+004,-2.49276198528803e+001,-1.11464937477134e+000

4.11245530662425e+004,-2.49276834450751e+001,-1.13016614926079e+000

4.16986304336447e+004,-2.49277487782232e+001,-1.14589773799217e+000

4.22807216224550e+004,-2.49278158986662e+001,-1.16184706641973e+000

4.28709385014515e+004,-2.49278848539058e+001,-1.17801709792408e+000

4.34693945010421e+004,-2.49279556926288e+001,-1.19441083423182e+000

4.40762046350642e+004,-2.49280284647328e+001,-1.21103131583625e+000

4.46914855228886e+004,-2.49281032213512e+001,-1.22788162242220e+000

4.53153554118317e+004,-2.49281800148794e+001,-1.24496487329014e+000

4.59479341998812e+004,-2.49282588990010e+001,-1.26228422778505e+000

4.65893434587380e+004,-2.49283399287139e+001,-1.27984288572485e+000

4.72397064571810e+004,-2.49284231603571e+001,-1.29764408783201e+000

4.78991481847569e+004,-2.49285086516379e+001,-1.31569111616459e+000

4.85677953758016e+004,-2.49285964616582e+001,-1.33398729455280e+000

4.92457765337964e+004,-2.49286866509424e+001,-1.35253598903411e+000

4.99332219560642e+004,-2.49287792814647e+001,-1.37134060828928e+000

5.06302637588109e+004,-2.49288744166765e+001,-1.39040460408249e+000

5.13370359025159e+004,-2.49289721215342e+001,-1.40973147170040e+000

5.20536742176771e+004,-2.49290724625270e+001,-1.42932475039343e+000

5.27803164309155e+004,-2.49291755077046e+001,-1.44918802381942e+000

5.35171021914442e+004,-2.49292813267053e+001,-1.46932492048512e+000

5.42641730979066e+004,-2.49293899907836e+001,-1.48973911419140e+000

5.50216727255895e+004,-2.49295015728383e+001,-1.51043432447927e+000

5.57897466540159e+004,-2.49296161474403e+001,-1.53141431707585e+000

5.65685424949235e+004,-2.49297337908599e+001,-1.55268290434144e+000

5.73582099206328e+004,-2.49298545810947e+001,-1.57424394571802e+000

5.81589006928121e+004,-2.49299785978967e+001,-1.59610134817769e+000

5.89707686916437e+004,-2.49301059227997e+001,-1.61825906667314e+000

5.97939699453972e+004,-2.49302366391454e+001,-1.64072110458763e+000

6.06286626604156e+004,-2.49303708321109e+001,-1.66349151418499e+000

6.14750072515201e+004,-2.49305085887338e+001,-1.68657439706394e+000

6.23331663728396e+004,-2.49306499979384e+001,-1.70997390460865e+000

6.32033049490698e+004,-2.49307951505605e+001,-1.73369423844354e+000

6.40855902071694e+004,-2.49309441393725e+001,-1.75773965088644e+000

6.49801917084985e+004,-2.49310970591064e+001,-1.78211444540458e+000

6.58872813814055e+004,-2.49312540064780e+001,-1.80682297707006e+000

6.68070335542691e+004,-2.49314150802086e+001,-1.83186965301740e+000

6.77396249890018e+004,-2.49315803810471e+001,-1.85725893290122e+000

6.86852349150199e+004,-2.49317500117905e+001,-1.88299532935695e+000

6.96440450636895e+004,-2.49319240773037e+001,-1.90908340845957e+000

7.06162397032520e+004,-2.49321026845379e+001,-1.93552779018895e+000

7.16020056742374e+004,-2.49322859425482e+001,-1.96233314889123e+000

7.26015324253724e+004,-2.49324739625101e+001,-1.98950421374830e+000

7.36150120499896e+004,-2.49326668577339e+001,-2.01704576924332e+000

7.46426393229441e+004,-2.49328647436784e+001,-2.04496265563500e+000

7.56846117380472e+004,-2.49330677379628e+001,-2.07325976942978e+000

7.67411295460207e+004,-2.49332759603770e+001,-2.10194206385967e+000

7.78123957929823e+004,-2.49334895328902e+001,-2.13101454936524e+000

7.88986163594682e+004,-2.49337085796576e+001,-2.16048229407791e+000

7.99999999999995e+004,-2.49339332270252e+001,-2.19035042431352e+000

8.11167583832018e+004,-2.49341636035327e+001,-2.22062412506479e+000

8.22491061324848e+004,-2.49343998399142e+001,-2.25130864050436e+000

8.33972608672892e+004,-2.49346420690963e+001,-2.28240927449125e+000

8.45614432449099e+004,-2.49348904261944e+001,-2.31393139108524e+000

8.57418770029029e+004,-2.49351450485064e+001,-2.34588041507078e+000

8.69387890020841e+004,-2.49354060755034e+001,-2.37826183248664e+000

8.81524092701283e+004,-2.49356736488180e+001,-2.41108119116778e+000

8.93829710457770e+004,-2.49359479122302e+001,-2.44434410129551e+000

9.06307108236633e+004,-2.49362290116495e+001,-2.47805623596171e+000

9.18958683997622e+004,-2.49365170950952e+001,-2.51222333174197e+000

9.31786869174758e+004,-2.49368123126720e+001,-2.54685118928689e+000

9.44794129143618e+004,-2.49371148165439e+001,-2.58194567392461e+000

9.57982963695136e+004,-2.49374247609039e+001,-2.61751271628042e+000

9.71355907516031e+004,-2.49377423019407e+001,-2.65355831291612e+000

9.84915530675926e+004,-2.49380675978013e+001,-2.69008852698458e+000

9.98664439121282e+004,-2.49384008085510e+001,-2.72710948890950e+000

1.01260527517622e+005,-2.49387420961289e+001,-2.76462739708153e+000

1.02674071805032e+005,-2.49390916242997e+001,-2.80264851858418e+000

1.04107348435354e+005,-2.49394495586025e+001,-2.84117918994098e+000

1.05560632861831e+005,-2.49398160662949e+001,-2.88022581789203e+000

1.07034204382888e+005,-2.49401913162932e+001,-2.91979488019980e+000

1.08528346195813e+005,-2.49405754791092e+001,-2.95989292648651e+000

1.10043345451179e+005,-2.49409687267834e+001,-3.00052657910314e+000

1.11579493308032e+005,-2.49413712328125e+001,-3.04170253403750e+000

1.13137084989847e+005,-2.49417831720751e+001,-3.08342756185735e+000

1.14716419841265e+005,-2.49422047207521e+001,-3.12570850869541e+000

1.16317801385624e+005,-2.49426360562436e+001,-3.16855229727613e+000

1.17941537383287e+005,-2.49430773570821e+001,-3.21196592798910e+000

1.19587939890794e+005,-2.49435288028419e+001,-3.25595648000912e+000

1.21257325320831e+005,-2.49439905740446e+001,-3.30053111246713e+000

1.22950014503040e+005,-2.49444628520616e+001,-3.34569706567386e+000

1.24666332745679e+005,-2.49449458190126e+001,-3.39146166240063e+000

1.26406609898139e+005,-2.49454396576615e+001,-3.43783230921669e+000

1.28171180414339e+005,-2.49459445513089e+001,-3.48481649789098e+000

1.29960383416997e+005,-2.49464606836816e+001,-3.53242180685502e+000

1.31774562762811e+005,-2.49469882388205e+001,-3.58065590273499e+000

1.33614067108538e+005,-2.49475274009650e+001,-3.62952654195467e+000

1.35479249978003e+005,-2.49480783544364e+001,-3.67904157240857e+000

1.37370469830040e+005,-2.49486412835196e+001,-3.72920893521299e+000

1.39288090127379e+005,-2.49492163723426e+001,-3.78003666653612e+000

1.41232479406504e+005,-2.49498038047566e+001,-3.83153289950803e+000

1.43204011348474e+005,-2.49504037642147e+001,-3.88370586621543e+000

1.45203064850745e+005,-2.49510164336512e+001,-3.93656389978451e+000

1.47230024099979e+005,-2.49516419953611e+001,-3.99011543655179e+000

1.49285278645888e+005,-2.49522806308814e+001,-4.04436901832718e+000

1.51369223476094e+005,-2.49529325208731e+001,-4.09933329475177e+000

1.53482259092041e+005,-2.49535978450069e+001,-4.15501702575299e+000

1.55624791585964e+005,-2.49542767818504e+001,-4.21142908409648e+000

1.57797232718936e+005,-2.49549695087604e+001,-4.26857845803915e+000

1.59999999999999e+005,-2.49556762017786e+001,-4.32647425408608e+000

1.62233516766403e+005,-2.49563970355329e+001,-4.38512569984848e+000

1.64498212264969e+005,-2.49571321831445e+001,-4.44454214700850e+000

1.66794521734578e+005,-2.49578818161419e+001,-4.50473307438885e+000

1.69122886489819e+005,-2.49586461043819e+001,-4.56570809112986e+000

1.71483754005805e+005,-2.49594252159802e+001,-4.62747693997242e+000

1.73877578004168e+005,-2.49602193172504e+001,-4.69004950064914e+000

1.76304818540256e+005,-2.49610285726530e+001,-4.75343579338217e+000

1.78765942091554e+005,-2.49618531447566e+001,-4.81764598248611e+000

1.81261421647326e+005,-2.49626931942106e+001,-4.88269038007793e+000

1.83791736799524e+005,-2.49635488797307e+001,-4.94857944989001e+000

1.86357373834951e+005,-2.49644203580990e+001,-5.01532381118478e+000

1.88958825828723e+005,-2.49653077841787e+001,-5.08293424277158e+000

1.91596592739027e+005,-2.49662113109450e+001,-5.15142168711843e+000

1.94271181503206e+005,-2.49671310895325e+001,-5.22079725456060e+000

1.96983106135185e+005,-2.49680672693007e+001,-5.29107222759919e+000

1.99732887824256e+005,-2.49690199979186e+001,-5.36225806528787e+000

2.02521055035243e+005,-2.49699894214680e+001,-5.43436640770138e+000

2.05348143610063e+005,-2.49709756845686e+001,-5.50740908048487e+000

2.08214696870707e+005,-2.49719789305236e+001,-5.58139809947337e+000

2.11121265723661e+005,-2.49729993014876e+001,-5.65634567538198e+000

2.14068408765776e+005,-2.49740369386583e+001,-5.73226421855610e+000

2.17056692391625e+005,-2.49750919824907e+001,-5.80916634377720e+000

2.20086690902357e+005,-2.49761645729371e+001,-5.88706487511857e+000

2.23158986616063e+005,-2.49772548497105e+001,-5.96597285084103e+000

2.26274169979693e+005,-2.49783629525758e+001,-6.04590352832368e+000

2.29432839682530e+005,-2.49794890216643e+001,-6.12687038902142e+000

2.32635602771247e+005,-2.49806331978176e+001,-6.20888714344041e+000

2.35883074766574e+005,-2.49817956229560e+001,-6.29196773612432e+000

2.39175879781588e+005,-2.49829764404758e+001,-6.37612635064126e+000

2.42514650641661e+005,-2.49841757956727e+001,-6.46137741456523e+000

2.45900029006080e+005,-2.49853938361931e+001,-6.54773560444137e+000

2.49332665491357e+005,-2.49866307125133e+001,-6.63521585072558e+000

2.52813219796278e+005,-2.49878865784453e+001,-6.72383334269339e+000

2.56342360828676e+005,-2.49891615916705e+001,-6.81360353330369e+000

2.59920766833993e+005,-2.49904559142998e+001,-6.90454214401294e+000

2.63549125525621e+005,-2.49917697134610e+001,-6.99666516952958e+000

2.67228134217075e+005,-2.49931031619119e+001,-7.08998888249820e+000

2.70958499956006e+005,-2.49944564386793e+001,-7.18452983810924e+000

2.74740939660078e+005,-2.49958297297233e+001,-7.28030487862157e+000

2.78576180254757e+005,-2.49972232286260e+001,-7.37733113779237e+000

2.82464958813007e+005,-2.49986371373034e+001,-7.47562604520671e+000

2.86408022696948e+005,-2.50000716667408e+001,-7.57520733049963e+000

2.90406129701488e+005,-2.50015270377497e+001,-7.67609302746240e+000

2.94460048199957e+005,-2.50030034817461e+001,-7.77830147802845e+000

2.98570557291775e+005,-2.50045012415481e+001,-7.88185133613239e+000

3.02738446952187e+005,-2.50060205721929e+001,-7.98676157143686e+000

3.06964518184081e+005,-2.50075617417714e+001,-8.09305147292224e+000

3.11249583171928e+005,-2.50091250322788e+001,-8.20074065233506e+000

3.15594465437872e+005,-2.50107107404814e+001,-8.30984904749184e+000

3.19999999999997e+005,-2.50123191787969e+001,-8.42039692543535e+000

3.24467033532806e+005,-2.50139506761876e+001,-8.53240488543990e+000

3.28996424529938e+005,-2.50156055790652e+001,-8.64589386186551e+000

3.33589043469155e+005,-2.50172842522062e+001,-8.76088512685903e+000

3.38245772979638e+005,-2.50189870796761e+001,-8.87740029290119e+000

3.42967508011610e+005,-2.50207144657612e+001,-8.99546131520126e+000

3.47755156008335e+005,-2.50224668359077e+001,-9.11509049393850e+000

3.52609637080511e+005,-2.50242446376655e+001,-9.23631047635252e+000

3.57531884183106e+005,-2.50260483416369e+001,-9.35914425868502e+000

3.62522843294651e+005,-2.50278784424279e+001,-9.48361518797395e+000

3.67583473599047e+005,-2.50297354596026e+001,-9.60974696370491e+000

3.72714747669902e+005,-2.50316199386376e+001,-9.73756363932100e+000

3.77917651657445e+005,-2.50335324518777e+001,-9.86708962359810e+000

3.83193185478053e+005,-2.50354735994901e+001,-9.99834968188665e+000

3.88542363006410e+005,-2.50374440104185e+001,-1.01313689372268e+001

3.93966212270369e+005,-2.50394443433339e+001,-1.02661728713415e+001

3.99465775648511e+005,-2.50414752875836e+001,-1.04027873255120e+001

4.05042110070485e+005,-2.50435375641366e+001,-1.05412385013422e+001

4.10696287220124e+005,-2.50456319265260e+001,-1.06815529614166e+001

4.16429393741414e+005,-2.50477591617870e+001,-1.08237576298596e+001

4.22242531447321e+005,-2.50499200913909e+001,-1.09678797927976e+001

4.28136817531551e+005,-2.50521155721747e+001,-1.11139470987352e+001

4.34113384783250e+005,-2.50543464972672e+001,-1.12619875588478e+001

4.40173381804713e+005,-2.50566137970094e+001,-1.14120295471959e+001

4.46317973232124e+005,-2.50589184398716e+001,-1.15641018008692e+001

4.52548339959385e+005,-2.50612614333670e+001,-1.17182334200632e+001

4.58865679365059e+005,-2.50636438249599e+001,-1.18744538680956e+001

4.65271205542494e+005,-2.50660667029725e+001,-1.20327929713651e+001

4.71766149533147e+005,-2.50685311974877e+001,-1.21932809192579e+001

4.78351759563174e+005,-2.50710384812494e+001,-1.23559482640074e+001

4.85029301283321e+005,-2.50735897705622e+001,-1.25208259205083e+001

4.91800058012158e+005,-2.50761863261879e+001,-1.26879451660895e+001

4.98665330982714e+005,-2.50788294542441e+001,-1.28573376402488e+001

5.05626439592555e+005,-2.50815205071005e+001,-1.30290353443513e+001

5.12684721657352e+005,-2.50842608842784e+001,-1.32030706412930e+001

5.19841533667984e+005,-2.50870520333504e+001,-1.33794762551305e+001

5.27098251051240e+005,-2.50898954508441e+001,-1.35582852706785e+001

5.34456268434150e+005,-2.50927926831484e+001,-1.37395311330746e+001

5.41916999912011e+005,-2.50957453274251e+001,-1.39232476473092e+001

