Freq.,VOut,OutRef

1.00000000000000e+004,-1.42466301589488e+001,-1.47125543757358e-001

1.01395947979003e+004,-1.42466318698881e+001,-1.49178989272641e-001

1.02811382665607e+004,-1.42466336288320e+001,-1.51261084954374e-001

1.04246576084112e+004,-1.42466354371245e+001,-1.53372230112668e-001

1.05701804056138e+004,-1.42466372961471e+001,-1.55512829608433e-001

1.07177346253629e+004,-1.42466392073199e+001,-1.57683293924328e-001

1.08673486252606e+004,-1.42466411721029e+001,-1.59884039242974e-001

1.10190511587661e+004,-1.42466431919959e+001,-1.62115487530157e-001

1.11728713807222e+004,-1.42466452685414e+001,-1.64378066606829e-001

1.13288388529580e+004,-1.42466474033243e+001,-1.66672210236778e-001

1.14869835499703e+004,-1.42466495979737e+001,-1.68998358202618e-001

1.16473358646846e+004,-1.42466518541642e+001,-1.71356956391313e-001

1.18099266142953e+004,-1.42466541736169e+001,-1.73748456876597e-001

1.19747870461893e+004,-1.42466565581010e+001,-1.76173318003393e-001

1.21419488439505e+004,-1.42466590094344e+001,-1.78632004477528e-001

1.23114441334492e+004,-1.42466615294860e+001,-1.81124987447917e-001

1.24833054890161e+004,-1.42466641201763e+001,-1.83652744596831e-001

1.26575659397028e+004,-1.42466667834794e+001,-1.86215760229479e-001

1.28342589756290e+004,-1.42466695214241e+001,-1.88814525363533e-001

1.30134185544193e+004,-1.42466723360957e+001,-1.91449537822954e-001

1.31950791077289e+004,-1.42466752296369e+001,-1.94121302328967e-001

1.33792755478611e+004,-1.42466782042505e+001,-1.96830330593374e-001

1.35660432744767e+004,-1.42466812621998e+001,-1.99577141418173e-001

1.37554181813974e+004,-1.42466844058112e+001,-2.02362260786090e-001

1.39474366635040e+004,-1.42466876374756e+001,-2.05186221962902e-001

1.41421356237309e+004,-1.42466909596495e+001,-2.08049565596638e-001

1.43395524801583e+004,-1.42466943748583e+001,-2.10952839814287e-001

1.45397251732031e+004,-1.42466978856968e+001,-2.13896600325810e-001

1.47426921729110e+004,-1.42467014948315e+001,-2.16881410528545e-001

1.49484924863494e+004,-1.42467052050028e+001,-2.19907841608748e-001

1.51571656651040e+004,-1.42467090190268e+001,-2.22976472649540e-001

1.53687518128801e+004,-1.42467129397974e+001,-2.26087890734695e-001

1.55832915932100e+004,-1.42467169702883e+001,-2.29242691061034e-001

1.58008262372675e+004,-1.42467211135556e+001,-2.32441477044405e-001

1.60213975517924e+004,-1.42467253727390e+001,-2.35684860434204e-001

1.62450479271247e+004,-1.42467297510654e+001,-2.38973461422967e-001

1.64718203453514e+004,-1.42467342518505e+001,-2.42307908760849e-001

1.67017583885674e+004,-1.42467388785007e+001,-2.45688839873169e-001

1.69349062472505e+004,-1.42467436345168e+001,-2.49116900974729e-001

1.71713087287550e+004,-1.42467485234958e+001,-2.52592747187435e-001

1.74110112659224e+004,-1.42467535491331e+001,-2.56117042662985e-001

1.76540599258131e+004,-1.42467587152260e+001,-2.59690460702087e-001

1.79005014185594e+004,-1.42467640256760e+001,-2.63313683875420e-001

1.81503831063432e+004,-1.42467694844913e+001,-2.66987404153251e-001

1.84037530124975e+004,-1.42467750957903e+001,-2.70712323023794e-001

1.86606598307361e+004,-1.42467808638040e+001,-2.74489151626586e-001

1.89211529345119e+004,-1.42467867928794e+001,-2.78318610876917e-001

1.91852823865052e+004,-1.42467928874820e+001,-2.82201431600418e-001

1.94530989482457e+004,-1.42467991521995e+001,-2.86138354659979e-001

1.97246540898671e+004,-1.42468055917451e+001,-2.90130131092681e-001

1.99999999999999e+004,-1.42468122109602e+001,-2.94177522243285e-001

2.02791895958005e+004,-1.42468190148183e+001,-2.98281299902104e-001

2.05622765331213e+004,-1.42468260084284e+001,-3.02442246441012e-001

2.08493152168224e+004,-1.42468331970385e+001,-3.06661154955686e-001

2.11403608112276e+004,-1.42468405860390e+001,-3.10938829406250e-001

2.14354692507258e+004,-1.42468481809671e+001,-3.15276084758443e-001

2.17346972505211e+004,-1.42468559875097e+001,-3.19673747132708e-001

2.20381023175322e+004,-1.42468640115084e+001,-3.24132653945303e-001

2.23457427614443e+004,-1.42468722589624e+001,-3.28653654060018e-001

2.26576777059159e+004,-1.42468807360334e+001,-3.33237607938535e-001

2.29739670999406e+004,-1.42468894490493e+001,-3.37885387789158e-001

2.32946717293690e+004,-1.42468984045093e+001,-3.42597877719137e-001

2.36198532285905e+004,-1.42469076090871e+001,-3.47375973894353e-001

2.39495740923785e+004,-1.42469170696363e+001,-3.52220584692426e-001

2.42838976879009e+004,-1.42469267931946e+001,-3.57132630861523e-001

2.46228882668982e+004,-1.42469367869889e+001,-3.62113045679341e-001

2.49666109780322e+004,-1.42469470584398e+001,-3.67162775116254e-001

2.53151318794055e+004,-1.42469576151661e+001,-3.72282778000459e-001

2.56685179512580e+004,-1.42469684649909e+001,-3.77474026178337e-001

2.60268371088386e+004,-1.42469796159459e+001,-3.82737504686277e-001

2.63901582154578e+004,-1.42469910762769e+001,-3.88074211915637e-001

2.67585510957221e+004,-1.42470028544491e+001,-3.93485159786191e-001

2.71320865489533e+004,-1.42470149591529e+001,-3.98971373915487e-001

2.75108363627948e+004,-1.42470273993089e+001,-4.04533893796153e-001

2.78948733270080e+004,-1.42470401840741e+001,-4.10173772968116e-001

2.82842712474618e+004,-1.42470533228479e+001,-4.15892079196908e-001

2.86791049603164e+004,-1.42470668252770e+001,-4.21689894655997e-001

2.90794503464061e+004,-1.42470807012632e+001,-4.27568316101384e-001

2.94853843458219e+004,-1.42470949609677e+001,-4.33528455061824e-001

2.98969849726987e+004,-1.42471096148190e+001,-4.39571438017093e-001

3.03143313302078e+004,-1.42471246735184e+001,-4.45698406586478e-001

3.07375036257601e+004,-1.42471401480469e+001,-4.51910517717209e-001

3.11665831864199e+004,-1.42471560496717e+001,-4.58208943873175e-001

3.16016524745350e+004,-1.42471723899535e+001,-4.64594873225912e-001

3.20427951035848e+004,-1.42471891807527e+001,-4.71069509849313e-001

3.24900958542493e+004,-1.42472064342371e+001,-4.77634073911517e-001

3.29436406907028e+004,-1.42472241628888e+001,-4.84289801873313e-001

3.34035167771346e+004,-1.42472423795116e+001,-4.91037946686074e-001

3.38698124945009e+004,-1.42472610972382e+001,-4.97879777991181e-001

3.43426174575100e+004,-1.42472803295383e+001,-5.04816582320381e-001

3.48220225318448e+004,-1.42473000902254e+001,-5.11849663300537e-001

3.53081198516260e+004,-1.42473203934658e+001,-5.18980341855951e-001

3.58010028371187e+004,-1.42473412537854e+001,-5.26209956417547e-001

3.63007662126863e+004,-1.42473626860782e+001,-5.33539863128388e-001

3.68075060249948e+004,-1.42473847056147e+001,-5.40971436052991e-001

3.73213196614721e+004,-1.42474073280495e+001,-5.48506067388959e-001

3.78423058690237e+004,-1.42474305694307e+001,-5.56145167679118e-001

3.83705647730104e+004,-1.42474544462070e+001,-5.63890166026282e-001

3.89061978964912e+004,-1.42474789752376e+001,-5.71742510306463e-001

3.94493081797342e+004,-1.42475041737999e+001,-5.79703667387992e-001

3.99999999999998e+004,-1.42475300595990e+001,-5.87775123347350e-001

4.05583791916010e+004,-1.42475566507763e+001,-5.95958383690829e-001

4.11245530662425e+004,-1.42475839659179e+001,-6.04254973574177e-001

4.16986304336447e+004,-1.42476120240647e+001,-6.12666438025456e-001

4.22807216224550e+004,-1.42476408447204e+001,-6.21194342169121e-001

4.28709385014515e+004,-1.42476704478617e+001,-6.29840271448083e-001

4.34693945010421e+004,-1.42477008539464e+001,-6.38605831853835e-001

4.40762046350642e+004,-1.42477320839238e+001,-6.47492650151226e-001

4.46914855228886e+004,-1.42477641592431e+001,-6.56502374106006e-001

4.53153554118317e+004,-1.42477971018632e+001,-6.65636672716946e-001

4.59479341998812e+004,-1.42478309342621e+001,-6.74897236445354e-001

4.65893434587380e+004,-1.42478656794459e+001,-6.84285777445165e-001

4.72397064571810e+004,-1.42479013609585e+001,-6.93804029798800e-001

4.78991481847569e+004,-1.42479380028908e+001,-7.03453749748013e-001

4.85677953758016e+004,-1.42479756298903e+001,-7.13236715929156e-001

4.92457765337964e+004,-1.42480142671697e+001,-7.23154729611581e-001

4.99332219560642e+004,-1.42480539405168e+001,-7.33209614929445e-001

5.06302637588109e+004,-1.42480946763036e+001,-7.43403219122244e-001

5.13370359025159e+004,-1.42481365014946e+001,-7.53737412772326e-001

5.20536742176771e+004,-1.42481794436568e+001,-7.64214090042477e-001

5.27803164309155e+004,-1.42482235309679e+001,-7.74835168917014e-001

5.35171021914442e+004,-1.42482687922248e+001,-7.85602591442497e-001

5.42641730979066e+004,-1.42483152568528e+001,-7.96518323966149e-001

5.50216727255895e+004,-1.42483629549129e+001,-8.07584357380230e-001

5.57897466540159e+004,-1.42484119171108e+001,-8.18802707363839e-001

5.65685424949235e+004,-1.42484621748043e+001,-8.30175414623862e-001

5.73582099206328e+004,-1.42485137600107e+001,-8.41704545141089e-001

5.81589006928121e+004,-1.42485667054144e+001,-8.53392190412505e-001

5.89707686916437e+004,-1.42486210443736e+001,-8.65240467698060e-001

5.97939699453972e+004,-1.42486768109268e+001,-8.77251520262818e-001

6.06286626604156e+004,-1.42487340397993e+001,-8.89427517625349e-001

6.14750072515201e+004,-1.42487927664085e+001,-9.01770655802830e-001

6.23331663728396e+004,-1.42488530268693e+001,-9.14283157559262e-001

6.32033049490698e+004,-1.42489148579991e+001,-9.26967272651949e-001

6.40855902071694e+004,-1.42489782973218e+001,-9.39825278079507e-001

6.49801917084985e+004,-1.42490433830711e+001,-9.52859478332264e-001

6.58872813814055e+004,-1.42491101541943e+001,-9.66072205640319e-001

6.68070335542691e+004,-1.42491786503539e+001,-9.79465820224958e-001

6.77396249890018e+004,-1.42492489119296e+001,-9.93042710549992e-001

6.86852349150199e+004,-1.42493209800188e+001,-1.00680529357299e+000

6.96440450636895e+004,-1.42493948964370e+001,-1.02075601499984e+000

7.06162397032520e+004,-1.42494707037169e+001,-1.03489734953765e+000

7.16020056742374e+004,-1.42495484451063e+001,-1.04923180115104e+000

7.26015324253724e+004,-1.42496281645658e+001,-1.06376190332063e+000

7.36150120499896e+004,-1.42497099067647e+001,-1.07849021929775e+000

7.46426393229441e+004,-1.42497937170762e+001,-1.09341934236902e+000

7.56846117380472e+004,-1.42498796415717e+001,-1.10855189611546e+000

7.67411295460207e+004,-1.42499677270131e+001,-1.12389053467724e+000

7.78123957929823e+004,-1.42500580208446e+001,-1.13943794302151e+000

7.88986163594682e+004,-1.42501505711828e+001,-1.15519683721064e+000

7.99999999999995e+004,-1.42502454268055e+001,-1.17116996467293e+000

8.11167583832018e+004,-1.42503426371390e+001,-1.18736010448037e+000

8.22491061324848e+004,-1.42504422522434e+001,-1.20377006762626e+000

8.33972608672892e+004,-1.42505443227977e+001,-1.22040269730557e+000

8.45614432449099e+004,-1.42506489000814e+001,-1.23726086920510e+000

8.57418770029029e+004,-1.42507560359554e+001,-1.25434749179344e+000

8.69387890020841e+004,-1.42508657828414e+001,-1.27166550661674e+000

8.81524092701283e+004,-1.42509781936981e+001,-1.28921788860199e+000

8.93829710457770e+004,-1.42510933219970e+001,-1.30700764636483e+000

9.06307108236633e+004,-1.42512112216949e+001,-1.32503782252450e+000

9.18958683997622e+004,-1.42513319472049e+001,-1.34331149402618e+000

9.31786869174758e+004,-1.42514555533654e+001,-1.36183177247053e+000

9.44794129143618e+004,-1.42515820954065e+001,-1.38060180445339e+000

9.57982963695136e+004,-1.42517116289137e+001,-1.39962477191240e+000

9.71355907516031e+004,-1.42518442097906e+001,-1.41890389248649e+000

9.84915530675926e+004,-1.42519798942174e+001,-1.43844241988297e+000

9.98664439121282e+004,-1.42521187386083e+001,-1.45824364426002e+000

1.01260527517622e+005,-1.42522607995659e+001,-1.47831089261732e+000

1.02674071805032e+005,-1.42524061338322e+001,-1.49864752920440e+000

1.04107348435354e+005,-1.42525547982386e+001,-1.51925695594189e+000

1.05560632861831e+005,-1.42527068496514e+001,-1.54014261285627e+000

1.07034204382888e+005,-1.42528623449159e+001,-1.56130797853444e+000

1.08528346195813e+005,-1.42530213407970e+001,-1.58275657059387e+000

1.10043345451179e+005,-1.42531838939170e+001,-1.60449194617264e+000

1.11579493308032e+005,-1.42533500606913e+001,-1.62651770243876e+000

1.13137084989847e+005,-1.42535198972599e+001,-1.64883747712135e+000

1.14716419841265e+005,-1.42536934594175e+001,-1.67145494906427e+000

1.16317801385624e+005,-1.42538708025396e+001,-1.69437383880371e+000

1.17941537383287e+005,-1.42540519815066e+001,-1.71759790917085e+000

1.19587939890794e+005,-1.42542370506241e+001,-1.74113096592311e+000

1.21257325320831e+005,-1.42544260635414e+001,-1.76497685839958e+000

1.22950014503040e+005,-1.42546190731668e+001,-1.78913948021059e+000

1.24666332745679e+005,-1.42548161315796e+001,-1.81362276995659e+000

1.26406609898139e+005,-1.42550172899408e+001,-1.83843071197869e+000

1.28171180414339e+005,-1.42552225984000e+001,-1.86356733714603e+000

1.29960383416997e+005,-1.42554321060003e+001,-1.88903672367620e+000

1.31774562762811e+005,-1.42556458605809e+001,-1.91484299799780e+000

1.33614067108538e+005,-1.42558639086771e+001,-1.94099033564583e+000

1.35479249978003e+005,-1.42560862954192e+001,-1.96748296220289e+000

1.37370469830040e+005,-1.42563130644273e+001,-1.99432515428202e+000

1.39288090127379e+005,-1.42565442577073e+001,-2.02152124055091e+000

1.41232479406504e+005,-1.42567799155423e+001,-2.04907560280488e+000

1.43204011348474e+005,-1.42570200763848e+001,-2.07699267708554e+000

1.45203064850745e+005,-1.42572647767467e+001,-2.10527695484654e+000

1.47230024099979e+005,-1.42575140510884e+001,-2.13393298417389e+000

1.49285278645888e+005,-1.42577679317075e+001,-2.16296537105325e+000

1.51369223476094e+005,-1.42580264486271e+001,-2.19237878069233e+000

1.53482259092041e+005,-1.42582896294835e+001,-2.22217793889819e+000

1.55624791585964e+005,-1.42585574994149e+001,-2.25236763350866e+000

1.57797232718936e+005,-1.42588300809497e+001,-2.28295271588099e+000

1.59999999999999e+005,-1.42591073938966e+001,-2.31393810243780e+000

1.62233516766403e+005,-1.42593894552351e+001,-2.34532877627278e+000

1.64498212264969e+005,-1.42596762790081e+001,-2.37712978881463e+000

1.66794521734578e+005,-1.42599678762165e+001,-2.40934626155113e+000

1.69122886489819e+005,-1.42602642547157e+001,-2.44198338781525e+000

1.71483754005805e+005,-1.42605654191160e+001,-2.47504643462964e+000

1.73877578004168e+005,-1.42608713706847e+001,-2.50854074461514e+000

1.76304818540256e+005,-1.42611821072534e+001,-2.54247173795914e+000

1.78765942091554e+005,-1.42614976231284e+001,-2.57684491444481e+000

1.81261421647326e+005,-1.42618179090061e+001,-2.61166585554289e+000

1.83791736799524e+005,-1.42621429518938e+001,-2.64694022656121e+000

1.86357373834951e+005,-1.42624727350354e+001,-2.68267377885587e+000

1.88958825828723e+005,-1.42628072378432e+001,-2.71887235210101e+000

1.91596592739027e+005,-1.42631464358363e+001,-2.75554187661528e+000

1.94271181503206e+005,-1.42634903005864e+001,-2.79268837574467e+000

1.96983106135185e+005,-1.42638387996698e+001,-2.83031796830093e+000

1.99732887824256e+005,-1.42641918966282e+001,-2.86843687105177e+000

2.02521055035243e+005,-1.42645495509372e+001,-2.90705140126256e+000

2.05348143610063e+005,-1.42649117179839e+001,-2.94616797928628e+000

2.08214696870707e+005,-1.42652783490530e+001,-2.98579313119940e+000

2.11121265723661e+005,-1.42656493913226e+001,-3.02593349148343e+000

2.14068408765776e+005,-1.42660247878701e+001,-3.06659580574233e+000

2.17056692391625e+005,-1.42664044776875e+001,-3.10778693346315e+000

2.20086690902357e+005,-1.42667883957076e+001,-3.14951385080674e+000

2.23158986616063e+005,-1.42671764728411e+001,-3.19178365343087e+000

2.26274169979693e+005,-1.42675686360236e+001,-3.23460355934128e+000

2.29432839682530e+005,-1.42679648082754e+001,-3.27798091176372e+000

2.32635602771247e+005,-1.42683649087706e+001,-3.32192318203889e+000

2.35883074766574e+005,-1.42687688529193e+001,-3.36643797252988e+000

2.39175879781588e+005,-1.42691765524602e+001,-3.41153301954296e+000

2.42514650641661e+005,-1.42695879155652e+001,-3.45721619625439e+000

2.45900029006080e+005,-1.42700028469553e+001,-3.50349551564039e+000

2.49332665491357e+005,-1.42704212480282e+001,-3.55037913340747e+000

2.52813219796278e+005,-1.42708430169967e+001,-3.59787535091368e+000

2.56342360828676e+005,-1.42712680490388e+001,-3.64599261808329e+000

2.59920766833993e+005,-1.42716962364583e+001,-3.69473953630554e+000

2.63549125525621e+005,-1.42721274688567e+001,-3.74412486131488e+000

2.67228134217075e+005,-1.42725616333147e+001,-3.79415750605065e+000

2.70958499956006e+005,-1.42729986145842e+001,-3.84484654348826e+000

2.74740939660078e+005,-1.42734382952902e+001,-3.89620120944069e+000

2.78576180254757e+005,-1.42738805561410e+001,-3.94823090532749e+000

2.82464958813007e+005,-1.42743252761480e+001,-4.00094520090540e+000

2.86408022696948e+005,-1.42747723328531e+001,-4.05435383695806e+000

2.90406129701488e+005,-1.42752216025636e+001,-4.10846672794321e+000

2.94460048199957e+005,-1.42756729605948e+001,-4.16329396459450e+000

2.98570557291775e+005,-1.42761262815178e+001,-4.21884581647184e+000

3.02738446952187e+005,-1.42765814394138e+001,-4.27513273446488e+000

3.06964518184081e+005,-1.42770383081333e+001,-4.33216535324061e+000

3.11249583171928e+005,-1.42774967615584e+001,-4.38995449364006e+000

3.15594465437872e+005,-1.42779566738703e+001,-4.44851116501742e+000

3.19999999999997e+005,-1.42784179198181e+001,-4.50784656752517e+000

3.24467033532806e+005,-1.42788803749897e+001,-4.56797209434275e+000

3.28996424529938e+005,-1.42793439160850e+001,-4.62889933384841e+000

3.33589043469155e+005,-1.42798084211878e+001,-4.69064007173687e+000

3.38245772979638e+005,-1.42802737700382e+001,-4.75320629308019e+000

3.42967508011610e+005,-1.42807398443041e+001,-4.81661018433677e+000

3.47755156008335e+005,-1.42812065278498e+001,-4.88086413530623e+000

3.52609637080511e+005,-1.42816737070028e+001,-4.94598074103594e+000

3.57531884183106e+005,-1.42821412708167e+001,-5.01197280367679e+000

3.62522843294651e+005,-1.42826091113300e+001,-5.07885333429665e+000

3.67583473599047e+005,-1.42830771238207e+001,-5.14663555464699e+000

3.72714747669902e+005,-1.42835452070542e+001,-5.21533289889423e+000

3.77917651657445e+005,-1.42840132635268e+001,-5.28495901531178e+000

3.83193185478053e+005,-1.42844811997017e+001,-5.35552776794069e+000

3.88542363006410e+005,-1.42849489262375e+001,-5.42705323822324e+000

3.93966212270369e+005,-1.42854163582100e+001,-5.49954972661050e+000

3.99465775648511e+005,-1.42858834153259e+001,-5.57303175415087e+000

4.05042110070485e+005,-1.42863500221271e+001,-5.64751406406428e+000

4.10696287220124e+005,-1.42868161081874e+001,-5.72301162330437e+000

4.16429393741414e+005,-1.42872816082996e+001,-5.79953962411751e+000

4.22242531447321e+005,-1.42877464626534e+001,-5.87711348559806e+000

4.28136817531551e+005,-1.42882106170039e+001,-5.95574885525072e+000

4.34113384783250e+005,-1.42886740228303e+001,-6.03546161056190e+000

4.40173381804713e+005,-1.42891366374852e+001,-6.11626786058363e+000

4.46317973232124e+005,-1.42895984243339e+001,-6.19818394754030e+000

4.52548339959385e+005,-1.42900593528842e+001,-6.28122644845711e+000

4.58865679365059e+005,-1.42905193989065e+001,-6.36541217682071e+000

4.65271205542494e+005,-1.42909785445440e+001,-6.45075818427195e+000

4.71766149533147e+005,-1.42914367784141e+001,-6.53728176233993e+000

4.78351759563174e+005,-1.42918940956999e+001,-6.62500044421950e+000

4.85029301283321e+005,-1.42923504982336e+001,-6.71393200659665e+000

4.91800058012158e+005,-1.42928059945703e+001,-6.80409447152780e+000

4.98665330982714e+005,-1.42932606000537e+001,-6.89550610837668e+000

5.05626439592555e+005,-1.42937143368741e+001,-6.98818543581066e+000

5.12684721657352e+005,-1.42941672341184e+001,-7.08215122386439e+000

5.19841533667984e+005,-1.42946193278122e+001,-7.17742249607115e+000

5.27098251051240e+005,-1.42950706609567e+001,-7.27401853166641e+000

5.34456268434150e+005,-1.42955212835571e+001,-7.37195886786766e+000

5.41916999912011e+005,-1.42959712526464e+001,-7.47126330223196e+000

