Freq.,VOut,OutRef

1.00000000000000e+004,-9.61198608873698e+000,-9.37370926672582e-002

1.01395947979003e+004,-9.61198750995607e+000,-9.50453053815131e-002

1.02811382665607e+004,-9.61198897104598e+000,-9.63717669898870e-002

1.04246576084112e+004,-9.61199047312295e+000,-9.77167316821669e-002

1.05701804056138e+004,-9.61199201733383e+000,-9.90804571767893e-002

1.07177346253629e+004,-9.61199360485816e+000,-1.00463204760198e-001

1.08673486252606e+004,-9.61199523690792e+000,-1.01865239343952e-001

1.10190511587661e+004,-9.61199691472866e+000,-1.03286829511785e-001

1.11728713807222e+004,-9.61199863960097e+000,-1.04728247566971e-001

1.13288388529580e+004,-9.61200041284074e+000,-1.06189769587502e-001

1.14869835499703e+004,-9.61200223580055e+000,-1.07671675474127e-001

1.16473358646846e+004,-9.61200410987126e+000,-1.09174249000449e-001

1.18099266142953e+004,-9.61200603648101e+000,-1.10697777876569e-001

1.19747870461893e+004,-9.61200801709904e+000,-1.12242553786857e-001

1.21419488439505e+004,-9.61201005323452e+000,-1.13808872457151e-001

1.23114441334492e+004,-9.61201214643918e+000,-1.15397033700810e-001

1.24833054890161e+004,-9.61201429830739e+000,-1.17007341480633e-001

1.26575659397028e+004,-9.61201651047776e+000,-1.18640103962911e-001

1.28342589756290e+004,-9.61201878463482e+000,-1.20295633571276e-001

1.30134185544193e+004,-9.61202112250921e+000,-1.21974247050328e-001

1.31950791077289e+004,-9.61202352587988e+000,-1.23676265519691e-001

1.33792755478611e+004,-9.61202599657551e+000,-1.25402014531540e-001

1.35660432744767e+004,-9.61202853647478e+000,-1.27151824137246e-001

1.37554181813974e+004,-9.61203114750848e+000,-1.28926028944345e-001

1.39474366635040e+004,-9.61203383166123e+000,-1.30724968174806e-001

1.41421356237309e+004,-9.61203659097227e+000,-1.32548985732386e-001

1.43395524801583e+004,-9.61203942753752e+000,-1.34398430262259e-001

1.45397251732031e+004,-9.61204234351031e+000,-1.36273655218895e-001

1.47426921729110e+004,-9.61204534110396e+000,-1.38175018924823e-001

1.49484924863494e+004,-9.61204842259299e+000,-1.40102884638493e-001

1.51571656651040e+004,-9.61205159031453e+000,-1.42057620622616e-001

1.53687518128801e+004,-9.61205484666978e+000,-1.44039600210785e-001

1.55832915932100e+004,-9.61205819412695e+000,-1.46049201870106e-001

1.58008262372675e+004,-9.61206163522166e+000,-1.48086809276977e-001

1.60213975517924e+004,-9.61206517255945e+000,-1.50152811382551e-001

1.62450479271247e+004,-9.61206880881823e+000,-1.52247602479776e-001

1.64718203453514e+004,-9.61207254674855e+000,-1.54371582284729e-001

1.67017583885674e+004,-9.61207638917753e+000,-1.56525155996274e-001

1.69349062472505e+004,-9.61208033900936e+000,-1.58708734378630e-001

1.71713087287550e+004,-9.61208439922834e+000,-1.60922733829523e-001

1.74110112659224e+004,-9.61208857290028e+000,-1.63167576457722e-001

1.76540599258131e+004,-9.61209286317576e+000,-1.65443690153600e-001

1.79005014185594e+004,-9.61209727329083e+000,-1.67751508674298e-001

1.81503831063432e+004,-9.61210180657100e+000,-1.70091471709714e-001

1.84037530124975e+004,-9.61210646643204e+000,-1.72464024971819e-001

1.86606598307361e+004,-9.61211125638340e+000,-1.74869620265916e-001

1.89211529345119e+004,-9.61211618003077e+000,-1.77308715570488e-001

1.91852823865052e+004,-9.61212124107780e+000,-1.79781775123229e-001

1.94530989482457e+004,-9.61212644332933e+000,-1.82289269498384e-001

1.97246540898671e+004,-9.61213179069375e+000,-1.84831675691710e-001

1.99999999999999e+004,-9.61213728718635e+000,-1.87409477199474e-001

2.02791895958005e+004,-9.61214293693087e+000,-1.90023164111042e-001

2.05622765331213e+004,-9.61214874416360e+000,-1.92673233186482e-001

2.08493152168224e+004,-9.61215471323617e+000,-1.95360187943293e-001

2.11403608112276e+004,-9.61216084861747e+000,-1.98084538750632e-001

2.14354692507258e+004,-9.61216715489782e+000,-2.00846802910267e-001

2.17346972505211e+004,-9.61217363679216e+000,-2.03647504745649e-001

2.20381023175322e+004,-9.61218029914235e+000,-2.06487175697647e-001

2.23457427614443e+004,-9.61218714692140e+000,-2.09366354408541e-001

2.26576777059159e+004,-9.61219418523591e+000,-2.12285586821134e-001

2.29739670999406e+004,-9.61220141933074e+000,-2.15245426262835e-001

2.32946717293690e+004,-9.61220885459159e+000,-2.18246433545415e-001

2.36198532285905e+004,-9.61221649654887e+000,-2.21289177058026e-001

2.39495740923785e+004,-9.61222435088149e+000,-2.24374232862219e-001

2.42838976879009e+004,-9.61223242342031e+000,-2.27502184789612e-001

2.46228882668982e+004,-9.61224072015279e+000,-2.30673624535763e-001

2.49666109780322e+004,-9.61224924722606e+000,-2.33889151762367e-001

2.53151318794055e+004,-9.61225801095124e+000,-2.37149374195095e-001

2.56685179512580e+004,-9.61226701780795e+000,-2.40454907721544e-001

2.60268371088386e+004,-9.61227627444796e+000,-2.43806376495189e-001

2.63901582154578e+004,-9.61228578769982e+000,-2.47204413035373e-001

2.67585510957221e+004,-9.61229556457326e+000,-2.50649658330495e-001

2.71320865489533e+004,-9.61230561226334e+000,-2.54142761941894e-001

2.75108363627948e+004,-9.61231593815562e+000,-2.57684382107108e-001

2.78948733270080e+004,-9.61232654983025e+000,-2.61275185846680e-001

2.82842712474618e+004,-9.61233745506711e+000,-2.64915849069104e-001

2.86791049603164e+004,-9.61234866185053e+000,-2.68607056678589e-001

2.90794503464061e+004,-9.61236017837401e+000,-2.72349502683659e-001

2.94853843458219e+004,-9.61237201304597e+000,-2.76143890302603e-001

2.98969849726987e+004,-9.61238417449394e+000,-2.79990932077667e-001

3.03143313302078e+004,-9.61239667157085e+000,-2.83891349979771e-001

3.07375036257601e+004,-9.61240951335937e+000,-2.87845875525010e-001

3.11665831864199e+004,-9.61242270917801e+000,-2.91855249883064e-001

3.16016524745350e+004,-9.61243626858679e+000,-2.95920223988134e-001

3.20427951035848e+004,-9.61245020139186e+000,-3.00041558659069e-001

3.24900958542493e+004,-9.61246451765244e+000,-3.04220024705027e-001

3.29436406907028e+004,-9.61247922768613e+000,-3.08456403044230e-001

3.34035167771346e+004,-9.61249434207441e+000,-3.12751484821039e-001

3.38698124945009e+004,-9.61250987166958e+000,-3.17106071516636e-001

3.43426174575100e+004,-9.61252582760009e+000,-3.21520975069924e-001

3.48220225318448e+004,-9.61254222127713e+000,-3.25997017992566e-001

3.53081198516260e+004,-9.61255906440047e+000,-3.30535033489322e-001

3.58010028371187e+004,-9.61257636896575e+000,-3.35135865570464e-001

3.63007662126863e+004,-9.61259414726982e+000,-3.39800369177773e-001

3.68075060249948e+004,-9.61261241191830e+000,-3.44529410296971e-001

3.73213196614721e+004,-9.61263117583123e+000,-3.49323866083780e-001

3.78423058690237e+004,-9.61265045225083e+000,-3.54184624977415e-001

3.83705647730104e+004,-9.61267025474738e+000,-3.59112586826174e-001

3.89061978964912e+004,-9.61269059722643e+000,-3.64108663006598e-001

3.94493081797342e+004,-9.61271149393598e+000,-3.69173776542796e-001

3.99999999999998e+004,-9.61273295947294e+000,-3.74308862230370e-001

4.05583791916010e+004,-9.61275500879051e+000,-3.79514866756981e-001

4.11245530662425e+004,-9.61277765720547e+000,-3.84792748822050e-001

4.16986304336447e+004,-9.61280092040464e+000,-3.90143479263023e-001

4.22807216224550e+004,-9.61282481445267e+000,-3.95568041174048e-001

4.28709385014515e+004,-9.61284935579907e+000,-4.01067430028964e-001

4.34693945010421e+004,-9.61287456128538e+000,-4.06642653804108e-001

4.40762046350642e+004,-9.61290044815242e+000,-4.12294733099692e-001

4.46914855228886e+004,-9.61292703404788e+000,-4.18024701261292e-001

4.53153554118317e+004,-9.61295433703298e+000,-4.23833604504313e-001

4.59479341998812e+004,-9.61298237559041e+000,-4.29722502032128e-001

4.65893434587380e+004,-9.61301116863085e+000,-4.35692466162290e-001

4.72397064571810e+004,-9.61304073550098e+000,-4.41744582442966e-001

4.78991481847569e+004,-9.61307109599008e+000,-4.47879949776765e-001

4.85677953758016e+004,-9.61310227033714e+000,-4.54099680542683e-001

4.92457765337964e+004,-9.61313427923823e+000,-4.60404900713700e-001

4.99332219560642e+004,-9.61316714385331e+000,-4.66796749977727e-001

5.06302637588109e+004,-9.61320088581306e+000,-4.73276381857176e-001

5.13370359025159e+004,-9.61323552722561e+000,-4.79844963828352e-001

5.20536742176771e+004,-9.61327109068326e+000,-4.86503677438582e-001

5.27803164309155e+004,-9.61330759926856e+000,-4.93253718426523e-001

5.35171021914442e+004,-9.61334507656158e+000,-5.00096296833402e-001

5.42641730979066e+004,-9.61338354664465e+000,-5.07032637127555e-001

5.50216727255895e+004,-9.61342303410941e+000,-5.14063978313014e-001

5.57897466540159e+004,-9.61346356406198e+000,-5.21191574046498e-001

5.65685424949235e+004,-9.61350516212825e+000,-5.28416692753587e-001

5.73582099206328e+004,-9.61354785445921e+000,-5.35740617738906e-001

5.81589006928121e+004,-9.61359166773592e+000,-5.43164647298624e-001

5.89707686916437e+004,-9.61363662917348e+000,-5.50690094833980e-001

5.97939699453972e+004,-9.61368276652560e+000,-5.58318288959196e-001

6.06286626604156e+004,-9.61373010808829e+000,-5.66050573610934e-001

6.14750072515201e+004,-9.61377868270286e+000,-5.73888308158312e-001

6.23331663728396e+004,-9.61382851975882e+000,-5.81832867510107e-001

6.32033049490698e+004,-9.61387964919660e+000,-5.89885642218191e-001

6.40855902071694e+004,-9.61393210150882e+000,-5.98048038587173e-001

6.49801917084985e+004,-9.61398590774194e+000,-6.06321478775291e-001

6.58872813814055e+004,-9.61404109949642e+000,-6.14707400901380e-001

6.68070335542691e+004,-9.61409770892732e+000,-6.23207259143320e-001

6.77396249890018e+004,-9.61415576874309e+000,-6.31822523843238e-001

6.86852349150199e+004,-9.61421531220420e+000,-6.40554681606992e-001

6.96440450636895e+004,-9.61427637312122e+000,-6.49405235402803e-001

7.06162397032520e+004,-9.61433898585143e+000,-6.58375704662901e-001

7.16020056742374e+004,-9.61440318529491e+000,-6.67467625382176e-001

7.26015324253724e+004,-9.61446900688983e+000,-6.76682550213945e-001

7.36150120499896e+004,-9.61453648660666e+000,-6.86022048569507e-001

7.46426393229441e+004,-9.61460566094103e+000,-6.95487706715908e-001

7.56846117380472e+004,-9.61467656690610e+000,-7.05081127871639e-001

7.67411295460207e+004,-9.61474924202324e+000,-7.14803932305462e-001

7.78123957929823e+004,-9.61482372431180e+000,-7.24657757433400e-001

7.88986163594682e+004,-9.61490005227760e+000,-7.34644257915760e-001

7.99999999999995e+004,-9.61497826490009e+000,-7.44765105756539e-001

8.11167583832018e+004,-9.61505840161800e+000,-7.55021990402166e-001

8.22491061324848e+004,-9.61514050231368e+000,-7.65416618842913e-001

8.33972608672892e+004,-9.61522460729590e+000,-7.75950715713515e-001

8.45614432449099e+004,-9.61531075728131e+000,-7.86626023396353e-001

8.57418770029029e+004,-9.61539899337355e+000,-7.97444302128904e-001

8.69387890020841e+004,-9.61548935704183e+000,-8.08407330109256e-001

8.81524092701283e+004,-9.61558189009648e+000,-8.19516903608503e-001

8.93829710457770e+004,-9.61567663466348e+000,-8.30774837084855e-001

9.06307108236633e+004,-9.61577363315703e+000,-8.42182963300248e-001

9.18958683997622e+004,-9.61587292824991e+000,-8.53743133442591e-001

9.31786869174758e+004,-9.61597456284168e+000,-8.65457217253894e-001

9.44794129143618e+004,-9.61607858002556e+000,-8.77327103159082e-001

9.57982963695136e+004,-9.61618502305202e+000,-8.89354698407531e-001

9.71355907516031e+004,-9.61629393529144e+000,-9.01541929213131e-001

9.84915530675926e+004,-9.61640536019302e+000,-9.13890740911053e-001

9.98664439121282e+004,-9.61651934124299e+000,-9.26403098111770e-001

1.01260527517622e+005,-9.61663592191907e+000,-9.39080984872994e-001

1.02674071805032e+005,-9.61675514564341e+000,-9.51926404874135e-001

1.04107348435354e+005,-9.61687705573221e+000,-9.64941381607511e-001

1.05560632861831e+005,-9.61700169534389e+000,-9.78127958573830e-001

1.07034204382888e+005,-9.61712910742352e+000,-9.91488199495499e-001

1.08528346195813e+005,-9.61725933464575e+000,-1.00502418853864e+000

1.10043345451179e+005,-9.61739241935400e+000,-1.01873803055336e+000

1.11579493308032e+005,-9.61752840349799e+000,-1.03263185132461e+000

1.13137084989847e+005,-9.61766732856825e+000,-1.04670779784068e+000

1.14716419841265e+005,-9.61780923552711e+000,-1.06096803858329e+000

1.16317801385624e+005,-9.61795416473882e+000,-1.07541476382698e+000

1.17941537383287e+005,-9.61810215589491e+000,-1.09005018596751e+000

1.19587939890794e+005,-9.61825324793840e+000,-1.10487653986473e+000

1.21257325320831e+005,-9.61840747898480e+000,-1.11989608320871e+000

1.22950014503040e+005,-9.61856488624026e+000,-1.13511109691173e+000

1.24666332745679e+005,-9.61872550591738e+000,-1.15052388552228e+000

1.26406609898139e+005,-9.61888937314885e+000,-1.16613677766411e+000

1.28171180414339e+005,-9.61905652189760e+000,-1.18195212650715e+000

1.29960383416997e+005,-9.61922698486572e+000,-1.19797231026142e+000

1.31774562762811e+005,-9.61940079340029e+000,-1.21419973270439e+000

1.33614067108538e+005,-9.61957797739732e+000,-1.23063682373868e+000

1.35479249978003e+005,-9.61975856520342e+000,-1.24728603998302e+000

1.37370469830040e+005,-9.61994258351586e+000,-1.26414986539604e+000

1.39288090127379e+005,-9.62013005728020e+000,-1.28123081193748e+000

1.41232479406504e+005,-9.62032100958688e+000,-1.29853142026498e+000

1.43204011348474e+005,-9.62051546156593e+000,-1.31605426046877e+000

1.45203064850745e+005,-9.62071343228045e+000,-1.33380193284740e+000

1.47230024099979e+005,-9.62091493861916e+000,-1.35177706872229e+000

1.49285278645888e+005,-9.62111999518780e+000,-1.36998233129546e+000

1.51369223476094e+005,-9.62132861420004e+000,-1.38842041655052e+000

1.53482259092041e+005,-9.62154080536796e+000,-1.40709405419766e+000

1.55624791585964e+005,-9.62175657579236e+000,-1.42600600866307e+000

1.57797232718936e+005,-9.62197592985324e+000,-1.44515908012645e+000

1.59999999999999e+005,-9.62219886910091e+000,-1.46455610560276e+000

1.62233516766403e+005,-9.62242539214721e+000,-1.48419996007629e+000

1.64498212264969e+005,-9.62265549455880e+000,-1.50409355767801e+000

1.66794521734578e+005,-9.62288916875085e+000,-1.52423985291633e+000

1.69122886489819e+005,-9.62312640388326e+000,-1.54464184195482e+000

1.71483754005805e+005,-9.62336718575847e+000,-1.56530256394131e+000

1.73877578004168e+005,-9.62361149672188e+000,-1.58622510238624e+000

1.76304818540256e+005,-9.62385931556556e+000,-1.60741258659012e+000

1.78765942091554e+005,-9.62411061743443e+000,-1.62886819312297e+000

1.81261421647326e+005,-9.62436537373674e+000,-1.65059514735110e+000

1.83791736799524e+005,-9.62462355205812e+000,-1.67259672501479e+000

1.86357373834951e+005,-9.62488511608039e+000,-1.69487625385225e+000

1.88958825828723e+005,-9.62515002550508e+000,-1.71743711527276e+000

1.91596592739027e+005,-9.62541823598193e+000,-1.74028274607513e+000

1.94271181503206e+005,-9.62568969904327e+000,-1.76341664021276e+000

1.96983106135185e+005,-9.62596436204441e+000,-1.78684235060063e+000

1.99732887824256e+005,-9.62624216811007e+000,-1.81056349096554e+000

2.02521055035243e+005,-9.62652305608809e+000,-1.83458373773570e+000

2.05348143610063e+005,-9.62680696050935e+000,-1.85890683197172e+000

2.08214696870707e+005,-9.62709381155619e+000,-1.88353658132795e+000

2.11121265723661e+005,-9.62738353503771e+000,-1.90847686205365e+000

2.14068408765776e+005,-9.62767605237357e+000,-1.93373162101982e+000

2.17056692391625e+005,-9.62797128058576e+000,-1.95930487777953e+000

2.20086690902357e+005,-9.62826913229925e+000,-1.98520072664921e+000

2.23158986616063e+005,-9.62856951575121e+000,-2.01142333881471e+000

2.26274169979693e+005,-9.62887233480938e+000,-2.03797696445603e+000

2.29432839682530e+005,-9.62917748899924e+000,-2.06486593488734e+000

2.32635602771247e+005,-9.62948487354075e+000,-2.09209466470958e+000

2.35883074766574e+005,-9.62979437939454e+000,-2.11966765397070e+000

2.39175879781588e+005,-9.63010589331677e+000,-2.14758949033339e+000

2.42514650641661e+005,-9.63041929792435e+000,-2.17586485124092e+000

2.45900029006080e+005,-9.63073447176880e+000,-2.20449850608224e+000

2.49332665491357e+005,-9.63105128941956e+000,-2.23349531835090e+000

2.52813219796278e+005,-9.63136962155684e+000,-2.26286024779158e+000

2.56342360828676e+005,-9.63168933507284e+000,-2.29259835253560e+000

2.59920766833993e+005,-9.63201029318229e+000,-2.32271479121651e+000

2.63549125525621e+005,-9.63233235554128e+000,-2.35321482506396e+000

2.67228134217075e+005,-9.63265537837442e+000,-2.38410381997390e+000

2.70958499956006e+005,-9.63297921460986e+000,-2.41538724854867e+000

2.74740939660078e+005,-9.63330371402181e+000,-2.44707069210621e+000

2.78576180254757e+005,-9.63362872338032e+000,-2.47915984265173e+000

2.82464958813007e+005,-9.63395408660758e+000,-2.51166050481355e+000

2.86408022696948e+005,-9.63427964494028e+000,-2.54457859773596e+000

2.90406129701488e+005,-9.63460523709787e+000,-2.57792015692825e+000

2.94460048199957e+005,-9.63493069945539e+000,-2.61169133606829e+000

2.98570557291775e+005,-9.63525586622141e+000,-2.64589840875509e+000

3.02738446952187e+005,-9.63558056961895e+000,-2.68054777021491e+000

3.06964518184081e+005,-9.63590464007032e+000,-2.71564593895128e+000

3.11249583171928e+005,-9.63622790638395e+000,-2.75119955834371e+000

3.15594465437872e+005,-9.63655019594335e+000,-2.78721539819102e+000

3.19999999999997e+005,-9.63687133489674e+000,-2.82370035620116e+000

3.24467033532806e+005,-9.63719114834761e+000,-2.86066145942359e+000

3.28996424529938e+005,-9.63750946054441e+000,-2.89810586562716e+000

3.33589043469155e+005,-9.63782609506934e+000,-2.93604086462355e+000

3.38245772979638e+005,-9.63814087502568e+000,-2.97447387953395e+000

3.42967508011610e+005,-9.63845362322200e+000,-3.01341246800485e+000

3.47755156008335e+005,-9.63876416235358e+000,-3.05286432336984e+000

3.52609637080511e+005,-9.63907231517983e+000,-3.09283727576146e+000

3.57531884183106e+005,-9.63937790469708e+000,-3.13333929317349e+000

3.62522843294651e+005,-9.63968075430591e+000,-3.17437848247865e+000

3.67583473599047e+005,-9.63998068797305e+000,-3.21596309040000e+000

3.72714747669902e+005,-9.64027753038631e+000,-3.25810150444335e+000

3.77917651657445e+005,-9.64057110710282e+000,-3.30080225378929e+000

3.83193185478053e+005,-9.64086124468914e+000,-3.34407401015353e+000

3.88542363006410e+005,-9.64114777085397e+000,-3.38792558861199e+000

3.93966212270369e+005,-9.64143051457149e+000,-3.43236594840248e+000

3.99465775648511e+005,-9.64170930619606e+000,-3.47740419369936e+000

4.05042110070485e+005,-9.64198397756765e+000,-3.52304957436982e+000

4.10696287220124e+005,-9.64225436210677e+000,-3.56931148671609e+000

4.16429393741414e+005,-9.64252029490015e+000,-3.61619947420350e+000

4.22242531447321e+005,-9.64278161277535e+000,-3.66372322818474e+000

4.28136817531551e+005,-9.64303815436518e+000,-3.71189258861965e+000

4.34113384783250e+005,-9.64328976016112e+000,-3.76071754479857e+000

4.40173381804713e+005,-9.64353627255593e+000,-3.81020823607127e+000

4.46317973232124e+005,-9.64377753587503e+000,-3.86037495258824e+000

4.52548339959385e+005,-9.64401339639708e+000,-3.91122813605676e+000

4.58865679365059e+005,-9.64424370236316e+000,-3.96277838051716e+000

4.65271205542494e+005,-9.64446830397513e+000,-4.01503643314417e+000

4.71766149533147e+005,-9.64468705338270e+000,-4.06801319507688e+000

4.78351759563174e+005,-9.64489980465980e+000,-4.12171972228101e+000

4.85029301283321e+005,-9.64510641377000e+000,-4.17616722644932e+000

4.91800058012158e+005,-9.64530673852139e+000,-4.23136707594260e+000

4.98665330982714e+005,-9.64550063851084e+000,-4.28733079677590e+000

5.05626439592555e+005,-9.64568797505831e+000,-4.34407007365247e+000

5.12684721657352e+005,-9.64586861113071e+000,-4.40159675105189e+000

5.19841533667984e+005,-9.64604241125651e+000,-4.45992283437093e+000

5.27098251051240e+005,-9.64620924143061e+000,-4.51906049112559e+000

5.34456268434150e+005,-9.64636896901007e+000,-4.57902205221366e+000

5.41916999912011e+005,-9.64652146260098e+000,-4.63982001324207e+000

