Freq.,VOut,OutRef

1.00000000000000e+004,-1.56092659477839e+000,-2.89909630243209e-002

1.01395947979003e+004,-1.56092666093204e+000,-2.93956471920334e-002

1.02811382665607e+004,-1.56092672894120e+000,-2.98059799234239e-002

1.04246576084112e+004,-1.56092679885822e+000,-3.02220400404303e-002

1.05701804056138e+004,-1.56092687073666e+000,-3.06439074660961e-002

1.07177346253629e+004,-1.56092694463070e+000,-3.10716632434405e-002

1.08673486252606e+004,-1.56092702059756e+000,-3.15053895358900e-002

1.10190511587661e+004,-1.56092709869474e+000,-3.19451696607308e-002

1.11728713807222e+004,-1.56092717898169e+000,-3.23910880951687e-002

1.13288388529580e+004,-1.56092726152010e+000,-3.28432304902344e-002

1.14869835499703e+004,-1.56092734637283e+000,-3.33016836948928e-002

1.16473358646846e+004,-1.56092743360441e+000,-3.37665357691973e-002

1.18099266142953e+004,-1.56092752328115e+000,-3.42378760014399e-002

1.19747870461893e+004,-1.56092761547199e+000,-3.47157949191196e-002

1.21419488439505e+004,-1.56092771024683e+000,-3.52003843187360e-002

1.23114441334492e+004,-1.56092780767783e+000,-3.56917372733835e-002

1.24833054890161e+004,-1.56092790783928e+000,-3.61899481536704e-002

1.26575659397028e+004,-1.56092801080728e+000,-3.66951126470046e-002

1.28342589756290e+004,-1.56092811666067e+000,-3.72073277701153e-002

1.30134185544193e+004,-1.56092822547966e+000,-3.77266918978456e-002

1.31950791077289e+004,-1.56092833734678e+000,-3.82533047749090e-002

1.33792755478611e+004,-1.56092845234768e+000,-3.87872675316695e-002

1.35660432744767e+004,-1.56092857056964e+000,-3.93286827118545e-002

1.37554181813974e+004,-1.56092869210211e+000,-3.98776542902713e-002

1.39474366635040e+004,-1.56092881703800e+000,-4.04342876838379e-002

1.41421356237309e+004,-1.56092894547211e+000,-4.09986897834377e-002

1.43395524801583e+004,-1.56092907750164e+000,-4.15709689699784e-002

1.45397251732031e+004,-1.56092921322701e+000,-4.21512351318418e-002

1.47426921729110e+004,-1.56092935275107e+000,-4.27395996902121e-002

1.49484924863494e+004,-1.56092949617996e+000,-4.33361756155301e-002

1.51571656651040e+004,-1.56092964362239e+000,-4.39410774543647e-002

1.53687518128801e+004,-1.56092979518980e+000,-4.45544213510590e-002

1.55832915932100e+004,-1.56092995099757e+000,-4.51763250617567e-002

1.58008262372675e+004,-1.56093011116293e+000,-4.58069079912228e-002

1.60213975517924e+004,-1.56093027580794e+000,-4.64462911972973e-002

1.62450479271247e+004,-1.56093044505672e+000,-4.70945974320131e-002

1.64718203453514e+004,-1.56093061903721e+000,-4.77519511538948e-002

1.67017583885674e+004,-1.56093079788137e+000,-4.84184785516985e-002

1.69349062472505e+004,-1.56093098172396e+000,-4.90943075765236e-002

1.71713087287550e+004,-1.56093117070407e+000,-4.97795679565926e-002

1.74110112659224e+004,-1.56093136496439e+000,-5.04743912272566e-002

1.76540599258131e+004,-1.56093156465110e+000,-5.11789107587274e-002

1.79005014185594e+004,-1.56093176991538e+000,-5.18932617702337e-002

1.81503831063432e+004,-1.56093198091153e+000,-5.26175813701913e-002

1.84037530124975e+004,-1.56093219779874e+000,-5.33520085708148e-002

1.86606598307361e+004,-1.56093242074016e+000,-5.40966843214665e-002

1.89211529345119e+004,-1.56093264990341e+000,-5.48517515325338e-002

1.91852823865052e+004,-1.56093288546107e+000,-5.56173551006131e-002

1.94530989482457e+004,-1.56093312759024e+000,-5.63936419396234e-002

1.97246540898671e+004,-1.56093337647246e+000,-5.71807610089544e-002

1.99999999999999e+004,-1.56093363229481e+000,-5.79788633370045e-002

2.02791895958005e+004,-1.56093389524900e+000,-5.87881020557393e-002

2.05622765331213e+004,-1.56093416553212e+000,-5.96086324249141e-002

2.08493152168224e+004,-1.56093444334664e+000,-6.04406118641435e-002

2.11403608112276e+004,-1.56093472890053e+000,-6.12841999812700e-002

2.14354692507258e+004,-1.56093502240737e+000,-6.21395586031771e-002

2.17346972505211e+004,-1.56093532408639e+000,-6.30068518078327e-002

2.20381023175322e+004,-1.56093563416289e+000,-6.38862459528110e-002

2.23457427614443e+004,-1.56093595286828e+000,-6.47779097069998e-002

2.26576777059159e+004,-1.56093628043993e+000,-6.56820140860355e-002

2.29739670999406e+004,-1.56093661712203e+000,-6.65987324783578e-002

2.32946717293690e+004,-1.56093696316511e+000,-6.75282406832375e-002

2.36198532285905e+004,-1.56093731882627e+000,-6.84707169427625e-002

2.39495740923785e+004,-1.56093768436974e+000,-6.94263419735796e-002

2.42838976879009e+004,-1.56093806006673e+000,-7.03952990028166e-002

2.46228882668982e+004,-1.56093844619595e+000,-7.13777738003298e-002

2.49666109780322e+004,-1.56093884304295e+000,-7.23739547185861e-002

2.53151318794055e+004,-1.56093925090154e+000,-7.33840327214569e-002

2.56685179512580e+004,-1.56093967007307e+000,-7.44082014248796e-002

2.60268371088386e+004,-1.56094010086679e+000,-7.54466571322850e-002

2.63901582154578e+004,-1.56094054360030e+000,-7.64995988702293e-002

2.67585510957221e+004,-1.56094099859977e+000,-7.75672284257712e-002

2.71320865489533e+004,-1.56094146619973e+000,-7.86497503870155e-002

2.75108363627948e+004,-1.56094194674351e+000,-7.97473721781980e-002

2.78948733270080e+004,-1.56094244058388e+000,-8.08603040994914e-002

2.82842712474618e+004,-1.56094294808241e+000,-8.19887593681885e-002

2.86791049603164e+004,-1.56094346961057e+000,-8.31329541551123e-002

2.90794503464061e+004,-1.56094400554907e+000,-8.42931076303360e-002

2.94853843458219e+004,-1.56094455628928e+000,-8.54694419960118e-002

2.98969849726987e+004,-1.56094512223197e+000,-8.66621825382960e-002

3.03143313302078e+004,-1.56094570378899e+000,-8.78715576592839e-002

3.07375036257601e+004,-1.56094630138274e+000,-8.90977989253353e-002

3.11665831864199e+004,-1.56094691544606e+000,-9.03411411119632e-002

3.16016524745350e+004,-1.56094754642370e+000,-9.16018222399183e-002

3.20427951035848e+004,-1.56094819477150e+000,-9.28800836270089e-002

3.24900958542493e+004,-1.56094886095714e+000,-9.41761699282570e-002

3.29436406907028e+004,-1.56094954546019e+000,-9.54903291851005e-002

3.34035167771346e+004,-1.56095024877247e+000,-9.68228128682449e-002

3.38698124945009e+004,-1.56095097139838e+000,-9.81738759259805e-002

3.43426174575100e+004,-1.56095171385530e+000,-9.95437768298245e-002

3.48220225318448e+004,-1.56095247667335e+000,-1.00932777625609e-001

3.53081198516260e+004,-1.56095326039663e+000,-1.02341143976061e-001

3.58010028371187e+004,-1.56095406558234e+000,-1.03769145217638e-001

3.63007662126863e+004,-1.56095489280211e+000,-1.05217054402887e-001

3.68075060249948e+004,-1.56095574264156e+000,-1.06685148356222e-001

3.73213196614721e+004,-1.56095661570111e+000,-1.08173707721460e-001

3.78423058690237e+004,-1.56095751259610e+000,-1.09683017014679e-001

3.83705647730104e+004,-1.56095843395700e+000,-1.11213364677308e-001

3.89061978964912e+004,-1.56095938042975e+000,-1.12765043128382e-001

3.94493081797342e+004,-1.56096035267620e+000,-1.14338348818273e-001

3.99999999999998e+004,-1.56096135137463e+000,-1.15933582280774e-001

4.05583791916010e+004,-1.56096237721953e+000,-1.17551048192353e-001

4.11245530662425e+004,-1.56096343092224e+000,-1.19191055425676e-001

4.16986304336447e+004,-1.56096451321143e+000,-1.20853917104616e-001

4.22807216224550e+004,-1.56096562483313e+000,-1.22539950663648e-001

4.28709385014515e+004,-1.56096676655118e+000,-1.24249477905380e-001

4.34693945010421e+004,-1.56096793914759e+000,-1.25982825057809e-001

4.40762046350642e+004,-1.56096914342289e+000,-1.27740322834219e-001

4.46914855228886e+004,-1.56097038019630e+000,-1.29522306494788e-001

4.53153554118317e+004,-1.56097165030645e+000,-1.31329115903831e-001

4.59479341998812e+004,-1.56097295461121e+000,-1.33161095594887e-001

4.65893434587380e+004,-1.56097429398834e+000,-1.35018594831788e-001

4.72397064571810e+004,-1.56097566933566e+000,-1.36901967671560e-001

4.78991481847569e+004,-1.56097708157155e+000,-1.38811573028363e-001

4.85677953758016e+004,-1.56097853163511e+000,-1.40747774738153e-001

4.92457765337964e+004,-1.56098002048662e+000,-1.42710941624228e-001

4.99332219560642e+004,-1.56098154910774e+000,-1.44701447563637e-001

5.06302637588109e+004,-1.56098311850191e+000,-1.46719671553980e-001

5.13370359025159e+004,-1.56098472969436e+000,-1.48765997783105e-001

5.20536742176771e+004,-1.56098638373304e+000,-1.50840815694496e-001

5.27803164309155e+004,-1.56098808168828e+000,-1.52944520059981e-001

5.35171021914442e+004,-1.56098982465317e+000,-1.55077511050162e-001

5.42641730979066e+004,-1.56099161374440e+000,-1.57240194302390e-001

5.50216727255895e+004,-1.56099345010182e+000,-1.59432980996933e-001

5.57897466540159e+004,-1.56099533488882e+000,-1.61656287929875e-001

5.65685424949235e+004,-1.56099726929312e+000,-1.63910537583651e-001

5.73582099206328e+004,-1.56099925452619e+000,-1.66196158206389e-001

5.81589006928121e+004,-1.56100129182420e+000,-1.68513583884111e-001

5.89707686916437e+004,-1.56100338244748e+000,-1.70863254621855e-001

5.97939699453972e+004,-1.56100552768157e+000,-1.73245616416262e-001

6.06286626604156e+004,-1.56100772883648e+000,-1.75661121338698e-001

6.14750072515201e+004,-1.56100998724734e+000,-1.78110227613655e-001

6.23331663728396e+004,-1.56101230427456e+000,-1.80593399698214e-001

6.32033049490698e+004,-1.56101468130357e+000,-1.83111108365827e-001

6.40855902071694e+004,-1.56101711974513e+000,-1.85663830787990e-001

6.49801917084985e+004,-1.56101962103530e+000,-1.88252050618542e-001

6.58872813814055e+004,-1.56102218663545e+000,-1.90876258078025e-001

6.68070335542691e+004,-1.56102481803232e+000,-1.93536950039888e-001

6.77396249890018e+004,-1.56102751673770e+000,-1.96234630118116e-001

6.86852349150199e+004,-1.56103028428883e+000,-1.98969808753303e-001

6.96440450636895e+004,-1.56103312224764e+000,-2.01743003305131e-001

7.06162397032520e+004,-1.56103603220088e+000,-2.04554738141700e-001

7.16020056742374e+004,-1.56103901576014e+000,-2.07405544728841e-001

7.26015324253724e+004,-1.56104207456104e+000,-2.10295961726354e-001

7.36150120499896e+004,-1.56104521026362e+000,-2.13226535078735e-001

7.46426393229441e+004,-1.56104842455129e+000,-2.16197818113327e-001

7.56846117380472e+004,-1.56105171913097e+000,-2.19210371634439e-001

7.67411295460207e+004,-1.56105509573212e+000,-2.22264764023631e-001

7.78123957929823e+004,-1.56105855610662e+000,-2.25361571336360e-001

7.88986163594682e+004,-1.56106210202825e+000,-2.28501377402422e-001

7.99999999999995e+004,-1.56106573529150e+000,-2.31684773930573e-001

8.11167583832018e+004,-1.56106945771139e+000,-2.34912360608898e-001

8.22491061324848e+004,-1.56107327112253e+000,-2.38184745209888e-001

8.33972608672892e+004,-1.56107717737815e+000,-2.41502543697568e-001

8.45614432449099e+004,-1.56108117834929e+000,-2.44866380334294e-001

8.57418770029029e+004,-1.56108527592382e+000,-2.48276887788854e-001

8.69387890020841e+004,-1.56108947200535e+000,-2.51734707249061e-001

8.81524092701283e+004,-1.56109376851157e+000,-2.55240488534267e-001

8.93829710457770e+004,-1.56109816737398e+000,-2.58794890205453e-001

9.06307108236633e+004,-1.56110267053568e+000,-2.62398579685088e-001

9.18958683997622e+004,-1.56110727995010e+000,-2.66052233372949e-001

9.31786869174758e+004,-1.56111199757989e+000,-2.69756536763756e-001

9.44794129143618e+004,-1.56111682539467e+000,-2.73512184570307e-001

9.57982963695136e+004,-1.56112176536967e+000,-2.77319880845001e-001

9.71355907516031e+004,-1.56112681948369e+000,-2.81180339105392e-001

9.84915530675926e+004,-1.56113198971732e+000,-2.85094282459229e-001

9.98664439121282e+004,-1.56113727805066e+000,-2.89062443735196e-001

1.01260527517622e+005,-1.56114268646144e+000,-2.93085565611589e-001

1.02674071805032e+005,-1.56114821692195e+000,-2.97164400753380e-001

1.04107348435354e+005,-1.56115387139771e+000,-3.01299711941536e-001

1.05560632861831e+005,-1.56115965184405e+000,-3.05492272215448e-001

1.07034204382888e+005,-1.56116556020391e+000,-3.09742865010004e-001

1.08528346195813e+005,-1.56117159840482e+000,-3.14052284299078e-001

1.10043345451179e+005,-1.56117776835573e+000,-3.18421334741967e-001

1.11579493308032e+005,-1.56118407194477e+000,-3.22850831825515e-001

1.13137084989847e+005,-1.56119051103520e+000,-3.27341602019543e-001

1.14716419841265e+005,-1.56119708746243e+000,-3.31894482927662e-001

1.16317801385624e+005,-1.56120380303065e+000,-3.36510323442312e-001

1.17941537383287e+005,-1.56121065950928e+000,-3.41189983902421e-001

1.19587939890794e+005,-1.56121765862905e+000,-3.45934336257727e-001

1.21257325320831e+005,-1.56122480207824e+000,-3.50744264230446e-001

1.22950014503040e+005,-1.56123209149876e+000,-3.55620663484610e-001

1.24666332745679e+005,-1.56123952848225e+000,-3.60564441795012e-001

1.26406609898139e+005,-1.56124711456536e+000,-3.65576519224262e-001

1.28171180414339e+005,-1.56125485122589e+000,-3.70657828298229e-001

1.29960383416997e+005,-1.56126273987831e+000,-3.75809314186824e-001

1.31774562762811e+005,-1.56127078186871e+000,-3.81031934891762e-001

1.33614067108538e+005,-1.56127897847087e+000,-3.86326661430681e-001

1.35479249978003e+005,-1.56128733088083e+000,-3.91694478033647e-001

1.37370469830040e+005,-1.56129584021231e+000,-3.97136382336654e-001

1.39288090127379e+005,-1.56130450749177e+000,-4.02653385583479e-001

1.41232479406504e+005,-1.56131333365319e+000,-4.08246512828977e-001

1.43204011348474e+005,-1.56132231953330e+000,-4.13916803146751e-001

1.45203064850745e+005,-1.56133146586587e+000,-4.19665309844556e-001

1.47230024099979e+005,-1.56134077327690e+000,-4.25493100679356e-001

1.49285278645888e+005,-1.56135024227907e+000,-4.31401258080433e-001

1.51369223476094e+005,-1.56135987326662e+000,-4.37390879373259e-001

1.53482259092041e+005,-1.56136966650969e+000,-4.43463077014345e-001

1.55624791585964e+005,-1.56137962214933e+000,-4.49618978822592e-001

1.57797232718936e+005,-1.56138974019184e+000,-4.55859728222766e-001

1.59999999999999e+005,-1.56140002050350e+000,-4.62186484489847e-001

1.62233516766403e+005,-1.56141046280523e+000,-4.68600423000051e-001

1.64498212264969e+005,-1.56142106666742e+000,-4.75102735484824e-001

1.66794521734578e+005,-1.56143183150472e+000,-4.81694630292039e-001

1.69122886489819e+005,-1.56144275657055e+000,-4.88377332653183e-001

1.71483754005805e+005,-1.56145384095247e+000,-4.95152084952374e-001

1.73877578004168e+005,-1.56146508356711e+000,-5.02020147002872e-001

1.76304818540256e+005,-1.56147648315536e+000,-5.08982796329084e-001

1.78765942091554e+005,-1.56148803827751e+000,-5.16041328454142e-001

1.81261421647326e+005,-1.56149974730896e+000,-5.23197057191478e-001

1.83791736799524e+005,-1.56151160843610e+000,-5.30451314940703e-001

1.86357373834951e+005,-1.56152361965167e+000,-5.37805452994169e-001

1.88958825828723e+005,-1.56153577875126e+000,-5.45260841843071e-001

1.91596592739027e+005,-1.56154808332957e+000,-5.52818871491944e-001

1.94271181503206e+005,-1.56156053077697e+000,-5.60480951778116e-001

1.96983106135185e+005,-1.56157311827646e+000,-5.68248512695667e-001

1.99732887824256e+005,-1.56158584280070e+000,-5.76123004726805e-001

2.02521055035243e+005,-1.56159870110965e+000,-5.84105899175668e-001

2.05348143610063e+005,-1.56161168974823e+000,-5.92198688510369e-001

2.08214696870707e+005,-1.56162480504471e+000,-6.00402886706671e-001

2.11121265723661e+005,-1.56163804310883e+000,-6.08720029601884e-001

2.14068408765776e+005,-1.56165139983108e+000,-6.17151675247984e-001

2.17056692391625e+005,-1.56166487088174e+000,-6.25699404274315e-001

2.20086690902357e+005,-1.56167845171081e+000,-6.34364820251233e-001

2.23158986616063e+005,-1.56169213754749e+000,-6.43149550064838e-001

2.26274169979693e+005,-1.56170592340137e+000,-6.52055244287984e-001

2.29432839682530e+005,-1.56171980406305e+000,-6.61083577561837e-001

2.32635602771247e+005,-1.56173377410524e+000,-6.70236248981785e-001

2.35883074766574e+005,-1.56174782788496e+000,-6.79514982483304e-001

2.39175879781588e+005,-1.56176195954550e+000,-6.88921527236977e-001

2.42514650641661e+005,-1.56177616301903e+000,-6.98457658045638e-001

2.45900029006080e+005,-1.56179043202992e+000,-7.08125175743965e-001

2.49332665491357e+005,-1.56180476009800e+000,-7.17925907604355e-001

2.52813219796278e+005,-1.56181914054260e+000,-7.27861707746522e-001

2.56342360828676e+005,-1.56183356648697e+000,-7.37934457547923e-001

2.59920766833993e+005,-1.56184803086286e+000,-7.48146066061659e-001

2.63549125525621e+005,-1.56186252641582e+000,-7.58498470433576e-001

2.67228134217075e+005,-1.56187704571083e+000,-7.68993636326037e-001

2.70958499956006e+005,-1.56189158113776e+000,-7.79633558344643e-001

2.74740939660078e+005,-1.56190612491822e+000,-7.90420260463986e-001

2.78576180254757e+005,-1.56192066911174e+000,-8.01355796461450e-001

2.82464958813007e+005,-1.56193520562260e+000,-8.12442250352305e-001

2.86408022696948e+005,-1.56194972620728e+000,-8.23681736825088e-001

2.90406129701488e+005,-1.56196422248168e+000,-8.35076401683022e-001

2.94460048199957e+005,-1.56197868592869e+000,-8.46628422287586e-001

2.98570557291775e+005,-1.56199310790621e+000,-8.58340008001951e-001

3.02738446952187e+005,-1.56200747965499e+000,-8.70213400640978e-001

3.06964518184081e+005,-1.56202179230687e+000,-8.82250874921434e-001

3.11249583171928e+005,-1.56203603689297e+000,-8.94454738915261e-001

3.15594465437872e+005,-1.56205020435206e+000,-9.06827334505678e-001

3.19999999999997e+005,-1.56206428553870e+000,-9.19371037846828e-001

3.24467033532806e+005,-1.56207827123190e+000,-9.32088259824489e-001

3.28996424529938e+005,-1.56209215214313e+000,-9.44981446521347e-001

3.33589043469155e+005,-1.56210591892496e+000,-9.58053079682238e-001

3.38245772979638e+005,-1.56211956217876e+000,-9.71305677187555e-001

3.42967508011610e+005,-1.56213307246300e+000,-9.84741793524960e-001

3.47755156008335e+005,-1.56214644030097e+000,-9.98364020266353e-001

3.52609637080511e+005,-1.56215965618839e+000,-1.01217498654901e+000

3.57531884183106e+005,-1.56217271060103e+000,-1.02617735955765e+000

3.62522843294651e+005,-1.56218559400148e+000,-1.04037384501477e+000

3.67583473599047e+005,-1.56219829684625e+000,-1.05476718766932e+000

3.72714747669902e+005,-1.56221080959201e+000,-1.06936017179590e+000

3.77917651657445e+005,-1.56222312270206e+000,-1.08415562169180e+000

3.83193185478053e+005,-1.56223522665177e+000,-1.09915640218431e+000

3.88542363006410e+005,-1.56224711193403e+000,-1.11436541913993e+000

3.93966212270369e+005,-1.56225876906408e+000,-1.12978561997978e+000

3.99465775648511e+005,-1.56227018858402e+000,-1.14541999420019e+000

4.05042110070485e+005,-1.56228136106675e+000,-1.16127157389889e+000

4.10696287220124e+005,-1.56229227711949e+000,-1.17734343430763e+000

4.16429393741414e+005,-1.56230292738650e+000,-1.19363869433171e+000

4.22242531447321e+005,-1.56231330255183e+000,-1.21016051709430e+000

4.28136817531551e+005,-1.56232339334096e+000,-1.22691211048986e+000

4.34113384783250e+005,-1.56233319052228e+000,-1.24389672774344e+000

4.40173381804713e+005,-1.56234268490769e+000,-1.26111766797867e+000

4.46317973232124e+005,-1.56235186735322e+000,-1.27857827679107e+000

4.52548339959385e+005,-1.56236072875817e+000,-1.29628194683452e+000

4.58865679365059e+005,-1.56236926006466e+000,-1.31423211841022e+000

4.65271205542494e+005,-1.56237745225576e+000,-1.33243228007004e+000

4.71766149533147e+005,-1.56238529635382e+000,-1.35088596922439e+000

4.78351759563174e+005,-1.56239278341763e+000,-1.36959677276297e+000

4.85029301283321e+005,-1.56239990453928e+000,-1.38856832768360e+000

4.91800058012158e+005,-1.56240665084054e+000,-1.40780432173126e+000

4.98665330982714e+005,-1.56241301346840e+000,-1.42730849404861e+000

5.05626439592555e+005,-1.56241898359067e+000,-1.44708463583408e+000

5.12684721657352e+005,-1.56242455239012e+000,-1.46713659101590e+000

5.19841533667984e+005,-1.56242971105902e+000,-1.48746825693255e+000

5.27098251051240e+005,-1.56243445079272e+000,-1.50808358502710e+000

5.34456268434150e+005,-1.56243876278279e+000,-1.52898658155289e+000

5.41916999912011e+005,-1.56244263820961e+000,-1.55018130829096e+000

