Freq.,VOut,OutRef

1.00000000000000e+004,-1.57117390190470e+001,-9.92326554551058e-002

1.01395947979003e+004,-1.57117425743298e+001,-1.00617147820162e-001

1.02811382665607e+004,-1.57117462293599e+001,-1.02020935432931e-001

1.04246576084112e+004,-1.57117499869298e+001,-1.03444286308621e-001

1.05701804056138e+004,-1.57117538499101e+001,-1.04887472147103e-001

1.07177346253629e+004,-1.57117578212513e+001,-1.06350768381762e-001

1.08673486252606e+004,-1.57117619039857e+001,-1.07834454231613e-001

1.10190511587661e+004,-1.57117661012311e+001,-1.09338812744173e-001

1.11728713807222e+004,-1.57117704161905e+001,-1.10864130860146e-001

1.13288388529580e+004,-1.57117748521578e+001,-1.12410699446244e-001

1.14869835499703e+004,-1.57117794125176e+001,-1.13978813364036e-001

1.16473358646846e+004,-1.57117841007486e+001,-1.15568771515006e-001

1.18099266142953e+004,-1.57117889204265e+001,-1.17180876893135e-001

1.19747870461893e+004,-1.57117938752268e+001,-1.18815436638503e-001

1.21419488439505e+004,-1.57117989689267e+001,-1.20472762095719e-001

1.23114441334492e+004,-1.57118042054085e+001,-1.22153168866139e-001

1.24833054890161e+004,-1.57118095886623e+001,-1.23856976863397e-001

1.26575659397028e+004,-1.57118151227892e+001,-1.25584510370558e-001

1.28342589756290e+004,-1.57118208120039e+001,-1.27336098098284e-001

1.30134185544193e+004,-1.57118266606384e+001,-1.29112073237066e-001

1.31950791077289e+004,-1.57118326731444e+001,-1.30912773523680e-001

1.33792755478611e+004,-1.57118388540976e+001,-1.32738541292309e-001

1.35660432744767e+004,-1.57118452082002e+001,-1.34589723539326e-001

1.37554181813974e+004,-1.57118517402848e+001,-1.36466671978788e-001

1.39474366635040e+004,-1.57118584553179e+001,-1.38369743108606e-001

1.41421356237309e+004,-1.57118653584034e+001,-1.40299298266058e-001

1.43395524801583e+004,-1.57118724547865e+001,-1.42255703695186e-001

1.45397251732031e+004,-1.57118797498575e+001,-1.44239330604822e-001

1.47426921729110e+004,-1.57118872491558e+001,-1.46250555233717e-001

1.49484924863494e+004,-1.57118949583739e+001,-1.48289758914831e-001

1.51571656651040e+004,-1.57119028833615e+001,-1.50357328140148e-001

1.53687518128801e+004,-1.57119110301295e+001,-1.52453654624801e-001

1.55832915932100e+004,-1.57119194048555e+001,-1.54579135370797e-001

1.58008262372675e+004,-1.57119280138866e+001,-1.56734172738335e-001

1.60213975517924e+004,-1.57119368637452e+001,-1.58919174509175e-001

1.62450479271247e+004,-1.57119459611338e+001,-1.61134553953362e-001

1.64718203453514e+004,-1.57119553129386e+001,-1.63380729902247e-001

1.67017583885674e+004,-1.57119649262362e+001,-1.65658126810583e-001

1.69349062472505e+004,-1.57119748082972e+001,-1.67967174831148e-001

1.71713087287550e+004,-1.57119849665922e+001,-1.70308309883911e-001

1.74110112659224e+004,-1.57119954087970e+001,-1.72681973723239e-001

1.76540599258131e+004,-1.57120061427983e+001,-1.75088614012947e-001

1.79005014185594e+004,-1.57120171766989e+001,-1.77528684394753e-001

1.81503831063432e+004,-1.57120285188236e+001,-1.80002644565540e-001

1.84037530124975e+004,-1.57120401777255e+001,-1.82510960343322e-001

1.86606598307361e+004,-1.57120521621915e+001,-1.85054103745970e-001

1.89211529345119e+004,-1.57120644812493e+001,-1.87632553061422e-001

1.91852823865052e+004,-1.57120771441728e+001,-1.90246792924897e-001

1.94530989482457e+004,-1.57120901604893e+001,-1.92897314393840e-001

1.97246540898671e+004,-1.57121035399858e+001,-1.95584615021091e-001

1.99999999999999e+004,-1.57121172927169e+001,-1.98309198929330e-001

2.02791895958005e+004,-1.57121314290101e+001,-2.01071576892567e-001

2.05622765331213e+004,-1.57121459594742e+001,-2.03872266409363e-001

2.08493152168224e+004,-1.57121608950068e+001,-2.06711791780030e-001

2.11403608112276e+004,-1.57121762468009e+001,-2.09590684184714e-001

2.14354692507258e+004,-1.57121920263536e+001,-2.12509481760868e-001

2.17346972505211e+004,-1.57122082454733e+001,-2.15468729682889e-001

2.20381023175322e+004,-1.57122249162883e+001,-2.18468980239156e-001

2.23457427614443e+004,-1.57122420512548e+001,-2.21510792911876e-001

2.26576777059159e+004,-1.57122596631659e+001,-2.24594734453335e-001

2.29739670999406e+004,-1.57122777651591e+001,-2.27721378972143e-001

2.32946717293690e+004,-1.57122963707270e+001,-2.30891308003867e-001

2.36198532285905e+004,-1.57123154937246e+001,-2.34105110598123e-001

2.39495740923785e+004,-1.57123351483798e+001,-2.37363383395598e-001

2.42838976879009e+004,-1.57123553493025e+001,-2.40666730707153e-001

2.46228882668982e+004,-1.57123761114944e+001,-2.44015764595481e-001

2.49666109780322e+004,-1.57123974503586e+001,-2.47411104957148e-001

2.53151318794055e+004,-1.57124193817105e+001,-2.50853379597987e-001

2.56685179512580e+004,-1.57124419217879e+001,-2.54343224316184e-001

2.60268371088386e+004,-1.57124650872608e+001,-2.57881282984818e-001

2.63901582154578e+004,-1.57124888952439e+001,-2.61468207625411e-001

2.67585510957221e+004,-1.57125133633064e+001,-2.65104658493278e-001

2.71320865489533e+004,-1.57125385094832e+001,-2.68791304157194e-001

2.75108363627948e+004,-1.57125643522879e+001,-2.72528821573985e-001

2.78948733270080e+004,-1.57125909107229e+001,-2.76317896171172e-001

2.82842712474618e+004,-1.57126182042926e+001,-2.80159221926084e-001

2.86791049603164e+004,-1.57126462530152e+001,-2.84053501439828e-001

2.90794503464061e+004,-1.57126750774355e+001,-2.88001446020450e-001

2.94853843458219e+004,-1.57127046986374e+001,-2.92003775754562e-001

2.98969849726987e+004,-1.57127351382568e+001,-2.96061219589284e-001

3.03143313302078e+004,-1.57127664184958e+001,-3.00174515401903e-001

3.07375036257601e+004,-1.57127985621349e+001,-3.04344410081663e-001

3.11665831864199e+004,-1.57128315925481e+001,-3.08571659594499e-001

3.16016524745350e+004,-1.57128655337158e+001,-3.12857029066481e-001

3.20427951035848e+004,-1.57129004102399e+001,-3.17201292849258e-001

3.24900958542493e+004,-1.57129362473580e+001,-3.21605234591741e-001

3.29436406907028e+004,-1.57129730709585e+001,-3.26069647310834e-001

3.34035167771346e+004,-1.57130109075949e+001,-3.30595333461471e-001

3.38698124945009e+004,-1.57130497845023e+001,-3.35183104999400e-001

3.43426174575100e+004,-1.57130897296114e+001,-3.39833783451930e-001

3.48220225318448e+004,-1.57131307715658e+001,-3.44548199977887e-001

3.53081198516260e+004,-1.57131729397374e+001,-3.49327195429784e-001

3.58010028371187e+004,-1.57132162642421e+001,-3.54171620418870e-001

3.63007662126863e+004,-1.57132607759571e+001,-3.59082335369041e-001

3.68075060249948e+004,-1.57133065065377e+001,-3.64060210574099e-001

3.73213196614721e+004,-1.57133534884333e+001,-3.69106126254335e-001

3.78423058690237e+004,-1.57134017549055e+001,-3.74220972606250e-001

3.83705647730104e+004,-1.57134513400451e+001,-3.79405649854944e-001

3.89061978964912e+004,-1.57135022787896e+001,-3.84661068297671e-001

3.94493081797342e+004,-1.57135546069412e+001,-3.89988148351025e-001

3.99999999999998e+004,-1.57136083611843e+001,-3.95387820593382e-001

4.05583791916010e+004,-1.57136635791041e+001,-4.00861025801999e-001

4.11245530662425e+004,-1.57137202992048e+001,-4.06408714987290e-001

4.16986304336447e+004,-1.57137785609276e+001,-4.12031849429916e-001

4.22807216224550e+004,-1.57138384046697e+001,-4.17731400705055e-001

4.28709385014515e+004,-1.57138998718027e+001,-4.23508350712111e-001

4.34693945010421e+004,-1.57139630046913e+001,-4.29363691694620e-001

4.40762046350642e+004,-1.57140278467127e+001,-4.35298426256456e-001

4.46914855228886e+004,-1.57140944422746e+001,-4.41313567381379e-001

4.53153554118317e+004,-1.57141628368347e+001,-4.47410138437656e-001

4.59479341998812e+004,-1.57142330769200e+001,-4.53589173185530e-001

4.65893434587380e+004,-1.57143052101448e+001,-4.59851715779733e-001

4.72397064571810e+004,-1.57143792852304e+001,-4.66198820764377e-001

4.78991481847569e+004,-1.57144553520236e+001,-4.72631553064779e-001

4.85677953758016e+004,-1.57145334615157e+001,-4.79150987975028e-001

4.92457765337964e+004,-1.57146136658609e+001,-4.85758211137604e-001

4.99332219560642e+004,-1.57146960183951e+001,-4.92454318521411e-001

5.06302637588109e+004,-1.57147805736539e+001,-4.99240416391243e-001

5.13370359025159e+004,-1.57148673873908e+001,-5.06117621272945e-001

5.20536742176771e+004,-1.57149565165950e+001,-5.13087059912250e-001

5.27803164309155e+004,-1.57150480195091e+001,-5.20149869228253e-001

5.35171021914442e+004,-1.57151419556460e+001,-5.27307196257893e-001

5.42641730979066e+004,-1.57152383858056e+001,-5.34560198101123e-001

5.50216727255895e+004,-1.57153373720914e+001,-5.41910041847975e-001

5.57897466540159e+004,-1.57154389779261e+001,-5.49357904510962e-001

5.65685424949235e+004,-1.57155432680668e+001,-5.56904972944069e-001

5.73582099206328e+004,-1.57156503086196e+001,-5.64552443753764e-001

5.81589006928121e+004,-1.57157601670538e+001,-5.72301523206457e-001

5.89707686916437e+004,-1.57158729122147e+001,-5.80153427129024e-001

5.97939699453972e+004,-1.57159886143362e+001,-5.88109380795974e-001

6.06286626604156e+004,-1.57161073450521e+001,-5.96170618817609e-001

6.14750072515201e+004,-1.57162291774071e+001,-6.04338385012144e-001

6.23331663728396e+004,-1.57163541858657e+001,-6.12613932277679e-001

6.32033049490698e+004,-1.57164824463210e+001,-6.20998522449497e-001

6.40855902071694e+004,-1.57166140361016e+001,-6.29493426154825e-001

6.49801917084985e+004,-1.57167490339776e+001,-6.38099922657697e-001

6.58872813814055e+004,-1.57168875201651e+001,-6.46819299694401e-001

6.68070335542691e+004,-1.57170295763293e+001,-6.55652853302591e-001

6.77396249890018e+004,-1.57171752855860e+001,-6.64601887642710e-001

6.86852349150199e+004,-1.57173247325009e+001,-6.73667714811593e-001

6.96440450636895e+004,-1.57174780030881e+001,-6.82851654645977e-001

7.06162397032520e+004,-1.57176351848059e+001,-6.92155034519653e-001

7.16020056742374e+004,-1.57177963665513e+001,-7.01579189134838e-001

7.26015324253724e+004,-1.57179616386510e+001,-7.11125460303779e-001

7.36150120499896e+004,-1.57181310928522e+001,-7.20795196721444e-001

7.46426393229441e+004,-1.57183048223092e+001,-7.30589753735942e-001

7.56846117380472e+004,-1.57184829215681e+001,-7.40510493109265e-001

7.67411295460207e+004,-1.57186654865499e+001,-7.50558782767155e-001

7.78123957929823e+004,-1.57188526145286e+001,-7.60735996554377e-001

7.88986163594682e+004,-1.57190444041090e+001,-7.71043513969212e-001

7.99999999999995e+004,-1.57192409551987e+001,-7.81482719907359e-001

8.11167583832018e+004,-1.57194423689798e+001,-7.92055004386715e-001

8.22491061324848e+004,-1.57196487478748e+001,-8.02761762282156e-001

8.33972608672892e+004,-1.57198601955106e+001,-8.13604393042309e-001

8.45614432449099e+004,-1.57200768166776e+001,-8.24584300415232e-001

8.57418770029029e+004,-1.57202987172865e+001,-8.35702892164946e-001

8.69387890020841e+004,-1.57205260043199e+001,-8.46961579786108e-001

8.81524092701283e+004,-1.57207587857802e+001,-8.58361778223664e-001

8.93829710457770e+004,-1.57209971706337e+001,-8.69904905584713e-001

9.06307108236633e+004,-1.57212412687495e+001,-8.81592382859019e-001

9.18958683997622e+004,-1.57214911908343e+001,-8.93425633637427e-001

9.31786869174758e+004,-1.57217470483631e+001,-9.05406083832790e-001

9.44794129143618e+004,-1.57220089535036e+001,-9.17535161410761e-001

9.57982963695136e+004,-1.57222770190367e+001,-9.29814296121562e-001

9.71355907516031e+004,-1.57225513582721e+001,-9.42244919240347e-001

9.84915530675926e+004,-1.57228320849573e+001,-9.54828463318358e-001

9.98664439121282e+004,-1.57231193131828e+001,-9.67566361942690e-001

1.01260527517622e+005,-1.57234131572808e+001,-9.80460049507705e-001

1.02674071805032e+005,-1.57237137317178e+001,-9.93510961004773e-001

1.04107348435354e+005,-1.57240211509833e+001,-1.00672053182014e+000

1.05560632861831e+005,-1.57243355294705e+001,-1.02009019755928e+000

1.07034204382888e+005,-1.57246569813527e+001,-1.03362139388354e+000

1.08528346195813e+005,-1.57249856204525e+001,-1.04731555637402e+000

1.10043345451179e+005,-1.57253215601058e+001,-1.06117412041773e+000

1.11579493308032e+005,-1.57256649130190e+001,-1.07519852112054e+000

1.13137084989847e+005,-1.57260157911207e+001,-1.08939019324821e+000

1.14716419841265e+005,-1.57263743054064e+001,-1.10375057120204e+000

1.16317801385624e+005,-1.57267405657779e+001,-1.11828108902477e+000

1.17941537383287e+005,-1.57271146808756e+001,-1.13298318044651e+000

1.19587939890794e+005,-1.57274967579055e+001,-1.14785827896899e+000

1.21257325320831e+005,-1.57278869024599e+001,-1.16290781799253e+000

1.22950014503040e+005,-1.57282852183311e+001,-1.17813323098938e+000

1.24666332745679e+005,-1.57286918073213e+001,-1.19353595172388e+000

1.26406609898139e+005,-1.57291067690448e+001,-1.20911741452481e+000

1.28171180414339e+005,-1.57295302007255e+001,-1.22487905461309e+000

1.29960383416997e+005,-1.57299621969888e+001,-1.24082230848717e+000

1.31774562762811e+005,-1.57304028496490e+001,-1.25694861436638e+000

1.33614067108538e+005,-1.57308522474905e+001,-1.27325941270248e+000

1.35479249978003e+005,-1.57313104760453e+001,-1.28975614675631e+000

1.37370469830040e+005,-1.57317776173663e+001,-1.30644026324327e+000

1.39288090127379e+005,-1.57322537497963e+001,-1.32331321305352e+000

1.41232479406504e+005,-1.57327389477332e+001,-1.34037645205083e+000

1.43204011348474e+005,-1.57332332813924e+001,-1.35763144194650e+000

1.45203064850745e+005,-1.57337368165673e+001,-1.37507965125780e+000

1.47230024099979e+005,-1.57342496143858e+001,-1.39272255635276e+000

1.49285278645888e+005,-1.57347717310672e+001,-1.41056164258101e+000

1.51369223476094e+005,-1.57353032176766e+001,-1.42859840549543e+000

1.53482259092041e+005,-1.57358441198796e+001,-1.44683435216819e+000

1.55624791585964e+005,-1.57363944776974e+001,-1.46527100259907e+000

1.57797232718936e+005,-1.57369543252620e+001,-1.48390989122474e+000

1.59999999999999e+005,-1.57375236905739e+001,-1.50275256852413e+000

1.62233516766403e+005,-1.57381025952619e+001,-1.52180060272578e+000

1.64498212264969e+005,-1.57386910543458e+001,-1.54105558161815e+000

1.66794521734578e+005,-1.57392890760039e+001,-1.56051911446057e+000

1.69122886489819e+005,-1.57398966613445e+001,-1.58019283400094e+000

1.71483754005805e+005,-1.57405138041836e+001,-1.60007839859627e+000

1.73877578004168e+005,-1.57411404908296e+001,-1.62017749443671e+000

1.76304818540256e+005,-1.57417766998747e+001,-1.64049183787760e+000

1.78765942091554e+005,-1.57424224019959e+001,-1.66102317786921e+000

1.81261421647326e+005,-1.57430775597643e+001,-1.68177329849462e+000

1.83791736799524e+005,-1.57437421274661e+001,-1.70274402160495e+000

1.86357373834951e+005,-1.57444160509339e+001,-1.72393720955518e+000

1.88958825828723e+005,-1.57450992673912e+001,-1.74535476803608e+000

1.91596592739027e+005,-1.57457917053095e+001,-1.76699864900117e+000

1.94271181503206e+005,-1.57464932842807e+001,-1.78887085368107e+000

1.96983106135185e+005,-1.57472039149037e+001,-1.81097343569017e+000

1.99732887824256e+005,-1.57479234986878e+001,-1.83330850421025e+000

2.02521055035243e+005,-1.57486519279730e+001,-1.85587822725551e+000

2.05348143610063e+005,-1.57493890858681e+001,-1.87868483500922e+000

2.08214696870707e+005,-1.57501348462079e+001,-1.90173062322805e+000

2.11121265723661e+005,-1.57508890735294e+001,-1.92501795670589e+000

2.14068408765776e+005,-1.57516516230688e+001,-1.94854927279378e+000

2.17056692391625e+005,-1.57524223407791e+001,-1.97232708496735e+000

2.20086690902357e+005,-1.57532010633695e+001,-1.99635398643221e+000

2.23158986616063e+005,-1.57539876183664e+001,-2.02063265376522e+000

2.26274169979693e+005,-1.57547818241978e+001,-2.04516585057634e+000

2.29432839682530e+005,-1.57555834902999e+001,-2.06995643118895e+000

2.32635602771247e+005,-1.57563924172476e+001,-2.09500734432623e+000

2.35883074766574e+005,-1.57572083969075e+001,-2.12032163679642e+000

2.39175879781588e+005,-1.57580312126162e+001,-2.14590245716535e+000

2.42514650641661e+005,-1.57588606393810e+001,-2.17175305941047e+000

2.45900029006080e+005,-1.57596964441041e+001,-2.19787680654475e+000

2.49332665491357e+005,-1.57605383858315e+001,-2.22427717419900e+000

2.52813219796278e+005,-1.57613862160238e+001,-2.25095775415961e+000

2.56342360828676e+005,-1.57622396788507e+001,-2.27792225784353e+000

2.59920766833993e+005,-1.57630985115072e+001,-2.30517451970727e+000

2.63549125525621e+005,-1.57639624445523e+001,-2.33271850057989e+000

2.67228134217075e+005,-1.57648312022681e+001,-2.36055829090686e+000

2.70958499956006e+005,-1.57657045030398e+001,-2.38869811390159e+000

2.74740939660078e+005,-1.57665820597548e+001,-2.41714232859213e+000

2.78576180254757e+005,-1.57674635802200e+001,-2.44589543275636e+000

2.82464958813007e+005,-1.57683487675971e+001,-2.47496206573729e+000

2.86408022696948e+005,-1.57692373208538e+001,-2.50434701113231e+000

2.90406129701488e+005,-1.57701289352296e+001,-2.53405519934917e+000

2.94460048199957e+005,-1.57710233027157e+001,-2.56409171002084e+000

2.98570557291775e+005,-1.57719201125473e+001,-2.59446177427672e+000

3.02738446952187e+005,-1.57728190517054e+001,-2.62517077686316e+000

3.06964518184081e+005,-1.57737198054301e+001,-2.65622425810901e+000

3.11249583171928e+005,-1.57746220577388e+001,-2.68762791573430e+000

3.15594465437872e+005,-1.57755254919528e+001,-2.71938760649731e+000

3.19999999999997e+005,-1.57764297912274e+001,-2.75150934767810e+000

3.24467033532806e+005,-1.57773346390840e+001,-2.78399931840117e+000

3.28996424529938e+005,-1.57782397199448e+001,-2.81686386078960e+000

3.33589043469155e+005,-1.57791447196658e+001,-2.85010948095719e+000

3.38245772979638e+005,-1.57800493260678e+001,-2.88374284983700e+000

3.42967508011610e+005,-1.57809532294637e+001,-2.91777080384886e+000

3.47755156008335e+005,-1.57818561231799e+001,-2.95220034540762e+000

3.52609637080511e+005,-1.57827577040709e+001,-2.98703864327656e+000

3.57531884183106e+005,-1.57836576730246e+001,-3.02229303276992e+000

3.62522843294651e+005,-1.57845557354580e+001,-3.05797101580851e+000

3.67583473599047e+005,-1.57854516018014e+001,-3.09408026083546e+000

3.72714747669902e+005,-1.57863449879682e+001,-3.13062860259606e+000

3.77917651657445e+005,-1.57872356158122e+001,-3.16762404179157e+000

3.83193185478053e+005,-1.57881232135680e+001,-3.20507474461005e+000

3.88542363006410e+005,-1.57890075162752e+001,-3.24298904214673e+000

3.93966212270369e+005,-1.57898882661846e+001,-3.28137542971846e+000

3.99465775648511e+005,-1.57907652131462e+001,-3.32024256608294e+000

4.05042110070485e+005,-1.57916381149769e+001,-3.35959927257068e+000

4.10696287220124e+005,-1.57925067378086e+001,-3.39945453213952e+000

4.16429393741414e+005,-1.57933708564148e+001,-3.43981748836200e+000

4.22242531447321e+005,-1.57942302545158e+001,-3.48069744435302e+000

4.28136817531551e+005,-1.57950847250623e+001,-3.52210386165074e+000

4.34113384783250e+005,-1.57959340704965e+001,-3.56404635905769e+000

4.40173381804713e+005,-1.57967781029903e+001,-3.60653471145517e+000

4.46317973232124e+005,-1.57976166446616e+001,-3.64957884859762e+000

4.52548339959385e+005,-1.57984495277676e+001,-3.69318885389896e+000

4.58865679365059e+005,-1.57992765948754e+001,-3.73737496322073e+000

4.65271205542494e+005,-1.58000976990102e+001,-3.78214756366993e+000

4.71766149533147e+005,-1.58009127037820e+001,-3.82751719241808e+000

4.78351759563174e+005,-1.58017214834896e+001,-3.87349453554781e+000

4.85029301283321e+005,-1.58025239232040e+001,-3.92009042693981e+000

4.91800058012158e+005,-1.58033199188303e+001,-3.96731584720322e+000

4.98665330982714e+005,-1.58041093771503e+001,-4.01518192266303e+000

5.05626439592555e+005,-1.58048922158442e+001,-4.06369992440912e+000

5.12684721657352e+005,-1.58056683634949e+001,-4.11288126741317e+000

5.19841533667984e+005,-1.58064377595728e+001,-4.16273750972420e+000

5.27098251051240e+005,-1.58072003544044e+001,-4.21328035174546e+000

5.34456268434150e+005,-1.58079561091236e+001,-4.26452163560132e+000

5.41916999912011e+005,-1.58087049956083e+001,-4.31647334459639e+000

