Freq.,VOut,OutRef

1.00000000000000e+004,-2.32974855138988e+001,-3.42863499326019e-001

1.01395947979003e+004,-2.32974896905302e+001,-3.47649071452806e-001

1.02811382665607e+004,-2.32974939844151e+001,-3.52501421216171e-001

1.04246576084112e+004,-2.32974983988407e+001,-3.57421479674768e-001

1.05701804056138e+004,-2.32975029371856e+001,-3.62410190839278e-001

1.07177346253629e+004,-2.32975076029232e+001,-3.67468511846669e-001

1.08673486252606e+004,-2.32975123996234e+001,-3.72597413146233e-001

1.10190511587661e+004,-2.32975173309563e+001,-3.77797878677577e-001

1.11728713807222e+004,-2.32975224006946e+001,-3.83070906061661e-001

1.13288388529580e+004,-2.32975276127158e+001,-3.88417506786469e-001

1.14869835499703e+004,-2.32975329710061e+001,-3.93838706399432e-001

1.16473358646846e+004,-2.32975384796629e+001,-3.99335544701139e-001

1.18099266142953e+004,-2.32975441428978e+001,-4.04909075940254e-001

1.19747870461893e+004,-2.32975499650402e+001,-4.10560369013723e-001

1.21419488439505e+004,-2.32975559505399e+001,-4.16290507668693e-001

1.23114441334492e+004,-2.32975621039710e+001,-4.22100590705831e-001

1.24833054890161e+004,-2.32975684300351e+001,-4.27991732187142e-001

1.26575659397028e+004,-2.32975749335652e+001,-4.33965061643441e-001

1.28342589756290e+004,-2.32975816195282e+001,-4.40021724291229e-001

1.30134185544193e+004,-2.32975884930304e+001,-4.46162881243583e-001

1.31950791077289e+004,-2.32975955593195e+001,-4.52389709731556e-001

1.33792755478611e+004,-2.32976028237897e+001,-4.58703403323480e-001

1.35660432744767e+004,-2.32976102919856e+001,-4.65105172149630e-001

1.37554181813974e+004,-2.32976179696059e+001,-4.71596243128866e-001

1.39474366635040e+004,-2.32976258625077e+001,-4.78177860200491e-001

1.41421356237309e+004,-2.32976339767113e+001,-4.84851284554506e-001

1.43395524801583e+004,-2.32976423184043e+001,-4.91617794869404e-001

1.45397251732031e+004,-2.32976508939465e+001,-4.98478687550385e-001

1.47426921729110e+004,-2.32976597098742e+001,-5.05435276973072e-001

1.49484924863494e+004,-2.32976687729056e+001,-5.12488895727955e-001

1.51571656651040e+004,-2.32976780899453e+001,-5.19640894869262e-001

1.53687518128801e+004,-2.32976876680897e+001,-5.26892644166709e-001

1.55832915932100e+004,-2.32976975146320e+001,-5.34245532361628e-001

1.58008262372675e+004,-2.32977076370679e+001,-5.41700967424417e-001

1.60213975517924e+004,-2.32977180431012e+001,-5.49260376816543e-001

1.62450479271247e+004,-2.32977287406487e+001,-5.56925207757793e-001

1.64718203453514e+004,-2.32977397378472e+001,-5.64696927490392e-001

1.67017583885674e+004,-2.32977510430587e+001,-5.72577023557042e-001

1.69349062472505e+004,-2.32977626648766e+001,-5.80567004071624e-001

1.71713087287550e+004,-2.32977746121325e+001,-5.88668398001146e-001

1.74110112659224e+004,-2.32977868939020e+001,-5.96882755447488e-001

1.76540599258131e+004,-2.32977995195117e+001,-6.05211647934173e-001

1.79005014185594e+004,-2.32978124985465e+001,-6.13656668694953e-001

1.81503831063432e+004,-2.32978258408554e+001,-6.22219432970377e-001

1.84037530124975e+004,-2.32978395565599e+001,-6.30901578301099e-001

1.86606598307361e+004,-2.32978536560607e+001,-6.39704764833705e-001

1.89211529345119e+004,-2.32978681500454e+001,-6.48630675621032e-001

1.91852823865052e+004,-2.32978830494963e+001,-6.57681016933931e-001

1.94530989482457e+004,-2.32978983656983e+001,-6.66857518573048e-001

1.97246540898671e+004,-2.32979141102473e+001,-6.76161934184351e-001

1.99999999999999e+004,-2.32979302950580e+001,-6.85596041581028e-001

2.02791895958005e+004,-2.32979469323732e+001,-6.95161643067240e-001

2.05622765331213e+004,-2.32979640347722e+001,-7.04860565764739e-001

2.08493152168224e+004,-2.32979816151798e+001,-7.14694661948516e-001

2.11403608112276e+004,-2.32979996868757e+001,-7.24665809381339e-001

2.14354692507258e+004,-2.32980182635041e+001,-7.34775911653471e-001

2.17346972505211e+004,-2.32980373590832e+001,-7.45026898529394e-001

2.20381023175322e+004,-2.32980569880153e+001,-7.55420726295046e-001

2.23457427614443e+004,-2.32980771650972e+001,-7.65959378111876e-001

2.26576777059159e+004,-2.32980979055302e+001,-7.76644864373667e-001

2.29739670999406e+004,-2.32981192249315e+001,-7.87479223067534e-001

2.32946717293690e+004,-2.32981411393448e+001,-7.98464520141631e-001

2.36198532285905e+004,-2.32981636652517e+001,-8.09602849872566e-001

2.39495740923785e+004,-2.32981868195832e+001,-8.20896335242946e-001

2.42838976879009e+004,-2.32982106197318e+001,-8.32347128318023e-001

2.46228882668982e+004,-2.32982350835633e+001,-8.43957410629755e-001

2.49666109780322e+004,-2.32982602294298e+001,-8.55729393564619e-001

2.53151318794055e+004,-2.32982860761816e+001,-8.67665318756970e-001

2.56685179512580e+004,-2.32983126431811e+001,-8.79767458483566e-001

2.60268371088386e+004,-2.32983399503158e+001,-8.92038116066169e-001

2.63901582154578e+004,-2.32983680180117e+001,-9.04479626278596e-001

2.67585510957221e+004,-2.32983968672480e+001,-9.17094355754214e-001

2.71320865489533e+004,-2.32984265195708e+001,-9.29884703403194e-001

2.75108363627948e+004,-2.32984569971082e+001,-9.42853100832301e-001

2.78948733270080e+004,-2.32984883225853e+001,-9.56002012767457e-001

2.82842712474618e+004,-2.32985205193391e+001,-9.69333937484085e-001

2.86791049603164e+004,-2.32985536113350e+001,-9.82851407239986e-001

2.90794503464061e+004,-2.32985876231823e+001,-9.96556988714692e-001

2.94853843458219e+004,-2.32986225801509e+001,-1.01045328345104e+000

2.98969849726987e+004,-2.32986585081880e+001,-1.02454292830466e+000

3.03143313302078e+004,-2.32986954339358e+001,-1.03882859589434e+000

3.07375036257601e+004,-2.32987333847482e+001,-1.05331299506223e+000

3.11665831864199e+004,-2.32987723887096e+001,-1.06799887133236e+000

3.16016524745350e+004,-2.32988124746531e+001,-1.08288900738031e+000

3.20427951035848e+004,-2.32988536721788e+001,-1.09798622350418e+000

3.24900958542493e+004,-2.32988960116740e+001,-1.11329337809933e+000

3.29436406907028e+004,-2.32989395243314e+001,-1.12881336814228e+000

3.34035167771346e+004,-2.32989842421706e+001,-1.14454912967456e+000

3.38698124945009e+004,-2.32990301980574e+001,-1.16050363829358e+000

3.43426174575100e+004,-2.32990774257253e+001,-1.17667990965037e+000

3.48220225318448e+004,-2.32991259597965e+001,-1.19308099994723e+000

3.53081198516260e+004,-2.32991758358039e+001,-1.20971000644418e+000

3.58010028371187e+004,-2.32992270902129e+001,-1.22657006796975e+000

3.63007662126863e+004,-2.32992797604443e+001,-1.24366436543388e+000

3.68075060249948e+004,-2.32993338848971e+001,-1.26099612234888e+000

3.73213196614721e+004,-2.32993895029723e+001,-1.27856860535293e+000

3.78423058690237e+004,-2.32994466550964e+001,-1.29638512474023e+000

3.83705647730104e+004,-2.32995053827463e+001,-1.31444903499295e+000

3.89061978964912e+004,-2.32995657284739e+001,-1.33276373532044e+000

3.94493081797342e+004,-2.32996277359309e+001,-1.35133267020412e+000

3.99999999999998e+004,-2.32996914498956e+001,-1.37015932994215e+000

4.05583791916010e+004,-2.32997569162982e+001,-1.38924725120475e+000

4.11245530662425e+004,-2.32998241822475e+001,-1.40860001758947e+000

4.16986304336447e+004,-2.32998932960586e+001,-1.42822126018371e+000

4.22807216224550e+004,-2.32999643072798e+001,-1.44811465813114e+000

4.28709385014515e+004,-2.33000372667208e+001,-1.46828393920277e+000

4.34693945010421e+004,-2.33001122264813e+001,-1.48873288037044e+000

4.40762046350642e+004,-2.33001892399794e+001,-1.50946530838943e+000

4.46914855228886e+004,-2.33002683619812e+001,-1.53048510038125e+000

4.53153554118317e+004,-2.33003496486306e+001,-1.55179618442220e+000

4.59479341998812e+004,-2.33004331574790e+001,-1.57340254013685e+000

4.65893434587380e+004,-2.33005189475162e+001,-1.59530819929634e+000

4.72397064571810e+004,-2.33006070792011e+001,-1.61751724641842e+000

4.78991481847569e+004,-2.33006976144931e+001,-1.64003381937542e+000

4.85677953758016e+004,-2.33007906168838e+001,-1.66286211000270e+000

4.92457765337964e+004,-2.33008861514288e+001,-1.68600636471539e+000

4.99332219560642e+004,-2.33009842847803e+001,-1.70947088512485e+000

5.06302637588109e+004,-2.33010850852200e+001,-1.73326002866316e+000

5.13370359025159e+004,-2.33011886226914e+001,-1.75737820920961e+000

5.20536742176771e+004,-2.33012949688342e+001,-1.78182989772134e+000

5.27803164309155e+004,-2.33014041970168e+001,-1.80661962286948e+000

5.35171021914442e+004,-2.33015163823710e+001,-1.83175197167697e+000

5.42641730979066e+004,-2.33016316018255e+001,-1.85723159016300e+000

5.50216727255895e+004,-2.33017499341404e+001,-1.88306318398968e+000

5.57897466540159e+004,-2.33018714599418e+001,-1.90925151911247e+000

5.65685424949235e+004,-2.33019962617563e+001,-1.93580142243674e+000

5.73582099206328e+004,-2.33021244240454e+001,-1.96271778247585e+000

5.81589006928121e+004,-2.33022560332409e+001,-1.99000555001423e+000

5.89707686916437e+004,-2.33023911777793e+001,-2.01766973877461e+000

5.97939699453972e+004,-2.33025299481369e+001,-2.04571542608884e+000

6.06286626604156e+004,-2.33026724368643e+001,-2.07414775357396e+000

6.14750072515201e+004,-2.33028187386218e+001,-2.10297192780908e+000

6.23331663728396e+004,-2.33029689502134e+001,-2.13219322102134e+000

6.32033049490698e+004,-2.33031231706216e+001,-2.16181697177058e+000

6.40855902071694e+004,-2.33032815010418e+001,-2.19184858564361e+000

6.49801917084985e+004,-2.33034440449162e+001,-2.22229353594789e+000

6.58872813814055e+004,-2.33036109079673e+001,-2.25315736441295e+000

6.68070335542691e+004,-2.33037821982318e+001,-2.28444568189575e+000

6.77396249890018e+004,-2.33039580260931e+001,-2.31616416908930e+000

6.86852349150199e+004,-2.33041385043139e+001,-2.34831857723798e+000

6.96440450636895e+004,-2.33043237480682e+001,-2.38091472885593e+000

7.06162397032520e+004,-2.33045138749723e+001,-2.41395851845357e+000

7.16020056742374e+004,-2.33047090051159e+001,-2.44745591326575e+000

7.26015324253724e+004,-2.33049092610916e+001,-2.48141295398941e+000

7.36150120499896e+004,-2.33051147680240e+001,-2.51583575552392e+000

7.46426393229441e+004,-2.33053256535979e+001,-2.55073050772079e+000

7.56846117380472e+004,-2.33055420480858e+001,-2.58610347613663e+000

7.67411295460207e+004,-2.33057640843736e+001,-2.62196100279670e+000

7.78123957929823e+004,-2.33059918979859e+001,-2.65830950696338e+000

7.88986163594682e+004,-2.33062256271097e+001,-2.69515548591350e+000

7.99999999999995e+004,-2.33064654126169e+001,-2.73250551572333e+000

8.11167583832018e+004,-2.33067113980856e+001,-2.77036625206356e+000

8.22491061324848e+004,-2.33069637298199e+001,-2.80874443100316e+000

8.33972608672892e+004,-2.33072225568677e+001,-2.84764686982310e+000

8.45614432449099e+004,-2.33074880310374e+001,-2.88708046784087e+000

8.57418770029029e+004,-2.33077603069129e+001,-2.92705220724739e+000

8.69387890020841e+004,-2.33080395418662e+001,-2.96756915395525e+000

8.81524092701283e+004,-2.33083258960690e+001,-3.00863845845994e+000

8.93829710457770e+004,-2.33086195325014e+001,-3.05026735671629e+000

9.06307108236633e+004,-2.33089206169592e+001,-3.09246317102823e+000

9.18958683997622e+004,-2.33092293180589e+001,-3.13523331095553e+000

9.31786869174758e+004,-2.33095458072403e+001,-3.17858527423784e+000

9.44794129143618e+004,-2.33098702587668e+001,-3.22252664773641e+000

9.57982963695136e+004,-2.33102028497239e+001,-3.26706510839441e+000

9.71355907516031e+004,-2.33105437600144e+001,-3.31220842421959e+000

9.84915530675926e+004,-2.33108931723517e+001,-3.35796445528837e+000

9.98664439121282e+004,-2.33112512722502e+001,-3.40434115477213e+000

1.01260527517622e+005,-2.33116182480134e+001,-3.45134656999094e+000

1.02674071805032e+005,-2.33119942907195e+001,-3.49898884349097e+000

1.04107348435354e+005,-2.33123795942030e+001,-3.54727621415274e+000

1.05560632861831e+005,-2.33127743550360e+001,-3.59621701832719e+000

1.07034204382888e+005,-2.33131787725039e+001,-3.64581969100528e+000

1.08528346195813e+005,-2.33135930485808e+001,-3.69609276701910e+000

1.10043345451179e+005,-2.33140173879008e+001,-3.74704488228101e+000

1.11579493308032e+005,-2.33144519977269e+001,-3.79868477505787e+000

1.13137084989847e+005,-2.33148970879171e+001,-3.85102128728742e+000

1.14716419841265e+005,-2.33153528708884e+001,-3.90406336593342e+000

1.16317801385624e+005,-2.33158195615775e+001,-3.95782006438903e+000

1.17941537383287e+005,-2.33162973773993e+001,-4.01230054392188e+000

1.19587939890794e+005,-2.33167865382029e+001,-4.06751407517239e+000

1.21257325320831e+005,-2.33172872662259e+001,-4.12347003969922e+000

1.22950014503040e+005,-2.33177997860456e+001,-4.18017793158151e+000

1.24666332745679e+005,-2.33183243245288e+001,-4.23764735907563e+000

1.26406609898139e+005,-2.33188611107796e+001,-4.29588804633099e+000

1.28171180414339e+005,-2.33194103760862e+001,-4.35490983516715e+000

1.29960383416997e+005,-2.33199723538652e+001,-4.41472268691472e+000

1.31774562762811e+005,-2.33205472796058e+001,-4.47533668432323e+000

1.33614067108538e+005,-2.33211353908129e+001,-4.53676203353726e+000

1.35479249978003e+005,-2.33217369269497e+001,-4.59900906614552e+000

1.37370469830040e+005,-2.33223521293799e+001,-4.66208824130254e+000

1.39288090127379e+005,-2.33229812413107e+001,-4.72601014792975e+000

1.41232479406504e+005,-2.33236245077361e+001,-4.79078550699331e+000

1.43204011348474e+005,-2.33242821753812e+001,-4.85642517386615e+000

1.45203064850745e+005,-2.33249544926486e+001,-4.92294014077273e+000

1.47230024099979e+005,-2.33256417095662e+001,-4.99034153932132e+000

1.49285278645888e+005,-2.33263440777382e+001,-5.05864064312520e+000

1.51369223476094e+005,-2.33270618502989e+001,-5.12784887051429e+000

1.53482259092041e+005,-2.33277952818705e+001,-5.19797778733983e+000

1.55624791585964e+005,-2.33285446285254e+001,-5.26903910987458e+000

1.57797232718936e+005,-2.33293101477536e+001,-5.34104470780811e+000

1.59999999999999e+005,-2.33300920984358e+001,-5.41400660734106e+000

1.62233516766403e+005,-2.33308907408229e+001,-5.48793699437842e+000

1.64498212264969e+005,-2.33317063365237e+001,-5.56284821782134e+000

1.66794521734578e+005,-2.33325391484993e+001,-5.63875279296264e+000

1.69122886489819e+005,-2.33333894410676e+001,-5.71566340498117e+000

1.71483754005805e+005,-2.33342574799175e+001,-5.79359291253882e+000

1.73877578004168e+005,-2.33351435321326e+001,-5.87255435147957e+000

1.76304818540256e+005,-2.33360478662283e+001,-5.95256093862872e+000

1.78765942091554e+005,-2.33369707521994e+001,-6.03362607569322e+000

1.81261421647326e+005,-2.33379124615824e+001,-6.11576335326149e+000

1.83791736799524e+005,-2.33388732675317e+001,-6.19898655490083e+000

1.86357373834951e+005,-2.33398534449107e+001,-6.28330966135054e+000

1.88958825828723e+005,-2.33408532703994e+001,-6.36874685481109e+000

1.91596592739027e+005,-2.33418730226189e+001,-6.45531252332175e+000

1.94271181503206e+005,-2.33429129822744e+001,-6.54302126522909e+000

1.96983106135185e+005,-2.33439734323160e+001,-6.63188789373933e+000

1.99732887824256e+005,-2.33450546581212e+001,-6.72192744155150e+000

2.02521055035243e+005,-2.33461569476959e+001,-6.81315516556939e+000

2.05348143610063e+005,-2.33472805918995e+001,-6.90558655168341e+000

2.08214696870707e+005,-2.33484258846900e+001,-6.99923731962179e+000

2.11121265723661e+005,-2.33495931233945e+001,-7.09412342786254e+000

2.14068408765776e+005,-2.33507826090027e+001,-7.19026107860134e+000

2.17056692391625e+005,-2.33519946464849e+001,-7.28766672277023e+000

2.20086690902357e+005,-2.33532295451367e+001,-7.38635706509780e+000

2.23158986616063e+005,-2.33544876189486e+001,-7.48634906920701e+000

2.26274169979693e+005,-2.33557691870030e+001,-7.58765996274144e+000

2.29432839682530e+005,-2.33570745738985e+001,-7.69030724251268e+000

2.32635602771247e+005,-2.33584041102012e+001,-7.79430867966087e+000

2.35883074766574e+005,-2.33597581329248e+001,-7.89968232482199e+000

2.39175879781588e+005,-2.33611369860387e+001,-8.00644651329040e+000

2.42514650641661e+005,-2.33625410210051e+001,-8.11461987017097e+000

2.45900029006080e+005,-2.33639705973443e+001,-8.22422131551090e+000

2.49332665491357e+005,-2.33654260832292e+001,-8.33527006940214e+000

2.52813219796278e+005,-2.33669078561094e+001,-8.44778565704638e+000

2.56342360828676e+005,-2.33684163033623e+001,-8.56178791377348e+000

2.59920766833993e+005,-2.33699518229752e+001,-8.67729699000379e+000

2.63549125525621e+005,-2.33715148242534e+001,-8.79433335614669e+000

2.67228134217075e+005,-2.33731057285584e+001,-8.91291780742577e+000

2.70958499956006e+005,-2.33747249700726e+001,-9.03307146862221e+000

2.74740939660078e+005,-2.33763729965916e+001,-9.15481579872848e+000

2.78576180254757e+005,-2.33780502703426e+001,-9.27817259550363e+000

2.82464958813007e+005,-2.33797572688298e+001,-9.40316399992242e+000

2.86408022696948e+005,-2.33814944857040e+001,-9.52981250051075e+000

2.90406129701488e+005,-2.33832624316575e+001,-9.65814093756025e+000

2.94460048199957e+005,-2.33850616353418e+001,-9.78817250721534e+000

2.98570557291775e+005,-2.33868926443089e+001,-9.91993076542493e+000

3.02738446952187e+005,-2.33887560259739e+001,-1.00534396317556e+001

3.06964518184081e+005,-2.33906523685985e+001,-1.01887233930566e+001

3.11249583171928e+005,-2.33925822822944e+001,-1.03258067069767e+001

3.15594465437872e+005,-2.33945464000452e+001,-1.04647146053229e+001

3.19999999999997e+005,-2.33965453787459e+001,-1.06054724972613e+001

3.24467033532806e+005,-2.33985799002592e+001,-1.07481061723549e+001

3.28996424529938e+005,-2.34006506724870e+001,-1.08926418034332e+001

3.33589043469155e+005,-2.34027584304558e+001,-1.10391059492970e+001

3.38245772979638e+005,-2.34049039374157e+001,-1.11875255572499e+001

3.42967508011610e+005,-2.34070879859512e+001,-1.13379279654584e+001

3.47755156008335e+005,-2.34093113991032e+001,-1.14903409051408e+001

3.52609637080511e+005,-2.34115750314999e+001,-1.16447925025815e+001

3.57531884183106e+005,-2.34138797704978e+001,-1.18013112809730e+001

3.62522843294651e+005,-2.34162265373292e+001,-1.19599261620852e+001

3.67583473599047e+005,-2.34186162882579e+001,-1.21206664677635e+001

3.72714747669902e+005,-2.34210500157392e+001,-1.22835619212568e+001

3.77917651657445e+005,-2.34235287495861e+001,-1.24486426483761e+001

3.83193185478053e+005,-2.34260535581396e+001,-1.26159391784876e+001

3.88542363006410e+005,-2.34286255494419e+001,-1.27854824453410e+001

3.93966212270369e+005,-2.34312458724130e+001,-1.29573037877365e+001

3.99465775648511e+005,-2.34339157180292e+001,-1.31314349500318e+001

4.05042110070485e+005,-2.34366363205035e+001,-1.33079080824936e+001

4.10696287220124e+005,-2.34394089584667e+001,-1.34867557414955e+001

4.16429393741414e+005,-2.34422349561503e+001,-1.36680108895644e+001

4.22242531447321e+005,-2.34451156845682e+001,-1.38517068952812e+001

4.28136817531551e+005,-2.34480525627008e+001,-1.40378775330340e+001

4.34113384783250e+005,-2.34510470586771e+001,-1.42265569826312e+001

4.40173381804713e+005,-2.34541006909577e+001,-1.44177798287748e+001

4.46317973232124e+005,-2.34572150295181e+001,-1.46115810603954e+001

4.52548339959385e+005,-2.34603916970306e+001,-1.48079960698525e+001

4.58865679365059e+005,-2.34636323700472e+001,-1.50070606520025e+001

4.65271205542494e+005,-2.34669387801824e+001,-1.52088110031332e+001

4.71766149533147e+005,-2.34703127152956e+001,-1.54132837197690e+001

4.78351759563174e+005,-2.34737560206747e+001,-1.56205157973448e+001

4.85029301283321e+005,-2.34772706002204e+001,-1.58305446287512e+001

4.91800058012158e+005,-2.34808584176305e+001,-1.60434080027495e+001

4.98665330982714e+005,-2.34845214975867e+001,-1.62591441022554e+001

5.05626439592555e+005,-2.34882619269428e+001,-1.64777915024918e+001

5.12684721657352e+005,-2.34920818559138e+001,-1.66993891690074e+001

5.19841533667984e+005,-2.34959834992693e+001,-1.69239764555597e+001

5.27098251051240e+005,-2.34999691375276e+001,-1.71515931018597e+001

5.34456268434150e+005,-2.35040411181541e+001,-1.73822792311740e+001

5.41916999912011e+005,-2.35082018567626e+001,-1.76160753477809e+001

