Freq.,VOut,OutRef

1.00000000000000e+004,-1.86573220457928e+001,-1.88231599506172e-001

1.01395947979003e+004,-1.86573234854525e+001,-1.90858971916651e-001

1.02811382665607e+004,-1.86573249655202e+001,-1.93523010783485e-001

1.04246576084112e+004,-1.86573264871283e+001,-1.96224227513092e-001

1.05701804056138e+004,-1.86573280514405e+001,-1.98963140636531e-001

1.07177346253629e+004,-1.86573296596535e+001,-2.01740275899912e-001

1.08673486252606e+004,-1.86573313129967e+001,-2.04556166372268e-001

1.10190511587661e+004,-1.86573330127342e+001,-2.07411352540767e-001

1.11728713807222e+004,-1.86573347601655e+001,-2.10306382415554e-001

1.13288388529580e+004,-1.86573365566261e+001,-2.13241811635862e-001

1.14869835499703e+004,-1.86573384034889e+001,-2.16218203572082e-001

1.16473358646846e+004,-1.86573403021651e+001,-2.19236129434404e-001

1.18099266142953e+004,-1.86573422541050e+001,-2.22296168382304e-001

1.19747870461893e+004,-1.86573442607996e+001,-2.25398907631500e-001

1.21419488439505e+004,-1.86573463237813e+001,-2.28544942569480e-001

1.23114441334492e+004,-1.86573484446252e+001,-2.31734876863497e-001

1.24833054890161e+004,-1.86573506249504e+001,-2.34969322579064e-001

1.26575659397028e+004,-1.86573528664208e+001,-2.38248900293444e-001

1.28342589756290e+004,-1.86573551707469e+001,-2.41574239213619e-001

1.30134185544193e+004,-1.86573575396865e+001,-2.44945977297775e-001

1.31950791077289e+004,-1.86573599750466e+001,-2.48364761371757e-001

1.33792755478611e+004,-1.86573624786844e+001,-2.51831247254014e-001

1.35660432744767e+004,-1.86573650525086e+001,-2.55346099879126e-001

1.37554181813974e+004,-1.86573676984810e+001,-2.58909993423925e-001

1.39474366635040e+004,-1.86573704186179e+001,-2.62523611434826e-001

1.41421356237309e+004,-1.86573732149916e+001,-2.66187646954480e-001

1.43395524801583e+004,-1.86573760897322e+001,-2.69902802655251e-001

1.45397251732031e+004,-1.86573790450282e+001,-2.73669790972780e-001

1.47426921729110e+004,-1.86573820831297e+001,-2.77489334234716e-001

1.49484924863494e+004,-1.86573852063487e+001,-2.81362164802589e-001

1.51571656651040e+004,-1.86573884170614e+001,-2.85289025207335e-001

1.53687518128801e+004,-1.86573917177098e+001,-2.89270668289097e-001

1.55832915932100e+004,-1.86573951108037e+001,-2.93307857338235e-001

1.58008262372675e+004,-1.86573985989222e+001,-2.97401366239594e-001

1.60213975517924e+004,-1.86574021847159e+001,-3.01551979617356e-001

1.62450479271247e+004,-1.86574058709089e+001,-3.05760492983114e-001

1.64718203453514e+004,-1.86574096603003e+001,-3.10027712884239e-001

1.67017583885674e+004,-1.86574135557666e+001,-3.14354457055731e-001

1.69349062472505e+004,-1.86574175602642e+001,-3.18741554571261e-001

1.71713087287550e+004,-1.86574216768306e+001,-3.23189846003088e-001

1.74110112659224e+004,-1.86574259085875e+001,-3.27700183573090e-001

1.76540599258131e+004,-1.86574302587424e+001,-3.32273431318026e-001

1.79005014185594e+004,-1.86574347305916e+001,-3.36910465245668e-001

1.81503831063432e+004,-1.86574393275220e+001,-3.41612173502479e-001

1.84037530124975e+004,-1.86574440530138e+001,-3.46379456536505e-001

1.86606598307361e+004,-1.86574489106430e+001,-3.51213227266842e-001

1.89211529345119e+004,-1.86574539040841e+001,-3.56114411252322e-001

1.91852823865052e+004,-1.86574590371124e+001,-3.61083946864075e-001

1.94530989482457e+004,-1.86574643136069e+001,-3.66122785460637e-001

1.97246540898671e+004,-1.86574697375534e+001,-3.71231891562535e-001

1.99999999999999e+004,-1.86574753130466e+001,-3.76412243035310e-001

2.02791895958005e+004,-1.86574810442939e+001,-3.81664831264974e-001

2.05622765331213e+004,-1.86574869356179e+001,-3.86990661345815e-001

2.08493152168224e+004,-1.86574929914592e+001,-3.92390752265194e-001

2.11403608112276e+004,-1.86574992163803e+001,-3.97866137091466e-001

2.14354692507258e+004,-1.86575056150682e+001,-4.03417863164621e-001

2.17346972505211e+004,-1.86575121923378e+001,-4.09046992289439e-001

2.20381023175322e+004,-1.86575189531357e+001,-4.14754600931340e-001

2.23457427614443e+004,-1.86575259025433e+001,-4.20541780413114e-001

2.26576777059159e+004,-1.86575330457803e+001,-4.26409637117293e-001

2.29739670999406e+004,-1.86575403882086e+001,-4.32359292687814e-001

2.32946717293690e+004,-1.86575479353360e+001,-4.38391884234930e-001

2.36198532285905e+004,-1.86575556928195e+001,-4.44508564546550e-001

2.39495740923785e+004,-1.86575636664703e+001,-4.50710502294218e-001

2.42838976879009e+004,-1.86575718622567e+001,-4.56998882249672e-001

2.46228882668982e+004,-1.86575802863089e+001,-4.63374905500852e-001

2.49666109780322e+004,-1.86575889449228e+001,-4.69839789668492e-001

2.53151318794055e+004,-1.86575978445646e+001,-4.76394769128166e-001

2.56685179512580e+004,-1.86576069918751e+001,-4.83041095236216e-001

2.60268371088386e+004,-1.86576163936741e+001,-4.89780036553360e-001

2.63901582154578e+004,-1.86576260569651e+001,-4.96612879076347e-001

2.67585510957221e+004,-1.86576359889401e+001,-5.03540926469205e-001

2.71320865489533e+004,-1.86576461969842e+001,-5.10565500299513e-001

2.75108363627948e+004,-1.86576566886809e+001,-5.17687940275077e-001

2.78948733270080e+004,-1.86576674718166e+001,-5.24909604485057e-001

2.82842712474618e+004,-1.86576785543863e+001,-5.32231869643509e-001

2.86791049603164e+004,-1.86576899445987e+001,-5.39656131336307e-001

2.90794503464061e+004,-1.86577016508813e+001,-5.47183804270364e-001

2.94853843458219e+004,-1.86577136818863e+001,-5.54816322526323e-001

2.98969849726987e+004,-1.86577260464961e+001,-5.62555139812659e-001

3.03143313302078e+004,-1.86577387538288e+001,-5.70401729726015e-001

3.07375036257601e+004,-1.86577518132447e+001,-5.78357586009907e-001

3.11665831864199e+004,-1.86577652343516e+001,-5.86424222821861e-001

3.16016524745350e+004,-1.86577790270111e+001,-5.94603174999660e-001

3.20427951035848e+004,-1.86577932013453e+001,-6.02895998329983e-001

3.24900958542493e+004,-1.86578077677424e+001,-6.11304269825488e-001

3.29436406907028e+004,-1.86578227368640e+001,-6.19829587997953e-001

3.34035167771346e+004,-1.86578381196510e+001,-6.28473573140968e-001

3.38698124945009e+004,-1.86578539273309e+001,-6.37237867610591e-001

3.43426174575100e+004,-1.86578701714246e+001,-6.46124136112451e-001

3.48220225318448e+004,-1.86578868637531e+001,-6.55134065990005e-001

3.53081198516260e+004,-1.86579040164449e+001,-6.64269367519307e-001

3.58010028371187e+004,-1.86579216419433e+001,-6.73531774201700e-001

3.63007662126863e+004,-1.86579397530137e+001,-6.82923043064313e-001

3.68075060249948e+004,-1.86579583627514e+001,-6.92444954961095e-001

3.73213196614721e+004,-1.86579774845889e+001,-7.02099314880079e-001

3.78423058690237e+004,-1.86579971323038e+001,-7.11887952249558e-001

3.83705647730104e+004,-1.86580173200272e+001,-7.21812721251797e-001

3.89061978964912e+004,-1.86580380622511e+001,-7.31875501136473e-001

3.94493081797342e+004,-1.86580593738369e+001,-7.42078196541550e-001

3.99999999999998e+004,-1.86580812700241e+001,-7.52422737812101e-001

4.05583791916010e+004,-1.86581037664381e+001,-7.62911081328124e-001

4.11245530662425e+004,-1.86581268790992e+001,-7.73545209831523e-001

4.16986304336447e+004,-1.86581506244310e+001,-7.84327132758304e-001

4.22807216224550e+004,-1.86581750192696e+001,-7.95258886574063e-001

4.28709385014515e+004,-1.86582000808721e+001,-8.06342535113009e-001

4.34693945010421e+004,-1.86582258269264e+001,-8.17580169917187e-001

4.40762046350642e+004,-1.86582522755593e+001,-8.28973910586661e-001

4.46914855228886e+004,-1.86582794453466e+001,-8.40525905124002e-001

4.53153554118317e+004,-1.86583073553219e+001,-8.52238330289896e-001

4.59479341998812e+004,-1.86583360249869e+001,-8.64113391955348e-001

4.65893434587380e+004,-1.86583654743199e+001,-8.76153325464093e-001

4.72397064571810e+004,-1.86583957237861e+001,-8.88360395994458e-001

4.78991481847569e+004,-1.86584267943473e+001,-9.00736898923480e-001

4.85677953758016e+004,-1.86584587074715e+001,-9.13285160199767e-001

4.92457765337964e+004,-1.86584914851427e+001,-9.26007536713393e-001

4.99332219560642e+004,-1.86585251498712e+001,-9.38906416675342e-001

5.06302637588109e+004,-1.86585597247033e+001,-9.51984219995548e-001

5.13370359025159e+004,-1.86585952332311e+001,-9.65243398668769e-001

5.20536742176771e+004,-1.86586316996030e+001,-9.78686437159498e-001

5.27803164309155e+004,-1.86586691485335e+001,-9.92315852795305e-001

5.35171021914442e+004,-1.86587076053133e+001,-1.00613419615946e+000

5.42641730979066e+004,-1.86587470958194e+001,-1.02014405149019e+000

5.50216727255895e+004,-1.86587876465251e+001,-1.03434803708205e+000

5.57897466540159e+004,-1.86588292845102e+001,-1.04874880569195e+000

5.65685424949235e+004,-1.86588720374705e+001,-1.06334904494803e+000

5.73582099206328e+004,-1.86589159337284e+001,-1.07815147776248e+000

5.81589006928121e+004,-1.86589610022422e+001,-1.09315886274890e+000

5.89707686916437e+004,-1.86590072726162e+001,-1.10837399464206e+000

5.97939699453972e+004,-1.86590547751102e+001,-1.12379970472336e+000

6.06286626604156e+004,-1.86591035406487e+001,-1.13943886124878e+000

6.14750072515201e+004,-1.86591536008312e+001,-1.15529436988029e+000

6.23331663728396e+004,-1.86592049879403e+001,-1.17136917412435e+000

6.32033049490698e+004,-1.86592577349513e+001,-1.18766625577053e+000

6.40855902071694e+004,-1.86593118755411e+001,-1.20418863533665e+000

6.49801917084985e+004,-1.86593674440964e+001,-1.22093937251805e+000

6.58872813814055e+004,-1.86594244757224e+001,-1.23792156663976e+000

6.68070335542691e+004,-1.86594830062504e+001,-1.25513835711504e+000

6.77396249890018e+004,-1.86595430722457e+001,-1.27259292390722e+000

6.86852349150199e+004,-1.86596047110152e+001,-1.29028848799577e+000

6.96440450636895e+004,-1.86596679606140e+001,-1.30822831184830e+000

7.06162397032520e+004,-1.86597328598520e+001,-1.32641569989679e+000

7.16020056742374e+004,-1.86597994483007e+001,-1.34485399901709e+000

7.26015324253724e+004,-1.86598677662980e+001,-1.36354659901844e+000

7.36150120499896e+004,-1.86599378549540e+001,-1.38249693313143e+000

7.46426393229441e+004,-1.86600097561555e+001,-1.40170847850778e+000

7.56846117380472e+004,-1.86600835125701e+001,-1.42118475672180e+000

7.67411295460207e+004,-1.86601591676496e+001,-1.44092933427880e+000

7.78123957929823e+004,-1.86602367656332e+001,-1.46094582313015e+000

7.88986163594682e+004,-1.86603163515492e+001,-1.48123788119389e+000

7.99999999999995e+004,-1.86603979712172e+001,-1.50180921288147e+000

8.11167583832018e+004,-1.86604816712478e+001,-1.52266356963340e+000

8.22491061324848e+004,-1.86605674990436e+001,-1.54380475045914e+000

8.33972608672892e+004,-1.86606555027973e+001,-1.56523660248698e+000

8.45614432449099e+004,-1.86607457314911e+001,-1.58696302151830e+000

8.57418770029029e+004,-1.86608382348928e+001,-1.60898795259538e+000

8.69387890020841e+004,-1.86609330635529e+001,-1.63131539057055e+000

8.81524092701283e+004,-1.86610302687998e+001,-1.65394938069098e+000

8.93829710457770e+004,-1.86611299027340e+001,-1.67689401918809e+000

9.06307108236633e+004,-1.86612320182216e+001,-1.70015345387832e+000

9.18958683997622e+004,-1.86613366688861e+001,-1.72373188477429e+000

9.31786869174758e+004,-1.86614439090998e+001,-1.74763356470654e+000

9.44794129143618e+004,-1.86615537939733e+001,-1.77186279995554e+000

9.57982963695136e+004,-1.86616663793440e+001,-1.79642395089674e+000

9.71355907516031e+004,-1.86617817217636e+001,-1.82132143265739e+000

9.84915530675926e+004,-1.86618998784841e+001,-1.84655971578556e+000

9.98664439121282e+004,-1.86620209074423e+001,-1.87214332693431e+000

1.01260527517622e+005,-1.86621448672433e+001,-1.89807684955897e+000

1.02674071805032e+005,-1.86622718171424e+001,-1.92436492462934e+000

1.04107348435354e+005,-1.86624018170253e+001,-1.95101225135898e+000

1.05560632861831e+005,-1.86625349273878e+001,-1.97802358794874e+000

1.07034204382888e+005,-1.86626712093128e+001,-2.00540375235016e+000

1.08528346195813e+005,-1.86628107244472e+001,-2.03315762304465e+000

1.10043345451179e+005,-1.86629535349757e+001,-2.06129013984333e+000

1.11579493308032e+005,-1.86630997035949e+001,-2.08980630470679e+000

1.13137084989847e+005,-1.86632492934848e+001,-2.11871118258310e+000

1.14716419841265e+005,-1.86634023682789e+001,-2.14800990227244e+000

1.16317801385624e+005,-1.86635589920332e+001,-2.17770765730995e+000

1.17941537383287e+005,-1.86637192291939e+001,-2.20780970687421e+000

1.19587939890794e+005,-1.86638831445633e+001,-2.23832137672180e+000

1.21257325320831e+005,-1.86640508032644e+001,-2.26924806014583e+000

1.22950014503040e+005,-1.86642222707043e+001,-2.30059521896255e+000

1.24666332745679e+005,-1.86643976125363e+001,-2.33236838452640e+000

1.26406609898139e+005,-1.86645768946212e+001,-2.36457315877294e+000

1.28171180414339e+005,-1.86647601829863e+001,-2.39721521529542e+000

1.29960383416997e+005,-1.86649475437850e+001,-2.43030030044792e+000

1.31774562762811e+005,-1.86651390432539e+001,-2.46383423448741e+000

1.33614067108538e+005,-1.86653347476701e+001,-2.49782291274409e+000

1.35479249978003e+005,-1.86655347233068e+001,-2.53227230683218e+000

1.37370469830040e+005,-1.86657390363898e+001,-2.56718846589169e+000

1.39288090127379e+005,-1.86659477530514e+001,-2.60257751787346e+000

1.41232479406504e+005,-1.86661609392861e+001,-2.63844567085808e+000

1.43204011348474e+005,-1.86663786609043e+001,-2.67479921441802e+000

1.45203064850745e+005,-1.86666009834874e+001,-2.71164452101821e+000

1.47230024099979e+005,-1.86668279723423e+001,-2.74898804746188e+000

1.49285278645888e+005,-1.86670596924564e+001,-2.78683633637570e+000

1.51369223476094e+005,-1.86672962084533e+001,-2.82519601774289e+000

1.53482259092041e+005,-1.86675375845495e+001,-2.86407381047919e+000

1.55624791585964e+005,-1.86677838845118e+001,-2.90347652405542e+000

1.57797232718936e+005,-1.86680351716158e+001,-2.94341106016752e+000

1.59999999999999e+005,-1.86682915086072e+001,-2.98388441445386e+000

1.62233516766403e+005,-1.86685529576631e+001,-3.02490367826131e+000

1.64498212264969e+005,-1.86688195803572e+001,-3.06647604046022e+000

1.66794521734578e+005,-1.86690914376259e+001,-3.10860878930946e+000

1.69122886489819e+005,-1.86693685897388e+001,-3.15130931437050e+000

1.71483754005805e+005,-1.86696510962704e+001,-3.19458510847389e+000

1.73877578004168e+005,-1.86699390160765e+001,-3.23844376973416e+000

1.76304818540256e+005,-1.86702324072741e+001,-3.28289300361681e+000

1.78765942091554e+005,-1.86705313272250e+001,-3.32794062505635e+000

1.81261421647326e+005,-1.86708358325238e+001,-3.37359456062419e+000

1.83791736799524e+005,-1.86711459789912e+001,-3.41986285074660e+000

1.86357373834951e+005,-1.86714618216720e+001,-3.46675365197393e+000

1.88958825828723e+005,-1.86717834148381e+001,-3.51427523929805e+000

1.91596592739027e+005,-1.86721108119985e+001,-3.56243600851888e+000

1.94271181503206e+005,-1.86724440659145e+001,-3.61124447865869e+000

1.96983106135185e+005,-1.86727832286215e+001,-3.66070929442296e+000

1.99732887824256e+005,-1.86731283514583e+001,-3.71083922870771e+000

2.02521055035243e+005,-1.86734794851028e+001,-3.76164318514940e+000

2.05348143610063e+005,-1.86738366796160e+001,-3.81313020071955e+000

2.08214696870707e+005,-1.86741999844930e+001,-3.86530944835949e+000

2.11121265723661e+005,-1.86745694487231e+001,-3.91819023965450e+000

2.14068408765776e+005,-1.86749451208574e+001,-3.97178202754520e+000

2.17056692391625e+005,-1.86753270490862e+001,-4.02609440907555e+000

2.20086690902357e+005,-1.86757152813239e+001,-4.08113712817289e+000

2.23158986616063e+005,-1.86761098653049e+001,-4.13692007845851e+000

2.26274169979693e+005,-1.86765108486873e+001,-4.19345330608805e+000

2.29432839682530e+005,-1.86769182791672e+001,-4.25074701261628e+000

2.32635602771247e+005,-1.86773322046026e+001,-4.30881155788601e+000

2.35883074766574e+005,-1.86777526731469e+001,-4.36765746293719e+000

2.39175879781588e+005,-1.86781797333927e+001,-4.42729541293326e+000

2.42514650641661e+005,-1.86786134345256e+001,-4.48773626010238e+000

2.45900029006080e+005,-1.86790538264883e+001,-4.54899102669145e+000

2.49332665491357e+005,-1.86795009601548e+001,-4.61107090792704e+000

2.52813219796278e+005,-1.86799548875147e+001,-4.67398727498382e+000

2.56342360828676e+005,-1.86804156618673e+001,-4.73775167795587e+000

2.59920766833993e+005,-1.86808833380266e+001,-4.80237584882655e+000

2.63549125525621e+005,-1.86813579725355e+001,-4.86787170443795e+000

2.67228134217075e+005,-1.86818396238900e+001,-4.93425134945176e+000

2.70958499956006e+005,-1.86823283527728e+001,-5.00152707930343e+000

2.74740939660078e+005,-1.86828242222968e+001,-5.06971138314550e+000

2.78576180254757e+005,-1.86833272982574e+001,-5.13881694677559e+000

2.82464958813007e+005,-1.86838376493936e+001,-5.20885665554936e+000

2.86408022696948e+005,-1.86843553476581e+001,-5.27984359727487e+000

2.90406129701488e+005,-1.86848804684953e+001,-5.35179106508609e+000

2.94460048199957e+005,-1.86854130911274e+001,-5.42471256029401e+000

2.98570557291775e+005,-1.86859532988484e+001,-5.49862179521366e+000

3.02738446952187e+005,-1.86865011793246e+001,-5.57353269596435e+000

3.06964518184081e+005,-1.86870568249026e+001,-5.64945940524403e+000

3.11249583171928e+005,-1.86876203329235e+001,-5.72641628507348e+000

3.15594465437872e+005,-1.86881918060427e+001,-5.80441791951347e+000

3.19999999999997e+005,-1.86887713525556e+001,-5.88347911734937e+000

3.24467033532806e+005,-1.86893590867286e+001,-5.96361491474736e+000

3.28996424529938e+005,-1.86899551291341e+001,-6.04484057787927e+000

3.33589043469155e+005,-1.86905596069904e+001,-6.12717160551600e+000

3.38245772979638e+005,-1.86911726545050e+001,-6.21062373159230e+000

3.42967508011610e+005,-1.86917944132214e+001,-6.29521292774058e+000

3.47755156008335e+005,-1.86924250323685e+001,-6.38095540579622e+000

3.52609637080511e+005,-1.86930646692133e+001,-6.46786762027451e+000

3.57531884183106e+005,-1.86937134894148e+001,-6.55596627082113e+000

3.62522843294651e+005,-1.86943716673807e+001,-6.64526830463767e+000

3.67583473599047e+005,-1.86950393866242e+001,-6.73579091888230e+000

3.72714747669902e+005,-1.86957168401234e+001,-6.82755156304977e+000

3.77917651657445e+005,-1.86964042306802e+001,-6.92056794133132e+000

3.83193185478053e+005,-1.86971017712808e+001,-7.01485801495569e+000

3.88542363006410e+005,-1.86978096854555e+001,-7.11044000451686e+000

3.93966212270369e+005,-1.86985282076394e+001,-7.20733239228713e+000

3.99465775648511e+005,-1.86992575835324e+001,-7.30555392452044e+000

4.05042110070485e+005,-1.86999980704594e+001,-7.40512361374825e+000

4.10696287220124e+005,-1.87007499377301e+001,-7.50606074106978e+000

4.16429393741414e+005,-1.87015134669981e+001,-7.60838485844019e+000

4.22242531447321e+005,-1.87022889526198e+001,-7.71211579096038e+000

4.28136817531551e+005,-1.87030767020127e+001,-7.81727363916813e+000

4.34113384783250e+005,-1.87038770360139e+001,-7.92387878133725e+000

4.40173381804713e+005,-1.87046902892371e+001,-8.03195187578560e+000

4.46317973232124e+005,-1.87055168104309e+001,-8.14151386319287e+000

4.52548339959385e+005,-1.87063569628358e+001,-8.25258596893602e+000

4.58865679365059e+005,-1.87072111245419e+001,-8.36518970543934e+000

4.65271205542494e+005,-1.87080796888474e+001,-8.47934687454502e+000

4.71766149533147e+005,-1.87089630646164e+001,-8.59507956990567e+000

4.78351759563174e+005,-1.87098616766395e+001,-8.71241017940151e+000

4.85029301283321e+005,-1.87107759659936e+001,-8.83136138758339e+000

4.91800058012158e+005,-1.87117063904050e+001,-8.95195617814450e+000

4.98665330982714e+005,-1.87126534246133e+001,-9.07421783642307e+000

5.05626439592555e+005,-1.87136175607382e+001,-9.19816995193614e+000

5.12684721657352e+005,-1.87145993086487e+001,-9.32383642094698e+000

5.19841533667984e+005,-1.87155991963359e+001,-9.45124144906819e+000

5.27098251051240e+005,-1.87166177702889e+001,-9.58040955389895e+000

5.34456268434150e+005,-1.87176555958754e+001,-9.71136556770110e+000

5.41916999912011e+005,-1.87187132577263e+001,-9.84413464011036e+000

