Freq.,VOut,OutRef

1.00000000000000e+004,-4.22277509183777e+001,-4.18030080104579e-001

1.01395947979003e+004,-4.22277564743238e+001,-4.23864834229334e-001

1.02811382665607e+004,-4.22277621862777e+001,-4.29781007598441e-001

1.04246576084112e+004,-4.22277680586147e+001,-4.35779735472757e-001

1.05701804056138e+004,-4.22277740958322e+001,-4.41862168906281e-001

1.07177346253629e+004,-4.22277803025534e+001,-4.48029474963199e-001

1.08673486252606e+004,-4.22277866835311e+001,-4.54282836938830e-001

1.10190511587661e+004,-4.22277932436506e+001,-4.60623454584246e-001

1.11728713807222e+004,-4.22277999879338e+001,-4.67052544334103e-001

1.13288388529580e+004,-4.22278069215433e+001,-4.73571339533785e-001

1.14869835499703e+004,-4.22278140497857e+001,-4.80181090676527e-001

1.16473358646846e+004,-4.22278213781159e+001,-4.86883065636905e-001

1.18099266142953e+004,-4.22278289121413e+001,-4.93678549911019e-001

1.19747870461893e+004,-4.22278366576260e+001,-5.00568846859840e-001

1.21419488439505e+004,-4.22278446204947e+001,-5.07555277955428e-001

1.23114441334492e+004,-4.22278528068380e+001,-5.14639183028929e-001

1.24833054890161e+004,-4.22278612229162e+001,-5.21821920524606e-001

1.26575659397028e+004,-4.22278698751645e+001,-5.29104867754902e-001

1.28342589756290e+004,-4.22278787701975e+001,-5.36489421160003e-001

1.30134185544193e+004,-4.22278879148146e+001,-5.43976996570989e-001

1.31950791077289e+004,-4.22278973160047e+001,-5.51569029475854e-001

1.33792755478611e+004,-4.22279069809517e+001,-5.59266975289742e-001

1.35660432744767e+004,-4.22279169170397e+001,-5.67072309628151e-001

1.37554181813974e+004,-4.22279271318586e+001,-5.74986528584993e-001

1.39474366635040e+004,-4.22279376332100e+001,-5.83011149011188e-001

1.41421356237309e+004,-4.22279484291126e+001,-5.91147708801400e-001

1.43395524801583e+004,-4.22279595278086e+001,-5.99397767180766e-001

1.45397251732031e+004,-4.22279709377699e+001,-6.07762904998218e-001

1.47426921729110e+004,-4.22279826677039e+001,-6.16244725020506e-001

1.49484924863494e+004,-4.22279947265605e+001,-6.24844852234273e-001

1.51571656651040e+004,-4.22280071235388e+001,-6.33564934146817e-001

1.53687518128801e+004,-4.22280198680934e+001,-6.42406641097017e-001

1.55832915932100e+004,-4.22280329699422e+001,-6.51371666563923e-001

1.58008262372675e+004,-4.22280464390730e+001,-6.60461727485024e-001

1.60213975517924e+004,-4.22280602857511e+001,-6.69678564574073e-001

1.62450479271247e+004,-4.22280745205274e+001,-6.79023942645616e-001

1.64718203453514e+004,-4.22280891542452e+001,-6.88499650944097e-001

1.67017583885674e+004,-4.22281041980493e+001,-6.98107503474769e-001

1.69349062472505e+004,-4.22281196633938e+001,-7.07849339340950e-001

1.71713087287550e+004,-4.22281355620501e+001,-7.17727023085801e-001

1.74110112659224e+004,-4.22281519061165e+001,-7.27742445036438e-001

1.76540599258131e+004,-4.22281687080265e+001,-7.37897521653645e-001

1.79005014185594e+004,-4.22281859805583e+001,-7.48194195887651e-001

1.81503831063432e+004,-4.22282037368437e+001,-7.58634437535865e-001

1.84037530124975e+004,-4.22282219903784e+001,-7.69220243605289e-001

1.86606598307361e+004,-4.22282407550314e+001,-7.79953638682404e-001

1.89211529345119e+004,-4.22282600450556e+001,-7.90836675303323e-001

1.91852823865052e+004,-4.22282798750976e+001,-8.01871434334001e-001

1.94530989482457e+004,-4.22283002602092e+001,-8.13060025349461e-001

1.97246540898671e+004,-4.22283212158578e+001,-8.24404587021723e-001

1.99999999999999e+004,-4.22283427579379e+001,-8.35907287511235e-001

2.02791895958005e+004,-4.22283649027826e+001,-8.47570324864108e-001

2.05622765331213e+004,-4.22283876671754e+001,-8.59395927412076e-001

2.08493152168224e+004,-4.22284110683629e+001,-8.71386354179438e-001

2.11403608112276e+004,-4.22284351240663e+001,-8.83543895294497e-001

2.14354692507258e+004,-4.22284598524953e+001,-8.95870872405818e-001

2.17346972505211e+004,-4.22284852723603e+001,-9.08369639104338e-001

2.20381023175322e+004,-4.22285114028867e+001,-9.21042581348262e-001

2.23457427614443e+004,-4.22285382638279e+001,-9.33892117896050e-001

2.26576777059159e+004,-4.22285658754804e+001,-9.46920700744192e-001

2.29739670999406e+004,-4.22285942586975e+001,-9.60130815567305e-001

2.32946717293690e+004,-4.22286234349048e+001,-9.73524982166749e-001

2.36198532285905e+004,-4.22286534261150e+001,-9.87105754924509e-001

2.39495740923785e+004,-4.22286842549442e+001,-1.00087572325953e+000

2.42838976879009e+004,-4.22287159446272e+001,-1.01483751209272e+000

2.46228882668982e+004,-4.22287485190347e+001,-1.02899378231512e+000

2.49666109780322e+004,-4.22287820026898e+001,-1.04334723126320e+000

2.53151318794055e+004,-4.22288164207851e+001,-1.05790059319847e+000

2.56685179512580e+004,-4.22288517992010e+001,-1.07265663979420e+000

2.60268371088386e+004,-4.22288881645234e+001,-1.08761818062435e+000

2.63901582154578e+004,-4.22289255440626e+001,-1.10278806366304e+000

2.67585510957221e+004,-4.22289639658720e+001,-1.11816917578629e+000

2.71320865489533e+004,-4.22290034587680e+001,-1.13376444327894e+000

2.75108363627948e+004,-4.22290440523501e+001,-1.14957683235000e+000

2.78948733270080e+004,-4.22290857770208e+001,-1.16560934965309e+000

2.82842712474618e+004,-4.22291286640074e+001,-1.18186504280830e+000

2.86791049603164e+004,-4.22291727453827e+001,-1.19834700093879e+000

2.90794503464061e+004,-4.22292180540875e+001,-1.21505835520355e+000

2.94853843458219e+004,-4.22292646239531e+001,-1.23200227934191e+000

2.98969849726987e+004,-4.22293124897242e+001,-1.24918199022255e+000

3.03143313302078e+004,-4.22293616870824e+001,-1.26660074839851e+000

3.07375036257601e+004,-4.22294122526706e+001,-1.28426185866683e+000

3.11665831864199e+004,-4.22294642241175e+001,-1.30216867063614e+000

3.16016524745350e+004,-4.22295176400633e+001,-1.32032457929764e+000

3.20427951035848e+004,-4.22295725401846e+001,-1.33873302560601e+000

3.24900958542493e+004,-4.22296289652220e+001,-1.35739749706087e+000

3.29436406907028e+004,-4.22296869570064e+001,-1.37632152830018e+000

3.34035167771346e+004,-4.22297465584868e+001,-1.39550870169388e+000

3.38698124945009e+004,-4.22298078137586e+001,-1.41496264794849e+000

3.43426174575100e+004,-4.22298707680924e+001,-1.43468704671403e+000

3.48220225318448e+004,-4.22299354679637e+001,-1.45468562719904e+000

3.53081198516260e+004,-4.22300019610828e+001,-1.47496216879105e+000

3.58010028371187e+004,-4.22300702964257e+001,-1.49552050168193e+000

3.63007662126863e+004,-4.22301405242656e+001,-1.51636450750215e+000

3.68075060249948e+004,-4.22302126962051e+001,-1.53749811995663e+000

3.73213196614721e+004,-4.22302868652086e+001,-1.55892532547160e+000

3.78423058690237e+004,-4.22303630856364e+001,-1.58065016384241e+000

3.83705647730104e+004,-4.22304414132781e+001,-1.60267672889156e+000

3.89061978964912e+004,-4.22305219053882e+001,-1.62500916913039e+000

3.94493081797342e+004,-4.22306046207209e+001,-1.64765168842650e+000

3.99999999999998e+004,-4.22306896195671e+001,-1.67060854667760e+000

4.05583791916010e+004,-4.22307769637906e+001,-1.69388406049316e+000

4.11245530662425e+004,-4.22308667168665e+001,-1.71748260387698e+000

4.16986304336447e+004,-4.22309589439189e+001,-1.74140860892194e+000

4.22807216224550e+004,-4.22310537117605e+001,-1.76566656650454e+000

4.28709385014515e+004,-4.22311510889322e+001,-1.79026102698942e+000

4.34693945010421e+004,-4.22312511457434e+001,-1.81519660093798e+000

4.40762046350642e+004,-4.22313539543140e+001,-1.84047795982177e+000

4.46914855228886e+004,-4.22314595886155e+001,-1.86610983674414e+000

4.53153554118317e+004,-4.22315681245142e+001,-1.89209702716460e+000

4.59479341998812e+004,-4.22316796398146e+001,-1.91844438963110e+000

4.65893434587380e+004,-4.22317942143038e+001,-1.94515684651534e+000

4.72397064571810e+004,-4.22319119297955e+001,-1.97223938475761e+000

4.78991481847569e+004,-4.22320328701764e+001,-1.99969705661190e+000

4.85677953758016e+004,-4.22321571214523e+001,-2.02753498040047e+000

4.92457765337964e+004,-4.22322847717949e+001,-2.05575834127315e+000

4.99332219560642e+004,-4.22324159115895e+001,-2.08437239196935e+000

5.06302637588109e+004,-4.22325506334834e+001,-2.11338245358830e+000

5.13370359025159e+004,-4.22326890324349e+001,-2.14279391636405e+000

5.20536742176771e+004,-4.22328312057629e+001,-2.17261224044468e+000

5.27803164309155e+004,-4.22329772531974e+001,-2.20284295667635e+000

5.35171021914442e+004,-4.22331272769301e+001,-2.23349166739442e+000

5.42641730979066e+004,-4.22332813816662e+001,-2.26456404721849e+000

5.50216727255895e+004,-4.22334396746763e+001,-2.29606584385250e+000

5.57897466540159e+004,-4.22336022658494e+001,-2.32800287888932e+000

5.65685424949235e+004,-4.22337692677457e+001,-2.36038104862191e+000

5.73582099206328e+004,-4.22339407956506e+001,-2.39320632485906e+000

5.81589006928121e+004,-4.22341169676291e+001,-2.42648475574499e+000

5.89707686916437e+004,-4.22342979045801e+001,-2.46022246658506e+000

5.97939699453972e+004,-4.22344837302920e+001,-2.49442566067629e+000

6.06286626604156e+004,-4.22346745714976e+001,-2.52910062014362e+000

6.14750072515201e+004,-4.22348705579305e+001,-2.56425370677972e+000

6.23331663728396e+004,-4.22350718223815e+001,-2.59989136289118e+000

6.32033049490698e+004,-4.22352785007543e+001,-2.63602011214959e+000

6.40855902071694e+004,-4.22354907321229e+001,-2.67264656044825e+000

6.49801917084985e+004,-4.22357086587886e+001,-2.70977739676294e+000

6.58872813814055e+004,-4.22359324263366e+001,-2.74741939401950e+000

6.68070335542691e+004,-4.22361621836936e+001,-2.78557940996701e+000

6.77396249890018e+004,-4.22363980831850e+001,-2.82426438805509e+000

6.86852349150199e+004,-4.22366402805920e+001,-2.86348135831879e+000

6.96440450636895e+004,-4.22368889352091e+001,-2.90323743826913e+000

7.06162397032520e+004,-4.22371442099007e+001,-2.94353983378866e+000

7.16020056742374e+004,-4.22374062711585e+001,-2.98439584003587e+000

7.26015324253724e+004,-4.22376752891578e+001,-3.02581284235294e+000

7.36150120499896e+004,-4.22379514378142e+001,-3.06779831718449e+000

7.46426393229441e+004,-4.22382348948393e+001,-3.11035983300067e+000

7.56846117380472e+004,-4.22385258417962e+001,-3.15350505122896e+000

7.67411295460207e+004,-4.22388244641551e+001,-3.19724172719413e+000

7.78123957929823e+004,-4.22391309513467e+001,-3.24157771106723e+000

7.88986163594682e+004,-4.22394454968173e+001,-3.28652094882228e+000

7.99999999999995e+004,-4.22397682980807e+001,-3.33207948320355e+000

8.11167583832018e+004,-4.22400995567712e+001,-3.37826145470267e+000

8.22491061324848e+004,-4.22404394786946e+001,-3.42507510254640e+000

8.33972608672892e+004,-4.22407882738786e+001,-3.47252876569559e+000

8.45614432449099e+004,-4.22411461566224e+001,-3.52063088385621e+000

8.57418770029029e+004,-4.22415133455449e+001,-3.56938999850386e+000

8.69387890020841e+004,-4.22418900636316e+001,-3.61881475392091e+000

8.81524092701283e+004,-4.22422765382803e+001,-3.66891389824883e+000

8.93829710457770e+004,-4.22426730013460e+001,-3.71969628455617e+000

9.06307108236633e+004,-4.22430796891834e+001,-3.77117087192271e+000

9.18958683997622e+004,-4.22434968426888e+001,-3.82334672654080e+000

9.31786869174758e+004,-4.22439247073401e+001,-3.87623302283693e+000

9.44794129143618e+004,-4.22443635332350e+001,-3.92983904461124e+000

9.57982963695136e+004,-4.22448135751280e+001,-3.98417418620029e+000

9.71355907516031e+004,-4.22452750924652e+001,-4.03924795366075e+000

9.84915530675926e+004,-4.22457483494176e+001,-4.09506996597895e+000

9.98664439121282e+004,-4.22462336149127e+001,-4.15164995630410e+000

1.01260527517622e+005,-4.22467311626640e+001,-4.20899777321058e+000

1.02674071805032e+005,-4.22472412711991e+001,-4.26712338198772e+000

1.04107348435354e+005,-4.22477642238849e+001,-4.32603686596180e+000

1.05560632861831e+005,-4.22483003089526e+001,-4.38574842784835e+000

1.07034204382888e+005,-4.22488498195191e+001,-4.44626839114160e+000

1.08528346195813e+005,-4.22494130536080e+001,-4.50760720153871e+000

1.10043345451179e+005,-4.22499903141677e+001,-4.56977542840215e+000

1.11579493308032e+005,-4.22505819090887e+001,-4.63278376626494e+000

1.13137084989847e+005,-4.22511881512184e+001,-4.69664303637680e+000

1.14716419841265e+005,-4.22518093583749e+001,-4.76136418829671e+000

1.16317801385624e+005,-4.22524458533593e+001,-4.82695830153287e+000

1.17941537383287e+005,-4.22530979639661e+001,-4.89343658723242e+000

1.19587939890794e+005,-4.22537660229933e+001,-4.96081038992495e+000

1.21257325320831e+005,-4.22544503682504e+001,-5.02909118932004e+000

1.22950014503040e+005,-4.22551513425669e+001,-5.09829060216306e+000

1.24666332745679e+005,-4.22558692937989e+001,-5.16842038415184e+000

1.26406609898139e+005,-4.22566045748359e+001,-5.23949243191617e+000

1.28171180414339e+005,-4.22573575436082e+001,-5.31151878506321e+000

1.29960383416997e+005,-4.22581285630932e+001,-5.38451162829205e+000

1.31774562762811e+005,-4.22589180013234e+001,-5.45848329357820e+000

1.33614067108538e+005,-4.22597262313947e+001,-5.53344626243535e+000

1.35479249978003e+005,-4.22605536314765e+001,-5.60941316825009e+000

1.37370469830040e+005,-4.22614005848234e+001,-5.68639679869883e+000

1.39288090127379e+005,-4.22622674797891e+001,-5.76441009824673e+000

1.41232479406504e+005,-4.22631547098432e+001,-5.84346617073001e+000

1.43204011348474e+005,-4.22640626735916e+001,-5.92357828202725e+000

1.45203064850745e+005,-4.22649917748000e+001,-6.00475986281900e+000

1.47230024099979e+005,-4.22659424224232e+001,-6.08702451144078e+000

1.49285278645888e+005,-4.22669150306387e+001,-6.17038599682916e+000

1.51369223476094e+005,-4.22679100188861e+001,-6.25485826156443e+000

1.53482259092041e+005,-4.22689278119143e+001,-6.34045542501182e+000

1.55624791585964e+005,-4.22699688398349e+001,-6.42719178656216e+000

1.57797232718936e+005,-4.22710335381843e+001,-6.51508182897326e+000

1.59999999999999e+005,-4.22721223479952e+001,-6.60414022181516e+000

1.62233516766403e+005,-4.22732357158780e+001,-6.69438182501703e+000

1.64498212264969e+005,-4.22743740941127e+001,-6.78582169252005e+000

1.66794521734578e+005,-4.22755379407530e+001,-6.87847507603310e+000

1.69122886489819e+005,-4.22767277197436e+001,-6.97235742889482e+000

1.71483754005805e+005,-4.22779439010506e+001,-7.06748441003882e+000

1.73877578004168e+005,-4.22791869608073e+001,-7.16387188806296e+000

1.76304818540256e+005,-4.22804573814763e+001,-7.26153594540194e+000

1.78765942091554e+005,-4.22817556520278e+001,-7.36049288260084e+000

1.81261421647326e+005,-4.22830822681367e+001,-7.46075922268813e+000

1.83791736799524e+005,-4.22844377323990e+001,-7.56235171564667e+000

1.86357373834951e+005,-4.22858225545678e+001,-7.66528734297900e+000

1.88958825828723e+005,-4.22872372518121e+001,-7.76958332236382e+000

1.91596592739027e+005,-4.22886823489970e+001,-7.87525711240123e+000

1.94271181503206e+005,-4.22901583789883e+001,-7.98232641744053e+000

1.96983106135185e+005,-4.22916658829821e+001,-8.09080919248861e+000

1.99732887824256e+005,-4.22932054108593e+001,-8.20072364819116e+000

2.02521055035243e+005,-4.22947775215689e+001,-8.31208825588293e+000

2.05348143610063e+005,-4.22963827835376e+001,-8.42492175270040e+000

2.08214696870707e+005,-4.22980217751094e+001,-8.53924314674970e+000

2.11121265723661e+005,-4.22996950850153e+001,-8.65507172232318e+000

2.14068408765776e+005,-4.23014033128734e+001,-8.77242704515832e+000

2.17056692391625e+005,-4.23031470697218e+001,-8.89132896772730e+000

2.20086690902357e+005,-4.23049269785829e+001,-9.01179763455336e+000

2.23158986616063e+005,-4.23067436750628e+001,-9.13385348754088e+000

2.26274169979693e+005,-4.23085978079832e+001,-9.25751727131337e+000

2.29432839682530e+005,-4.23104900400493e+001,-9.38281003854639e+000

2.32635602771247e+005,-4.23124210485528e+001,-9.50975315528841e+000

2.35883074766574e+005,-4.23143915261104e+001,-9.63836830625585e+000

2.39175879781588e+005,-4.23164021814388e+001,-9.76867750009531e+000

2.42514650641661e+005,-4.23184537401664e+001,-9.90070307459905e+000

2.45900029006080e+005,-4.23205469456817e+001,-1.00344677018636e+001

2.49332665491357e+005,-4.23226825600181e+001,-1.01699943933812e+001

2.52813219796278e+005,-4.23248613647767e+001,-1.03073065050504e+001

2.56342360828676e+005,-4.23270841620846e+001,-1.04464277420964e+001

2.59920766833993e+005,-4.23293517755915e+001,-1.05873821638888e+001

2.63549125525621e+005,-4.23316650515010e+001,-1.07301941886443e+001

2.67228134217075e+005,-4.23340248596392e+001,-1.08748885980049e+001

2.70958499956006e+005,-4.23364320945588e+001,-1.10214905414772e+001

2.74740939660078e+005,-4.23388876766778e+001,-1.11700255407257e+001

2.78576180254757e+005,-4.23413925534525e+001,-1.13205194937048e+001

2.82464958813007e+005,-4.23439477005850e+001,-1.14729986786220e+001

2.86408022696948e+005,-4.23465541232626e+001,-1.16274897577195e+001

2.90406129701488e+005,-4.23492128574298e+001,-1.17840197808664e+001

2.94460048199957e+005,-4.23519249710909e+001,-1.19426161889488e+001

2.98570557291775e+005,-4.23546915656424e+001,-1.21033068170519e+001

3.02738446952187e+005,-4.23575137772344e+001,-1.22661198974223e+001

3.06964518184081e+005,-4.23603927781596e+001,-1.24310840622031e+001

3.11249583171928e+005,-4.23633297782680e+001,-1.25982283459348e+001

3.15594465437872e+005,-4.23663260264074e+001,-1.27675821878130e+001

3.19999999999997e+005,-4.23693828118874e+001,-1.29391754336967e+001

3.24467033532806e+005,-4.23725014659649e+001,-1.31130383378619e+001

3.28996424529938e+005,-4.23756833633515e+001,-1.32892015644921e+001

3.33589043469155e+005,-4.23789299237403e+001,-1.34676961889036e+001

3.38245772979638e+005,-4.23822426133498e+001,-1.36485536984983e+001

3.42967508011610e+005,-4.23856229464859e+001,-1.38318059934417e+001

3.47755156008335e+005,-4.23890724871178e+001,-1.40174853870611e+001

3.52609637080511e+005,-4.23925928504688e+001,-1.42056246059614e+001

3.57531884183106e+005,-4.23961857046184e+001,-1.43962567898568e+001

3.62522843294651e+005,-4.23998527721167e+001,-1.45894154911143e+001

3.67583473599047e+005,-4.24035958316073e+001,-1.47851346740091e+001

3.72714747669902e+005,-4.24074167194596e+001,-1.49834487136884e+001

3.77917651657445e+005,-4.24113173314074e+001,-1.51843923948462e+001

3.83193185478053e+005,-4.24152996241943e+001,-1.53880009101037e+001

3.88542363006410e+005,-4.24193656172227e+001,-1.55943098580986e+001

3.93966212270369e+005,-4.24235173942075e+001,-1.58033552412816e+001

3.99465775648511e+005,-4.24277571048318e+001,-1.60151734634195e+001

4.05042110070485e+005,-4.24320869664037e+001,-1.62298013268069e+001

4.10696287220124e+005,-4.24365092655147e+001,-1.64472760291841e+001

4.16429393741414e+005,-4.24410263596967e+001,-1.66676351603642e+001

4.22242531447321e+005,-4.24456406790779e+001,-1.68909166985662e+001

4.28136817531551e+005,-4.24503547280375e+001,-1.71171590064582e+001

4.34113384783250e+005,-4.24551710868560e+001,-1.73464008269072e+001

4.40173381804713e+005,-4.24600924133633e+001,-1.75786812784368e+001

4.46317973232124e+005,-4.24651214445816e+001,-1.78140398503928e+001

4.52548339959385e+005,-4.24702609983640e+001,-1.80525163978153e+001

4.58865679365059e+005,-4.24755139750269e+001,-1.82941511360163e+001

4.65271205542494e+005,-4.24808833589765e+001,-1.85389846348625e+001

4.71766149533147e+005,-4.24863722203289e+001,-1.87870578127605e+001

4.78351759563174e+005,-4.24919837165217e+001,-1.90384119303436e+001

4.85029301283321e+005,-4.24977210939189e+001,-1.92930885838568e+001

4.91800058012158e+005,-4.25035876894062e+001,-1.95511296982374e+001

4.98665330982714e+005,-4.25095869319782e+001,-1.98125775198896e+001

5.05626439592555e+005,-4.25157223443142e+001,-2.00774746091466e+001

5.12684721657352e+005,-4.25219975443452e+001,-2.03458638324185e+001

5.19841533667984e+005,-4.25284162468089e+001,-2.06177883540203e+001

5.27098251051240e+005,-4.25349822647921e+001,-2.08932916276762e+001

5.34456268434150e+005,-4.25416995112620e+001,-2.11724173876924e+001

5.41916999912011e+005,-4.25485720005818e+001,-2.14552096397965e+001

