Freq.,VOut,OutRef

1.00000000000000e+004,-5.44910450204883e+000,-9.89961790873130e-002

1.01395947979003e+004,-5.44910503058146e+000,-1.00377985106690e-001

1.02811382665607e+004,-5.44910557393747e+000,-1.01779074942891e-001

1.04246576084112e+004,-5.44910613253174e+000,-1.03199717555080e-001

1.05701804056138e+004,-5.44910670679041e+000,-1.04640185648348e-001

1.07177346253629e+004,-5.44910729715152e+000,-1.06100755724718e-001

1.08673486252606e+004,-5.44910790406535e+000,-1.07581708134988e-001

1.10190511587661e+004,-5.44910852799486e+000,-1.09083327131167e-001

1.11728713807222e+004,-5.44910916941555e+000,-1.10605900923829e-001

1.13288388529580e+004,-5.44910982881677e+000,-1.12149721730883e-001

1.14869835499703e+004,-5.44911050670057e+000,-1.13715085842608e-001

1.16473358646846e+004,-5.44911120358357e+000,-1.15302293667773e-001

1.18099266142953e+004,-5.44911191999656e+000,-1.16911649796969e-001

1.19747870461893e+004,-5.44911265648516e+000,-1.18543463056908e-001

1.21419488439505e+004,-5.44911341361003e+000,-1.20198046572096e-001

1.23114441334492e+004,-5.44911419194715e+000,-1.21875717823329e-001

1.24833054890161e+004,-5.44911499208898e+000,-1.23576798704561e-001

1.26575659397028e+004,-5.44911581464407e+000,-1.25301615588206e-001

1.28342589756290e+004,-5.44911666023770e+000,-1.27050499385815e-001

1.30134185544193e+004,-5.44911752951292e+000,-1.28823785607524e-001

1.31950791077289e+004,-5.44911842313018e+000,-1.30621814430402e-001

1.33792755478611e+004,-5.44911934176835e+000,-1.32444930759495e-001

1.35660432744767e+004,-5.44912028612510e+000,-1.34293484293899e-001

1.37554181813974e+004,-5.44912125691738e+000,-1.36167829592623e-001

1.39474366635040e+004,-5.44912225488176e+000,-1.38068326143094e-001

1.41421356237309e+004,-5.44912328077538e+000,-1.39995338426213e-001

1.43395524801583e+004,-5.44912433537617e+000,-1.41949235987292e-001

1.45397251732031e+004,-5.44912541948372e+000,-1.43930393503333e-001

1.47426921729110e+004,-5.44912653391921e+000,-1.45939190858891e-001

1.49484924863494e+004,-5.44912767952689e+000,-1.47976013210482e-001

1.51571656651040e+004,-5.44912885717410e+000,-1.50041251063745e-001

1.53687518128801e+004,-5.44913006775194e+000,-1.52135300346826e-001

1.55832915932100e+004,-5.44913131217633e+000,-1.54258562481373e-001

1.58008262372675e+004,-5.44913259138801e+000,-1.56411444462542e-001

1.60213975517924e+004,-5.44913390635388e+000,-1.58594358931665e-001

1.62450479271247e+004,-5.44913525806716e+000,-1.60807724255869e-001

1.64718203453514e+004,-5.44913664754836e+000,-1.63051964606449e-001

1.67017583885674e+004,-5.44913807584580e+000,-1.65327510037883e-001

1.69349062472505e+004,-5.44913954403717e+000,-1.67634796564629e-001

1.71713087287550e+004,-5.44914105322892e+000,-1.69974266251464e-001

1.74110112659224e+004,-5.44914260455798e+000,-1.72346367288398e-001

1.76540599258131e+004,-5.44914419919270e+000,-1.74751554076083e-001

1.79005014185594e+004,-5.44914583833291e+000,-1.77190287313556e-001

1.81503831063432e+004,-5.44914752321123e+000,-1.79663034082245e-001

1.84037530124975e+004,-5.44914925509424e+000,-1.82170267930390e-001

1.86606598307361e+004,-5.44915103528273e+000,-1.84712468966431e-001

1.89211529345119e+004,-5.44915286511270e+000,-1.87290123945935e-001

1.91852823865052e+004,-5.44915474595713e+000,-1.89903726359034e-001

1.94530989482457e+004,-5.44915667922555e+000,-1.92553776528086e-001

1.97246540898671e+004,-5.44915866636637e+000,-1.95240781695398e-001

1.99999999999999e+004,-5.44916070886668e+000,-1.97965256121275e-001

2.02791895958005e+004,-5.44916280825427e+000,-2.00727721175827e-001

2.05622765331213e+004,-5.44916496609825e+000,-2.03528705436123e-001

2.08493152168224e+004,-5.44916718400978e+000,-2.06368744787462e-001

2.11403608112276e+004,-5.44916946364399e+000,-2.09248382516148e-001

2.14354692507258e+004,-5.44917180670014e+000,-2.12168169416417e-001

2.17346972505211e+004,-5.44917421492368e+000,-2.15128663885859e-001

2.20381023175322e+004,-5.44917669010665e+000,-2.18130432033146e-001

2.23457427614443e+004,-5.44917923408941e+000,-2.21174047778089e-001

2.26576777059159e+004,-5.44918184876160e+000,-2.24260092960173e-001

2.29739670999406e+004,-5.44918453606374e+000,-2.27389157441934e-001

2.32946717293690e+004,-5.44918729798785e+000,-2.30561839221218e-001

2.36198532285905e+004,-5.44919013657937e+000,-2.33778744537237e-001

2.39495740923785e+004,-5.44919305393814e+000,-2.37040487983159e-001

2.42838976879009e+004,-5.44919605222022e+000,-2.40347692615248e-001

2.46228882668982e+004,-5.44919913363884e+000,-2.43700990069729e-001

2.49666109780322e+004,-5.44920230046557e+000,-2.47101020678647e-001

2.53151318794055e+004,-5.44920555503292e+000,-2.50548433579966e-001

2.56685179512580e+004,-5.44920889973449e+000,-2.54043886842267e-001

2.60268371088386e+004,-5.44921233702737e+000,-2.57588047579972e-001

2.63901582154578e+004,-5.44921586943330e+000,-2.61181592074935e-001

2.67585510957221e+004,-5.44921949954023e+000,-2.64825205899302e-001

2.71320865489533e+004,-5.44922323000433e+000,-2.68519584036762e-001

2.75108363627948e+004,-5.44922706355133e+000,-2.72265431009406e-001

2.78948733270080e+004,-5.44923100297784e+000,-2.76063461005697e-001

2.82842712474618e+004,-5.44923505115376e+000,-2.79914398005251e-001

2.86791049603164e+004,-5.44923921102376e+000,-2.83818975908922e-001

2.90794503464061e+004,-5.44924348560873e+000,-2.87777938672749e-001

2.94853843458219e+004,-5.44924787800784e+000,-2.91792040438062e-001

2.98969849726987e+004,-5.44925239140054e+000,-2.95862045665392e-001

3.03143313302078e+004,-5.44925702904825e+000,-2.99988729271172e-001

3.07375036257601e+004,-5.44926179429588e+000,-3.04172876766555e-001

3.11665831864199e+004,-5.44926669057450e+000,-3.08415284392588e-001

3.16016524745350e+004,-5.44927172140276e+000,-3.12716759263741e-001

3.20427951035848e+004,-5.44927689038905e+000,-3.17078119508577e-001

3.24900958542493e+004,-5.44928220123347e+000,-3.21500194414421e-001

3.29436406907028e+004,-5.44928765772986e+000,-3.25983824572098e-001

3.34035167771346e+004,-5.44929326376808e+000,-3.30529862021977e-001

3.38698124945009e+004,-5.44929902333571e+000,-3.35139170404962e-001

3.43426174575100e+004,-5.44930494052049e+000,-3.39812625111040e-001

3.48220225318448e+004,-5.44931101951241e+000,-3.44551113430973e-001

3.53081198516260e+004,-5.44931726460606e+000,-3.49355534709784e-001

3.58010028371187e+004,-5.44932368020212e+000,-3.54226800505444e-001

3.63007662126863e+004,-5.44933027081078e+000,-3.59165834739354e-001

3.68075060249948e+004,-5.44933704105273e+000,-3.64173573862526e-001

3.73213196614721e+004,-5.44934399566235e+000,-3.69250967009635e-001

3.78423058690237e+004,-5.44935113948953e+000,-3.74398976164538e-001

3.83705647730104e+004,-5.44935847750220e+000,-3.79618576323197e-001

3.89061978964912e+004,-5.44936601478838e+000,-3.84910755659505e-001

3.94493081797342e+004,-5.44937375655891e+000,-3.90276515691230e-001

3.99999999999998e+004,-5.44938170814939e+000,-3.95716871451093e-001

4.05583791916010e+004,-5.44938987502275e+000,-4.01232851656079e-001

4.11245530662425e+004,-5.44939826277137e+000,-4.06825498881412e-001

4.16986304336447e+004,-5.44940687711987e+000,-4.12495869732537e-001

4.22807216224550e+004,-5.44941572392726e+000,-4.18245035021166e-001

4.28709385014515e+004,-5.44942480918874e+000,-4.24074079948320e-001

4.34693945010421e+004,-5.44943413903908e+000,-4.29984104276553e-001

4.40762046350642e+004,-5.44944371975406e+000,-4.35976222515978e-001

4.46914855228886e+004,-5.44945355775328e+000,-4.42051564105995e-001

4.53153554118317e+004,-5.44946365960222e+000,-4.48211273600733e-001

4.59479341998812e+004,-5.44947403201470e+000,-4.54456510854820e-001

4.65893434587380e+004,-5.44948468185470e+000,-4.60788451214469e-001

4.72397064571810e+004,-5.44949561613907e+000,-4.67208285705157e-001

4.78991481847569e+004,-5.44950684203960e+000,-4.73717221224053e-001

4.85677953758016e+004,-5.44951836688473e+000,-4.80316480736377e-001

4.92457765337964e+004,-5.44953019816202e+000,-4.87007303469663e-001

4.99332219560642e+004,-5.44954234352004e+000,-4.93790945110961e-001

5.06302637588109e+004,-5.44955481077020e+000,-5.00668678008178e-001

5.13370359025159e+004,-5.44956760788878e+000,-5.07641791370392e-001

5.20536742176771e+004,-5.44958074301847e+000,-5.14711591471747e-001

5.27803164309155e+004,-5.44959422447035e+000,-5.21879401855506e-001

5.35171021914442e+004,-5.44960806072518e+000,-5.29146563543542e-001

5.42641730979066e+004,-5.44962226043511e+000,-5.36514435243184e-001

5.50216727255895e+004,-5.44963683242484e+000,-5.43984393559452e-001

5.57897466540159e+004,-5.44965178569307e+000,-5.51557833207260e-001

5.65685424949235e+004,-5.44966712941340e+000,-5.59236167226496e-001

5.73582099206328e+004,-5.44968287293508e+000,-5.67020827200445e-001

5.81589006928121e+004,-5.44969902578440e+000,-5.74913263471565e-001

5.89707686916437e+004,-5.44971559766465e+000,-5.82914945364750e-001

5.97939699453972e+004,-5.44973259845681e+000,-5.91027361409909e-001

6.06286626604156e+004,-5.44975003821965e+000,-5.99252019566331e-001

6.14750072515201e+004,-5.44976792718988e+000,-6.07590447449543e-001

6.23331663728396e+004,-5.44978627578170e+000,-6.16044192562137e-001

6.32033049490698e+004,-5.44980509458645e+000,-6.24614822522600e-001

6.40855902071694e+004,-5.44982439437158e+000,-6.33303925301846e-001

6.49801917084985e+004,-5.44984418608011e+000,-6.42113109455865e-001

6.58872813814055e+004,-5.44986448082869e+000,-6.51044004366777e-001

6.68070335542691e+004,-5.44988528990632e+000,-6.60098260481685e-001

6.77396249890018e+004,-5.44990662477232e+000,-6.69277549554585e-001

6.86852349150199e+004,-5.44992849705382e+000,-6.78583564893935e-001

6.96440450636895e+004,-5.44995091854310e+000,-6.88018021608809e-001

7.06162397032520e+004,-5.44997390119450e+000,-6.97582656859752e-001

7.16020056742374e+004,-5.44999745712076e+000,-7.07279230112386e-001

7.26015324253724e+004,-5.45002159858914e+000,-7.17109523391605e-001

7.36150120499896e+004,-5.45004633801688e+000,-7.27075341542039e-001

7.46426393229441e+004,-5.45007168796641e+000,-7.37178512487343e-001

7.56846117380472e+004,-5.45009766113956e+000,-7.47420887497458e-001

7.67411295460207e+004,-5.45012427037191e+000,-7.57804341453904e-001

7.78123957929823e+004,-5.45015152862595e+000,-7.68330773122157e-001

7.88986163594682e+004,-5.45017944898412e+000,-7.79002105425140e-001

7.99999999999995e+004,-5.45020804464097e+000,-7.89820285720924e-001

8.11167583832018e+004,-5.45023732889456e+000,-8.00787286085746e-001

8.22491061324848e+004,-5.45026731513749e+000,-8.11905103598041e-001

8.33972608672892e+004,-5.45029801684745e+000,-8.23175760626505e-001

8.45614432449099e+004,-5.45032944757589e+000,-8.34601305127074e-001

8.57418770029029e+004,-5.45036162093748e+000,-8.46183810937347e-001

8.69387890020841e+004,-5.45039455059754e+000,-8.57925378081445e-001

8.81524092701283e+004,-5.45042825025953e+000,-8.69828133074556e-001

8.93829710457770e+004,-5.45046273365086e+000,-8.81894229238751e-001

9.06307108236633e+004,-5.45049801450856e+000,-8.94125847017516e-001

9.18958683997622e+004,-5.45053410656362e+000,-9.06525194300130e-001

9.31786869174758e+004,-5.45057102352447e+000,-9.19094506750548e-001

9.44794129143618e+004,-5.45060877905977e+000,-9.31836048140870e-001

9.57982963695136e+004,-5.45064738677956e+000,-9.44752110695095e-001

9.71355907516031e+004,-5.45068686021606e+000,-9.57845015435151e-001

9.84915530675926e+004,-5.45072721280301e+000,-9.71117112537246e-001

9.98664439121282e+004,-5.45076845785423e+000,-9.84570781693323e-001

1.01260527517622e+005,-5.45081060854083e+000,-9.98208432481504e-001

1.02674071805032e+005,-5.45085367786704e+000,-1.01203250474639e+000

1.04107348435354e+005,-5.45089767864560e+000,-1.02604546898411e+000

1.05560632861831e+005,-5.45094262347170e+000,-1.04024982673756e+000

1.07034204382888e+005,-5.45098852469493e+000,-1.05464811100623e+000

1.08528346195813e+005,-5.45103539439145e+000,-1.06924288665627e+000

1.10043345451179e+005,-5.45108324433371e+000,-1.08403675084989e+000

1.11579493308032e+005,-5.45113208595942e+000,-1.09903233348204e+000

1.13137084989847e+005,-5.45118193033922e+000,-1.11423229762745e+000

1.14716419841265e+005,-5.45123278814346e+000,-1.12963933999979e+000

1.16317801385624e+005,-5.45128466960670e+000,-1.14525619142752e+000

1.17941537383287e+005,-5.45133758449193e+000,-1.16108561733726e+000

1.19587939890794e+005,-5.45139154205321e+000,-1.17713041825331e+000

1.21257325320831e+005,-5.45144655099676e+000,-1.19339343031195e+000

1.22950014503040e+005,-5.45150261944109e+000,-1.20987752579031e+000

1.24666332745679e+005,-5.45155975487583e+000,-1.22658561364929e+000

1.26406609898139e+005,-5.45161796411926e+000,-1.24352064009447e+000

1.28171180414339e+005,-5.45167725327478e+000,-1.26068558915196e+000

1.29960383416997e+005,-5.45173762768587e+000,-1.27808348326449e+000

1.31774562762811e+005,-5.45179909189017e+000,-1.29571738390218e+000

1.33614067108538e+005,-5.45186164957252e+000,-1.31359039219435e+000

1.35479249978003e+005,-5.45192530351675e+000,-1.33170564957917e+000

1.37370469830040e+005,-5.45199005555624e+000,-1.35006633847581e+000

1.39288090127379e+005,-5.45205590652415e+000,-1.36867568297429e+000

1.41232479406504e+005,-5.45212285620212e+000,-1.38753694954784e+000

1.43204011348474e+005,-5.45219090326824e+000,-1.40665344778980e+000

1.45203064850745e+005,-5.45226004524468e+000,-1.42602853116805e+000

1.47230024099979e+005,-5.45233027844411e+000,-1.44566559780784e+000

1.49285278645888e+005,-5.45240159791582e+000,-1.46556809129449e+000

1.51369223476094e+005,-5.45247399739098e+000,-1.48573950150461e+000

1.53482259092041e+005,-5.45254746922817e+000,-1.50618336545780e+000

1.55624791585964e+005,-5.45262200435766e+000,-1.52690326819801e+000

1.57797232718936e+005,-5.45269759222642e+000,-1.54790284369830e+000

1.59999999999999e+005,-5.45277422074247e+000,-1.56918577579255e+000

1.62233516766403e+005,-5.45285187621920e+000,-1.59075579913649e+000

1.64498212264969e+005,-5.45293054332041e+000,-1.61261670019289e+000

1.66794521734578e+005,-5.45301020500510e+000,-1.63477231824535e+000

1.69122886489819e+005,-5.45309084247302e+000,-1.65722654644184e+000

1.71483754005805e+005,-5.45317243511054e+000,-1.67998333286484e+000

1.73877578004168e+005,-5.45325496043767e+000,-1.70304668162923e+000

1.76304818540256e+005,-5.45333839405543e+000,-1.72642065401086e+000

1.78765942091554e+005,-5.45342270959452e+000,-1.75010936960197e+000

1.81261421647326e+005,-5.45350787866545e+000,-1.77411700749526e+000

1.83791736799524e+005,-5.45359387080934e+000,-1.79844780749753e+000

1.86357373834951e+005,-5.45368065345090e+000,-1.82310607137049e+000

1.88958825828723e+005,-5.45376819185263e+000,-1.84809616410050e+000

1.91596592739027e+005,-5.45385644907090e+000,-1.87342251519523e+000

1.94271181503206e+005,-5.45394538591429e+000,-1.89908962000791e+000

1.96983106135185e+005,-5.45403496090359e+000,-1.92510204108921e+000

1.99732887824256e+005,-5.45412513023448e+000,-1.95146440956468e+000

2.02521055035243e+005,-5.45421584774234e+000,-1.97818142653773e+000

2.05348143610063e+005,-5.45430706486968e+000,-2.00525786451852e+000

2.08214696870707e+005,-5.45439873063630e+000,-2.03269856887685e+000

2.11121265723661e+005,-5.45449079161240e+000,-2.06050845931642e+000

2.14068408765776e+005,-5.45458319189397e+000,-2.08869253137579e+000

2.17056692391625e+005,-5.45467587308217e+000,-2.11725585794534e+000

2.20086690902357e+005,-5.45476877426494e+000,-2.14620359080929e+000

2.23158986616063e+005,-5.45486183200206e+000,-2.17554096220488e+000

2.26274169979693e+005,-5.45495498031400e+000,-2.20527328639814e+000

2.29432839682530e+005,-5.45504815067328e+000,-2.23540596127845e+000

2.32635602771247e+005,-5.45514127199946e+000,-2.26594446996881e+000

2.35883074766574e+005,-5.45523427065778e+000,-2.29689438244779e+000

2.39175879781588e+005,-5.45532707046086e+000,-2.32826135718629e+000

2.42514650641661e+005,-5.45541959267379e+000,-2.36005114279479e+000

2.45900029006080e+005,-5.45551175602274e+000,-2.39226957967995e+000

2.49332665491357e+005,-5.45560347670660e+000,-2.42492260171058e+000

2.52813219796278e+005,-5.45569466841194e+000,-2.45801623789077e+000

2.56342360828676e+005,-5.45578524233122e+000,-2.49155661403687e+000

2.59920766833993e+005,-5.45587510718390e+000,-2.52554995445982e+000

2.63549125525621e+005,-5.45596416924055e+000,-2.56000258365058e+000

2.67228134217075e+005,-5.45605233234939e+000,-2.59492092796669e+000

2.70958499956006e+005,-5.45613949796600e+000,-2.63031151731791e+000

2.74740939660078e+005,-5.45622556518498e+000,-2.66618098685240e+000

2.78576180254757e+005,-5.45631043077406e+000,-2.70253607863928e+000

2.82464958813007e+005,-5.45639398921010e+000,-2.73938364334903e+000

2.86408022696948e+005,-5.45647613271689e+000,-2.77673064192867e+000

2.90406129701488e+005,-5.45655675130452e+000,-2.81458414727180e+000

2.94460048199957e+005,-5.45663573281019e+000,-2.85295134588223e+000

2.98570557291775e+005,-5.45671296293943e+000,-2.89183953953270e+000

3.02738446952187e+005,-5.45678832530889e+000,-2.93125614691324e+000

3.06964518184081e+005,-5.45686170148854e+000,-2.97120870527477e+000

3.11249583171928e+005,-5.45693297104480e+000,-3.01170487206262e+000

3.15594465437872e+005,-5.45700201158309e+000,-3.05275242654281e+000

3.19999999999997e+005,-5.45706869878977e+000,-3.09435927141880e+000

3.24467033532806e+005,-5.45713290647337e+000,-3.13653343444178e+000

3.28996424529938e+005,-5.45719450660444e+000,-3.17928307001204e+000

3.33589043469155e+005,-5.45725336935413e+000,-3.22261646077184e+000

3.38245772979638e+005,-5.45730936313039e+000,-3.26654201919439e+000

3.42967508011610e+005,-5.45736235461260e+000,-3.31106828916229e+000

3.47755156008335e+005,-5.45741220878320e+000,-3.35620394754314e+000

3.52609637080511e+005,-5.45745878895652e+000,-3.40195780576129e+000

3.57531884183106e+005,-5.45750195680463e+000,-3.44833881136316e+000

3.62522843294651e+005,-5.45754157237932e+000,-3.49535604958395e+000

3.67583473599047e+005,-5.45757749413069e+000,-3.54301874491071e+000

3.72714747669902e+005,-5.45760957892141e+000,-3.59133626264763e+000

3.77917651657445e+005,-5.45763768203654e+000,-3.64031811048366e+000

3.83193185478053e+005,-5.45766165718883e+000,-3.68997394006342e+000

3.88542363006410e+005,-5.45768135651920e+000,-3.74031354856451e+000

3.93966212270369e+005,-5.45769663059160e+000,-3.79134688028341e+000

3.99465775648511e+005,-5.45770732838331e+000,-3.84308402822911e+000

4.05042110070485e+005,-5.45771329726887e+000,-3.89553523573078e+000

4.10696287220124e+005,-5.45771438299857e+000,-3.94871089805884e+000

4.16429393741414e+005,-5.45771042967111e+000,-4.00262156406146e+000

4.22242531447321e+005,-5.45770127969983e+000,-4.05727793782103e+000

4.28136817531551e+005,-5.45768677377306e+000,-4.11269088032997e+000

4.34113384783250e+005,-5.45766675080752e+000,-4.16887141119160e+000

4.40173381804713e+005,-5.45764104789605e+000,-4.22583071034349e+000

4.46317973232124e+005,-5.45760950024780e+000,-4.28358011981273e+000

4.52548339959385e+005,-5.45757194112265e+000,-4.34213114549728e+000

4.58865679365059e+005,-5.45752820175804e+000,-4.40149545898383e+000

4.65271205542494e+005,-5.45747811128994e+000,-4.46168489939632e+000

4.71766149533147e+005,-5.45742149666617e+000,-4.52271147528614e+000

4.78351759563174e+005,-5.45735818255344e+000,-4.58458736655875e+000

4.85029301283321e+005,-5.45728799123732e+000,-4.64732492644303e+000

4.91800058012158e+005,-5.45721074251560e+000,-4.71093668350482e+000

4.98665330982714e+005,-5.45712625358440e+000,-4.77543534370739e+000

5.05626439592555e+005,-5.45703433891808e+000,-4.84083379251888e+000

5.12684721657352e+005,-5.45693481014202e+000,-4.90714509707081e+000

5.19841533667984e+005,-5.45682747589875e+000,-4.97438250836984e+000

5.27098251051240e+005,-5.45671214170751e+000,-5.04255946356315e+000

5.34456268434150e+005,-5.45658860981724e+000,-5.11168958826033e+000

5.41916999912011e+005,-5.45645667905283e+000,-5.18178669891416e+000

