Freq.,VOut,OutRef

1.00000000000000e+004,-1.06373039261804e+000,-1.07362267512170e-001

1.01395947979003e+004,-1.06373040268771e+000,-1.08860980286925e-001

1.02811382665607e+004,-1.06373041303779e+000,-1.10380613947823e-001

1.04246576084112e+004,-1.06373042367656e+000,-1.11921460521231e-001

1.05701804056138e+004,-1.06373043461158e+000,-1.13483816114456e-001

1.07177346253629e+004,-1.06373044585107e+000,-1.15067980965141e-001

1.08673486252606e+004,-1.06373045740368e+000,-1.16674259500200e-001

1.10190511587661e+004,-1.06373046927778e+000,-1.18302960398214e-001

1.11728713807222e+004,-1.06373048148231e+000,-1.19954396644615e-001

1.13288388529580e+004,-1.06373049402648e+000,-1.21628885591943e-001

1.14869835499703e+004,-1.06373050691939e+000,-1.23326749024859e-001

1.16473358646846e+004,-1.06373052017097e+000,-1.25048313215441e-001

1.18099266142953e+004,-1.06373053379071e+000,-1.26793908993757e-001

1.19747870461893e+004,-1.06373054778901e+000,-1.28563871802706e-001

1.21419488439505e+004,-1.06373056217608e+000,-1.30358541770479e-001

1.23114441334492e+004,-1.06373057696270e+000,-1.32178263769544e-001

1.24833054890161e+004,-1.06373059215967e+000,-1.34023387487927e-001

1.26575659397028e+004,-1.06373060777838e+000,-1.35894267491605e-001

1.28342589756290e+004,-1.06373062383038e+000,-1.37791263295966e-001

1.30134185544193e+004,-1.06373064032729e+000,-1.39714739435442e-001

1.31950791077289e+004,-1.06373065728156e+000,-1.41665065528579e-001

1.33792755478611e+004,-1.06373067470543e+000,-1.43642616355682e-001

1.35660432744767e+004,-1.06373069261182e+000,-1.45647771925144e-001

1.37554181813974e+004,-1.06373071101397e+000,-1.47680917548904e-001

1.39474366635040e+004,-1.06373072992522e+000,-1.49742443917272e-001

1.41421356237309e+004,-1.06373074935951e+000,-1.51832747171637e-001

1.43395524801583e+004,-1.06373076933099e+000,-1.53952228982901e-001

1.45397251732031e+004,-1.06373078985416e+000,-1.56101296627078e-001

1.47426921729110e+004,-1.06373081094428e+000,-1.58280363061264e-001

1.49484924863494e+004,-1.06373083261635e+000,-1.60489847010237e-001

1.51571656651040e+004,-1.06373085488641e+000,-1.62730173037213e-001

1.53687518128801e+004,-1.06373087777051e+000,-1.65001771633161e-001

1.55832915932100e+004,-1.06373090128513e+000,-1.67305079295819e-001

1.58008262372675e+004,-1.06373092544737e+000,-1.69640538613098e-001

1.60213975517924e+004,-1.06373095027471e+000,-1.72008598349663e-001

1.62450479271247e+004,-1.06373097578489e+000,-1.74409713532909e-001

1.64718203453514e+004,-1.06373100199650e+000,-1.76844345537500e-001

1.67017583885674e+004,-1.06373102892798e+000,-1.79312962179865e-001

1.69349062472505e+004,-1.06373105659895e+000,-1.81816037800090e-001

1.71713087287550e+004,-1.06373108502912e+000,-1.84354053359704e-001

1.74110112659224e+004,-1.06373111423873e+000,-1.86927496530514e-001

1.76540599258131e+004,-1.06373114424850e+000,-1.89536861789515e-001

1.79005014185594e+004,-1.06373117507990e+000,-1.92182650512068e-001

1.81503831063432e+004,-1.06373120675461e+000,-1.94865371070488e-001

1.84037530124975e+004,-1.06373123929513e+000,-1.97585538929395e-001

1.86606598307361e+004,-1.06373127272435e+000,-2.00343676746062e-001

1.89211529345119e+004,-1.06373130706564e+000,-2.03140314470547e-001

1.91852823865052e+004,-1.06373134234330e+000,-2.05975989444921e-001

1.94530989482457e+004,-1.06373137858181e+000,-2.08851246510852e-001

1.97246540898671e+004,-1.06373141580656e+000,-2.11766638109456e-001

1.99999999999999e+004,-1.06373145404353e+000,-2.14722724389919e-001

2.02791895958005e+004,-1.06373149331881e+000,-2.17720073318342e-001

2.05622765331213e+004,-1.06373153366004e+000,-2.20759260780581e-001

2.08493152168224e+004,-1.06373157509469e+000,-2.23840870700238e-001

2.11403608112276e+004,-1.06373161765120e+000,-2.26965495146123e-001

2.14354692507258e+004,-1.06373166135888e+000,-2.30133734445119e-001

2.17346972505211e+004,-1.06373170624732e+000,-2.33346197301433e-001

2.20381023175322e+004,-1.06373175234717e+000,-2.36603500908307e-001

2.23457427614443e+004,-1.06373179968943e+000,-2.39906271070905e-001

2.26576777059159e+004,-1.06373184830617e+000,-2.43255142321957e-001

2.29739670999406e+004,-1.06373189822987e+000,-2.46650758047433e-001

2.32946717293690e+004,-1.06373194949403e+000,-2.50093770606051e-001

2.36198532285905e+004,-1.06373200213268e+000,-2.53584841457337e-001

2.39495740923785e+004,-1.06373205618074e+000,-2.57124641286805e-001

2.42838976879009e+004,-1.06373211167386e+000,-2.60713850134277e-001

2.46228882668982e+004,-1.06373216864838e+000,-2.64353157525714e-001

2.49666109780322e+004,-1.06373222714153e+000,-2.68043262603313e-001

2.53151318794055e+004,-1.06373228719136e+000,-2.71784874260632e-001

2.56685179512580e+004,-1.06373234883660e+000,-2.75578711278047e-001

2.60268371088386e+004,-1.06373241211697e+000,-2.79425502460237e-001

2.63901582154578e+004,-1.06373247707280e+000,-2.83325986776533e-001

2.67585510957221e+004,-1.06373254374541e+000,-2.87280913501424e-001

2.71320865489533e+004,-1.06373261217689e+000,-2.91291042357978e-001

2.75108363627948e+004,-1.06373268241008e+000,-2.95357143664838e-001

2.78948733270080e+004,-1.06373275448888e+000,-2.99479998481261e-001

2.82842712474618e+004,-1.06373282845794e+000,-3.03660398758026e-001

2.86791049603164e+004,-1.06373290436254e+000,-3.07899147490134e-001

2.90794503464061e+004,-1.06373298224913e+000,-3.12197058867831e-001

2.94853843458219e+004,-1.06373306216480e+000,-3.16554958434579e-001

2.98969849726987e+004,-1.06373314415768e+000,-3.20973683242676e-001

3.03143313302078e+004,-1.06373322827644e+000,-3.25454082017587e-001

3.07375036257601e+004,-1.06373331457093e+000,-3.29997015314425e-001

3.11665831864199e+004,-1.06373340309170e+000,-3.34603355687628e-001

3.16016524745350e+004,-1.06373349388999e+000,-3.39273987855699e-001

3.20427951035848e+004,-1.06373358701797e+000,-3.44009808870262e-001

3.24900958542493e+004,-1.06373368252868e+000,-3.48811728287251e-001

3.29436406907028e+004,-1.06373378047586e+000,-3.53680668342190e-001

3.34035167771346e+004,-1.06373388091412e+000,-3.58617564124730e-001

3.38698124945009e+004,-1.06373398389872e+000,-3.63623363759102e-001

3.43426174575100e+004,-1.06373408948567e+000,-3.68699028584179e-001

3.48220225318448e+004,-1.06373419773176e+000,-3.73845533337154e-001

3.53081198516260e+004,-1.06373430869453e+000,-3.79063866339265e-001

3.58010028371187e+004,-1.06373442243187e+000,-3.84355029687251e-001

3.63007662126863e+004,-1.06373453900266e+000,-3.89720039440603e-001

3.68075060249948e+004,-1.06373465846607e+000,-3.95159925819571e-001

3.73213196614721e+004,-1.06373478088201e+000,-4.00675733398124e-001

3.78423058690237e+004,-1.06373490631084e+000,-4.06268521306421e-001

3.83705647730104e+004,-1.06373503481323e+000,-4.11939363431962e-001

3.89061978964912e+004,-1.06373516645054e+000,-4.17689348622938e-001

3.94493081797342e+004,-1.06373530128399e+000,-4.23519580899445e-001

3.99999999999998e+004,-1.06373543937553e+000,-4.29431179659875e-001

4.05583791916010e+004,-1.06373558078717e+000,-4.35425279897059e-001

4.11245530662425e+004,-1.06373572558071e+000,-4.41503032416166e-001

4.16986304336447e+004,-1.06373587381840e+000,-4.47665604049639e-001

4.22807216224550e+004,-1.06373602556227e+000,-4.53914177883230e-001

4.28709385014515e+004,-1.06373618087414e+000,-4.60249953480761e-001

4.34693945010421e+004,-1.06373633981549e+000,-4.66674147112622e-001

4.40762046350642e+004,-1.06373650244772e+000,-4.73187991985914e-001

4.46914855228886e+004,-1.06373666883144e+000,-4.79792738482160e-001

4.53153554118317e+004,-1.06373683902661e+000,-4.86489654394376e-001

4.59479341998812e+004,-1.06373701309256e+000,-4.93280025167372e-001

4.65893434587380e+004,-1.06373719108757e+000,-5.00165154144181e-001

4.72397064571810e+004,-1.06373737306897e+000,-5.07146362812099e-001

4.78991481847569e+004,-1.06373755909265e+000,-5.14224991057211e-001

4.85677953758016e+004,-1.06373774921296e+000,-5.21402397417517e-001

4.92457765337964e+004,-1.06373794348292e+000,-5.28679959339933e-001

4.99332219560642e+004,-1.06373814195328e+000,-5.36059073446566e-001

5.06302637588109e+004,-1.06373834467291e+000,-5.43541155795944e-001

5.13370359025159e+004,-1.06373855168820e+000,-5.51127642155440e-001

5.20536742176771e+004,-1.06373876304303e+000,-5.58819988271658e-001

5.27803164309155e+004,-1.06373897877843e+000,-5.66619670149478e-001

5.35171021914442e+004,-1.06373919893192e+000,-5.74528184332044e-001

5.42641730979066e+004,-1.06373942353795e+000,-5.82547048183329e-001

5.50216727255895e+004,-1.06373965262676e+000,-5.90677800179480e-001

5.57897466540159e+004,-1.06373988622461e+000,-5.98922000198592e-001

5.65685424949235e+004,-1.06374012435316e+000,-6.07281229817476e-001

5.73582099206328e+004,-1.06374036702897e+000,-6.15757092613333e-001

5.81589006928121e+004,-1.06374061426340e+000,-6.24351214466581e-001

5.89707686916437e+004,-1.06374086606183e+000,-6.33065243870174e-001

5.97939699453972e+004,-1.06374112242330e+000,-6.41900852243032e-001

6.06286626604156e+004,-1.06374138334016e+000,-6.50859734245758e-001

6.14750072515201e+004,-1.06374164879725e+000,-6.59943608104167e-001

6.23331663728396e+004,-1.06374191877159e+000,-6.69154215932963e-001

6.32033049490698e+004,-1.06374219323163e+000,-6.78493324068730e-001

6.40855902071694e+004,-1.06374247213675e+000,-6.87962723402427e-001

6.49801917084985e+004,-1.06374275543635e+000,-6.97564229721017e-001

6.58872813814055e+004,-1.06374304306948e+000,-7.07299684050687e-001

6.68070335542691e+004,-1.06374333496386e+000,-7.17170953005652e-001

6.77396249890018e+004,-1.06374363103521e+000,-7.27179929143262e-001

6.86852349150199e+004,-1.06374393118628e+000,-7.37328531321413e-001

6.96440450636895e+004,-1.06374423530616e+000,-7.47618705063080e-001

7.06162397032520e+004,-1.06374454326935e+000,-7.58052422924077e-001

7.16020056742374e+004,-1.06374485493459e+000,-7.68631684868493e-001

7.26015324253724e+004,-1.06374517014411e+000,-7.79358518645463e-001

7.36150120499896e+004,-1.06374548872241e+000,-7.90234980175366e-001

7.46426393229441e+004,-1.06374581047517e+000,-8.01263153938182e-001

7.56846117380472e+004,-1.06374613518800e+000,-8.12445153369326e-001

7.67411295460207e+004,-1.06374646262545e+000,-8.23783121258501e-001

7.78123957929823e+004,-1.06374679252947e+000,-8.35279230157308e-001

7.88986163594682e+004,-1.06374712461795e+000,-8.46935682790967e-001

7.99999999999995e+004,-1.06374745858373e+000,-8.58754712473741e-001

8.11167583832018e+004,-1.06374779409262e+000,-8.70738583534196e-001

8.22491061324848e+004,-1.06374813078215e+000,-8.82889591743103e-001

8.33972608672892e+004,-1.06374846825967e+000,-8.95210064749718e-001

8.45614432449099e+004,-1.06374880610090e+000,-9.07702362521327e-001

8.57418770029029e+004,-1.06374914384797e+000,-9.20368877791650e-001

8.69387890020841e+004,-1.06374948100747e+000,-9.33212036514847e-001

8.81524092701283e+004,-1.06374981704860e+000,-9.46234298324750e-001

8.93829710457770e+004,-1.06375015140110e+000,-9.59438157001826e-001

9.06307108236633e+004,-1.06375048345307e+000,-9.72826140945781e-001

9.18958683997622e+004,-1.06375081254864e+000,-9.86400813656565e-001

9.31786869174758e+004,-1.06375113798578e+000,-1.00016477421990e+000

9.44794129143618e+004,-1.06375145901377e+000,-1.01412065780050e+000

9.57982963695136e+004,-1.06375177483055e+000,-1.02827113614482e+000

9.71355907516031e+004,-1.06375208458040e+000,-1.04261891808529e+000

9.84915530675926e+004,-1.06375238735076e+000,-1.05716675005836e+000

9.98664439121282e+004,-1.06375268216962e+000,-1.07191741662524e+000

1.01260527517622e+005,-1.06375296800249e+000,-1.08687374100197e+000

1.02674071805032e+005,-1.06375324374915e+000,-1.10203858559690e+000

1.04107348435354e+005,-1.06375350824064e+000,-1.11741485255617e+000

1.05560632861831e+005,-1.06375376023576e+000,-1.13300548431614e+000

1.07034204382888e+005,-1.06375399841769e+000,-1.14881346416463e+000

1.08528346195813e+005,-1.06375422139018e+000,-1.16484181681099e+000

1.10043345451179e+005,-1.06375442767418e+000,-1.18109360896168e+000

1.11579493308032e+005,-1.06375461570357e+000,-1.19757194990868e+000

1.13137084989847e+005,-1.06375478382143e+000,-1.21427999212151e+000

1.14716419841265e+005,-1.06375493027582e+000,-1.23122093185211e+000

1.16317801385624e+005,-1.06375505321544e+000,-1.24839800974624e+000

1.17941537383287e+005,-1.06375515068536e+000,-1.26581451146427e+000

1.19587939890794e+005,-1.06375522062227e+000,-1.28347376831225e+000

1.21257325320831e+005,-1.06375526084990e+000,-1.30137915788084e+000

1.22950014503040e+005,-1.06375526907418e+000,-1.31953410469395e+000

1.24666332745679e+005,-1.06375524287813e+000,-1.33794208086895e+000

1.26406609898139e+005,-1.06375517971694e+000,-1.35660660678288e+000

1.28171180414339e+005,-1.06375507691237e+000,-1.37553125175336e+000

1.29960383416997e+005,-1.06375493164763e+000,-1.39471963472543e+000

1.31774562762811e+005,-1.06375474096168e+000,-1.41417542497096e+000

1.33614067108538e+005,-1.06375450174341e+000,-1.43390234279907e+000

1.35479249978003e+005,-1.06375421072591e+000,-1.45390416027424e+000

1.37370469830040e+005,-1.06375386448048e+000,-1.47418470194940e+000

1.39288090127379e+005,-1.06375345941037e+000,-1.49474784560641e+000

1.41232479406504e+005,-1.06375299174458e+000,-1.51559752300955e+000

1.43204011348474e+005,-1.06375245753140e+000,-1.53673772067101e+000

1.45203064850745e+005,-1.06375185263194e+000,-1.55817248062539e+000

1.47230024099979e+005,-1.06375117271326e+000,-1.57990590121917e+000

1.49285278645888e+005,-1.06375041324175e+000,-1.60194213790963e+000

1.51369223476094e+005,-1.06374956947622e+000,-1.62428540407681e+000

1.53482259092041e+005,-1.06374863646047e+000,-1.64693997184879e+000

1.55624791585964e+005,-1.06374760901676e+000,-1.66991017293683e+000

1.57797232718936e+005,-1.06374648173787e+000,-1.69320039948647e+000

1.59999999999999e+005,-1.06374524898025e+000,-1.71681510493897e+000

1.62233516766403e+005,-1.06374390485622e+000,-1.74075880490679e+000

1.64498212264969e+005,-1.06374244322647e+000,-1.76503607806284e+000

1.66794521734578e+005,-1.06374085769251e+000,-1.78965156704180e+000

1.69122886489819e+005,-1.06373914158883e+000,-1.81460997935661e+000

1.71483754005805e+005,-1.06373728797518e+000,-1.83991608832738e+000

1.73877578004168e+005,-1.06373528962847e+000,-1.86557473402563e+000

1.76304818540256e+005,-1.06373313903520e+000,-1.89159082423128e+000

1.78765942091554e+005,-1.06373082838320e+000,-1.91796933540482e+000

1.81261421647326e+005,-1.06372834955359e+000,-1.94471531367486e+000

1.83791736799524e+005,-1.06372569411296e+000,-1.97183387583817e+000

1.86357373834951e+005,-1.06372285330499e+000,-1.99933021037594e+000

1.88958825828723e+005,-1.06371981804252e+000,-2.02720957848589e+000

1.91596592739027e+005,-1.06371657889927e+000,-2.05547731512799e+000

1.94271181503206e+005,-1.06371312610186e+000,-2.08413883008589e+000

1.96983106135185e+005,-1.06370944952147e+000,-2.11319960904510e+000

1.99732887824256e+005,-1.06370553866589e+000,-2.14266521468534e+000

2.02521055035243e+005,-1.06370138267118e+000,-2.17254128778960e+000

2.05348143610063e+005,-1.06369697029367e+000,-2.20283354836902e+000

2.08214696870707e+005,-1.06369228990185e+000,-2.23354779680357e+000

2.11121265723661e+005,-1.06368732946821e+000,-2.26468991499985e+000

2.14068408765776e+005,-1.06368207656125e+000,-2.29626586756451e+000

2.17056692391625e+005,-1.06367651833742e+000,-2.32828170299472e+000

2.20086690902357e+005,-1.06367064153307e+000,-2.36074355488532e+000

2.23158986616063e+005,-1.06366443245659e+000,-2.39365764315271e+000

2.26274169979693e+005,-1.06365787698029e+000,-2.42703027527615e+000

2.29432839682530e+005,-1.06365096053265e+000,-2.46086784755564e+000

2.32635602771247e+005,-1.06364366809033e+000,-2.49517684638771e+000

2.35883074766574e+005,-1.06363598417025e+000,-2.52996384955863e+000

2.39175879781588e+005,-1.06362789282179e+000,-2.56523552755454e+000

2.42514650641661e+005,-1.06361937761905e+000,-2.60099864489005e+000

2.45900029006080e+005,-1.06361042165265e+000,-2.63726006145510e+000

2.49332665491357e+005,-1.06360100752226e+000,-2.67402673387846e+000

2.52813219796278e+005,-1.06359111732849e+000,-2.71130571691087e+000

2.56342360828676e+005,-1.06358073266499e+000,-2.74910416482603e+000

2.59920766833993e+005,-1.06356983461050e+000,-2.78742933284010e+000

2.63549125525621e+005,-1.06355840372090e+000,-2.82628857854981e+000

2.67228134217075e+005,-1.06354642002096e+000,-2.86568936339002e+000

2.70958499956006e+005,-1.06353386299628e+000,-2.90563925410975e+000

2.74740939660078e+005,-1.06352071158490e+000,-2.94614592426770e+000

2.78576180254757e+005,-1.06350694416883e+000,-2.98721715574769e+000

2.82464958813007e+005,-1.06349253856550e+000,-3.02886084029294e+000

2.86408022696948e+005,-1.06347747201882e+000,-3.07108498106196e+000

2.90406129701488e+005,-1.06346172119038e+000,-3.11389769420196e+000

2.94460048199957e+005,-1.06344526215003e+000,-3.15730721044521e+000

2.98570557291775e+005,-1.06342807036649e+000,-3.20132187672495e+000

3.02738446952187e+005,-1.06341012069737e+000,-3.24595015781274e+000

3.06964518184081e+005,-1.06339138737934e+000,-3.29120063797598e+000

3.11249583171928e+005,-1.06337184401739e+000,-3.33708202265829e+000

3.15594465437872e+005,-1.06335146357407e+000,-3.38360314018164e+000

3.19999999999997e+005,-1.06333021835835e+000,-3.43077294346933e+000

3.24467033532806e+005,-1.06330808001362e+000,-3.47860051179385e+000

3.28996424529938e+005,-1.06328501950578e+000,-3.52709505254489e+000

3.33589043469155e+005,-1.06326100711039e+000,-3.57626590302333e+000

3.38245772979638e+005,-1.06323601239937e+000,-3.62612253225740e+000

3.42967508011610e+005,-1.06321000422731e+000,-3.67667454284257e+000

3.47755156008335e+005,-1.06318295071683e+000,-3.72793167280819e+000

3.52609637080511e+005,-1.06315481924361e+000,-3.77990379750613e+000

3.57531884183106e+005,-1.06312557642057e+000,-3.83260093152732e+000

3.62522843294651e+005,-1.06309518808138e+000,-3.88603323064300e+000

3.67583473599047e+005,-1.06306361926305e+000,-3.94021099377291e+000

3.72714747669902e+005,-1.06303083418809e+000,-3.99514466497997e+000

3.77917651657445e+005,-1.06299679624561e+000,-4.05084483549265e+000

3.83193185478053e+005,-1.06296146797148e+000,-4.10732224575556e+000

3.88542363006410e+005,-1.06292481102792e+000,-4.16458778750818e+000

3.93966212270369e+005,-1.06288678618181e+000,-4.22265250589305e+000

3.99465775648511e+005,-1.06284735328242e+000,-4.28152760159343e+000

4.05042110070485e+005,-1.06280647123795e+000,-4.34122443300131e+000

4.10696287220124e+005,-1.06276409799100e+000,-4.40175451841637e+000

4.16429393741414e+005,-1.06272019049337e+000,-4.46312953827637e+000

4.22242531447321e+005,-1.06267470467934e+000,-4.52536133741987e+000

4.28136817531551e+005,-1.06262759543818e+000,-4.58846192738181e+000

4.34113384783250e+005,-1.06257881658547e+000,-4.65244348872180e+000

4.40173381804713e+005,-1.06252832083340e+000,-4.71731837338737e+000

4.46317973232124e+005,-1.06247605975958e+000,-4.78309910711193e+000

4.52548339959385e+005,-1.06242198377509e+000,-4.84979839184779e+000

4.58865679365059e+005,-1.06236604209103e+000,-4.91742910823541e+000

4.65271205542494e+005,-1.06230818268397e+000,-4.98600431811002e+000

4.71766149533147e+005,-1.06224835226025e+000,-5.05553726704494e+000

4.78351759563174e+005,-1.06218649621869e+000,-5.12604138693426e+000

4.85029301283321e+005,-1.06212255861245e+000,-5.19753029861375e+000

4.91800058012158e+005,-1.06205648210912e+000,-5.27001781452203e+000

4.98665330982714e+005,-1.06198820795002e+000,-5.34351794140173e+000

5.05626439592555e+005,-1.06191767590759e+000,-5.41804488304263e+000

5.12684721657352e+005,-1.06184482424179e+000,-5.49361304306655e+000

5.19841533667984e+005,-1.06176958965511e+000,-5.57023702775445e+000

5.27098251051240e+005,-1.06169190724580e+000,-5.64793164891862e+000

5.34456268434150e+005,-1.06161171046029e+000,-5.72671192681778e+000

5.41916999912011e+005,-1.06152893104361e+000,-5.80659309311803e+000

