Freq.,VOut,OutRef

1.00000000000000e+004,-1.79445796232476e+001,-2.02088460867872e-001

1.01395947979003e+004,-1.79445814636810e+001,-2.04909184699219e-001

1.02811382665607e+004,-1.79445833557669e+001,-2.07769270545271e-001

1.04246576084112e+004,-1.79445853009523e+001,-2.10669267293194e-001

1.05701804056138e+004,-1.79445873007249e+001,-2.13609731467240e-001

1.07177346253629e+004,-1.79445893566133e+001,-2.16591227337495e-001

1.08673486252606e+004,-1.79445914701893e+001,-2.19614327020555e-001

1.10190511587661e+004,-1.79445936430685e+001,-2.22679610592731e-001

1.11728713807222e+004,-1.79445958769112e+001,-2.25787666200163e-001

1.13288388529580e+004,-1.79445981734246e+001,-2.28939090165083e-001

1.14869835499703e+004,-1.79446005343628e+001,-2.32134487107224e-001

1.16473358646846e+004,-1.79446029615294e+001,-2.35374470048126e-001

1.18099266142953e+004,-1.79446054567777e+001,-2.38659660537210e-001

1.19747870461893e+004,-1.79446080220131e+001,-2.41990688761700e-001

1.21419488439505e+004,-1.79446106591938e+001,-2.45368193668534e-001

1.23114441334492e+004,-1.79446133703328e+001,-2.48792823085462e-001

1.24833054890161e+004,-1.79446161574987e+001,-2.52265233843612e-001

1.26575659397028e+004,-1.79446190228179e+001,-2.55786091899952e-001

1.28342589756290e+004,-1.79446219684761e+001,-2.59356072463726e-001

1.30134185544193e+004,-1.79446249967195e+001,-2.62975860124257e-001

1.31950791077289e+004,-1.79446281098571e+001,-2.66646148978620e-001

1.33792755478611e+004,-1.79446313102615e+001,-2.70367642764797e-001

1.35660432744767e+004,-1.79446346003721e+001,-2.74141054989860e-001

1.37554181813974e+004,-1.79446379826951e+001,-2.77967109069941e-001

1.39474366635040e+004,-1.79446414598070e+001,-2.81846538460784e-001

1.41421356237309e+004,-1.79446450343555e+001,-2.85780086798973e-001

1.43395524801583e+004,-1.79446487090616e+001,-2.89768508041059e-001

1.45397251732031e+004,-1.79446524867224e+001,-2.93812566602532e-001

1.47426921729110e+004,-1.79446563702117e+001,-2.97913037505786e-001

1.49484924863494e+004,-1.79446603624838e+001,-3.02070706519605e-001

1.51571656651040e+004,-1.79446644665741e+001,-3.06286370313263e-001

1.53687518128801e+004,-1.79446686856026e+001,-3.10560836597594e-001

1.55832915932100e+004,-1.79446730227753e+001,-3.14894924283893e-001

1.58008262372675e+004,-1.79446774813873e+001,-3.19289463630559e-001

1.60213975517924e+004,-1.79446820648243e+001,-3.23745296402218e-001

1.62450479271247e+004,-1.79446867765659e+001,-3.28263276025185e-001

1.64718203453514e+004,-1.79446916201880e+001,-3.32844267746160e-001

1.67017583885674e+004,-1.79446965993650e+001,-3.37489148793972e-001

1.69349062472505e+004,-1.79447017178728e+001,-3.42198808543406e-001

1.71713087287550e+004,-1.79447069795912e+001,-3.46974148680202e-001

1.74110112659224e+004,-1.79447123885076e+001,-3.51816083365860e-001

1.76540599258131e+004,-1.79447179487186e+001,-3.56725539413387e-001

1.79005014185594e+004,-1.79447236644342e+001,-3.61703456451984e-001

1.81503831063432e+004,-1.79447295399799e+001,-3.66750787106068e-001

1.84037530124975e+004,-1.79447355798001e+001,-3.71868497171135e-001

1.86606598307361e+004,-1.79447417884620e+001,-3.77057565788930e-001

1.89211529345119e+004,-1.79447481706577e+001,-3.82318985630958e-001

1.91852823865052e+004,-1.79447547312082e+001,-3.87653763082473e-001

1.94530989482457e+004,-1.79447614750670e+001,-3.93062918425242e-001

1.97246540898671e+004,-1.79447684073233e+001,-3.98547486026469e-001

1.99999999999999e+004,-1.79447755332058e+001,-4.04108514529072e-001

2.02791895958005e+004,-1.79447828580862e+001,-4.09747067043919e-001

2.05622765331213e+004,-1.79447903874835e+001,-4.15464221344828e-001

2.08493152168224e+004,-1.79447981270671e+001,-4.21261070066427e-001

2.11403608112276e+004,-1.79448060826617e+001,-4.27138720903017e-001

2.14354692507258e+004,-1.79448142602506e+001,-4.33098296811075e-001

2.17346972505211e+004,-1.79448226659807e+001,-4.39140936214842e-001

2.20381023175322e+004,-1.79448313061661e+001,-4.45267793211894e-001

2.23457427614443e+004,-1.79448401872927e+001,-4.51480037785106e-001

2.26576777059159e+004,-1.79448493160231e+001,-4.57778856013907e-001

2.29739670999406e+004,-1.79448586992008e+001,-4.64165450288385e-001

2.32946717293690e+004,-1.79448683438548e+001,-4.70641039530063e-001

2.36198532285905e+004,-1.79448782572053e+001,-4.77206859407160e-001

2.39495740923785e+004,-1.79448884466675e+001,-4.83864162562511e-001

2.42838976879009e+004,-1.79448989198577e+001,-4.90614218836426e-001

2.46228882668982e+004,-1.79449096845977e+001,-4.97458315495261e-001

2.49666109780322e+004,-1.79449207489209e+001,-5.04397757462392e-001

2.53151318794055e+004,-1.79449321210771e+001,-5.11433867553036e-001

2.56685179512580e+004,-1.79449438095384e+001,-5.18567986709341e-001

2.60268371088386e+004,-1.79449558230048e+001,-5.25801474239768e-001

2.63901582154578e+004,-1.79449681704102e+001,-5.33135708061574e-001

2.67585510957221e+004,-1.79449808609282e+001,-5.40572084946299e-001

2.71320865489533e+004,-1.79449939039781e+001,-5.48112020766720e-001

2.75108363627948e+004,-1.79450073092315e+001,-5.55756950746263e-001

2.78948733270080e+004,-1.79450210866184e+001,-5.63508329715090e-001

2.82842712474618e+004,-1.79450352463338e+001,-5.71367632363953e-001

2.86791049603164e+004,-1.79450497988445e+001,-5.79336353503744e-001

2.90794503464061e+004,-1.79450647548954e+001,-5.87416008329245e-001

2.94853843458219e+004,-1.79450801255173e+001,-5.95608132682209e-001

2.98969849726987e+004,-1.79450959220330e+001,-6.03914283320894e-001

3.03143313302078e+004,-1.79451121560656e+001,-6.12336038188880e-001

3.07375036257601e+004,-1.79451288395449e+001,-6.20874996691798e-001

3.11665831864199e+004,-1.79451459847158e+001,-6.29532779971454e-001

3.16016524745350e+004,-1.79451636041455e+001,-6.38311031187366e-001

3.20427951035848e+004,-1.79451817107314e+001,-6.47211415799319e-001

3.24900958542493e+004,-1.79452003177093e+001,-6.56235621853469e-001

3.29436406907028e+004,-1.79452194386617e+001,-6.65385360269106e-001

3.34035167771346e+004,-1.79452390875254e+001,-6.74662365135327e-001

3.38698124945009e+004,-1.79452592786011e+001,-6.84068394000124e-001

3.43426174575100e+004,-1.79452800265610e+001,-6.93605228174320e-001

3.48220225318448e+004,-1.79453013464584e+001,-7.03274673026789e-001

3.53081198516260e+004,-1.79453232537361e+001,-7.13078558294443e-001

3.58010028371187e+004,-1.79453457642360e+001,-7.23018738384889e-001

3.63007662126863e+004,-1.79453688942078e+001,-7.33097092689750e-001

3.68075060249948e+004,-1.79453926603193e+001,-7.43315525895520e-001

3.73213196614721e+004,-1.79454170796651e+001,-7.53675968302627e-001

3.78423058690237e+004,-1.79454421697768e+001,-7.64180376143433e-001

3.83705647730104e+004,-1.79454679486331e+001,-7.74830731905129e-001

3.89061978964912e+004,-1.79454944346693e+001,-7.85629044656204e-001

3.94493081797342e+004,-1.79455216467882e+001,-7.96577350373388e-001

3.99999999999998e+004,-1.79455496043699e+001,-8.07677712276777e-001

4.05583791916010e+004,-1.79455783272826e+001,-8.18932221161543e-001

4.11245530662425e+004,-1.79456078358931e+001,-8.30342995737830e-001

4.16986304336447e+004,-1.79456381510779e+001,-8.41912182971591e-001

4.22807216224550e+004,-1.79456692942337e+001,-8.53641958429313e-001

4.28709385014515e+004,-1.79457012872887e+001,-8.65534526624018e-001

4.34693945010421e+004,-1.79457341527138e+001,-8.77592121367173e-001

4.40762046350642e+004,-1.79457679135340e+001,-8.89817006120625e-001

4.46914855228886e+004,-1.79458025933393e+001,-9.02211474355251e-001

4.53153554118317e+004,-1.79458382162971e+001,-9.14777849907999e-001

4.59479341998812e+004,-1.79458748071629e+001,-9.27518487346167e-001

4.65893434587380e+004,-1.79459123912929e+001,-9.40435772332203e-001

4.72397064571810e+004,-1.79459509946551e+001,-9.53532121993946e-001

4.78991481847569e+004,-1.79459906438412e+001,-9.66809985294446e-001

4.85677953758016e+004,-1.79460313660794e+001,-9.80271843406867e-001

4.92457765337964e+004,-1.79460731892455e+001,-9.93920210093873e-001

4.99332219560642e+004,-1.79461161418750e+001,-1.00775763208713e+000

5.06302637588109e+004,-1.79461602531757e+001,-1.02178668947129e+000

5.13370359025159e+004,-1.79462055530394e+001,-1.03600999607111e+000

5.20536742176771e+004,-1.79462520720542e+001,-1.05043019984044e+000

5.27803164309155e+004,-1.79462998415160e+001,-1.06504998325708e+000

5.35171021914442e+004,-1.79463488934418e+001,-1.07987206371515e+000

5.42641730979066e+004,-1.79463992605803e+001,-1.09489919392829e+000

5.50216727255895e+004,-1.79464509764245e+001,-1.11013416232794e+000

5.57897466540159e+004,-1.79465040752236e+001,-1.12557979347019e+000

5.65685424949235e+004,-1.79465585919948e+001,-1.14123894844327e+000

5.73582099206328e+004,-1.79466145625345e+001,-1.15711452527899e+000

5.81589006928121e+004,-1.79466720234302e+001,-1.17320945936602e+000

5.89707686916437e+004,-1.79467310120717e+001,-1.18952672386753e+000

5.97939699453972e+004,-1.79467915666619e+001,-1.20606933014293e+000

6.06286626604156e+004,-1.79468537262284e+001,-1.22284032816893e+000

6.14750072515201e+004,-1.79469175306333e+001,-1.23984280696876e+000

6.23331663728396e+004,-1.79469830205841e+001,-1.25707989504049e+000

6.32033049490698e+004,-1.79470502376433e+001,-1.27455476079239e+000

6.40855902071694e+004,-1.79471192242389e+001,-1.29227061297692e+000

6.49801917084985e+004,-1.79471900236725e+001,-1.31023070113456e+000

6.58872813814055e+004,-1.79472626801294e+001,-1.32843831603384e+000

6.68070335542691e+004,-1.79473372386864e+001,-1.34689679012166e+000

6.77396249890018e+004,-1.79474137453196e+001,-1.36560949797335e+000

6.86852349150199e+004,-1.79474922469125e+001,-1.38457985674720e+000

6.96440450636895e+004,-1.79475727912624e+001,-1.40381132664434e+000

7.06162397032520e+004,-1.79476554270868e+001,-1.42330741137078e+000

7.16020056742374e+004,-1.79477402040288e+001,-1.44307165860579e+000

7.26015324253724e+004,-1.79478271726626e+001,-1.46310766047248e+000

7.36150120499896e+004,-1.79479163844968e+001,-1.48341905401508e+000

7.46426393229441e+004,-1.79480078919787e+001,-1.50400952167864e+000

7.56846117380472e+004,-1.79481017484961e+001,-1.52488279179728e+000

7.67411295460207e+004,-1.79481980083793e+001,-1.54604263908341e+000

7.78123957929823e+004,-1.79482967269018e+001,-1.56749288512485e+000

7.88986163594682e+004,-1.79483979602798e+001,-1.58923739888855e+000

7.99999999999995e+004,-1.79485017656712e+001,-1.61128009722857e+000

8.11167583832018e+004,-1.79486082011727e+001,-1.63362494540057e+000

8.22491061324848e+004,-1.79487173258167e+001,-1.65627595758409e+000

8.33972608672892e+004,-1.79488291995657e+001,-1.67923719741199e+000

8.45614432449099e+004,-1.79489438833072e+001,-1.70251277850554e+000

8.57418770029029e+004,-1.79490614388456e+001,-1.72610686501951e+000

8.69387890020841e+004,-1.79491819288932e+001,-1.75002367219526e+000

8.81524092701283e+004,-1.79493054170604e+001,-1.77426746692198e+000

8.93829710457770e+004,-1.79494319678440e+001,-1.79884256830717e+000

9.06307108236633e+004,-1.79495616466131e+001,-1.82375334825866e+000

9.18958683997622e+004,-1.79496945195951e+001,-1.84900423207548e+000

9.31786869174758e+004,-1.79498306538582e+001,-1.87459969905142e+000

9.44794129143618e+004,-1.79499701172936e+001,-1.90054428308867e+000

9.57982963695136e+004,-1.79501129785953e+001,-1.92684257332587e+000

9.71355907516031e+004,-1.79502593072377e+001,-1.95349921477871e+000

9.84915530675926e+004,-1.79504091734521e+001,-1.98051890899393e+000

9.98664439121282e+004,-1.79505626482011e+001,-2.00790641471935e+000

1.01260527517622e+005,-1.79507198031501e+001,-2.03566654858952e+000

1.02674071805032e+005,-1.79508807106383e+001,-2.06380418582704e+000

1.04107348435354e+005,-1.79510454436467e+001,-2.09232426096283e+000

1.05560632861831e+005,-1.79512140757638e+001,-2.12123176857464e+000

1.07034204382888e+005,-1.79513866811501e+001,-2.15053176404448e+000

1.08528346195813e+005,-1.79515633344998e+001,-2.18022936433808e+000

1.10043345451179e+005,-1.79517441110002e+001,-2.21032974880561e+000

1.11579493308032e+005,-1.79519290862900e+001,-2.24083816000539e+000

1.13137084989847e+005,-1.79521183364140e+001,-2.27175990455147e+000

1.14716419841265e+005,-1.79523119377771e+001,-2.30310035398809e+000

1.16317801385624e+005,-1.79525099670948e+001,-2.33486494568962e+000

1.17941537383287e+005,-1.79527125013427e+001,-2.36705918378900e+000

1.19587939890794e+005,-1.79529196177032e+001,-2.39968864013661e+000

1.21257325320831e+005,-1.79531313935107e+001,-2.43275895528810e+000

1.22950014503040e+005,-1.79533479061944e+001,-2.46627583952654e+000

1.24666332745679e+005,-1.79535692332194e+001,-2.50024507391729e+000

1.26406609898139e+005,-1.79537954520258e+001,-2.53467251139821e+000

1.28171180414339e+005,-1.79540266399663e+001,-2.56956407790708e+000

1.29960383416997e+005,-1.79542628742420e+001,-2.60492577354681e+000

1.31774562762811e+005,-1.79545042318367e+001,-2.64076367379062e+000

1.33614067108538e+005,-1.79547507894493e+001,-2.67708393072910e+000

1.35479249978003e+005,-1.79550026234263e+001,-2.71389277435918e+000

1.37370469830040e+005,-1.79552598096916e+001,-2.75119651391847e+000

1.39288090127379e+005,-1.79555224236762e+001,-2.78900153926499e+000

1.41232479406504e+005,-1.79557905402473e+001,-2.82731432230507e+000

1.43204011348474e+005,-1.79560642336366e+001,-2.86614141846889e+000

1.45203064850745e+005,-1.79563435773682e+001,-2.90548946823802e+000

1.47230024099979e+005,-1.79566286441868e+001,-2.94536519872380e+000

1.49285278645888e+005,-1.79569195059855e+001,-2.98577542529972e+000

1.51369223476094e+005,-1.79572162337351e+001,-3.02672705328718e+000

1.53482259092041e+005,-1.79575188974131e+001,-3.06822707969802e+000

1.55624791585964e+005,-1.79578275659344e+001,-3.11028259503375e+000

1.57797232718936e+005,-1.79581423070833e+001,-3.15290078514325e+000

1.59999999999999e+005,-1.79584631874474e+001,-3.19608893313793e+000

1.62233516766403e+005,-1.79587902723533e+001,-3.23985442136921e+000

1.64498212264969e+005,-1.79591236258047e+001,-3.28420473346523e+000

1.66794521734578e+005,-1.79594633104243e+001,-3.32914745642873e+000

1.69122886489819e+005,-1.79598093873978e+001,-3.37469028279761e+000

1.71483754005805e+005,-1.79601619164224e+001,-3.42084101286843e+000

1.73877578004168e+005,-1.79605209556592e+001,-3.46760755698055e+000

1.76304818540256e+005,-1.79608865616898e+001,-3.51499793786519e+000

1.78765942091554e+005,-1.79612587894790e+001,-3.56302029305469e+000

1.81261421647326e+005,-1.79616376923415e+001,-3.61168287735675e+000

1.83791736799524e+005,-1.79620233219158e+001,-3.66099406538765e+000

1.86357373834951e+005,-1.79624157281437e+001,-3.71096235416955e+000

1.88958825828723e+005,-1.79628149592569e+001,-3.76159636578591e+000

1.91596592739027e+005,-1.79632210617713e+001,-3.81290485009826e+000

1.94271181503206e+005,-1.79636340804884e+001,-3.86489668751882e+000

1.96983106135185e+005,-1.79640540585052e+001,-3.91758089184238e+000

1.99732887824256e+005,-1.79644810372332e+001,-3.97096661313148e+000

2.02521055035243e+005,-1.79649150564260e+001,-4.02506314065520e+000

2.05348143610063e+005,-1.79653561542166e+001,-4.07987990588034e+000

2.08214696870707e+005,-1.79658043671646e+001,-4.13542648550908e+000

2.11121265723661e+005,-1.79662597303142e+001,-4.19171260456573e+000

2.14068408765776e+005,-1.79667222772620e+001,-4.24874813952536e+000

2.17056692391625e+005,-1.79671920402369e+001,-4.30654312148476e+000

2.20086690902357e+005,-1.79676690501910e+001,-4.36510773936944e+000

2.23158986616063e+005,-1.79681533369017e+001,-4.42445234317793e+000

2.26274169979693e+005,-1.79686449290865e+001,-4.48458744725503e+000

2.29432839682530e+005,-1.79691438545299e+001,-4.54552373359427e+000

2.32635602771247e+005,-1.79696501402222e+001,-4.60727205516379e+000

2.35883074766574e+005,-1.79701638125113e+001,-4.66984343925353e+000

2.39175879781588e+005,-1.79706848972669e+001,-4.73324909083886e+000

2.42514650641661e+005,-1.79712134200582e+001,-4.79750039595540e+000

2.45900029006080e+005,-1.79717494063433e+001,-4.86260892508465e+000

2.49332665491357e+005,-1.79722928816722e+001,-4.92858643654326e+000

2.52813219796278e+005,-1.79728438719026e+001,-4.99544487987279e+000

2.56342360828676e+005,-1.79734024034278e+001,-5.06319639922642e+000

2.59920766833993e+005,-1.79739685034176e+001,-5.13185333674834e+000

2.63549125525621e+005,-1.79745422000719e+001,-5.20142823594086e+000

2.67228134217075e+005,-1.79751235228858e+001,-5.27193384501819e+000

2.70958499956006e+005,-1.79757125029266e+001,-5.34338312023890e+000

2.74740939660078e+005,-1.79763091731235e+001,-5.41578922921783e+000

2.78576180254757e+005,-1.79769135685670e+001,-5.48916555421078e+000

2.82464958813007e+005,-1.79775257268205e+001,-5.56352569536959e+000

2.86408022696948e+005,-1.79781456882413e+001,-5.63888347396602e+000

2.90406129701488e+005,-1.79787734963123e+001,-5.71525293557851e+000

2.94460048199957e+005,-1.79794091979834e+001,-5.79264835324188e+000

2.98570557291775e+005,-1.79800528440209e+001,-5.87108423055608e+000

3.02738446952187e+005,-1.79807044893661e+001,-5.95057530475300e+000

3.06964518184081e+005,-1.79813641935018e+001,-6.03113654971761e+000

3.11249583171928e+005,-1.79820320208256e+001,-6.11278317896356e+000

3.15594465437872e+005,-1.79827080410306e+001,-6.19553064856205e+000

3.19999999999997e+005,-1.79833923294910e+001,-6.27939466002148e+000

3.24467033532806e+005,-1.79840849676548e+001,-6.36439116311863e+000

3.28996424529938e+005,-1.79847860434396e+001,-6.45053635868090e+000

3.33589043469155e+005,-1.79854956516340e+001,-6.53784670131902e+000

3.38245772979638e+005,-1.79862138943013e+001,-6.62633890211185e+000

3.42967508011610e+005,-1.79869408811874e+001,-6.71602993124218e+000

3.47755156008335e+005,-1.79876767301300e+001,-6.80693702058616e+000

3.52609637080511e+005,-1.79884215674702e+001,-6.89907766625753e+000

3.57531884183106e+005,-1.79891755284651e+001,-6.99246963110687e+000

3.62522843294651e+005,-1.79899387577010e+001,-7.08713094717971e+000

3.67583473599047e+005,-1.79907114095066e+001,-7.18307991813484e+000

3.72714747669902e+005,-1.79914936483665e+001,-7.28033512162485e+000

3.77917651657445e+005,-1.79922856493329e+001,-7.37891541164240e+000

3.83193185478053e+005,-1.79930875984374e+001,-7.47883992083502e+000

3.88542363006410e+005,-1.79938996930996e+001,-7.58012806279081e+000

3.93966212270369e+005,-1.79947221425357e+001,-7.68279953430077e+000

3.99465775648511e+005,-1.79955551681632e+001,-7.78687431759624e+000

4.05042110070485e+005,-1.79963990040043e+001,-7.89237268257247e+000

4.10696287220124e+005,-1.79972538970864e+001,-7.99931518899394e+000

4.16429393741414e+005,-1.79981201078394e+001,-8.10772268869181e+000

4.22242531447321e+005,-1.79989979104911e+001,-8.21761632775382e+000

4.28136817531551e+005,-1.79998875934588e+001,-8.32901754871122e+000

4.34113384783250e+005,-1.80007894597383e+001,-8.44194809272712e+000

4.40173381804713e+005,-1.80017038272907e+001,-8.55643000179009e+000

4.46317973232124e+005,-1.80026310294253e+001,-8.67248562091523e+000

4.52548339959385e+005,-1.80035714151808e+001,-8.79013760036035e+000

4.58865679365059e+005,-1.80045253497040e+001,-8.90940889785529e+000

4.65271205542494e+005,-1.80054932146261e+001,-9.03032278085332e+000

4.71766149533147e+005,-1.80064754084368e+001,-9.15290282880478e+000

4.78351759563174e+005,-1.80074723468579e+001,-9.27717293545721e+000

4.85029301283321e+005,-1.80084844632146e+001,-9.40315731118449e+000

4.91800058012158e+005,-1.80095122088066e+001,-9.53088048534947e+000

4.98665330982714e+005,-1.80105560532784e+001,-9.66036730870052e+000

5.05626439592555e+005,-1.80116164849904e+001,-9.79164295580603e+000

5.12684721657352e+005,-1.80126940113896e+001,-9.92473292752869e+000

5.19841533667984e+005,-1.80137891593821e+001,-1.00596630535414e+001

5.27098251051240e+005,-1.80149024757069e+001,-1.01964594948861e+001

5.34456268434150e+005,-1.80160345273122e+001,-1.03351487465791e+001

5.41916999912011e+005,-1.80171859017336e+001,-1.04757576402596e+001

