Freq.,VOut,OutRef

1.00000000000000e+004,-2.19667982924867e+001,-2.50205729067773e-002

1.01395947979003e+004,-2.19668010224356e+001,-2.53692721506128e-002

1.02811382665607e+004,-2.19668038289754e+001,-2.57228146720645e-002

1.04246576084112e+004,-2.19668067142492e+001,-2.60812670562649e-002

1.05701804056138e+004,-2.19668096804629e+001,-2.64446967519376e-002

1.07177346253629e+004,-2.19668127298807e+001,-2.68131721270408e-002

1.08673486252606e+004,-2.19668158648318e+001,-2.71867624422057e-002

1.10190511587661e+004,-2.19668190877096e+001,-2.75655378801612e-002

1.11728713807222e+004,-2.19668224009735e+001,-2.79495695557812e-002

1.13288388529580e+004,-2.19668258071521e+001,-2.83389295187752e-002

1.14869835499703e+004,-2.19668293088452e+001,-2.87336907637061e-002

1.16473358646846e+004,-2.19668329087228e+001,-2.91339272587318e-002

1.18099266142953e+004,-2.19668366095314e+001,-2.95397139294301e-002

1.19747870461893e+004,-2.19668404140926e+001,-2.99511266922206e-002

1.21419488439505e+004,-2.19668443253060e+001,-3.03682424606944e-002

1.23114441334492e+004,-2.19668483461538e+001,-3.07911391384577e-002

1.24833054890161e+004,-2.19668524796982e+001,-3.12198956664960e-002

1.26575659397028e+004,-2.19668567290893e+001,-3.16545919907180e-002

1.28342589756290e+004,-2.19668610975629e+001,-3.20953091097537e-002

1.30134185544193e+004,-2.19668655884444e+001,-3.25421290714898e-002

1.31950791077289e+004,-2.19668702051526e+001,-3.29951349767596e-002

1.33792755478611e+004,-2.19668749512004e+001,-3.34544110043232e-002

1.35660432744767e+004,-2.19668798301988e+001,-3.39200424103172e-002

1.37554181813974e+004,-2.19668848458576e+001,-3.43921155544609e-002

1.39474366635040e+004,-2.19668900019903e+001,-3.48707178948945e-002

1.41421356237309e+004,-2.19668953025158e+001,-3.53559380099803e-002

1.43395524801583e+004,-2.19669007514610e+001,-3.58478656071157e-002

1.45397251732031e+004,-2.19669063529649e+001,-3.63465915295382e-002

1.47426921729110e+004,-2.19669121112801e+001,-3.68522077771146e-002

1.49484924863494e+004,-2.19669180307774e+001,-3.73648075060239e-002

1.51571656651040e+004,-2.19669241159488e+001,-3.78844850436199e-002

1.53687518128801e+004,-2.19669303714092e+001,-3.84113359068421e-002

1.55832915932100e+004,-2.19669368019011e+001,-3.89454568075588e-002

1.58008262372675e+004,-2.19669434122981e+001,-3.94869456599046e-002

1.60213975517924e+004,-2.19669502076081e+001,-4.00359015960971e-002

1.62450479271247e+004,-2.19669571929761e+001,-4.05924249796516e-002

1.64718203453514e+004,-2.19669643736904e+001,-4.11566174036686e-002

1.67017583885674e+004,-2.19669717551831e+001,-4.17285817185816e-002

1.69349062472505e+004,-2.19669793430380e+001,-4.23084220195162e-002

1.71713087287550e+004,-2.19669871429893e+001,-4.28962436888221e-002

1.74110112659224e+004,-2.19669951609305e+001,-4.34921533789785e-002

1.76540599258131e+004,-2.19670034029174e+001,-4.40962590237728e-002

1.79005014185594e+004,-2.19670118751697e+001,-4.47086698732668e-002

1.81503831063432e+004,-2.19670205840797e+001,-4.53294964687647e-002

1.84037530124975e+004,-2.19670295362146e+001,-4.59588506714187e-002

1.86606598307361e+004,-2.19670387383195e+001,-4.65968456790987e-002

1.89211529345119e+004,-2.19670481973254e+001,-4.72435960155693e-002

1.91852823865052e+004,-2.19670579203527e+001,-4.78992175481228e-002

1.94530989482457e+004,-2.19670679147156e+001,-4.85638274981517e-002

1.97246540898671e+004,-2.19670781879284e+001,-4.92375444433787e-002

1.99999999999999e+004,-2.19670887477092e+001,-4.99204883343339e-002

2.02791895958005e+004,-2.19670996019880e+001,-5.06127804846230e-002

2.05622765331213e+004,-2.19671107589094e+001,-5.13145435944619e-002

2.08493152168224e+004,-2.19671222268381e+001,-5.20259017607664e-002

2.11403608112276e+004,-2.19671340143687e+001,-5.27469804531100e-002

2.14354692507258e+004,-2.19671461303273e+001,-5.34779065520788e-002

2.17346972505211e+004,-2.19671585837787e+001,-5.42188083434230e-002

2.20381023175322e+004,-2.19671713840348e+001,-5.49698155086370e-002

2.23457427614443e+004,-2.19671845406570e+001,-5.57310591553761e-002

2.26576777059159e+004,-2.19671980634672e+001,-5.65026717919667e-002

2.29739670999406e+004,-2.19672119625501e+001,-5.72847873577489e-002

2.32946717293690e+004,-2.19672262482656e+001,-5.80775411892639e-002

2.36198532285905e+004,-2.19672409312475e+001,-5.88810700742428e-002

2.39495740923785e+004,-2.19672560224197e+001,-5.96955121955975e-002

2.42838976879009e+004,-2.19672715329966e+001,-6.05210071725097e-002

2.46228882668982e+004,-2.19672874744953e+001,-6.13576960335753e-002

2.49666109780322e+004,-2.19673038587394e+001,-6.22057212344047e-002

2.53151318794055e+004,-2.19673206978699e+001,-6.30652266403154e-002

2.56685179512580e+004,-2.19673380043516e+001,-6.39363575282272e-002

2.60268371088386e+004,-2.19673557909806e+001,-6.48192605885559e-002

2.63901582154578e+004,-2.19673740708952e+001,-6.57140839038680e-002

2.67585510957221e+004,-2.19673928575811e+001,-6.66209769609112e-002

2.71320865489533e+004,-2.19674121648821e+001,-6.75400906309793e-002

2.75108363627948e+004,-2.19674320070101e+001,-6.84715771547528e-002

2.78948733270080e+004,-2.19674523985508e+001,-6.94155901517928e-002

2.82842712474618e+004,-2.19674733544758e+001,-7.03722845912858e-002

2.86791049603164e+004,-2.19674948901503e+001,-7.13418167904271e-002

2.90794503464061e+004,-2.19675170213441e+001,-7.23243443896954e-002

2.94853843458219e+004,-2.19675397642403e+001,-7.33200263471076e-002

2.98969849726987e+004,-2.19675631354463e+001,-7.43290229114435e-002

3.03143313302078e+004,-2.19675871520026e+001,-7.53514956128495e-002

3.07375036257601e+004,-2.19676118313940e+001,-7.63876072382516e-002

3.11665831864199e+004,-2.19676371915608e+001,-7.74375218028854e-002

3.16016524745350e+004,-2.19676632509083e+001,-7.85014045343201e-002

3.20427951035848e+004,-2.19676900283192e+001,-7.95794218397464e-002

3.24900958542493e+004,-2.19677175431625e+001,-8.06717412872061e-002

3.29436406907028e+004,-2.19677458153074e+001,-8.17785315633842e-002

3.34035167771346e+004,-2.19677748651329e+001,-8.28999624512591e-002

3.38698124945009e+004,-2.19678047135407e+001,-8.40362047874325e-002

3.43426174575100e+004,-2.19678353819671e+001,-8.51874304266644e-002

3.48220225318448e+004,-2.19678668923929e+001,-8.63538122140781e-002

3.53081198516260e+004,-2.19678992673599e+001,-8.75355239184757e-002

3.58010028371187e+004,-2.19679325299788e+001,-8.87327402138538e-002

3.63007662126863e+004,-2.19679667039450e+001,-8.99456366146792e-002

3.68075060249948e+004,-2.19680018135499e+001,-9.11743894328939e-002

3.73213196614721e+004,-2.19680378836944e+001,-9.24191757212969e-002

3.78423058690237e+004,-2.19680749399016e+001,-9.36801732200239e-002

3.83705647730104e+004,-2.19681130083305e+001,-9.49575602957230e-002

3.89061978964912e+004,-2.19681521157898e+001,-9.62515158741602e-002

3.94493081797342e+004,-2.19681922897509e+001,-9.75622193780894e-002

3.99999999999998e+004,-2.19682335583605e+001,-9.88898506650555e-002

4.05583791916010e+004,-2.19682759504573e+001,-1.00234589935122e-001

4.11245530662425e+004,-2.19683194955831e+001,-1.01596617669461e-001

4.16986304336447e+004,-2.19683642239987e+001,-1.02976114542701e-001

4.22807216224550e+004,-2.19684101666974e+001,-1.04373261335421e-001

4.28709385014515e+004,-2.19684573554192e+001,-1.05788238848381e-001

4.34693945010421e+004,-2.19685058226647e+001,-1.07221227809718e-001

4.40762046350642e+004,-2.19685556017113e+001,-1.08672408765060e-001

4.46914855228886e+004,-2.19686067266249e+001,-1.10141961991425e-001

4.53153554118317e+004,-2.19686592322765e+001,-1.11630067374924e-001

4.59479341998812e+004,-2.19687131543558e+001,-1.13136904303574e-001

4.65893434587380e+004,-2.19687685293859e+001,-1.14662651546555e-001

4.72397064571810e+004,-2.19688253947374e+001,-1.16207487135071e-001

4.78991481847569e+004,-2.19688837886432e+001,-1.17771588226760e-001

4.85677953758016e+004,-2.19689437502116e+001,-1.19355130981968e-001

4.92457765337964e+004,-2.19690053194430e+001,-1.20958290406023e-001

4.99332219560642e+004,-2.19690685372411e+001,-1.22581240222330e-001

5.06302637588109e+004,-2.19691334454288e+001,-1.24224152704342e-001

5.13370359025159e+004,-2.19692000867612e+001,-1.25887198526987e-001

5.20536742176771e+004,-2.19692685049383e+001,-1.27570546601659e-001

5.27803164309155e+004,-2.19693387446201e+001,-1.29274363897520e-001

5.35171021914442e+004,-2.19694108514388e+001,-1.30998815263966e-001

5.42641730979066e+004,-2.19694848720103e+001,-1.32744063257859e-001

5.50216727255895e+004,-2.19695608539480e+001,-1.34510267937459e-001

5.57897466540159e+004,-2.19696388458743e+001,-1.36297586670558e-001

5.65685424949235e+004,-2.19697188974321e+001,-1.38106173922991e-001

5.73582099206328e+004,-2.19698010592957e+001,-1.39936181050099e-001

5.81589006928121e+004,-2.19698853831805e+001,-1.41787756075808e-001

5.89707686916437e+004,-2.19699719218548e+001,-1.43661043454610e-001

5.97939699453972e+004,-2.19700607291468e+001,-1.45556183845346e-001

6.06286626604156e+004,-2.19701518599547e+001,-1.47473313858585e-001

6.14750072515201e+004,-2.19702453702539e+001,-1.49412565806856e-001

6.23331663728396e+004,-2.19703413171044e+001,-1.51374067439652e-001

6.32033049490698e+004,-2.19704397586555e+001,-1.53357941683927e-001

6.40855902071694e+004,-2.19705407541535e+001,-1.55364306349816e-001

6.49801917084985e+004,-2.19706443639431e+001,-1.57393273858843e-001

6.58872813814055e+004,-2.19707506494720e+001,-1.59444950944817e-001

6.68070335542691e+004,-2.19708596732933e+001,-1.61519438342981e-001

6.77396249890018e+004,-2.19709714990646e+001,-1.63616830488136e-001

6.86852349150199e+004,-2.19710861915487e+001,-1.65737215189267e-001

6.96440450636895e+004,-2.19712038166109e+001,-1.67880673300707e-001

7.06162397032520e+004,-2.19713244412162e+001,-1.70047278382446e-001

7.16020056742374e+004,-2.19714481334225e+001,-1.72237096363847e-001

7.26015324253724e+004,-2.19715749623768e+001,-1.74450185170484e-001

7.36150120499896e+004,-2.19717049983035e+001,-1.76686594383964e-001

7.46426393229441e+004,-2.19718383124965e+001,-1.78946364852487e-001

7.56846117380472e+004,-2.19719749773057e+001,-1.81229528320125e-001

7.67411295460207e+004,-2.19721150661230e+001,-1.83536107040646e-001

7.78123957929823e+004,-2.19722586533660e+001,-1.85866113378628e-001

7.88986163594682e+004,-2.19724058144585e+001,-1.88219549412643e-001

7.99999999999995e+004,-2.19725566258096e+001,-1.90596406526995e-001

8.11167583832018e+004,-2.19727111647918e+001,-1.92996664985246e-001

8.22491061324848e+004,-2.19728695097113e+001,-1.95420293527265e-001

8.33972608672892e+004,-2.19730317397822e+001,-1.97867248925768e-001

8.45614432449099e+004,-2.19731979350933e+001,-2.00337475558212e-001

8.57418770029029e+004,-2.19733681765734e+001,-2.02830904973227e-001

8.69387890020841e+004,-2.19735425459537e+001,-2.05347455441887e-001

8.81524092701283e+004,-2.19737211257271e+001,-2.07887031513191e-001

8.93829710457770e+004,-2.19739039991033e+001,-2.10449523569133e-001

9.06307108236633e+004,-2.19740912499612e+001,-2.13034807370673e-001

9.18958683997622e+004,-2.19742829627981e+001,-2.15642743600603e-001

9.31786869174758e+004,-2.19744792226744e+001,-2.18273177416563e-001

9.44794129143618e+004,-2.19746801151547e+001,-2.20925937995095e-001

9.57982963695136e+004,-2.19748857262458e+001,-2.23600838077126e-001

9.71355907516031e+004,-2.19750961423296e+001,-2.26297673519861e-001

9.84915530675926e+004,-2.19753114500925e+001,-2.29016222851582e-001

9.98664439121282e+004,-2.19755317364506e+001,-2.31756246827788e-001

1.01260527517622e+005,-2.19757570884705e+001,-2.34517487995335e-001

1.02674071805032e+005,-2.19759875932853e+001,-2.37299670263183e-001

1.04107348435354e+005,-2.19762233380078e+001,-2.40102498477888e-001

1.05560632861831e+005,-2.19764644096355e+001,-2.42925658023222e-001

1.07034204382888e+005,-2.19767108949558e+001,-2.45768814409001e-001

1.08528346195813e+005,-2.19769628804420e+001,-2.48631612895044e-001

1.10043345451179e+005,-2.19772204521483e+001,-2.51513678110375e-001

1.11579493308032e+005,-2.19774836955964e+001,-2.54414613709107e-001

1.13137084989847e+005,-2.19777526956611e+001,-2.57334002024586e-001

1.14716419841265e+005,-2.19780275364478e+001,-2.60271403759483e-001

1.16317801385624e+005,-2.19783083011663e+001,-2.63226357692520e-001

1.17941537383287e+005,-2.19785950720010e+001,-2.66198380406061e-001

1.19587939890794e+005,-2.19788879299745e+001,-2.69186966044595e-001

1.21257325320831e+005,-2.19791869548075e+001,-2.72191586101181e-001

1.22950014503040e+005,-2.19794922247735e+001,-2.75211689233064e-001

1.24666332745679e+005,-2.19798038165489e+001,-2.78246701113781e-001

1.26406609898139e+005,-2.19801218050595e+001,-2.81296024313630e-001

1.28171180414339e+005,-2.19804462633205e+001,-2.84359038229300e-001

1.29960383416997e+005,-2.19807772622752e+001,-2.87435099037586e-001

1.31774562762811e+005,-2.19811148706271e+001,-2.90523539708733e-001

1.33614067108538e+005,-2.19814591546698e+001,-2.93623670048080e-001

1.35479249978003e+005,-2.19818101781119e+001,-2.96734776797475e-001

1.37370469830040e+005,-2.19821680018990e+001,-2.99856123785222e-001

1.39288090127379e+005,-2.19825326840340e+001,-3.02986952114284e-001

1.41232479406504e+005,-2.19829042793917e+001,-3.06126480421699e-001

1.43204011348474e+005,-2.19832828395332e+001,-3.09273905187137e-001

1.45203064850745e+005,-2.19836684125183e+001,-3.12428401091970e-001

1.47230024099979e+005,-2.19840610427135e+001,-3.15589121458753e-001

1.49285278645888e+005,-2.19844607706016e+001,-3.18755198733668e-001

1.51369223476094e+005,-2.19848676325891e+001,-3.21925745043405e-001

1.53482259092041e+005,-2.19852816608134e+001,-3.25099852816858e-001

1.55624791585964e+005,-2.19857028829490e+001,-3.28276595479710e-001

1.57797232718936e+005,-2.19861313220172e+001,-3.31455028204609e-001

1.59999999999999e+005,-2.19865669961931e+001,-3.34634188751189e-001

1.62233516766403e+005,-2.19870099186177e+001,-3.37813098363667e-001

1.64498212264969e+005,-2.19874600972101e+001,-3.40990762751434e-001

1.66794521734578e+005,-2.19879175344838e+001,-3.44166173137084e-001

1.69122886489819e+005,-2.19883822273673e+001,-3.47338307379001e-001

1.71483754005805e+005,-2.19888541670265e+001,-3.50506131179085e-001

1.73877578004168e+005,-2.19893333386950e+001,-3.53668599350166e-001

1.76304818540256e+005,-2.19898197215089e+001,-3.56824657167126e-001

1.78765942091554e+005,-2.19903132883478e+001,-3.59973241792604e-001

1.81261421647326e+005,-2.19908140056824e+001,-3.63113283775624e-001

1.83791736799524e+005,-2.19913218334327e+001,-3.66243708612116e-001

1.86357373834951e+005,-2.19918367248318e+001,-3.69363438393648e-001

1.88958825828723e+005,-2.19923586263011e+001,-3.72471393505025e-001

1.91596592739027e+005,-2.19928874773344e+001,-3.75566494407362e-001

1.94271181503206e+005,-2.19934232103943e+001,-3.78647663469816e-001

1.96983106135185e+005,-2.19939657508191e+001,-3.81713826866272e-001

1.99732887824256e+005,-2.19945150167420e+001,-3.84763916538227e-001

2.02521055035243e+005,-2.19950709190254e+001,-3.87796872192396e-001

2.05348143610063e+005,-2.19956333612051e+001,-3.90811643370126e-001

2.08214696870707e+005,-2.19962022394532e+001,-3.93807191542006e-001

2.11121265723661e+005,-2.19967774425525e+001,-3.96782492256744e-001

2.14068408765776e+005,-2.19973588518882e+001,-3.99736537318168e-001

2.17056692391625e+005,-2.19979463414563e+001,-4.02668336988382e-001

2.20086690902357e+005,-2.19985397778850e+001,-4.05576922232567e-001

2.23158986616063e+005,-2.19991390204782e+001,-4.08461346955049e-001

2.26274169979693e+005,-2.19997439212721e+001,-4.11320690267988e-001

2.29432839682530e+005,-2.20003543251115e+001,-4.14154058754584e-001

2.32635602771247e+005,-2.20009700697432e+001,-4.16960588734970e-001

2.35883074766574e+005,-2.20015909859279e+001,-4.19739448518374e-001

2.39175879781588e+005,-2.20022168975704e+001,-4.22489840641806e-001

2.42514650641661e+005,-2.20028476218668e+001,-4.25211004084457e-001

2.45900029006080e+005,-2.20034829694715e+001,-4.27902216452607e-001

2.49332665491357e+005,-2.20041227446805e+001,-4.30562796122192e-001

2.52813219796278e+005,-2.20047667456345e+001,-4.33192104337328e-001

2.56342360828676e+005,-2.20054147645374e+001,-4.35789547254693e-001

2.59920766833993e+005,-2.20060665878933e+001,-4.38354577929320e-001

2.63549125525621e+005,-2.20067219967605e+001,-4.40886698224413e-001

2.67228134217075e+005,-2.20073807670197e+001,-4.43385460656867e-001

2.70958499956006e+005,-2.20080426696604e+001,-4.45850470149642e-001

2.74740939660078e+005,-2.20087074710802e+001,-4.48281385699612e-001

2.78576180254757e+005,-2.20093749333985e+001,-4.50677921952650e-001

2.82464958813007e+005,-2.20100448147850e+001,-4.53039850667399e-001

2.86408022696948e+005,-2.20107168697985e+001,-4.55367002081183e-001

2.90406129701488e+005,-2.20113908497384e+001,-4.57659266156311e-001

2.94460048199957e+005,-2.20120665030060e+001,-4.59916593712092e-001

2.98570557291775e+005,-2.20127435754752e+001,-4.62138997432423e-001

3.02738446952187e+005,-2.20134218108715e+001,-4.64326552746112e-001

3.06964518184081e+005,-2.20141009511583e+001,-4.66479398577279e-001

3.11249583171928e+005,-2.20147807369276e+001,-4.68597737966207e-001

3.15594465437872e+005,-2.20154609077965e+001,-4.70681838549979e-001

3.19999999999997e+005,-2.20161412028066e+001,-4.72732032908733e-001

3.24467033532806e+005,-2.20168213608249e+001,-4.74748718772450e-001

3.28996424529938e+005,-2.20175011209453e+001,-4.76732359092109e-001

3.33589043469155e+005,-2.20181802228904e+001,-4.78683481965384e-001

3.38245772979638e+005,-2.20188584074093e+001,-4.80602680432205e-001

3.42967508011610e+005,-2.20195354166746e+001,-4.82490612125615e-001

3.47755156008335e+005,-2.20202109946724e+001,-4.84347998796695e-001

3.52609637080511e+005,-2.20208848875880e+001,-4.86175625695476e-001

3.57531884183106e+005,-2.20215568441841e+001,-4.87974340833114e-001

3.62522843294651e+005,-2.20222266161704e+001,-4.89745054112725e-001

3.67583473599047e+005,-2.20228939585642e+001,-4.91488736339017e-001

3.72714747669902e+005,-2.20235586300411e+001,-4.93206418105939e-001

3.77917651657445e+005,-2.20242203932723e+001,-4.94899188584552e-001

3.83193185478053e+005,-2.20248790152518e+001,-4.96568194191633e-001

3.88542363006410e+005,-2.20255342676091e+001,-4.98214637158602e-001

3.93966212270369e+005,-2.20261859269069e+001,-4.99839774015657e-001

3.99465775648511e+005,-2.20268337749256e+001,-5.01444913975907e-001

4.05042110070485e+005,-2.20274775989311e+001,-5.03031417242752e-001

4.10696287220124e+005,-2.20281171919260e+001,-5.04600693246935e-001

4.16429393741414e+005,-2.20287523528860e+001,-5.06154198805350e-001

4.22242531447321e+005,-2.20293828869762e+001,-5.07693436232794e-001

4.28136817531551e+005,-2.20300086057524e+001,-5.09219951394767e-001

4.34113384783250e+005,-2.20306293273431e+001,-5.10735331713269e-001

4.40173381804713e+005,-2.20312448766148e+001,-5.12241204138081e-001

4.46317973232124e+005,-2.20318550853170e+001,-5.13739233092843e-001

4.52548339959385e+005,-2.20324597922116e+001,-5.15231118388711e-001

4.58865679365059e+005,-2.20330588431821e+001,-5.16718593133042e-001

4.65271205542494e+005,-2.20336520913267e+001,-5.18203421621232e-001

4.71766149533147e+005,-2.20342393970309e+001,-5.19687397239168e-001

4.78351759563174e+005,-2.20348206280257e+001,-5.21172340356979e-001

4.85029301283321e+005,-2.20353956594256e+001,-5.22660096252789e-001

4.91800058012158e+005,-2.20359643737522e+001,-5.24152533039996e-001

4.98665330982714e+005,-2.20365266609392e+001,-5.25651539630042e-001

5.05626439592555e+005,-2.20370824183229e+001,-5.27159023722106e-001

5.12684721657352e+005,-2.20376315506163e+001,-5.28676909832203e-001

5.19841533667984e+005,-2.20381739698693e+001,-5.30207137357102e-001

5.27098251051240e+005,-2.20387095954134e+001,-5.31751658695833e-001

5.34456268434150e+005,-2.20392383537937e+001,-5.33312437412273e-001

5.41916999912011e+005,-2.20397601786877e+001,-5.34891446457151e-001

