Freq.,VOut,OutRef

1.00000000000000e+004,-1.97981859932772e+001,-2.24780038667553e-001

1.01395947979003e+004,-1.97981893607067e+001,-2.27917226834265e-001

1.02811382665607e+004,-1.97981928226364e+001,-2.31098182043286e-001

1.04246576084112e+004,-1.97981963817132e+001,-2.34323514138587e-001

1.05701804056138e+004,-1.97982000406580e+001,-2.37593841429099e-001

1.07177346253629e+004,-1.97982038022676e+001,-2.40909790806843e-001

1.08673486252606e+004,-1.97982076694167e+001,-2.44271997861218e-001

1.10190511587661e+004,-1.97982116450605e+001,-2.47681107001440e-001

1.11728713807222e+004,-1.97982157322360e+001,-2.51137771579138e-001

1.13288388529580e+004,-1.97982199340655e+001,-2.54642654002673e-001

1.14869835499703e+004,-1.97982242537579e+001,-2.58196425870134e-001

1.16473358646846e+004,-1.97982286946116e+001,-2.61799768091796e-001

1.18099266142953e+004,-1.97982332600168e+001,-2.65453371015052e-001

1.19747870461893e+004,-1.97982379534584e+001,-2.69157934556458e-001

1.21419488439505e+004,-1.97982427785178e+001,-2.72914168330974e-001

1.23114441334492e+004,-1.97982477388766e+001,-2.76722791785329e-001

1.24833054890161e+004,-1.97982528383184e+001,-2.80584534330956e-001

1.26575659397028e+004,-1.97982580807323e+001,-2.84500135480550e-001

1.28342589756290e+004,-1.97982634701155e+001,-2.88470344985981e-001

1.30134185544193e+004,-1.97982690105761e+001,-2.92495922975949e-001

1.31950791077289e+004,-1.97982747063367e+001,-2.96577640099195e-001

1.33792755478611e+004,-1.97982805617370e+001,-3.00716277666388e-001

1.35660432744767e+004,-1.97982865812371e+001,-3.04912627796601e-001

1.37554181813974e+004,-1.97982927694211e+001,-3.09167493560243e-001

1.39474366635040e+004,-1.97982991310002e+001,-3.13481689131434e-001

1.41421356237309e+004,-1.97983056708162e+001,-3.17856039937582e-001

1.43395524801583e+004,-1.97983123938456e+001,-3.22291382808879e-001

1.45397251732031e+004,-1.97983193052021e+001,-3.26788566137363e-001

1.47426921729110e+004,-1.97983264101420e+001,-3.31348450028159e-001

1.49484924863494e+004,-1.97983337140662e+001,-3.35971906463073e-001

1.51571656651040e+004,-1.97983412225257e+001,-3.40659819455646e-001

1.53687518128801e+004,-1.97983489412250e+001,-3.45413085216020e-001

1.55832915932100e+004,-1.97983568760265e+001,-3.50232612314506e-001

1.58008262372675e+004,-1.97983650329542e+001,-3.55119321849408e-001

1.60213975517924e+004,-1.97983734181993e+001,-3.60074147611415e-001

1.62450479271247e+004,-1.97983820381232e+001,-3.65098036258813e-001

1.64718203453514e+004,-1.97983908992635e+001,-3.70191947487098e-001

1.67017583885674e+004,-1.97984000083379e+001,-3.75356854202591e-001

1.69349062472505e+004,-1.97984093722495e+001,-3.80593742703497e-001

1.71713087287550e+004,-1.97984189980913e+001,-3.85903612853609e-001

1.74110112659224e+004,-1.97984288931523e+001,-3.91287478267077e-001

1.76540599258131e+004,-1.97984390649215e+001,-3.96746366489951e-001

1.79005014185594e+004,-1.97984495210944e+001,-4.02281319186242e-001

1.81503831063432e+004,-1.97984602695781e+001,-4.07893392324625e-001

1.84037530124975e+004,-1.97984713184965e+001,-4.13583656370246e-001

1.86606598307361e+004,-1.97984826761971e+001,-4.19353196474905e-001

1.89211529345119e+004,-1.97984943512563e+001,-4.25203112671163e-001

1.91852823865052e+004,-1.97985063524857e+001,-4.31134520072571e-001

1.94530989482457e+004,-1.97985186889382e+001,-4.37148549068633e-001

1.97246540898671e+004,-1.97985313699150e+001,-4.43246345526518e-001

1.99999999999999e+004,-1.97985444049715e+001,-4.49429070997861e-001

2.02791895958005e+004,-1.97985578039243e+001,-4.55697902921600e-001

2.05622765331213e+004,-1.97985715768585e+001,-4.62054034832529e-001

2.08493152168224e+004,-1.97985857341343e+001,-4.68498676572837e-001

2.11403608112276e+004,-1.97986002863946e+001,-4.75033054505918e-001

2.14354692507258e+004,-1.97986152445723e+001,-4.81658411729173e-001

2.17346972505211e+004,-1.97986306198978e+001,-4.88376008294574e-001

2.20381023175322e+004,-1.97986464239073e+001,-4.95187121426272e-001

2.23457427614443e+004,-1.97986626684503e+001,-5.02093045745807e-001

2.26576777059159e+004,-1.97986793656981e+001,-5.09095093494680e-001

2.29739670999406e+004,-1.97986965281523e+001,-5.16194594762348e-001

2.32946717293690e+004,-1.97987141686528e+001,-5.23392897718222e-001

2.36198532285905e+004,-1.97987323003877e+001,-5.30691368840215e-001

2.39495740923785e+004,-1.97987509369008e+001,-5.38091393153551e-001

2.42838976879009e+004,-1.97987700921026e+001,-5.45594374463704e-001

2.46228882668982e+004,-1.97987897802783e+001,-5.53201735599620e-001

2.49666109780322e+004,-1.97988100160980e+001,-5.60914918653850e-001

2.53151318794055e+004,-1.97988308146270e+001,-5.68735385226114e-001

2.56685179512580e+004,-1.97988521913350e+001,-5.76664616673054e-001

2.60268371088386e+004,-1.97988741621074e+001,-5.84704114355850e-001

2.63901582154578e+004,-1.97988967432551e+001,-5.92855399891569e-001

2.67585510957221e+004,-1.97989199515259e+001,-6.01120015407821e-001

2.71320865489533e+004,-1.97989438041152e+001,-6.09499523799648e-001

2.75108363627948e+004,-1.97989683186773e+001,-6.17995508989580e-001

2.78948733270080e+004,-1.97989935133374e+001,-6.26609576185967e-001

2.82842712474618e+004,-1.97990194067026e+001,-6.35343352150791e-001

2.86791049603164e+004,-1.97990460178746e+001,-6.44198485463516e-001

2.90794503464061e+004,-1.97990733664620e+001,-6.53176646788705e-001

2.94853843458219e+004,-1.97991014725924e+001,-6.62279529149914e-001

2.98969849726987e+004,-1.97991303569256e+001,-6.71508848201711e-001

3.03143313302078e+004,-1.97991600406666e+001,-6.80866342504053e-001

3.07375036257601e+004,-1.97991905455788e+001,-6.90353773801859e-001

3.11665831864199e+004,-1.97992218939982e+001,-6.99972927303867e-001

3.16016524745350e+004,-1.97992541088463e+001,-7.09725611966315e-001

3.20427951035848e+004,-1.97992872136452e+001,-7.19613660777231e-001

3.24900958542493e+004,-1.97993212325315e+001,-7.29638931043419e-001

3.29436406907028e+004,-1.97993561902714e+001,-7.39803304677196e-001

3.34035167771346e+004,-1.97993921122752e+001,-7.50108688491747e-001

3.38698124945009e+004,-1.97994290246131e+001,-7.60557014490782e-001

3.43426174575100e+004,-1.97994669540304e+001,-7.71150240164882e-001

3.48220225318448e+004,-1.97995059279633e+001,-7.81890348790058e-001

3.53081198516260e+004,-1.97995459745552e+001,-7.92779349725679e-001

3.58010028371187e+004,-1.97995871226729e+001,-8.03819278714836e-001

3.63007662126863e+004,-1.97996294019235e+001,-8.15012198189690e-001

3.68075060249948e+004,-1.97996728426708e+001,-8.26360197575384e-001

3.73213196614721e+004,-1.97997174760530e+001,-8.37865393595986e-001

3.78423058690237e+004,-1.97997633339999e+001,-8.49529930584089e-001

3.83705647730104e+004,-1.97998104492507e+001,-8.61355980789947e-001

3.89061978964912e+004,-1.97998588553716e+001,-8.73345744694479e-001

3.94493081797342e+004,-1.97999085867746e+001,-8.85501451320965e-001

3.99999999999998e+004,-1.97999596787357e+001,-8.97825358551502e-001

4.05583791916010e+004,-1.98000121674133e+001,-9.10319753441663e-001

4.11245530662425e+004,-1.98000660898676e+001,-9.22986952540078e-001

4.16986304336447e+004,-1.98001214840794e+001,-9.35829302204899e-001

4.22807216224550e+004,-1.98001783889700e+001,-9.48849178925373e-001

4.28709385014515e+004,-1.98002368444197e+001,-9.62048989644687e-001

4.34693945010421e+004,-1.98002968912892e+001,-9.75431172077570e-001

4.40762046350642e+004,-1.98003585714376e+001,-9.88998195040367e-001

4.46914855228886e+004,-1.98004219277446e+001,-1.00275255876811e+000

4.53153554118317e+004,-1.98004870041288e+001,-1.01669679524627e+000

4.59479341998812e+004,-1.98005538455697e+001,-1.03083346853247e+000

4.65893434587380e+004,-1.98006224981274e+001,-1.04516517508439e+000

4.72397064571810e+004,-1.98006930089635e+001,-1.05969454408694e+000

4.78991481847569e+004,-1.98007654263617e+001,-1.07442423778089e+000

4.85677953758016e+004,-1.98008397997489e+001,-1.08935695178988e+000

4.92457765337964e+004,-1.98009161797158e+001,-1.10449541544862e+000

4.99332219560642e+004,-1.98009946180377e+001,-1.11984239213438e+000

5.06302637588109e+004,-1.98010751676957e+001,-1.13540067959267e+000

5.13370359025159e+004,-1.98011578828973e+001,-1.15117311026901e+000

5.20536742176771e+004,-1.98012428190973e+001,-1.16716255163616e+000

5.27803164309155e+004,-1.98013300330181e+001,-1.18337190652550e+000

5.35171021914442e+004,-1.98014195826709e+001,-1.19980411345429e+000

5.42641730979066e+004,-1.98015115273755e+001,-1.21646214695492e+000

5.50216727255895e+004,-1.98016059277809e+001,-1.23334901790432e+000

5.57897466540159e+004,-1.98017028458851e+001,-1.25046777385137e+000

5.65685424949235e+004,-1.98018023450549e+001,-1.26782149934537e+000

5.73582099206328e+004,-1.98019044900448e+001,-1.28541331626369e+000

5.81589006928121e+004,-1.98020093470166e+001,-1.30324638413877e+000

5.89707686916437e+004,-1.98021169835580e+001,-1.32132390048335e+000

5.97939699453972e+004,-1.98022274686999e+001,-1.33964910111938e+000

6.06286626604156e+004,-1.98023408729352e+001,-1.35822526049983e+000

6.14750072515201e+004,-1.98024572682345e+001,-1.37705569203694e+000

6.23331663728396e+004,-1.98025767280638e+001,-1.39614374842464e+000

6.32033049490698e+004,-1.98026993273993e+001,-1.41549282196157e+000

6.40855902071694e+004,-1.98028251427425e+001,-1.43510634487664e+000

6.49801917084985e+004,-1.98029542521345e+001,-1.45498778964978e+000

6.58872813814055e+004,-1.98030867351692e+001,-1.47514066933485e+000

6.68070335542691e+004,-1.98032226730055e+001,-1.49556853788120e+000

6.77396249890018e+004,-1.98033621483784e+001,-1.51627499045534e+000

6.86852349150199e+004,-1.98035052456091e+001,-1.53726366376253e+000

6.96440450636895e+004,-1.98036520506139e+001,-1.55853823636830e+000

7.06162397032520e+004,-1.98038026509121e+001,-1.58010242901849e+000

7.16020056742374e+004,-1.98039571356315e+001,-1.60196000496398e+000

7.26015324253724e+004,-1.98041155955140e+001,-1.62411477027899e+000

7.36150120499896e+004,-1.98042781229179e+001,-1.64657057418767e+000

7.46426393229441e+004,-1.98044448118202e+001,-1.66933130938580e+000

7.56846117380472e+004,-1.98046157578161e+001,-1.69240091236767e+000

7.67411295460207e+004,-1.98047910581167e+001,-1.71578336375155e+000

7.78123957929823e+004,-1.98049708115452e+001,-1.73948268861082e+000

7.88986163594682e+004,-1.98051551185311e+001,-1.76350295680297e+000

7.99999999999995e+004,-1.98053440811012e+001,-1.78784828330620e+000

8.11167583832018e+004,-1.98055378028699e+001,-1.81252282855599e+000

8.22491061324848e+004,-1.98057363890257e+001,-1.83753079878692e+000

8.33972608672892e+004,-1.98059399463159e+001,-1.86287644637993e+000

8.45614432449099e+004,-1.98061485830290e+001,-1.88856407021234e+000

8.57418770029029e+004,-1.98063624089733e+001,-1.91459801601688e+000

8.69387890020841e+004,-1.98065815354537e+001,-1.94098267674452e+000

8.81524092701283e+004,-1.98068060752451e+001,-1.96772249293661e+000

8.93829710457770e+004,-1.98070361425627e+001,-1.99482195310404e+000

9.06307108236633e+004,-1.98072718530293e+001,-2.02228559411773e+000

9.18958683997622e+004,-1.98075133236387e+001,-2.05011800160730e+000

9.31786869174758e+004,-1.98077606727172e+001,-2.07832381037084e+000

9.44794129143618e+004,-1.98080140198793e+001,-2.10690770480071e+000

9.57982963695136e+004,-1.98082734859821e+001,-2.13587441931816e+000

9.71355907516031e+004,-1.98085391930742e+001,-2.16522873882643e+000

9.84915530675926e+004,-1.98088112643419e+001,-2.19497549917943e+000

9.98664439121282e+004,-1.98090898240504e+001,-2.22511958766750e+000

1.01260527517622e+005,-1.98093749974827e+001,-2.25566594352270e+000

1.02674071805032e+005,-1.98096669108722e+001,-2.28661955844573e+000

1.04107348435354e+005,-1.98099656913331e+001,-2.31798547715484e+000

1.05560632861831e+005,-1.98102714667854e+001,-2.34976879795887e+000

1.07034204382888e+005,-1.98105843658756e+001,-2.38197467335754e+000

1.08528346195813e+005,-1.98109045178944e+001,-2.41460831066792e+000

1.10043345451179e+005,-1.98112320526878e+001,-2.44767497268377e+000

1.11579493308032e+005,-1.98115671005661e+001,-2.48117997836389e+000

1.13137084989847e+005,-1.98119097922068e+001,-2.51512870355753e+000

1.14716419841265e+005,-1.98122602585538e+001,-2.54952658176509e+000

1.16317801385624e+005,-1.98126186307124e+001,-2.58437910493672e+000

1.17941537383287e+005,-1.98129850398394e+001,-2.61969182431475e+000

1.19587939890794e+005,-1.98133596170294e+001,-2.65547035131807e+000

1.21257325320831e+005,-1.98137424931966e+001,-2.69172035847155e+000

1.22950014503040e+005,-1.98141337989525e+001,-2.72844758038747e+000

1.24666332745679e+005,-1.98145336644796e+001,-2.76565781479525e+000

1.26406609898139e+005,-1.98149422194015e+001,-2.80335692362617e+000

1.28171180414339e+005,-1.98153595926489e+001,-2.84155083415587e+000

1.29960383416997e+005,-1.98157859123220e+001,-2.88024554020500e+000

1.31774562762811e+005,-1.98162213055502e+001,-2.91944710340210e+000

1.33614067108538e+005,-1.98166658983481e+001,-2.95916165451140e+000

1.35479249978003e+005,-1.98171198154690e+001,-2.99939539483006e+000

1.37370469830040e+005,-1.98175831802557e+001,-3.04015459765225e+000

1.39288090127379e+005,-1.98180561144895e+001,-3.08144560981013e+000

1.41232479406504e+005,-1.98185387382371e+001,-3.12327485328766e+000

1.43204011348474e+005,-1.98190311696955e+001,-3.16564882691600e+000

1.45203064850745e+005,-1.98195335250375e+001,-3.20857410814555e+000

1.47230024099979e+005,-1.98200459182547e+001,-3.25205735490702e+000

1.49285278645888e+005,-1.98205684610019e+001,-3.29610530755263e+000

1.51369223476094e+005,-1.98211012624409e+001,-3.34072479089113e+000

1.53482259092041e+005,-1.98216444290863e+001,-3.38592271630863e+000

1.55624791585964e+005,-1.98221980646522e+001,-3.43170608398433e+000

1.57797232718936e+005,-1.98227622699008e+001,-3.47808198520054e+000

1.59999999999999e+005,-1.98233371424950e+001,-3.52505760474718e+000

1.62233516766403e+005,-1.98239227768532e+001,-3.57264022342517e+000

1.64498212264969e+005,-1.98245192640091e+001,-3.62083722064769e+000

1.66794521734578e+005,-1.98251266914762e+001,-3.66965607714145e+000

1.69122886489819e+005,-1.98257451431184e+001,-3.71910437774845e+000

1.71483754005805e+005,-1.98263746990258e+001,-3.76918981432852e+000

1.73877578004168e+005,-1.98270154353997e+001,-3.81992018876336e+000

1.76304818540256e+005,-1.98276674244439e+001,-3.87130341606104e+000

1.78765942091554e+005,-1.98283307342660e+001,-3.92334752756203e+000

1.81261421647326e+005,-1.98290054287883e+001,-3.97606067424412e+000

1.83791736799524e+005,-1.98296915676686e+001,-4.02945113012711e+000

1.86357373834951e+005,-1.98303892062338e+001,-4.08352729577389e+000

1.88958825828723e+005,-1.98310983954245e+001,-4.13829770188731e+000

1.91596592739027e+005,-1.98318191817540e+001,-4.19377101300037e+000

1.94271181503206e+005,-1.98325516072801e+001,-4.24995603125649e+000

1.96983106135185e+005,-1.98332957095932e+001,-4.30686170027818e+000

1.99732887824256e+005,-1.98340515218188e+001,-4.36449710911856e+000

2.02521055035243e+005,-1.98348190726380e+001,-4.42287149629390e+000

2.05348143610063e+005,-1.98355983863238e+001,-4.48199425389237e+000

2.08214696870707e+005,-1.98363894827965e+001,-4.54187493175315e+000

2.11121265723661e+005,-1.98371923776979e+001,-4.60252324171326e+000

2.14068408765776e+005,-1.98380070824845e+001,-4.66394906191428e+000

2.17056692391625e+005,-1.98388336045411e+001,-4.72616244116457e+000

2.20086690902357e+005,-1.98396719473151e+001,-4.78917360335171e+000

2.23158986616063e+005,-1.98405221104722e+001,-4.85299295189552e+000

2.26274169979693e+005,-1.98413840900736e+001,-4.91763107423916e+000

2.29432839682530e+005,-1.98422578787752e+001,-4.98309874636825e+000

2.32635602771247e+005,-1.98431434660499e+001,-5.04940693735163e+000

2.35883074766574e+005,-1.98440408384320e+001,-5.11656681389718e+000

2.39175879781588e+005,-1.98449499797846e+001,-5.18458974491317e+000

2.42514650641661e+005,-1.98458708715907e+001,-5.25348730606999e+000

2.45900029006080e+005,-1.98468034932665e+001,-5.32327128435080e+000

2.49332665491357e+005,-1.98477478224987e+001,-5.39395368258705e+000

2.52813219796278e+005,-1.98487038356038e+001,-5.46554672396800e+000

2.56342360828676e+005,-1.98496715079105e+001,-5.53806285651718e+000

2.59920766833993e+005,-1.98506508141653e+001,-5.61151475752812e+000

2.63549125525621e+005,-1.98516417289586e+001,-5.68591533795127e+000

2.67228134217075e+005,-1.98526442271736e+001,-5.76127774672452e+000

2.70958499956006e+005,-1.98536582844558e+001,-5.83761537503964e+000

2.74740939660078e+005,-1.98546838777030e+001,-5.91494186053769e+000

2.78576180254757e+005,-1.98557209855743e+001,-5.99327109142632e+000

2.82464958813007e+005,-1.98567695890193e+001,-6.07261721051235e+000

2.86408022696948e+005,-1.98578296718241e+001,-6.15299461914380e+000

2.90406129701488e+005,-1.98589012211748e+001,-6.23441798105499e+000

2.94460048199957e+005,-1.98599842282373e+001,-6.31690222610891e+000

2.98570557291775e+005,-1.98610786887521e+001,-6.40046255393396e+000

3.02738446952187e+005,-1.98621846036424e+001,-6.48511443744934e+000

3.06964518184081e+005,-1.98633019796361e+001,-6.57087362627354e+000

3.11249583171928e+005,-1.98644308298986e+001,-6.65775615001678e+000

3.15594465437872e+005,-1.98655711746758e+001,-6.74577832145141e+000

3.19999999999997e+005,-1.98667230419474e+001,-6.83495673956001e+000

3.24467033532806e+005,-1.98678864680865e+001,-6.92530829245839e+000

3.28996424529938e+005,-1.98690614985276e+001,-7.01685016019410e+000

3.33589043469155e+005,-1.98702481884382e+001,-7.10959981741985e+000

3.38245772979638e+005,-1.98714466033957e+001,-7.20357503594210e+000

3.42967508011610e+005,-1.98726568200669e+001,-7.29879388714549e+000

3.47755156008335e+005,-1.98738789268888e+001,-7.39527474429719e+000

3.52609637080511e+005,-1.98751130247503e+001,-7.49303628472948e+000

3.57531884183106e+005,-1.98763592276727e+001,-7.59209749190804e+000

3.62522843294651e+005,-1.98776176634892e+001,-7.69247765738576e+000

3.67583473599047e+005,-1.98788884745205e+001,-7.79419638264854e+000

3.72714747669902e+005,-1.98801718182475e+001,-7.89727358085564e+000

3.77917651657445e+005,-1.98814678679785e+001,-8.00172947848185e+000

3.83193185478053e+005,-1.98827768135113e+001,-8.10758461686447e+000

3.88542363006410e+005,-1.98840988617884e+001,-8.21485985366325e+000

3.93966212270369e+005,-1.98854342375456e+001,-8.32357636423639e+000

3.99465775648511e+005,-1.98867831839525e+001,-8.43375564294316e+000

4.05042110070485e+005,-1.98881459632444e+001,-8.54541950437630e+000

4.10696287220124e+005,-1.98895228573462e+001,-8.65859008453237e+000

4.16429393741414e+005,-1.98909141684862e+001,-8.77328984192780e+000

4.22242531447321e+005,-1.98923202198018e+001,-8.88954155866614e+000

4.28136817531551e+005,-1.98937413559343e+001,-9.00736834146620e+000

4.34113384783250e+005,-1.98951779436147e+001,-9.12679362265571e+000

4.40173381804713e+005,-1.98966303722399e+001,-9.24784116113906e+000

4.46317973232124e+005,-1.98980990544388e+001,-9.37053504334708e+000

4.52548339959385e+005,-1.98995844266297e+001,-9.49489968417298e+000

4.58865679365059e+005,-1.99010869495677e+001,-9.62095982790546e+000

4.65271205542494e+005,-1.99026071088840e+001,-9.74874054916146e+000

4.71766149533147e+005,-1.99041454156163e+001,-9.87826725382746e+000

4.78351759563174e+005,-1.99057024067317e+001,-1.00095656800156e+001

4.85029301283321e+005,-1.99072786456416e+001,-1.01426618990376e+001

4.91800058012158e+005,-1.99088747227107e+001,-1.02775823164062e+001

4.98665330982714e+005,-1.99104912557592e+001,-1.04143536728649e+001

5.05626439592555e+005,-1.99121288905601e+001,-1.05530030454538e+001

5.12684721657352e+005,-1.99137883013319e+001,-1.06935578486139e+001

5.19841533667984e+005,-1.99154701912276e+001,-1.08360458353345e+001

5.27098251051240e+005,-1.99171752928210e+001,-1.09804950983473e+001

5.34456268434150e+005,-1.99189043685910e+001,-1.11269340713680e+001

5.41916999912011e+005,-1.99206582114049e+001,-1.12753915303919e+001

