Freq.,VOut,OutRef

1.00000000000000e+004,-1.23452574098162e+001,-1.28717998741859e-001

1.01395947979003e+004,-1.23452587224431e+001,-1.30514555397875e-001

1.02811382665607e+004,-1.23452600718956e+001,-1.32336179192529e-001

1.04246576084112e+004,-1.23452614592050e+001,-1.34183219545828e-001

1.05701804056138e+004,-1.23452628854308e+001,-1.36056030737366e-001

1.07177346253629e+004,-1.23452643516624e+001,-1.37954971967383e-001

1.08673486252606e+004,-1.23452658590191e+001,-1.39880407429512e-001

1.10190511587661e+004,-1.23452674086518e+001,-1.41832706376647e-001

1.11728713807222e+004,-1.23452690017431e+001,-1.43812243190265e-001

1.13288388529580e+004,-1.23452706395089e+001,-1.45819397452622e-001

1.14869835499703e+004,-1.23452723231983e+001,-1.47854554019555e-001

1.16473358646846e+004,-1.23452740540959e+001,-1.49918103087314e-001

1.18099266142953e+004,-1.23452758335217e+001,-1.52010440270072e-001

1.19747870461893e+004,-1.23452776628321e+001,-1.54131966677359e-001

1.21419488439505e+004,-1.23452795434218e+001,-1.56283088981267e-001

1.23114441334492e+004,-1.23452814767237e+001,-1.58464219500342e-001

1.24833054890161e+004,-1.23452834642107e+001,-1.60675776273660e-001

1.26575659397028e+004,-1.23452855073970e+001,-1.62918183137248e-001

1.28342589756290e+004,-1.23452876078381e+001,-1.65191869809086e-001

1.30134185544193e+004,-1.23452897671332e+001,-1.67497271964284e-001

1.31950791077289e+004,-1.23452919869258e+001,-1.69834831318200e-001

1.33792755478611e+004,-1.23452942689045e+001,-1.72204995712203e-001

1.35660432744767e+004,-1.23452966148052e+001,-1.74608219191898e-001

1.37554181813974e+004,-1.23452990264119e+001,-1.77044962094718e-001

1.39474366635040e+004,-1.23453015055577e+001,-1.79515691138032e-001

1.41421356237309e+004,-1.23453040541265e+001,-1.82020879501509e-001

1.43395524801583e+004,-1.23453066740545e+001,-1.84561006919024e-001

1.45397251732031e+004,-1.23453093673313e+001,-1.87136559765280e-001

1.47426921729110e+004,-1.23453121360018e+001,-1.89748031147116e-001

1.49484924863494e+004,-1.23453149821667e+001,-1.92395920997987e-001

1.51571656651040e+004,-1.23453179079854e+001,-1.95080736165435e-001

1.53687518128801e+004,-1.23453209156768e+001,-1.97802990507661e-001

1.55832915932100e+004,-1.23453240075205e+001,-2.00563204991321e-001

1.58008262372675e+004,-1.23453271858597e+001,-2.03361907782185e-001

1.60213975517924e+004,-1.23453304531016e+001,-2.06199634348263e-001

1.62450479271247e+004,-1.23453338117198e+001,-2.09076927555653e-001

1.64718203453514e+004,-1.23453372642564e+001,-2.11994337767223e-001

1.67017583885674e+004,-1.23453408133228e+001,-2.14952422949910e-001

1.69349062472505e+004,-1.23453444616026e+001,-2.17951748770736e-001

1.71713087287550e+004,-1.23453482118529e+001,-2.20992888704211e-001

1.74110112659224e+004,-1.23453520669069e+001,-2.24076424135656e-001

1.76540599258131e+004,-1.23453560296752e+001,-2.27202944470642e-001

1.79005014185594e+004,-1.23453601031480e+001,-2.30373047241641e-001

1.81503831063432e+004,-1.23453642903979e+001,-2.33587338214234e-001

1.84037530124975e+004,-1.23453685945813e+001,-2.36846431502672e-001

1.86606598307361e+004,-1.23453730189412e+001,-2.40150949677731e-001

1.89211529345119e+004,-1.23453775668089e+001,-2.43501523882580e-001

1.91852823865052e+004,-1.23453822416070e+001,-2.46898793946866e-001

1.94530989482457e+004,-1.23453870468514e+001,-2.50343408501066e-001

1.97246540898671e+004,-1.23453919861538e+001,-2.53836025096635e-001

1.99999999999999e+004,-1.23453970632247e+001,-2.57377310322296e-001

2.02791895958005e+004,-1.23454022818749e+001,-2.60967939928123e-001

2.05622765331213e+004,-1.23454076460194e+001,-2.64608598943567e-001

2.08493152168224e+004,-1.23454131596793e+001,-2.68299981801347e-001

2.11403608112276e+004,-1.23454188269848e+001,-2.72042792465592e-001

2.14354692507258e+004,-1.23454246521783e+001,-2.75837744552521e-001

2.17346972505211e+004,-1.23454306396171e+001,-2.79685561462582e-001

2.20381023175322e+004,-1.23454367937761e+001,-2.83586976508510e-001

2.23457427614443e+004,-1.23454431192516e+001,-2.87542733043787e-001

2.26576777059159e+004,-1.23454496207633e+001,-2.91553584599296e-001

2.29739670999406e+004,-1.23454563031591e+001,-2.95620295011263e-001

2.32946717293690e+004,-1.23454631714165e+001,-2.99743638562374e-001

2.36198532285905e+004,-1.23454702306476e+001,-3.03924400113636e-001

2.39495740923785e+004,-1.23454774861016e+001,-3.08163375246181e-001

2.42838976879009e+004,-1.23454849431683e+001,-3.12461370399850e-001

2.46228882668982e+004,-1.23454926073822e+001,-3.16819203014253e-001

2.49666109780322e+004,-1.23455004844257e+001,-3.21237701672051e-001

2.53151318794055e+004,-1.23455085801332e+001,-3.25717706243936e-001

2.56685179512580e+004,-1.23455169004947e+001,-3.30260068034303e-001

2.60268371088386e+004,-1.23455254516595e+001,-3.34865649930483e-001

2.63901582154578e+004,-1.23455342399408e+001,-3.39535326548786e-001

2.67585510957221e+004,-1.23455432718190e+001,-3.44269984390496e-001

2.71320865489533e+004,-1.23455525539467e+001,-3.49070521988955e-001

2.75108363627948e+004,-1.23455620931523e+001,-3.53937850068070e-001

2.78948733270080e+004,-1.23455718964447e+001,-3.58872891695178e-001

2.82842712474618e+004,-1.23455819710172e+001,-3.63876582441819e-001

2.86791049603164e+004,-1.23455923242532e+001,-3.68949870537067e-001

2.90794503464061e+004,-1.23456029637291e+001,-3.74093717036461e-001

2.94853843458219e+004,-1.23456138972206e+001,-3.79309095975754e-001

2.98969849726987e+004,-1.23456251327064e+001,-3.84596994539540e-001

3.03143313302078e+004,-1.23456366783737e+001,-3.89958413226039e-001

3.07375036257601e+004,-1.23456485426228e+001,-3.95394366015125e-001

3.11665831864199e+004,-1.23456607340723e+001,-4.00905880534595e-001

3.16016524745350e+004,-1.23456732615642e+001,-4.06493998232441e-001

3.20427951035848e+004,-1.23456861341696e+001,-4.12159774546405e-001

3.24900958542493e+004,-1.23456993611929e+001,-4.17904279082309e-001

3.29436406907028e+004,-1.23457129521787e+001,-4.23728595783797e-001

3.34035167771346e+004,-1.23457269169161e+001,-4.29633823111875e-001

3.38698124945009e+004,-1.23457412654447e+001,-4.35621074223960e-001

3.43426174575100e+004,-1.23457560080608e+001,-4.41691477151123e-001

3.48220225318448e+004,-1.23457711553225e+001,-4.47846174981707e-001

3.53081198516260e+004,-1.23457867180555e+001,-4.54086326044356e-001

3.58010028371187e+004,-1.23458027073598e+001,-4.60413104091107e-001

3.63007662126863e+004,-1.23458191346152e+001,-4.66827698483925e-001

3.68075060249948e+004,-1.23458360114874e+001,-4.73331314383852e-001

3.73213196614721e+004,-1.23458533499342e+001,-4.79925172938536e-001

3.78423058690237e+004,-1.23458711622119e+001,-4.86610511473389e-001

3.83705647730104e+004,-1.23458894608820e+001,-4.93388583683721e-001

3.89061978964912e+004,-1.23459082588165e+001,-5.00260659829161e-001

3.94493081797342e+004,-1.23459275692058e+001,-5.07228026926850e-001

3.99999999999998e+004,-1.23459474055640e+001,-5.14291988949815e-001

4.05583791916010e+004,-1.23459677817362e+001,-5.21453867023977e-001

4.11245530662425e+004,-1.23459887119052e+001,-5.28714999627192e-001

4.16986304336447e+004,-1.23460102105975e+001,-5.36076742792091e-001

4.22807216224550e+004,-1.23460322926910e+001,-5.43540470304583e-001

4.28709385014515e+004,-1.23460549734210e+001,-5.51107573910521e-001

4.34693945010421e+004,-1.23460782683873e+001,-5.58779463518092e-001

4.40762046350642e+004,-1.23461021935613e+001,-5.66557567406269e-001

4.46914855228886e+004,-1.23461267652924e+001,-5.74443332429300e-001

4.53153554118317e+004,-1.23461520003149e+001,-5.82438224227694e-001

4.59479341998812e+004,-1.23461779157554e+001,-5.90543727436509e-001

4.65893434587380e+004,-1.23462045291389e+001,-5.98761345896900e-001

4.72397064571810e+004,-1.23462318583962e+001,-6.07092602869175e-001

4.78991481847569e+004,-1.23462599218703e+001,-6.15539041243947e-001

4.85677953758016e+004,-1.23462887383235e+001,-6.24102223759276e-001

4.92457765337964e+004,-1.23463183269438e+001,-6.32783733212905e-001

4.99332219560642e+004,-1.23463487073519e+001,-6.41585172683065e-001

5.06302637588109e+004,-1.23463798996070e+001,-6.50508165743213e-001

5.13370359025159e+004,-1.23464119242145e+001,-6.59554356681088e-001

5.20536742176771e+004,-1.23464448021312e+001,-6.68725410719797e-001

5.27803164309155e+004,-1.23464785547719e+001,-6.78023014237711e-001

5.35171021914442e+004,-1.23465132040158e+001,-6.87448874990056e-001

5.42641730979066e+004,-1.23465487722120e+001,-6.97004722333031e-001

5.50216727255895e+004,-1.23465852821854e+001,-7.06692307446442e-001

5.57897466540159e+004,-1.23466227572424e+001,-7.16513403556476e-001

5.65685424949235e+004,-1.23466612211757e+001,-7.26469806166784e-001

5.73582099206328e+004,-1.23467006982702e+001,-7.36563333278100e-001

5.81589006928121e+004,-1.23467412133069e+001,-7.46795825621383e-001

5.89707686916437e+004,-1.23467827915679e+001,-7.57169146882965e-001

5.97939699453972e+004,-1.23468254588409e+001,-7.67685183934617e-001

6.06286626604156e+004,-1.23468692414222e+001,-7.78345847064080e-001

6.14750072515201e+004,-1.23469141661207e+001,-7.89153070206641e-001

6.23331663728396e+004,-1.23469602602613e+001,-8.00108811174484e-001

6.32033049490698e+004,-1.23470075516867e+001,-8.11215051894169e-001

6.40855902071694e+004,-1.23470560687602e+001,-8.22473798636915e-001

6.49801917084985e+004,-1.23471058403672e+001,-8.33887082255611e-001

6.58872813814055e+004,-1.23471568959160e+001,-8.45456958421201e-001

6.68070335542691e+004,-1.23472092653391e+001,-8.57185507858298e-001

6.77396249890018e+004,-1.23472629790924e+001,-8.69074836585803e-001

6.86852349150199e+004,-1.23473180681550e+001,-8.81127076155562e-001

6.96440450636895e+004,-1.23473745640272e+001,-8.93344383894698e-001

7.06162397032520e+004,-1.23474324987292e+001,-9.05728943146169e-001

7.16020056742374e+004,-1.23474919047974e+001,-9.18282963515672e-001

7.26015324253724e+004,-1.23475528152815e+001,-9.31008681115020e-001

7.36150120499896e+004,-1.23476152637390e+001,-9.43908358811667e-001

7.46426393229441e+004,-1.23476792842303e+001,-9.56984286478081e-001

7.56846117380472e+004,-1.23477449113120e+001,-9.70238781242267e-001

7.67411295460207e+004,-1.23478121800295e+001,-9.83674187743378e-001

7.78123957929823e+004,-1.23478811259086e+001,-9.97292878386962e-001

7.88986163594682e+004,-1.23479517849454e+001,-1.01109725360530e+000

7.99999999999995e+004,-1.23480241935957e+001,-1.02508974211791e+000

8.11167583832018e+004,-1.23480983887630e+001,-1.03927280119919e+000

8.22491061324848e+004,-1.23481744077851e+001,-1.05364891694461e+000

8.33972608672892e+004,-1.23482522884194e+001,-1.06822060454488e+000

8.45614432449099e+004,-1.23483320688265e+001,-1.08299040856247e+000

8.57418770029029e+004,-1.23484137875533e+001,-1.09796090321102e+000

8.69387890020841e+004,-1.23484974835132e+001,-1.11313469264309e+000

8.81524092701283e+004,-1.23485831959660e+001,-1.12851441123956e+000

8.93829710457770e+004,-1.23486709644955e+001,-1.14410272390666e+000

9.06307108236633e+004,-1.23487608289853e+001,-1.15990232637893e+000

9.18958683997622e+004,-1.23488528295935e+001,-1.17591594552629e+000

9.31786869174758e+004,-1.23489470067247e+001,-1.19214633967373e+000

9.44794129143618e+004,-1.23490434010012e+001,-1.20859629892145e+000

9.57982963695136e+004,-1.23491420532312e+001,-1.22526864547883e+000

9.71355907516031e+004,-1.23492430043759e+001,-1.24216623400451e+000

9.84915530675926e+004,-1.23493462955137e+001,-1.25929195195636e+000

9.98664439121282e+004,-1.23494519678038e+001,-1.27664871995184e+000

1.01260527517622e+005,-1.23495600624455e+001,-1.29423949213961e+000

1.02674071805032e+005,-1.23496706206372e+001,-1.31206725658159e+000

1.04107348435354e+005,-1.23497836835328e+001,-1.33013503564773e+000

1.05560632861831e+005,-1.23498992921950e+001,-1.34844588642581e+000

1.07034204382888e+005,-1.23500174875469e+001,-1.36700290114200e+000

1.08528346195813e+005,-1.23501383103216e+001,-1.38580920760041e+000

1.10043345451179e+005,-1.23502618010089e+001,-1.40486796963441e+000

1.11579493308032e+005,-1.23503879997999e+001,-1.42418238757831e+000

1.13137084989847e+005,-1.23505169465291e+001,-1.44375569875570e+000

1.14716419841265e+005,-1.23506486806141e+001,-1.46359117798610e+000

1.16317801385624e+005,-1.23507832409931e+001,-1.48369213811216e+000

1.17941537383287e+005,-1.23509206660597e+001,-1.50406193054986e+000

1.19587939890794e+005,-1.23510609935955e+001,-1.52470394585833e+000

1.21257325320831e+005,-1.23512042607005e+001,-1.54562161433360e+000

1.22950014503040e+005,-1.23513505037207e+001,-1.56681840663036e+000

1.24666332745679e+005,-1.23514997581740e+001,-1.58829783440453e+000

1.26406609898139e+005,-1.23516520586730e+001,-1.61006345098832e+000

1.28171180414339e+005,-1.23518074388471e+001,-1.63211885208927e+000

1.29960383416997e+005,-1.23519659312603e+001,-1.65446767652228e+000

1.31774562762811e+005,-1.23521275673294e+001,-1.67711360697205e+000

1.33614067108538e+005,-1.23522923772381e+001,-1.70006037078584e+000

1.35479249978003e+005,-1.23524603898509e+001,-1.72331174080387e+000

1.37370469830040e+005,-1.23526316326240e+001,-1.74687153622086e+000

1.39288090127379e+005,-1.23528061315159e+001,-1.77074362348618e+000

1.41232479406504e+005,-1.23529839108951e+001,-1.79493191724198e+000

1.43204011348474e+005,-1.23531649934478e+001,-1.81944038129737e+000

1.45203064850745e+005,-1.23533494000838e+001,-1.84427302964643e+000

1.47230024099979e+005,-1.23535371498416e+001,-1.86943392752547e+000

1.49285278645888e+005,-1.23537282597928e+001,-1.89492719251316e+000

1.51369223476094e+005,-1.23539227449460e+001,-1.92075699567355e+000

1.53482259092041e+005,-1.23541206181505e+001,-1.94692756274575e+000

1.55624791585964e+005,-1.23543218899995e+001,-1.97344317537828e+000

1.57797232718936e+005,-1.23545265687345e+001,-2.00030817240854e+000

1.59999999999999e+005,-1.23547346601488e+001,-2.02752695119290e+000

1.62233516766403e+005,-1.23549461674931e+001,-2.05510396898251e+000

1.64498212264969e+005,-1.23551610913814e+001,-2.08304374434926e+000

1.66794521734578e+005,-1.23553794296983e+001,-2.11135085866120e+000

1.69122886489819e+005,-1.23556011775083e+001,-2.14002995760685e+000

1.71483754005805e+005,-1.23558263269670e+001,-2.16908575277254e+000

1.73877578004168e+005,-1.23560548672343e+001,-2.19852302326660e+000

1.76304818540256e+005,-1.23562867843911e+001,-2.22834661739666e+000

1.78765942091554e+005,-1.23565220613581e+001,-2.25856145439751e+000

1.81261421647326e+005,-1.23567606778185e+001,-2.28917252620769e+000

1.83791736799524e+005,-1.23570026101447e+001,-2.32018489929811e+000

1.86357373834951e+005,-1.23572478313286e+001,-2.35160371654763e+000

1.88958825828723e+005,-1.23574963109166e+001,-2.38343419917017e+000

1.91596592739027e+005,-1.23577480149499e+001,-2.41568164868660e+000

1.94271181503206e+005,-1.23580029059089e+001,-2.44835144894733e+000

1.96983106135185e+005,-1.23582609426646e+001,-2.48144906819575e+000

1.99732887824256e+005,-1.23585220804346e+001,-2.51498006118040e+000

2.02521055035243e+005,-1.23587862707464e+001,-2.54895007130636e+000

2.05348143610063e+005,-1.23590534614063e+001,-2.58336483283021e+000

2.08214696870707e+005,-1.23593235964761e+001,-2.61823017309205e+000

2.11121265723661e+005,-1.23595966162564e+001,-2.65355201478467e+000

2.14068408765776e+005,-1.23598724572774e+001,-2.68933637825860e+000

2.17056692391625e+005,-1.23601510522976e+001,-2.72558938385811e+000

2.20086690902357e+005,-1.23604323303105e+001,-2.76231725428759e+000

2.23158986616063e+005,-1.23607162165588e+001,-2.79952631700400e+000

2.26274169979693e+005,-1.23610026325581e+001,-2.83722300663471e+000

2.29432839682530e+005,-1.23612914961274e+001,-2.87541386741578e+000

2.32635602771247e+005,-1.23615827214302e+001,-2.91410555564789e+000

2.35883074766574e+005,-1.23618762190227e+001,-2.95330484216773e+000

2.39175879781588e+005,-1.23621718959109e+001,-2.99301861483174e+000

2.42514650641661e+005,-1.23624696556175e+001,-3.03325388100670e+000

2.45900029006080e+005,-1.23627693982562e+001,-3.07401777006668e+000

2.49332665491357e+005,-1.23630710206157e+001,-3.11531753589081e+000

2.52813219796278e+005,-1.23633744162510e+001,-3.15716055936064e+000

2.56342360828676e+005,-1.23636794755851e+001,-3.19955435084974e+000

2.59920766833993e+005,-1.23639860860165e+001,-3.24250655270876e+000

2.63549125525621e+005,-1.23642941320364e+001,-3.28602494173536e+000

2.67228134217075e+005,-1.23646034953535e+001,-3.33011743163158e+000

2.70958499956006e+005,-1.23649140550253e+001,-3.37479207544134e+000

2.74740939660078e+005,-1.23652256875976e+001,-3.42005706796926e+000

2.78576180254757e+005,-1.23655382672496e+001,-3.46592074817430e+000

2.82464958813007e+005,-1.23658516659470e+001,-3.51239160153620e+000

2.86408022696948e+005,-1.23661657535987e+001,-3.55947826239559e+000

2.90406129701488e+005,-1.23664803982212e+001,-3.60718951626016e+000

2.94460048199957e+005,-1.23667954661062e+001,-3.65553430207934e+000

2.98570557291775e+005,-1.23671108219935e+001,-3.70452171448249e+000

3.02738446952187e+005,-1.23674263292471e+001,-3.75416100598232e+000

3.06964518184081e+005,-1.23677418500352e+001,-3.80446158913710e+000

3.11249583171928e+005,-1.23680572455120e+001,-3.85543303867726e+000

3.15594465437872e+005,-1.23683723760022e+001,-3.90708509358959e+000

3.19999999999997e+005,-1.23686871011863e+001,-3.95942765916159e+000

3.24467033532806e+005,-1.23690012802875e+001,-4.01247080898597e+000

3.28996424529938e+005,-1.23693147722573e+001,-4.06622478692336e+000

3.33589043469155e+005,-1.23696274359619e+001,-4.12070000902617e+000

3.38245772979638e+005,-1.23699391303666e+001,-4.17590706542253e+000

3.42967508011610e+005,-1.23702497147186e+001,-4.23185672216154e+000

3.47755156008335e+005,-1.23705590487277e+001,-4.28855992302150e+000

3.52609637080511e+005,-1.23708669927425e+001,-4.34602779128445e+000

3.57531884183106e+005,-1.23711734079252e+001,-4.40427163147405e+000

3.62522843294651e+005,-1.23714781564198e+001,-4.46330293106485e+000

3.67583473599047e+005,-1.23717811015171e+001,-4.52313336216120e+000

3.72714747669902e+005,-1.23720821078136e+001,-4.58377478315090e+000

3.77917651657445e+005,-1.23723810413642e+001,-4.64523924033403e+000

3.83193185478053e+005,-1.23726777698295e+001,-4.70753896953427e+000

3.88542363006410e+005,-1.23729721626155e+001,-4.77068639768956e+000

3.93966212270369e+005,-1.23732640910063e+001,-4.83469414443381e+000

3.99465775648511e+005,-1.23735534282887e+001,-4.89957502366567e+000

4.05042110070485e+005,-1.23738400498703e+001,-4.96534204511322e+000

4.10696287220124e+005,-1.23741238333874e+001,-5.03200841589620e+000

4.16429393741414e+005,-1.23744046588057e+001,-5.09958754209146e+000

4.22242531447321e+005,-1.23746824085118e+001,-5.16809303030347e+000

4.28136817531551e+005,-1.23749569673959e+001,-5.23753868924717e+000

4.34113384783250e+005,-1.23752282229252e+001,-5.30793853134337e+000

4.40173381804713e+005,-1.23754960652080e+001,-5.37930677433694e+000

4.46317973232124e+005,-1.23757603870492e+001,-5.45165784293430e+000

4.52548339959385e+005,-1.23760210839957e+001,-5.52500637047224e+000

4.58865679365059e+005,-1.23762780543730e+001,-5.59936720061675e+000

4.65271205542494e+005,-1.23765311993124e+001,-5.67475538909802e+000

4.71766149533147e+005,-1.23767804227690e+001,-5.75118620548693e+000

4.78351759563174e+005,-1.23770256315309e+001,-5.82867513501452e+000

4.85029301283321e+005,-1.23772667352189e+001,-5.90723788044060e+000

4.91800058012158e+005,-1.23775036462781e+001,-5.98689036397382e+000

4.98665330982714e+005,-1.23777362799607e+001,-6.06764872924752e+000

5.05626439592555e+005,-1.23779645543002e+001,-6.14952934335512e+000

5.12684721657352e+005,-1.23781883900784e+001,-6.23254879894814e+000

5.19841533667984e+005,-1.23784077107831e+001,-6.31672391639979e+000

5.27098251051240e+005,-1.23786224425600e+001,-6.40207174603828e+000

5.34456268434150e+005,-1.23788325141559e+001,-6.48860957045169e+000

5.41916999912011e+005,-1.23790378568565e+001,-6.57635490686757e+000

