Freq.,VOut,OutRef

1.00000000000000e+004,-2.44821765580649e+001,-1.77115621388152e-001

1.01395947979003e+004,-2.44821799347342e+001,-1.79587415403895e-001

1.02811382665607e+004,-2.44821834061566e+001,-1.82093686901006e-001

1.04246576084112e+004,-2.44821869749857e+001,-1.84634916004065e-001

1.05701804056138e+004,-2.44821906439491e+001,-1.87211589490296e-001

1.07177346253629e+004,-2.44821944158509e+001,-1.89824200879008e-001

1.08673486252606e+004,-2.44821982935729e+001,-1.92473250527445e-001

1.10190511587661e+004,-2.44822022800775e+001,-1.95159245720295e-001

1.11728713807222e+004,-2.44822063784098e+001,-1.97882700765962e-001

1.13288388529580e+004,-2.44822105916995e+001,-2.00644137092391e-001

1.14869835499703e+004,-2.44822149231635e+001,-2.03444083342913e-001

1.16473358646846e+004,-2.44822193761082e+001,-2.06283075475444e-001

1.18099266142953e+004,-2.44822239539324e+001,-2.09161656860155e-001

1.19747870461893e+004,-2.44822286601294e+001,-2.12080378380174e-001

1.21419488439505e+004,-2.44822334982893e+001,-2.15039798536735e-001

1.23114441334492e+004,-2.44822384721028e+001,-2.18040483546782e-001

1.24833054890161e+004,-2.44822435853624e+001,-2.21083007454286e-001

1.26575659397028e+004,-2.44822488419667e+001,-2.24167952229280e-001

1.28342589756290e+004,-2.44822542459225e+001,-2.27295907878473e-001

1.30134185544193e+004,-2.44822598013478e+001,-2.30467472555320e-001

1.31950791077289e+004,-2.44822655124749e+001,-2.33683252666126e-001

1.33792755478611e+004,-2.44822713836538e+001,-2.36943862983940e-001

1.35660432744767e+004,-2.44822774193553e+001,-2.40249926759092e-001

1.37554181813974e+004,-2.44822836241740e+001,-2.43602075835342e-001

1.39474366635040e+004,-2.44822900028320e+001,-2.47000950765358e-001

1.41421356237309e+004,-2.44822965601825e+001,-2.50447200924028e-001

1.43395524801583e+004,-2.44823033012131e+001,-2.53941484630684e-001

1.45397251732031e+004,-2.44823102310495e+001,-2.57484469268298e-001

1.47426921729110e+004,-2.44823173549592e+001,-2.61076831402137e-001

1.49484924863494e+004,-2.44823246783560e+001,-2.64719256904237e-001

1.51571656651040e+004,-2.44823322068030e+001,-2.68412441078255e-001

1.53687518128801e+004,-2.44823399460171e+001,-2.72157088785412e-001

1.55832915932100e+004,-2.44823479018739e+001,-2.75953914565849e-001

1.58008262372675e+004,-2.44823560804103e+001,-2.79803642777403e-001

1.60213975517924e+004,-2.44823644878309e+001,-2.83707007715712e-001

1.62450479271247e+004,-2.44823731305108e+001,-2.87664753753541e-001

1.64718203453514e+004,-2.44823820150015e+001,-2.91677635468798e-001

1.67017583885674e+004,-2.44823911480347e+001,-2.95746417783291e-001

1.69349062472505e+004,-2.44824005365279e+001,-2.99871876096002e-001

1.71713087287550e+004,-2.44824101875891e+001,-3.04054796422331e-001

1.74110112659224e+004,-2.44824201085216e+001,-3.08295975535184e-001

1.76540599258131e+004,-2.44824303068299e+001,-3.12596221101792e-001

1.79005014185594e+004,-2.44824407902248e+001,-3.16956351832240e-001

1.81503831063432e+004,-2.44824515666289e+001,-3.21377197618281e-001

1.84037530124975e+004,-2.44824626441821e+001,-3.25859599683045e-001

1.86606598307361e+004,-2.44824740312479e+001,-3.30404410726901e-001

1.89211529345119e+004,-2.44824857364190e+001,-3.35012495077438e-001

1.91852823865052e+004,-2.44824977685235e+001,-3.39684728838802e-001

1.94530989482457e+004,-2.44825101366312e+001,-3.44422000046402e-001

1.97246540898671e+004,-2.44825228500599e+001,-3.49225208819578e-001

1.99999999999999e+004,-2.44825359183824e+001,-3.54095267516292e-001

2.02791895958005e+004,-2.44825493514326e+001,-3.59033100894071e-001

2.05622765331213e+004,-2.44825631593130e+001,-3.64039646265613e-001

2.08493152168224e+004,-2.44825773524014e+001,-3.69115853660203e-001

2.11403608112276e+004,-2.44825919413587e+001,-3.74262685985428e-001

2.14354692507258e+004,-2.44826069371353e+001,-3.79481119195892e-001

2.17346972505211e+004,-2.44826223509801e+001,-3.84772142451142e-001

2.20381023175322e+004,-2.44826381944472e+001,-3.90136758289224e-001

2.23457427614443e+004,-2.44826544794044e+001,-3.95575982792288e-001

2.26576777059159e+004,-2.44826712180411e+001,-4.01090845758557e-001

2.29739670999406e+004,-2.44826884228773e+001,-4.06682390874159e-001

2.32946717293690e+004,-2.44827061067711e+001,-4.12351675887183e-001

2.36198532285905e+004,-2.44827242829286e+001,-4.18099772782300e-001

2.39495740923785e+004,-2.44827429649125e+001,-4.23927767957672e-001

2.42838976879009e+004,-2.44827621666506e+001,-4.29836762406430e-001

2.46228882668982e+004,-2.44827819024463e+001,-4.35827871892979e-001

2.49666109780322e+004,-2.44828021869878e+001,-4.41902227136725e-001

2.53151318794055e+004,-2.44828230353575e+001,-4.48060973996045e-001

2.56685179512580e+004,-2.44828444630429e+001,-4.54305273652190e-001

2.60268371088386e+004,-2.44828664859459e+001,-4.60636302797053e-001

2.63901582154578e+004,-2.44828891203944e+001,-4.67055253818510e-001

2.67585510957221e+004,-2.44829123831523e+001,-4.73563334993524e-001

2.71320865489533e+004,-2.44829362914307e+001,-4.80161770675530e-001

2.75108363627948e+004,-2.44829608628992e+001,-4.86851801490143e-001

2.78948733270080e+004,-2.44829861156974e+001,-4.93634684526731e-001

2.82842712474618e+004,-2.44830120684465e+001,-5.00511693534633e-001

2.86791049603164e+004,-2.44830387402614e+001,-5.07484119119490e-001

2.90794503464061e+004,-2.44830661507626e+001,-5.14553268942145e-001

2.94853843458219e+004,-2.44830943200892e+001,-5.21720467915877e-001

2.98969849726987e+004,-2.44831232689114e+001,-5.28987058409048e-001

3.03143313302078e+004,-2.44831530184431e+001,-5.36354400447190e-001

3.07375036257601e+004,-2.44831835904558e+001,-5.43823871912737e-001

3.11665831864199e+004,-2.44832150072917e+001,-5.51396868753471e-001

3.16016524745350e+004,-2.44832472918774e+001,-5.59074805186025e-001

3.20427951035848e+004,-2.44832804677383e+001,-5.66859113900751e-001

3.24900958542493e+004,-2.44833145590125e+001,-5.74751246272119e-001

3.29436406907028e+004,-2.44833495904659e+001,-5.82752672564651e-001

3.34035167771346e+004,-2.44833855875060e+001,-5.90864882144649e-001

3.38698124945009e+004,-2.44834225761983e+001,-5.99089383688077e-001

3.43426174575100e+004,-2.44834605832809e+001,-6.07427705392454e-001

3.48220225318448e+004,-2.44834996361799e+001,-6.15881395189817e-001

3.53081198516260e+004,-2.44835397630260e+001,-6.24452020958022e-001

3.58010028371187e+004,-2.44835809926699e+001,-6.33141170734542e-001

3.63007662126863e+004,-2.44836233546995e+001,-6.41950452929882e-001

3.68075060249948e+004,-2.44836668794558e+001,-6.50881496541545e-001

3.73213196614721e+004,-2.44837115980502e+001,-6.59935951369226e-001

3.78423058690237e+004,-2.44837575423817e+001,-6.69115488229701e-001

3.83705647730104e+004,-2.44838047451540e+001,-6.78421799172180e-001

3.89061978964912e+004,-2.44838532398935e+001,-6.87856597694733e-001

3.94493081797342e+004,-2.44839030609671e+001,-6.97421618956868e-001

3.99999999999998e+004,-2.44839542435999e+001,-7.07118619999448e-001

4.05583791916010e+004,-2.44840068238941e+001,-7.16949379956344e-001

4.11245530662425e+004,-2.44840608388471e+001,-7.26915700272745e-001

4.16986304336447e+004,-2.44841163263706e+001,-7.37019404919040e-001

4.22807216224550e+004,-2.44841733253091e+001,-7.47262340606106e-001

4.28709385014515e+004,-2.44842318754593e+001,-7.57646376998711e-001

4.34693945010421e+004,-2.44842920175892e+001,-7.68173406931517e-001

4.40762046350642e+004,-2.44843537934578e+001,-7.78845346620575e-001

4.46914855228886e+004,-2.44844172458343e+001,-7.89664135876284e-001

4.53153554118317e+004,-2.44844824185181e+001,-8.00631738315275e-001

4.59479341998812e+004,-2.44845493563582e+001,-8.11750141571586e-001

4.65893434587380e+004,-2.44846181052738e+001,-8.23021357504852e-001

4.72397064571810e+004,-2.44846887122731e+001,-8.34447422411238e-001

4.78991481847569e+004,-2.44847612254746e+001,-8.46030397228522e-001

4.85677953758016e+004,-2.44848356941261e+001,-8.57772367742684e-001

4.92457765337964e+004,-2.44849121686254e+001,-8.69675444793440e-001

4.99332219560642e+004,-2.44849907005397e+001,-8.81741764474959e-001

5.06302637588109e+004,-2.44850713426262e+001,-8.93973488338147e-001

5.13370359025159e+004,-2.44851541488515e+001,-9.06372803589862e-001

5.20536742176771e+004,-2.44852391744112e+001,-9.18941923290249e-001

5.27803164309155e+004,-2.44853264757501e+001,-9.31683086547610e-001

5.35171021914442e+004,-2.44854161105812e+001,-9.44598558711531e-001

5.42641730979066e+004,-2.44855081379048e+001,-9.57690631564051e-001

5.50216727255895e+004,-2.44856026180277e+001,-9.70961623508220e-001

5.57897466540159e+004,-2.44856996125818e+001,-9.84413879753718e-001

5.65685424949235e+004,-2.44857991845420e+001,-9.98049772501293e-001

5.73582099206328e+004,-2.44859013982446e+001,-1.01187170112273e+000

5.81589006928121e+004,-2.44860063194044e+001,-1.02588209233987e+000

5.89707686916437e+004,-2.44861140151317e+001,-1.04008340039961e+000

5.97939699453972e+004,-2.44862245539489e+001,-1.05447810724640e+000

6.06286626604156e+004,-2.44863380058059e+001,-1.06906872269324e+000

6.14750072515201e+004,-2.44864544420953e+001,-1.08385778458741e+000

6.23331663728396e+004,-2.44865739356671e+001,-1.09884785897486e+000

6.32033049490698e+004,-2.44866965608419e+001,-1.11404154026096e+000

6.40855902071694e+004,-2.44868223934239e+001,-1.12944145136834e+000

6.49801917084985e+004,-2.44869515107122e+001,-1.14505024389352e+000

6.58872813814055e+004,-2.44870839915123e+001,-1.16087059825625e+000

6.68070335542691e+004,-2.44872199161450e+001,-1.17690522385175e+000

6.77396249890018e+004,-2.44873593664553e+001,-1.19315685919392e+000

6.86852349150199e+004,-2.44875024258196e+001,-1.20962827206249e+000

6.96440450636895e+004,-2.44876491791515e+001,-1.22632225964031e+000

7.06162397032520e+004,-2.44877997129064e+001,-1.24324164865491e+000

7.16020056742374e+004,-2.44879541150843e+001,-1.26038929551259e+000

7.26015324253724e+004,-2.44881124752308e+001,-1.27776808643410e+000

7.36150120499896e+004,-2.44882748844376e+001,-1.29538093758405e+000

7.46426393229441e+004,-2.44884414353392e+001,-1.31323079520421e+000

7.56846117380472e+004,-2.44886122221095e+001,-1.33132063573977e+000

7.67411295460207e+004,-2.44887873404550e+001,-1.34965346596878e+000

7.78123957929823e+004,-2.44889668876069e+001,-1.36823232312822e+000

7.88986163594682e+004,-2.44891509623105e+001,-1.38706027503991e+000

7.99999999999995e+004,-2.44893396648117e+001,-1.40614042023934e+000

8.11167583832018e+004,-2.44895330968419e+001,-1.42547588810014e+000

8.22491061324848e+004,-2.44897313616001e+001,-1.44506983896419e+000

8.33972608672892e+004,-2.44899345637315e+001,-1.46492546427116e+000

8.45614432449099e+004,-2.44901428093043e+001,-1.48504598668997e+000

8.57418770029029e+004,-2.44903562057830e+001,-1.50543466025484e+000

8.69387890020841e+004,-2.44905748619983e+001,-1.52609477050402e+000

8.81524092701283e+004,-2.44907988881145e+001,-1.54702963462307e+000

8.93829710457770e+004,-2.44910283955930e+001,-1.56824260159386e+000

9.06307108236633e+004,-2.44912634971527e+001,-1.58973705234931e+000

9.18958683997622e+004,-2.44915043067260e+001,-1.61151639993790e+000

9.31786869174758e+004,-2.44917509394129e+001,-1.63358408969130e+000

9.44794129143618e+004,-2.44920035114287e+001,-1.65594359940895e+000

9.57982963695136e+004,-2.44922621400502e+001,-1.67859843954637e+000

9.71355907516031e+004,-2.44925269435559e+001,-1.70155215342023e+000

9.84915530675926e+004,-2.44927980411639e+001,-1.72480831742521e+000

9.98664439121282e+004,-2.44930755529637e+001,-1.74837054126503e+000

1.01260527517622e+005,-2.44933595998447e+001,-1.77224246820203e+000

1.02674071805032e+005,-2.44936503034204e+001,-1.79642777532280e+000

1.04107348435354e+005,-2.44939477859471e+001,-1.82093017382511e+000

1.05560632861831e+005,-2.44942521702390e+001,-1.84575340932458e+000

1.07034204382888e+005,-2.44945635795782e+001,-1.87090126218675e+000

1.08528346195813e+005,-2.44948821376195e+001,-1.89637754788453e+000

1.10043345451179e+005,-2.44952079682916e+001,-1.92218611737977e+000

1.11579493308032e+005,-2.44955411956921e+001,-1.94833085753997e+000

1.13137084989847e+005,-2.44958819439788e+001,-1.97481569158067e+000

1.14716419841265e+005,-2.44962303372557e+001,-2.00164457954640e+000

1.16317801385624e+005,-2.44965864994538e+001,-2.02882151882658e+000

1.17941537383287e+005,-2.44969505542081e+001,-2.05635054470906e+000

1.19587939890794e+005,-2.44973226247292e+001,-2.08423573097599e+000

1.21257325320831e+005,-2.44977028336698e+001,-2.11248119054395e+000

1.22950014503040e+005,-2.44980913029881e+001,-2.14109107614930e+000

1.24666332745679e+005,-2.44984881538050e+001,-2.17006958108390e+000

1.26406609898139e+005,-2.44988935062580e+001,-2.19942093998186e+000

1.28171180414339e+005,-2.44993074793511e+001,-2.22914942966136e+000

1.29960383416997e+005,-2.44997301908001e+001,-2.25925937002264e+000

1.31774562762811e+005,-2.45001617568740e+001,-2.28975512500804e+000

1.33614067108538e+005,-2.45006022922340e+001,-2.32064110362445e+000

1.35479249978003e+005,-2.45010519097681e+001,-2.35192176103003e+000

1.37370469830040e+005,-2.45015107204229e+001,-2.38360159969216e+000

1.39288090127379e+005,-2.45019788330336e+001,-2.41568517061397e+000

1.41232479406504e+005,-2.45024563541508e+001,-2.44817707463797e+000

1.43204011348474e+005,-2.45029433878660e+001,-2.48108196382473e+000

1.45203064850745e+005,-2.45034400356353e+001,-2.51440454291095e+000

1.47230024099979e+005,-2.45039463961023e+001,-2.54814957085019e+000

1.49285278645888e+005,-2.45044625649208e+001,-2.58232186243891e+000

1.51369223476094e+005,-2.45049886345769e+001,-2.61692629002779e+000

1.53482259092041e+005,-2.45055246942124e+001,-2.65196778532267e+000

1.55624791585964e+005,-2.45060708294487e+001,-2.68745134127717e+000

1.57797232718936e+005,-2.45066271222134e+001,-2.72338201407831e+000

1.59999999999999e+005,-2.45071936505684e+001,-2.75976492522611e+000

1.62233516766403e+005,-2.45077704885419e+001,-2.79660526370933e+000

1.64498212264969e+005,-2.45083577059642e+001,-2.83390828827996e+000

1.66794521734578e+005,-2.45089553683077e+001,-2.87167932982554e+000

1.69122886489819e+005,-2.45095635365331e+001,-2.90992379383940e+000

1.71483754005805e+005,-2.45101822669407e+001,-2.94864716299373e+000

1.73877578004168e+005,-2.45108116110298e+001,-2.98785499980888e+000

1.76304818540256e+005,-2.45114516153654e+001,-3.02755294942610e+000

1.78765942091554e+005,-2.45121023214539e+001,-3.06774674247568e+000

1.81261421647326e+005,-2.45127637656279e+001,-3.10844219804783e+000

1.83791736799524e+005,-2.45134359789421e+001,-3.14964522675667e+000

1.86357373834951e+005,-2.45141189870801e+001,-3.19136183390310e+000

1.88958825828723e+005,-2.45148128102735e+001,-3.23359812272961e+000

1.91596592739027e+005,-2.45155174632343e+001,-3.27636029776723e+000

1.94271181503206e+005,-2.45162329551011e+001,-3.31965466827008e+000

1.96983106135185e+005,-2.45169592894000e+001,-3.36348765173750e+000

1.99732887824256e+005,-2.45176964640216e+001,-3.40786577751490e+000

2.02521055035243e+005,-2.45184444712143e+001,-3.45279569047497e+000

2.05348143610063e+005,-2.45192032975946e+001,-3.49828415477143e+000

2.08214696870707e+005,-2.45199729241757e+001,-3.54433805766131e+000

2.11121265723661e+005,-2.45207533264159e+001,-3.59096441338919e+000

2.14068408765776e+005,-2.45215444742842e+001,-3.63817036713268e+000

2.17056692391625e+005,-2.45223463323484e+001,-3.68596319899506e+000

2.20086690902357e+005,-2.45231588598825e+001,-3.73435032804761e+000

2.23158986616063e+005,-2.45239820109961e+001,-3.78333931640738e+000

2.26274169979693e+005,-2.45248157347847e+001,-3.83293787334802e+000

2.29432839682530e+005,-2.45256599755032e+001,-3.88315385943557e+000

2.32635602771247e+005,-2.45265146727613e+001,-3.93399529067941e+000

2.35883074766574e+005,-2.45273797617413e+001,-3.98547034269415e+000

2.39175879781588e+005,-2.45282551734393e+001,-4.03758735486144e+000

2.42514650641661e+005,-2.45291408349296e+001,-4.09035483448547e+000

2.45900029006080e+005,-2.45300366696514e+001,-4.14378146093320e+000

2.49332665491357e+005,-2.45309425977193e+001,-4.19787608975015e+000

2.52813219796278e+005,-2.45318585362558e+001,-4.25264775674670e+000

2.56342360828676e+005,-2.45327843997470e+001,-4.30810568204192e+000

2.59920766833993e+005,-2.45337201004203e+001,-4.36425927406124e+000

2.63549125525621e+005,-2.45346655486433e+001,-4.42111813347583e+000

2.67228134217075e+005,-2.45356206533455e+001,-4.47869205707957e+000

2.70958499956006e+005,-2.45365853224589e+001,-4.53699104159303e+000

2.74740939660078e+005,-2.45375594633795e+001,-4.59602528738807e+000

2.78576180254757e+005,-2.45385429834482e+001,-4.65580520212668e+000

2.82464958813007e+005,-2.45395357904497e+001,-4.71634140430503e+000

2.86408022696948e+005,-2.45405377931289e+001,-4.77764472669924e+000

2.90406129701488e+005,-2.45415489017233e+001,-4.83972621970481e+000

2.94460048199957e+005,-2.45425690285120e+001,-4.90259715456517e+000

2.98570557291775e+005,-2.45435980883775e+001,-4.96626902648289e+000

3.02738446952187e+005,-2.45446359993815e+001,-5.03075355761299e+000

3.06964518184081e+005,-2.45456826833527e+001,-5.09606269992832e+000

3.11249583171928e+005,-2.45467380664838e+001,-5.16220863796121e+000

3.15594465437872e+005,-2.45478020799399e+001,-5.22920379141141e+000

3.19999999999997e+005,-2.45488746604729e+001,-5.29706081762507e+000

3.24467033532806e+005,-2.45499557510437e+001,-5.36579261393750e+000

3.28996424529938e+005,-2.45510453014492e+001,-5.43541231988413e+000

3.33589043469155e+005,-2.45521432689535e+001,-5.50593331927565e+000

3.38245772979638e+005,-2.45532496189212e+001,-5.57736924214197e+000

3.42967508011610e+005,-2.45543643254528e+001,-5.64973396654271e+000

3.47755156008335e+005,-2.45554873720187e+001,-5.72304162024757e+000

3.52609637080511e+005,-2.45566187520937e+001,-5.79730658229180e+000

3.57531884183106e+005,-2.45577584697868e+001,-5.87254348440509e+000

3.62522843294651e+005,-2.45589065404695e+001,-5.94876721232282e+000

3.67583473599047e+005,-2.45600629913972e+001,-6.02599290697969e+000

3.72714747669902e+005,-2.45612278623262e+001,-6.10423596559531e+000

3.77917651657445e+005,-2.45624012061226e+001,-6.18351204265263e+000

3.83193185478053e+005,-2.45635830893643e+001,-6.26383705077831e+000

3.88542363006410e+005,-2.45647735929336e+001,-6.34522716153024e+000

3.93966212270369e+005,-2.45659728126004e+001,-6.42769880609997e+000

3.99465775648511e+005,-2.45671808595954e+001,-6.51126867593493e+000

4.05042110070485e+005,-2.45683978611726e+001,-6.59595372328950e+000

4.10696287220124e+005,-2.45696239611601e+001,-6.68177116171386e+000

4.16429393741414e+005,-2.45708593204993e+001,-6.76873846648423e+000

4.22242531447321e+005,-2.45721041177726e+001,-6.85687337498721e+000

4.28136817531551e+005,-2.45733585497181e+001,-6.94619388706232e+000

4.34113384783250e+005,-2.45746228317322e+001,-7.03671826531312e+000

4.40173381804713e+005,-2.45758971983602e+001,-7.12846503539471e+000

4.46317973232124e+005,-2.45771819037739e+001,-7.22145298628408e+000

4.52548339959385e+005,-2.45784772222371e+001,-7.31570117054315e+000

4.58865679365059e+005,-2.45797834485598e+001,-7.41122890458044e+000

4.65271205542494e+005,-2.45811008985400e+001,-7.50805576891996e+000

4.71766149533147e+005,-2.45824299093942e+001,-7.60620160848502e+000

4.78351759563174e+005,-2.45837708401782e+001,-7.70568653290201e+000

4.85029301283321e+005,-2.45851240721964e+001,-7.80653091683344e+000

4.91800058012158e+005,-2.45864900094024e+001,-7.90875540034448e+000

4.98665330982714e+005,-2.45878690787902e+001,-8.01238088931025e+000

5.05626439592555e+005,-2.45892617307781e+001,-8.11742855586889e+000

5.12684721657352e+005,-2.45906684395844e+001,-8.22391983892642e+000

5.19841533667984e+005,-2.45920897035970e+001,-8.33187644471681e+000

5.27098251051240e+005,-2.45935260457380e+001,-8.44132034742355e+000

5.34456268434150e+005,-2.45949780138230e+001,-8.55227378986411e+000

5.41916999912011e+005,-2.45964461809173e+001,-8.66475928424359e+000

