Freq.,VOut,OutRef

1.00000000000000e+004,-2.35152640037193e+001,-3.83600771476428e-001

1.01395947979003e+004,-2.35152688945599e+001,-3.88954927579353e-001

1.02811382665607e+004,-2.35152739227110e+001,-3.94383794758569e-001

1.04246576084112e+004,-2.35152790920222e+001,-3.99888414664245e-001

1.05701804056138e+004,-2.35152844064504e+001,-4.05469843433523e-001

1.07177346253629e+004,-2.35152898700637e+001,-4.11129151889220e-001

1.08673486252606e+004,-2.35152954870432e+001,-4.16867425744418e-001

1.10190511587661e+004,-2.35153012616873e+001,-4.22685765807834e-001

1.11728713807222e+004,-2.35153071984143e+001,-4.28585288189165e-001

1.13288388529580e+004,-2.35153133017658e+001,-4.34567124514206e-001

1.14869835499703e+004,-2.35153195764105e+001,-4.40632422134522e-001

1.16473358646846e+004,-2.35153260271472e+001,-4.46782344346860e-001

1.18099266142953e+004,-2.35153326589087e+001,-4.53018070611712e-001

1.19747870461893e+004,-2.35153394767657e+001,-4.59340796775043e-001

1.21419488439505e+004,-2.35153464859300e+001,-4.65751735296343e-001

1.23114441334492e+004,-2.35153536917593e+001,-4.72252115473033e-001

1.24833054890161e+004,-2.35153610997601e+001,-4.78843183675785e-001

1.26575659397028e+004,-2.35153687155930e+001,-4.85526203581150e-001

1.28342589756290e+004,-2.35153765450762e+001,-4.92302456409306e-001

1.30134185544193e+004,-2.35153845941899e+001,-4.99173241165491e-001

1.31950791077289e+004,-2.35153928690813e+001,-5.06139874883125e-001

1.33792755478611e+004,-2.35154013760686e+001,-5.13203692872818e-001

1.35660432744767e+004,-2.35154101216460e+001,-5.20366048971330e-001

1.37554181813974e+004,-2.35154191124885e+001,-5.27628315795983e-001

1.39474366635040e+004,-2.35154283554570e+001,-5.34991885001407e-001

1.41421356237309e+004,-2.35154378576034e+001,-5.42458167540755e-001

1.43395524801583e+004,-2.35154476261756e+001,-5.50028593929491e-001

1.45397251732031e+004,-2.35154576686230e+001,-5.57704614513529e-001

1.47426921729110e+004,-2.35154679926025e+001,-5.65487699737760e-001

1.49484924863494e+004,-2.35154786059835e+001,-5.73379340424138e-001

1.51571656651040e+004,-2.35154895168542e+001,-5.81381048046862e-001

1.53687518128801e+004,-2.35155007335274e+001,-5.89494355014949e-001

1.55832915932100e+004,-2.35155122645467e+001,-5.97720814959136e-001

1.58008262372675e+004,-2.35155241186930e+001,-6.06062003017348e-001

1.60213975517924e+004,-2.35155363049906e+001,-6.14519516131621e-001

1.62450479271247e+004,-2.35155488327145e+001,-6.23094973341870e-001

1.64718203453514e+004,-2.35155617113966e+001,-6.31790016087051e-001

1.67017583885674e+004,-2.35155749508329e+001,-6.40606308509562e-001

1.69349062472505e+004,-2.35155885610910e+001,-6.49545537763925e-001

1.71713087287550e+004,-2.35156025525172e+001,-6.58609414327515e-001

1.74110112659224e+004,-2.35156169357442e+001,-6.67799672317839e-001

1.76540599258131e+004,-2.35156317216992e+001,-6.77118069811556e-001

1.79005014185594e+004,-2.35156469216111e+001,-6.86566389170130e-001

1.81503831063432e+004,-2.35156625470195e+001,-6.96146437366518e-001

1.84037530124975e+004,-2.35156786097830e+001,-7.05860046317728e-001

1.86606598307361e+004,-2.35156951220875e+001,-7.15709073222792e-001

1.89211529345119e+004,-2.35157120964553e+001,-7.25695400902137e-001

1.91852823865052e+004,-2.35157295457542e+001,-7.35820938143068e-001

1.94530989482457e+004,-2.35157474832070e+001,-7.46087620049011e-001

1.97246540898671e+004,-2.35157659224007e+001,-7.56497408393414e-001

1.99999999999999e+004,-2.35157848772965e+001,-7.67052291977703e-001

2.02791895958005e+004,-2.35158043622402e+001,-7.77754286993777e-001

2.05622765331213e+004,-2.35158243919723e+001,-7.88605437390277e-001

2.08493152168224e+004,-2.35158449816382e+001,-7.99607815245949e-001

2.11403608112276e+004,-2.35158661467999e+001,-8.10763521142276e-001

2.14354692507258e+004,-2.35158879034464e+001,-8.22074684548406e-001

2.17346972505211e+004,-2.35159102680059e+001,-8.33543464201359e-001

2.20381023175322e+004,-2.35159332573567e+001,-8.45172048499966e-001

2.23457427614443e+004,-2.35159568888398e+001,-8.56962655897302e-001

2.26576777059159e+004,-2.35159811802712e+001,-8.68917535299625e-001

2.29739670999406e+004,-2.35160061499542e+001,-8.81038966471791e-001

2.32946717293690e+004,-2.35160318166928e+001,-8.93329260444205e-001

2.36198532285905e+004,-2.35160581998045e+001,-9.05790759927432e-001

2.39495740923785e+004,-2.35160853191345e+001,-9.18425839730304e-001

2.42838976879009e+004,-2.35161131950690e+001,-9.31236907182878e-001

2.46228882668982e+004,-2.35161418485498e+001,-9.44226402565847e-001

2.49666109780322e+004,-2.35161713010893e+001,-9.57396799541003e-001

2.53151318794055e+004,-2.35162015747848e+001,-9.70750605591982e-001

2.56685179512580e+004,-2.35162326923344e+001,-9.84290362466888e-001

2.60268371088386e+004,-2.35162646770523e+001,-9.98018646624500e-001

2.63901582154578e+004,-2.35162975528855e+001,-1.01193806969001e+000

2.67585510957221e+004,-2.35163313444295e+001,-1.02605127891137e+000

2.71320865489533e+004,-2.35163660769461e+001,-1.04036095762373e+000

2.75108363627948e+004,-2.35164017763800e+001,-1.05486982571727e+000

2.78948733270080e+004,-2.35164384693768e+001,-1.06958064011098e+000

2.82842712474618e+004,-2.35164761833009e+001,-1.08449619523278e+000

2.86791049603164e+004,-2.35165149462544e+001,-1.09961932350128e+000

2.90794503464061e+004,-2.35165547870958e+001,-1.11495289581604e+000

2.94853843458219e+004,-2.35165957354592e+001,-1.13049982205350e+000

2.98969849726987e+004,-2.35166378217749e+001,-1.14626305156353e+000

3.03143313302078e+004,-2.35166810772889e+001,-1.16224557367724e+000

3.07375036257601e+004,-2.35167255340839e+001,-1.17845041821613e+000

3.11665831864199e+004,-2.35167712251007e+001,-1.19488065600740e+000

3.16016524745350e+004,-2.35168181841600e+001,-1.21153939940467e+000

3.20427951035848e+004,-2.35168664459838e+001,-1.22842980281476e+000

3.24900958542493e+004,-2.35169160462192e+001,-1.24555506322801e+000

3.29436406907028e+004,-2.35169670214607e+001,-1.26291842075653e+000

3.34035167771346e+004,-2.35170194092739e+001,-1.28052315917413e+000

3.38698124945009e+004,-2.35170732482202e+001,-1.29837260646543e+000

3.43426174575100e+004,-2.35171285778810e+001,-1.31647013537684e+000

3.48220225318448e+004,-2.35171854388828e+001,-1.33481916397668e+000

3.53081198516260e+004,-2.35172438729234e+001,-1.35342315621514e+000

3.58010028371187e+004,-2.35173039227973e+001,-1.37228562249614e+000

3.63007662126863e+004,-2.35173656324236e+001,-1.39141012024802e+000

3.68075060249948e+004,-2.35174290468719e+001,-1.41080025450461e+000

3.73213196614721e+004,-2.35174942123913e+001,-1.43045967848787e+000

3.78423058690237e+004,-2.35175611764381e+001,-1.45039209419905e+000

3.83705647730104e+004,-2.35176299877048e+001,-1.47060125301089e+000

3.89061978964912e+004,-2.35177006961499e+001,-1.49109095626933e+000

3.94493081797342e+004,-2.35177733530272e+001,-1.51186505589784e+000

3.99999999999998e+004,-2.35178480109171e+001,-1.53292745500732e+000

4.05583791916010e+004,-2.35179247237571e+001,-1.55428210851094e+000

4.11245530662425e+004,-2.35180035468738e+001,-1.57593302374441e+000

4.16986304336447e+004,-2.35180845370148e+001,-1.59788426109240e+000

4.22807216224550e+004,-2.35181677523819e+001,-1.62013993461626e+000

4.28709385014515e+004,-2.35182532526637e+001,-1.64270421269197e+000

4.34693945010421e+004,-2.35183410990700e+001,-1.66558131864782e+000

4.40762046350642e+004,-2.35184313543659e+001,-1.68877553141104e+000

4.46914855228886e+004,-2.35185240829066e+001,-1.71229118615692e+000

4.53153554118317e+004,-2.35186193506733e+001,-1.73613267496314e+000

4.59479341998812e+004,-2.35187172253084e+001,-1.76030444746953e+000

4.65893434587380e+004,-2.35188177761525e+001,-1.78481101154206e+000

4.72397064571810e+004,-2.35189210742811e+001,-1.80965693394160e+000

4.78991481847569e+004,-2.35190271925423e+001,-1.83484684099711e+000

4.85677953758016e+004,-2.35191362055944e+001,-1.86038541928366e+000

4.92457765337964e+004,-2.35192481899443e+001,-1.88627741630500e+000

4.99332219560642e+004,-2.35193632239868e+001,-1.91252764117970e+000

5.06302637588109e+004,-2.35194813880432e+001,-1.93914096533384e+000

5.13370359025159e+004,-2.35196027644015e+001,-1.96612232319616e+000

5.20536742176771e+004,-2.35197274373563e+001,-1.99347671289763e+000

5.27803164309155e+004,-2.35198554932492e+001,-2.02120919697625e+000

5.35171021914442e+004,-2.35199870205097e+001,-2.04932490308668e+000

5.42641730979066e+004,-2.35201221096964e+001,-2.07782902471215e+000

5.50216727255895e+004,-2.35202608535385e+001,-2.10672682188136e+000

5.57897466540159e+004,-2.35204033469770e+001,-2.13602362189139e+000

5.65685424949235e+004,-2.35205496872076e+001,-2.16572482003178e+000

5.73582099206328e+004,-2.35206999737219e+001,-2.19583588031558e+000

5.81589006928121e+004,-2.35208543083504e+001,-2.22636233621205e+000

5.89707686916437e+004,-2.35210127953049e+001,-2.25730979138524e+000

5.97939699453972e+004,-2.35211755412207e+001,-2.28868392043702e+000

6.06286626604156e+004,-2.35213426551997e+001,-2.32049046965224e+000

6.14750072515201e+004,-2.35215142488527e+001,-2.35273525775033e+000

6.23331663728396e+004,-2.35216904363424e+001,-2.38542417664028e+000

6.32033049490698e+004,-2.35218713344254e+001,-2.41856319217949e+000

6.40855902071694e+004,-2.35220570624951e+001,-2.45215834493778e+000

6.49801917084985e+004,-2.35222477426237e+001,-2.48621575096565e+000

6.58872813814055e+004,-2.35224434996041e+001,-2.52074160256704e+000

6.68070335542691e+004,-2.35226444609914e+001,-2.55574216907693e+000

6.77396249890018e+004,-2.35228507571447e+001,-2.59122379764400e+000

6.86852349150199e+004,-2.35230625212672e+001,-2.62719291401739e+000

6.96440450636895e+004,-2.35232798894474e+001,-2.66365602334003e+000

7.06162397032520e+004,-2.35235030006978e+001,-2.70061971094698e+000

7.16020056742374e+004,-2.35237319969950e+001,-2.73809064316826e+000

7.26015324253724e+004,-2.35239670233175e+001,-2.77607556813929e+000

7.36150120499896e+004,-2.35242082276837e+001,-2.81458131661709e+000

7.46426393229441e+004,-2.35244557611878e+001,-2.85361480280227e+000

7.56846117380472e+004,-2.35247097780367e+001,-2.89318302516899e+000

7.67411295460207e+004,-2.35249704355837e+001,-2.93329306730205e+000

7.78123957929823e+004,-2.35252378943626e+001,-2.97395209874062e+000

7.88986163594682e+004,-2.35255123181198e+001,-3.01516737583325e+000

7.99999999999995e+004,-2.35257938738455e+001,-3.05694624259742e+000

8.11167583832018e+004,-2.35260827318032e+001,-3.09929613159278e+000

8.22491061324848e+004,-2.35263790655578e+001,-3.14222456480137e+000

8.33972608672892e+004,-2.35266830520022e+001,-3.18573915452075e+000

8.45614432449099e+004,-2.35269948713821e+001,-3.22984760426650e+000

8.57418770029029e+004,-2.35273147073193e+001,-3.27455770968884e+000

8.69387890020841e+004,-2.35276427468325e+001,-3.31987735950179e+000

8.81524092701283e+004,-2.35279791803569e+001,-3.36581453642579e+000

8.93829710457770e+004,-2.35283242017614e+001,-3.41237731814598e+000

9.06307108236633e+004,-2.35286780083633e+001,-3.45957387828660e+000

9.18958683997622e+004,-2.35290408009414e+001,-3.50741248740241e+000

9.31786869174758e+004,-2.35294127837467e+001,-3.55590151398850e+000

9.44794129143618e+004,-2.35297941645100e+001,-3.60504942550969e+000

9.57982963695136e+004,-2.35301851544479e+001,-3.65486478945066e+000

9.71355907516031e+004,-2.35305859682658e+001,-3.70535627439020e+000

9.84915530675926e+004,-2.35309968241585e+001,-3.75653265109622e+000

9.98664439121282e+004,-2.35314179438076e+001,-3.80840279365001e+000

1.01260527517622e+005,-2.35318495523772e+001,-3.86097568059425e+000

1.02674071805032e+005,-2.35322918785056e+001,-3.91426039611236e+000

1.04107348435354e+005,-2.35327451542951e+001,-3.96826613123743e+000

1.05560632861831e+005,-2.35332096152988e+001,-4.02300218509382e+000

1.07034204382888e+005,-2.35336855005040e+001,-4.07847796617433e+000

1.08528346195813e+005,-2.35341730523136e+001,-4.13470299365272e+000

1.10043345451179e+005,-2.35346725165240e+001,-4.19168689873639e+000

1.11579493308032e+005,-2.35351841423003e+001,-4.24943942605944e+000

1.13137084989847e+005,-2.35357081821495e+001,-4.30797043511918e+000

1.14716419841265e+005,-2.35362448918893e+001,-4.36728990175973e+000

1.16317801385624e+005,-2.35367945306163e+001,-4.42740791970186e+000

1.17941537383287e+005,-2.35373573606702e+001,-4.48833470212553e+000

1.19587939890794e+005,-2.35379336475962e+001,-4.55008058330574e+000

1.21257325320831e+005,-2.35385236601049e+001,-4.61265602030311e+000

1.22950014503040e+005,-2.35391276700306e+001,-4.67607159471506e+000

1.24666332745679e+005,-2.35397459522866e+001,-4.74033801448843e+000

1.26406609898139e+005,-2.35403787848203e+001,-4.80546611579546e+000

1.28171180414339e+005,-2.35410264485655e+001,-4.87146686497854e+000

1.29960383416997e+005,-2.35416892273944e+001,-4.93835136056434e+000

1.31774562762811e+005,-2.35423674080682e+001,-5.00613083535101e+000

1.33614067108538e+005,-2.35430612801877e+001,-5.07481665857305e+000

1.35479249978003e+005,-2.35437711361429e+001,-5.14442033814202e+000

1.37370469830040e+005,-2.35444972710639e+001,-5.21495352297194e+000

1.39288090127379e+005,-2.35452399827719e+001,-5.28642800538782e+000

1.41232479406504e+005,-2.35459995717310e+001,-5.35885572362130e+000

1.43204011348474e+005,-2.35467763410024e+001,-5.43224876439794e+000

1.45203064850745e+005,-2.35475705962006e+001,-5.50661936561511e+000

1.47230024099979e+005,-2.35483826454519e+001,-5.58197991911646e+000

1.49285278645888e+005,-2.35492127993570e+001,-5.65834297356375e+000

1.51369223476094e+005,-2.35500613709571e+001,-5.73572123740796e+000

1.53482259092041e+005,-2.35509286757053e+001,-5.81412758196309e+000

1.55624791585964e+005,-2.35518150314431e+001,-5.89357504458353e+000

1.57797232718936e+005,-2.35527207583833e+001,-5.97407683194710e+000

1.59999999999999e+005,-2.35536461791002e+001,-6.05564632344440e+000

1.62233516766403e+005,-2.35545916185269e+001,-6.13829707467849e+000

1.64498212264969e+005,-2.35555574039629e+001,-6.22204282107218e+000

1.66794521734578e+005,-2.35565438650898e+001,-6.30689748158595e+000

1.69122886489819e+005,-2.35575513339985e+001,-6.39287516254718e+000

1.71483754005805e+005,-2.35585801452280e+001,-6.47999016158850e+000

1.73877578004168e+005,-2.35596306358165e+001,-6.56825697169853e+000

1.76304818540256e+005,-2.35607031453663e+001,-6.65769028538076e+000

1.78765942091554e+005,-2.35617980161229e+001,-6.74830499892248e+000

1.81261421647326e+005,-2.35629155930705e+001,-6.84011621676979e+000

1.83791736799524e+005,-2.35640562240438e+001,-6.93313925600968e+000

1.86357373834951e+005,-2.35652202598572e+001,-7.02738965095516e+000

1.88958825828723e+005,-2.35664080544538e+001,-7.12288315783037e+000

1.91596592739027e+005,-2.35676199650733e+001,-7.21963575955351e+000

1.94271181503206e+005,-2.35688563524421e+001,-7.31766367061508e+000

1.96983106135185e+005,-2.35701175809839e+001,-7.41698334204402e+000

1.99732887824256e+005,-2.35714040190550e+001,-7.51761146646103e+000

2.02521055035243e+005,-2.35727160392025e+001,-7.61956498321047e+000

2.05348143610063e+005,-2.35740540184482e+001,-7.72286108356946e+000

2.08214696870707e+005,-2.35754183385983e+001,-7.82751721602361e+000

2.11121265723661e+005,-2.35768093865805e+001,-7.93355109160603e+000

2.14068408765776e+005,-2.35782275548082e+001,-8.04098068929270e+000

2.17056692391625e+005,-2.35796732415743e+001,-8.14982426144504e+000

2.20086690902357e+005,-2.35811468514737e+001,-8.26010033929352e+000

2.23158986616063e+005,-2.35826487958567e+001,-8.37182773845281e+000

2.26274169979693e+005,-2.35841794933123e+001,-8.48502556446199e+000

2.29432839682530e+005,-2.35857393701841e+001,-8.59971321833888e+000

2.32635602771247e+005,-2.35873288611174e+001,-8.71591040213937e+000

2.35883074766574e+005,-2.35889484096388e+001,-8.83363712451435e+000

2.39175879781588e+005,-2.35905984687688e+001,-8.95291370625198e+000

2.42514650641661e+005,-2.35922795016671e+001,-9.07376078579634e+000

2.45900029006080e+005,-2.35939919823112e+001,-9.19619932473259e+000

2.49332665491357e+005,-2.35957363962085e+001,-9.32025061322831e+000

2.52813219796278e+005,-2.35975132411414e+001,-9.44593627541938e+000

2.56342360828676e+005,-2.35993230279459e+001,-9.57327827473141e+000

2.59920766833993e+005,-2.36011662813227e+001,-9.70229891912606e+000

2.63549125525621e+005,-2.36030435406814e+001,-9.83302086626126e+000

2.67228134217075e+005,-2.36049553610170e+001,-9.96546712855483e+000

2.70958499956006e+005,-2.36069023138180e+001,-1.00996610781429e+001

2.74740939660078e+005,-2.36088849880061e+001,-1.02356264517207e+001

2.78576180254757e+005,-2.36109039909062e+001,-1.03733873552591e+001

2.82464958813007e+005,-2.36129599492465e+001,-1.05129682685847e+001

2.86408022696948e+005,-2.36150535101874e+001,-1.06543940498149e+001

2.90406129701488e+005,-2.36171853423787e+001,-1.07976899396418e+001

2.94460048199957e+005,-2.36193561370442e+001,-1.09428815654528e+001

2.98570557291775e+005,-2.36215666090916e+001,-1.10899949452826e+001

3.02738446952187e+005,-2.36238174982485e+001,-1.12390564915884e+001

3.06964518184081e+005,-2.36261095702213e+001,-1.13900930148419e+001

3.11249583171928e+005,-2.36284436178772e+001,-1.15431317269305e+001

3.15594465437872e+005,-2.36308204624474e+001,-1.16982002443643e+001

3.19999999999997e+005,-2.36332409547506e+001,-1.18553265912806e+001

3.24467033532806e+005,-2.36357059764350e+001,-1.20145392022443e+001

3.28996424529938e+005,-2.36382164412380e+001,-1.21758669248374e+001

3.33589043469155e+005,-2.36407732962619e+001,-1.23393390220379e+001

3.38245772979638e+005,-2.36433775232644e+001,-1.25049851743797e+001

3.42967508011610e+005,-2.36460301399623e+001,-1.26728354818972e+001

3.47755156008335e+005,-2.36487322013482e+001,-1.28429204658487e+001

3.52609637080511e+005,-2.36514848010168e+001,-1.30152710702192e+001

3.57531884183106e+005,-2.36542890725018e+001,-1.31899186630012e+001

3.62522843294651e+005,-2.36571461906208e+001,-1.33668950372552e+001

3.67583473599047e+005,-2.36600573728270e+001,-1.35462324119457e+001

3.72714747669902e+005,-2.36630238805677e+001,-1.37279634325600e+001

3.77917651657445e+005,-2.36660470206472e+001,-1.39121211715046e+001

3.83193185478053e+005,-2.36691281465937e+001,-1.40987391282848e+001

3.88542363006410e+005,-2.36722686600293e+001,-1.42878512294670e+001

3.93966212270369e+005,-2.36754700120418e+001,-1.44794918284269e+001

3.99465775648511e+005,-2.36787337045584e+001,-1.46736957048848e+001

4.05042110070485e+005,-2.36820612917187e+001,-1.48704980642319e+001

4.10696287220124e+005,-2.36854543812489e+001,-1.50699345366470e+001

4.16429393741414e+005,-2.36889146358342e+001,-1.52720411760100e+001

4.22242531447321e+005,-2.36924437744897e+001,-1.54768544586108e+001

4.28136817531551e+005,-2.36960435739307e+001,-1.56844112816588e+001

4.34113384783250e+005,-2.36997158699390e+001,-1.58947489615933e+001

4.40173381804713e+005,-2.37034625587284e+001,-1.61079052321981e+001

4.46317973232124e+005,-2.37072855983055e+001,-1.63239182425212e+001

4.52548339959385e+005,-2.37111870098293e+001,-1.65428265546018e+001

4.58865679365059e+005,-2.37151688789659e+001,-1.67646691410054e+001

4.65271205542494e+005,-2.37192333572409e+001,-1.69894853821683e+001

4.71766149533147e+005,-2.37233826633877e+001,-1.72173150635510e+001

4.78351759563174e+005,-2.37276190846928e+001,-1.74481983726020e+001

4.85029301283321e+005,-2.37319449783373e+001,-1.76821758955305e+001

4.91800058012158e+005,-2.37363627727349e+001,-1.79192886138873e+001

4.98665330982714e+005,-2.37408749688665e+001,-1.81595779009522e+001

5.05626439592555e+005,-2.37454841416114e+001,-1.84030855179272e+001

5.12684721657352e+005,-2.37501929410751e+001,-1.86498536099311e+001

5.19841533667984e+005,-2.37550040939136e+001,-1.88999247017942e+001

5.27098251051240e+005,-2.37599204046543e+001,-1.91533416936474e+001

5.34456268434150e+005,-2.37649447570139e+001,-1.94101478563043e+001

5.41916999912011e+005,-2.37700801152117e+001,-1.96703868264282e+001

