Freq.,VOut,OutRef

1.00000000000000e+004,-1.83466166282836e+001,-1.15744922529806e-001

1.01395947979003e+004,-1.83466185860935e+001,-1.17360268160203e-001

1.02811382665607e+004,-1.83466205988363e+001,-1.18998146499681e-001

1.04246576084112e+004,-1.83466226680508e+001,-1.20658871383295e-001

1.05701804056138e+004,-1.83466247953179e+001,-1.22342761001471e-001

1.07177346253629e+004,-1.83466269822627e+001,-1.24050137955711e-001

1.08673486252606e+004,-1.83466292305558e+001,-1.25781329314806e-001

1.10190511587661e+004,-1.83466315419143e+001,-1.27536666683283e-001

1.11728713807222e+004,-1.83466339181032e+001,-1.29316486254995e-001

1.13288388529580e+004,-1.83466363609360e+001,-1.31121128886794e-001

1.14869835499703e+004,-1.83466388722779e+001,-1.32950940148116e-001

1.16473358646846e+004,-1.83466414540449e+001,-1.34806270398464e-001

1.18099266142953e+004,-1.83466441082071e+001,-1.36687474841784e-001

1.19747870461893e+004,-1.83466468367888e+001,-1.38594913601135e-001

1.21419488439505e+004,-1.83466496418711e+001,-1.40528951778096e-001

1.23114441334492e+004,-1.83466525255928e+001,-1.42489959526106e-001

1.24833054890161e+004,-1.83466554901520e+001,-1.44478312116557e-001

1.26575659397028e+004,-1.83466585378080e+001,-1.46494390007271e-001

1.28342589756290e+004,-1.83466616708826e+001,-1.48538578915606e-001

1.30134185544193e+004,-1.83466648917627e+001,-1.50611269885589e-001

1.31950791077289e+004,-1.83466682029010e+001,-1.52712859362800e-001

1.33792755478611e+004,-1.83466716068182e+001,-1.54843749267590e-001

1.35660432744767e+004,-1.83466751061051e+001,-1.57004347068626e-001

1.37554181813974e+004,-1.83466787034244e+001,-1.59195065854682e-001

1.39474366635040e+004,-1.83466824015122e+001,-1.61416324416290e-001

1.41421356237309e+004,-1.83466862031811e+001,-1.63668547315236e-001

1.43395524801583e+004,-1.83466901113209e+001,-1.65952164969605e-001

1.45397251732031e+004,-1.83466941289018e+001,-1.68267613725940e-001

1.47426921729110e+004,-1.83466982589760e+001,-1.70615335943800e-001

1.49484924863494e+004,-1.83467025046802e+001,-1.72995780072999e-001

1.51571656651040e+004,-1.83467068692379e+001,-1.75409400735187e-001

1.53687518128801e+004,-1.83467113559616e+001,-1.77856658809651e-001

1.55832915932100e+004,-1.83467159682549e+001,-1.80338021514526e-001

1.58008262372675e+004,-1.83467207096160e+001,-1.82853962488884e-001

1.60213975517924e+004,-1.83467255836394e+001,-1.85404961882805e-001

1.62450479271247e+004,-1.83467305940186e+001,-1.87991506441211e-001

1.64718203453514e+004,-1.83467357445489e+001,-1.90614089593430e-001

1.67017583885674e+004,-1.83467410391300e+001,-1.93273211539373e-001

1.69349062472505e+004,-1.83467464817695e+001,-1.95969379339991e-001

1.71713087287550e+004,-1.83467520765846e+001,-1.98703107009754e-001

1.74110112659224e+004,-1.83467578278059e+001,-2.01474915607503e-001

1.76540599258131e+004,-1.83467637397804e+001,-2.04285333327640e-001

1.79005014185594e+004,-1.83467698169747e+001,-2.07134895593774e-001

1.81503831063432e+004,-1.83467760639773e+001,-2.10024145160062e-001

1.84037530124975e+004,-1.83467824855030e+001,-2.12953632198576e-001

1.86606598307361e+004,-1.83467890863957e+001,-2.15923914400715e-001

1.89211529345119e+004,-1.83467958716319e+001,-2.18935557077273e-001

1.91852823865052e+004,-1.83468028463244e+001,-2.21989133253713e-001

1.94530989482457e+004,-1.83468100157254e+001,-2.25085223773722e-001

1.97246540898671e+004,-1.83468173852312e+001,-2.28224417398851e-001

1.99999999999999e+004,-1.83468249603848e+001,-2.31407310913374e-001

2.02791895958005e+004,-1.83468327468806e+001,-2.34634509225660e-001

2.05622765331213e+004,-1.83468407505684e+001,-2.37906625473653e-001

2.08493152168224e+004,-1.83468489774570e+001,-2.41224281131956e-001

2.11403608112276e+004,-1.83468574337185e+001,-2.44588106120147e-001

2.14354692507258e+004,-1.83468661256931e+001,-2.47998738906293e-001

2.17346972505211e+004,-1.83468750598931e+001,-2.51456826620258e-001

2.20381023175322e+004,-1.83468842430069e+001,-2.54963025165922e-001

2.23457427614443e+004,-1.83468936819048e+001,-2.58517999325633e-001

2.26576777059159e+004,-1.83469033836423e+001,-2.62122422882695e-001

2.29739670999406e+004,-1.83469133554665e+001,-2.65776978724487e-001

2.32946717293690e+004,-1.83469236048194e+001,-2.69482358968059e-001

2.36198532285905e+004,-1.83469341393443e+001,-2.73239265068334e-001

2.39495740923785e+004,-1.83469449668899e+001,-2.77048407939784e-001

2.42838976879009e+004,-1.83469560955165e+001,-2.80910508071536e-001

2.46228882668982e+004,-1.83469675335010e+001,-2.84826295650211e-001

2.49666109780322e+004,-1.83469792893420e+001,-2.88796510677637e-001

2.53151318794055e+004,-1.83469913717664e+001,-2.92821903094610e-001

2.56685179512580e+004,-1.83470037897344e+001,-2.96903232900760e-001

2.60268371088386e+004,-1.83470165524456e+001,-3.01041270283005e-001

2.63901582154578e+004,-1.83470296693452e+001,-3.05236795736061e-001

2.67585510957221e+004,-1.83470431501302e+001,-3.09490600188551e-001

2.71320865489533e+004,-1.83470570047555e+001,-3.13803485133998e-001

2.75108363627948e+004,-1.83470712434404e+001,-3.18176262754887e-001

2.78948733270080e+004,-1.83470858766751e+001,-3.22609756053195e-001

2.82842712474618e+004,-1.83471009152279e+001,-3.27104798979546e-001

2.86791049603164e+004,-1.83471163701512e+001,-3.31662236566169e-001

2.90794503464061e+004,-1.83471322527892e+001,-3.36282925057613e-001

2.94853843458219e+004,-1.83471485747850e+001,-3.40967732042499e-001

2.98969849726987e+004,-1.83471653480870e+001,-3.45717536591892e-001

3.03143313302078e+004,-1.83471825849578e+001,-3.50533229387067e-001

3.07375036257601e+004,-1.83472002979804e+001,-3.55415712862162e-001

3.11665831864199e+004,-1.83472185000668e+001,-3.60365901337786e-001

3.16016524745350e+004,-1.83472372044653e+001,-3.65384721157579e-001

3.20427951035848e+004,-1.83472564247689e+001,-3.70473110828089e-001

3.24900958542493e+004,-1.83472761749231e+001,-3.75632021158470e-001

3.29436406907028e+004,-1.83472964692343e+001,-3.80862415399288e-001

3.34035167771346e+004,-1.83473173223787e+001,-3.86165269382352e-001

3.38698124945009e+004,-1.83473387494100e+001,-3.91541571665235e-001

3.43426174575100e+004,-1.83473607657690e+001,-3.96992323668703e-001

3.48220225318448e+004,-1.83473833872919e+001,-4.02518539824885e-001

3.53081198516260e+004,-1.83474066302194e+001,-4.08121247716424e-001

3.58010028371187e+004,-1.83474305112062e+001,-4.13801488222720e-001

3.63007662126863e+004,-1.83474550473297e+001,-4.19560315663416e-001

3.68075060249948e+004,-1.83474802561001e+001,-4.25398797944170e-001

3.73213196614721e+004,-1.83475061554694e+001,-4.31318016701848e-001

3.78423058690237e+004,-1.83475327638415e+001,-4.37319067449095e-001

3.83705647730104e+004,-1.83475601000817e+001,-4.43403059724504e-001

3.89061978964912e+004,-1.83475881835269e+001,-4.49571117234908e-001

3.94493081797342e+004,-1.83476170339953e+001,-4.55824378004812e-001

3.99999999999998e+004,-1.83476466717972e+001,-4.62163994522917e-001

4.05583791916010e+004,-1.83476771177446e+001,-4.68591133889712e-001

4.11245530662425e+004,-1.83477083931623e+001,-4.75106977964313e-001

4.16986304336447e+004,-1.83477405198975e+001,-4.81712723514609e-001

4.22807216224550e+004,-1.83477735203311e+001,-4.88409582360977e-001

4.28709385014515e+004,-1.83478074173884e+001,-4.95198781526349e-001

4.34693945010421e+004,-1.83478422345492e+001,-5.02081563384129e-001

4.40762046350642e+004,-1.83478779958592e+001,-5.09059185804801e-001

4.46914855228886e+004,-1.83479147259406e+001,-5.16132922302092e-001

4.53153554118317e+004,-1.83479524500032e+001,-5.23304062182868e-001

4.59479341998812e+004,-1.83479911938548e+001,-5.30573910691032e-001

4.65893434587380e+004,-1.83480309839131e+001,-5.37943789154946e-001

4.72397064571810e+004,-1.83480718472158e+001,-5.45415035132723e-001

4.78991481847569e+004,-1.83481138114319e+001,-5.52989002559266e-001

4.85677953758016e+004,-1.83481569048731e+001,-5.60667061888070e-001

4.92457765337964e+004,-1.83482011565037e+001,-5.68450600238965e-001

4.99332219560642e+004,-1.83482465959527e+001,-5.76341021537356e-001

5.06302637588109e+004,-1.83482932535233e+001,-5.84339746662126e-001

5.13370359025159e+004,-1.83483411602049e+001,-5.92448213581673e-001

5.20536742176771e+004,-1.83483903476826e+001,-6.00667877499858e-001

5.27803164309155e+004,-1.83484408483484e+001,-6.09000210994264e-001

5.35171021914442e+004,-1.83484926953114e+001,-6.17446704153005e-001

5.42641730979066e+004,-1.83485459224074e+001,-6.26008864717379e-001

5.50216727255895e+004,-1.83486005642099e+001,-6.34688218213769e-001

5.57897466540159e+004,-1.83486566560385e+001,-6.43486308094014e-001

5.65685424949235e+004,-1.83487142339695e+001,-6.52404695866497e-001

5.73582099206328e+004,-1.83487733348446e+001,-6.61444961230194e-001

5.81589006928121e+004,-1.83488339962794e+001,-6.70608702208515e-001

5.89707686916437e+004,-1.83488962566726e+001,-6.79897535277574e-001

5.97939699453972e+004,-1.83489601552136e+001,-6.89313095496562e-001

6.06286626604156e+004,-1.83490257318906e+001,-6.98857036634586e-001

6.14750072515201e+004,-1.83490930274972e+001,-7.08531031299638e-001

6.23331663728396e+004,-1.83491620836397e+001,-7.18336771060793e-001

6.32033049490698e+004,-1.83492329427433e+001,-7.28275966572368e-001

6.40855902071694e+004,-1.83493056480572e+001,-7.38350347697765e-001

6.49801917084985e+004,-1.83493802436599e+001,-7.48561663628546e-001

6.58872813814055e+004,-1.83494567744637e+001,-7.58911683003055e-001

6.68070335542691e+004,-1.83495352862177e+001,-7.69402194027444e-001

6.77396249890018e+004,-1.83496158255112e+001,-7.80035004587889e-001

6.86852349150199e+004,-1.83496984397750e+001,-7.90811942370951e-001

6.96440450636895e+004,-1.83497831772831e+001,-8.01734854972240e-001

7.06162397032520e+004,-1.83498700871524e+001,-8.12805610014579e-001

7.16020056742374e+004,-1.83499592193421e+001,-8.24026095255851e-001

7.26015324253724e+004,-1.83500506246512e+001,-8.35398218702904e-001

7.36150120499896e+004,-1.83501443547165e+001,-8.46923908720050e-001

7.46426393229441e+004,-1.83502404620070e+001,-8.58605114140417e-001

7.56846117380472e+004,-1.83503389998195e+001,-8.70443804373563e-001

7.67411295460207e+004,-1.83504400222710e+001,-8.82441969516136e-001

7.78123957929823e+004,-1.83505435842912e+001,-8.94601620459002e-001

7.88986163594682e+004,-1.83506497416120e+001,-9.06924788999126e-001

7.99999999999995e+004,-1.83507585507567e+001,-9.19413527946906e-001

8.11167583832018e+004,-1.83508700690274e+001,-9.32069911238157e-001

8.22491061324848e+004,-1.83509843544897e+001,-9.44896034046206e-001

8.33972608672892e+004,-1.83511014659572e+001,-9.57894012894065e-001

8.45614432449099e+004,-1.83512214629730e+001,-9.71065985770464e-001

8.57418770029029e+004,-1.83513444057896e+001,-9.84414112246508e-001

8.69387890020841e+004,-1.83514703553470e+001,-9.97940573597785e-001

8.81524092701283e+004,-1.83515993732484e+001,-1.01164757292587e+000

8.93829710457770e+004,-1.83517315217342e+001,-1.02553733528778e+000

9.06307108236633e+004,-1.83518668636534e+001,-1.03961210782568e+000

9.18958683997622e+004,-1.83520054624324e+001,-1.05387415990677e+000

9.31786869174758e+004,-1.83521473820424e+001,-1.06832578326262e+000

9.44794129143618e+004,-1.83522926869634e+001,-1.08296929214158e+000

9.57982963695136e+004,-1.83524414421460e+001,-1.09780702346154e+000

9.71355907516031e+004,-1.83525937129709e+001,-1.11284133697739e+000

9.84915530675926e+004,-1.83527495652047e+001,-1.12807461545238e+000

9.98664439121282e+004,-1.83529090649548e+001,-1.14350926484028e+000

1.01260527517622e+005,-1.83530722786192e+001,-1.15914771448057e+000

1.02674071805032e+005,-1.83532392728355e+001,-1.17499241730168e+000

1.04107348435354e+005,-1.83534101144256e+001,-1.19104585003999e+000

1.05560632861831e+005,-1.83535848703378e+001,-1.20731051347119e+000

1.07034204382888e+005,-1.83537636075866e+001,-1.22378893265661e+000

1.08528346195813e+005,-1.83539463931882e+001,-1.24048365720506e+000

1.10043345451179e+005,-1.83541332940939e+001,-1.25739726155516e+000

1.11579493308032e+005,-1.83543243771199e+001,-1.27453234527107e+000

1.13137084989847e+005,-1.83545197088740e+001,-1.29189153336489e+000

1.14716419841265e+005,-1.83547193556798e+001,-1.30947747663384e+000

1.16317801385624e+005,-1.83549233834964e+001,-1.32729285202533e+000

1.17941537383287e+005,-1.83551318578367e+001,-1.34534036302402e+000

1.19587939890794e+005,-1.83553448436809e+001,-1.36362274006630e+000

1.21257325320831e+005,-1.83555624053886e+001,-1.38214274098014e+000

1.22950014503040e+005,-1.83557846066061e+001,-1.40090315145647e+000

1.24666332745679e+005,-1.83560115101727e+001,-1.41990678554962e+000

1.26406609898139e+005,-1.83562431780224e+001,-1.43915648621125e+000

1.28171180414339e+005,-1.83564796710839e+001,-1.45865512585819e+000

1.29960383416997e+005,-1.83567210491774e+001,-1.47840560697587e+000

1.31774562762811e+005,-1.83569673709091e+001,-1.49841086275961e+000

1.33614067108538e+005,-1.83572186935631e+001,-1.51867385779516e+000

1.35479249978003e+005,-1.83574750729913e+001,-1.53919758878077e+000

1.37370469830040e+005,-1.83577365635006e+001,-1.55998508529141e+000

1.39288090127379e+005,-1.83580032177395e+001,-1.58103941058800e+000

1.41232479406504e+005,-1.83582750865812e+001,-1.60236366247325e+000

1.43204011348474e+005,-1.83585522190069e+001,-1.62396097419476e+000

1.45203064850745e+005,-1.83588346619866e+001,-1.64583451539842e+000

1.47230024099979e+005,-1.83591224603605e+001,-1.66798749313179e+000

1.49285278645888e+005,-1.83594156567180e+001,-1.69042315290240e+000

1.51369223476094e+005,-1.83597142912776e+001,-1.71314477978783e+000

1.53482259092041e+005,-1.83600184017666e+001,-1.73615569960276e+000

1.55624791585964e+005,-1.83603280233005e+001,-1.75945928012351e+000

1.57797232718936e+005,-1.83606431882641e+001,-1.78305893236836e+000

1.59999999999999e+005,-1.83609639261933e+001,-1.80695811193941e+000

1.62233516766403e+005,-1.83612902636580e+001,-1.83116032042360e+000

1.64498212264969e+005,-1.83616222241478e+001,-1.85566910685359e+000

1.66794521734578e+005,-1.83619598279592e+001,-1.88048806923285e+000

1.69122886489819e+005,-1.83623030920867e+001,-1.90562085611992e+000

1.71483754005805e+005,-1.83626520301159e+001,-1.93107116827845e+000

1.73877578004168e+005,-1.83630066521220e+001,-1.95684276038586e+000

1.76304818540256e+005,-1.83633669645714e+001,-1.98293944280751e+000

1.78765942091554e+005,-1.83637329702284e+001,-2.00936508343358e+000

1.81261421647326e+005,-1.83641046680677e+001,-2.03612360957522e+000

1.83791736799524e+005,-1.83644820531923e+001,-2.06321900992452e+000

1.86357373834951e+005,-1.83648651167580e+001,-2.09065533657331e+000

1.88958825828723e+005,-1.83652538459047e+001,-2.11843670709202e+000

1.91596592739027e+005,-1.83656482236950e+001,-2.14656730666622e+000

1.94271181503206e+005,-1.83660482290617e+001,-2.17505139028873e+000

1.96983106135185e+005,-1.83664538367620e+001,-2.20389328500739e+000

1.99732887824256e+005,-1.83668650173428e+001,-2.23309739222388e+000

2.02521055035243e+005,-1.83672817371132e+001,-2.26266819004424e+000

2.05348143610063e+005,-1.83677039581292e+001,-2.29261023567282e+000

2.08214696870707e+005,-1.83681316381873e+001,-2.32292816785623e+000

2.11121265723661e+005,-1.83685647308290e+001,-2.35362670936382e+000

2.14068408765776e+005,-1.83690031853574e+001,-2.38471066950807e+000

2.17056692391625e+005,-1.83694469468646e+001,-2.41618494670052e+000

2.20086690902357e+005,-1.83698959562712e+001,-2.44805453103570e+000

2.23158986616063e+005,-1.83703501503786e+001,-2.48032450690389e+000

2.26274169979693e+005,-1.83708094619331e+001,-2.51300005562515e+000

2.29432839682530e+005,-1.83712738197031e+001,-2.54608645810261e+000

2.32635602771247e+005,-1.83717431485694e+001,-2.57958909748757e+000

2.35883074766574e+005,-1.83722173696281e+001,-2.61351346185647e+000

2.39175879781588e+005,-1.83726964003076e+001,-2.64786514688820e+000

2.42514650641661e+005,-1.83731801544975e+001,-2.68264985854448e+000

2.45900029006080e+005,-1.83736685426923e+001,-2.71787341574319e+000

2.49332665491357e+005,-1.83741614721468e+001,-2.75354175302072e+000

2.52813219796278e+005,-1.83746588470454e+001,-2.78966092317942e+000

2.56342360828676e+005,-1.83751605686842e+001,-2.82623709991568e+000

2.59920766833993e+005,-1.83756665356656e+001,-2.86327658042104e+000

2.63549125525621e+005,-1.83761766441053e+001,-2.90078578795394e+000

2.67228134217075e+005,-1.83766907878511e+001,-2.93877127437857e+000

2.70958499956006e+005,-1.83772088587141e+001,-2.97723972266008e+000

2.74740939660078e+005,-1.83777307467102e+001,-3.01619794932073e+000

2.78576180254757e+005,-1.83782563403131e+001,-3.05565290684461e+000

2.82464958813007e+005,-1.83787855267165e+001,-3.09561168603201e+000

2.86408022696948e+005,-1.83793181921075e+001,-3.13608151829781e+000

2.90406129701488e+005,-1.83798542219470e+001,-3.17706977790972e+000

2.94460048199957e+005,-1.83803935012598e+001,-3.21858398416508e+000

2.98570557291775e+005,-1.83809359149319e+001,-3.26063180350141e+000

3.02738446952187e+005,-1.83814813480142e+001,-3.30322105153988e+000

3.06964518184081e+005,-1.83820296860328e+001,-3.34635969505807e+000

3.11249583171928e+005,-1.83825808153041e+001,-3.39005585389095e+000

3.15594465437872e+005,-1.83831346232549e+001,-3.43431780275872e+000

3.19999999999997e+005,-1.83836909987454e+001,-3.47915397302006e+000

3.24467033532806e+005,-1.83842498323954e+001,-3.52457295435072e+000

3.28996424529938e+005,-1.83848110169120e+001,-3.57058349634687e+000

3.33589043469155e+005,-1.83853744474189e+001,-3.61719451005361e+000

3.38245772979638e+005,-1.83859400217850e+001,-3.66441506941947e+000

3.42967508011610e+005,-1.83865076409535e+001,-3.71225441267626e+000

3.47755156008335e+005,-1.83870772092680e+001,-3.76072194364981e+000

3.52609637080511e+005,-1.83876486347977e+001,-3.80982723299934e+000

3.57531884183106e+005,-1.83882218296584e+001,-3.85958001938817e+000

3.62522843294651e+005,-1.83887967103303e+001,-3.90999021059212e+000

3.67583473599047e+005,-1.83893731979707e+001,-3.96106788454358e+000

3.72714747669902e+005,-1.83899512187220e+001,-4.01282329031812e+000

3.77917651657445e+005,-1.83905307040129e+001,-4.06526684906633e+000

3.83193185478053e+005,-1.83911115908535e+001,-4.11840915489400e+000

3.88542363006410e+005,-1.83916938221236e+001,-4.17226097569546e+000

3.93966212270369e+005,-1.83922773468524e+001,-4.22683325394519e+000

3.99465775648511e+005,-1.83928621204912e+001,-4.28213710745109e+000

4.05042110070485e+005,-1.83934481051762e+001,-4.33818383007547e+000

4.10696287220124e+005,-1.83940352699838e+001,-4.39498489242784e+000

4.16429393741414e+005,-1.83946235911759e+001,-4.45255194253558e+000

4.22242531447321e+005,-1.83952130524356e+001,-4.51089680649643e+000

4.28136817531551e+005,-1.83958036450940e+001,-4.57003148911959e+000

4.34113384783250e+005,-1.83963953683463e+001,-4.62996817455968e+000

4.40173381804713e+005,-1.83969882294592e+001,-4.69071922694956e+000

4.46317973232124e+005,-1.83975822439672e+001,-4.75229719103791e+000

4.52548339959385e+005,-1.83981774358601e+001,-4.81471479283415e+000

4.58865679365059e+005,-1.83987738377602e+001,-4.87798494027029e+000

4.65271205542494e+005,-1.83993714910903e+001,-4.94212072388059e+000

4.71766149533147e+005,-1.83999704462319e+001,-5.00713541750709e+000

4.78351759563174e+005,-1.84005707626746e+001,-5.07304247903443e+000

4.85029301283321e+005,-1.84011725091568e+001,-5.13985555115919e+000

4.91800058012158e+005,-1.84017757637973e+001,-5.20758846219751e+000

4.98665330982714e+005,-1.84023806142192e+001,-5.27625522693678e+000

5.05626439592555e+005,-1.84029871576663e+001,-5.34587004753419e+000

5.12684721657352e+005,-1.84035955011116e+001,-5.41644731446647e+000

5.19841533667984e+005,-1.84042057613594e+001,-5.48800160753552e+000

5.27098251051240e+005,-1.84048180651412e+001,-5.56054769693125e+000

5.34456268434150e+005,-1.84054325492052e+001,-5.63410054435657e+000

5.41916999912011e+005,-1.84060493604017e+001,-5.70867530421702e+000

