Freq.,VOut,OutRef

1.00000000000000e+004,-1.63467024784463e+001,-1.86156169330540e-001

1.01395947979003e+004,-1.63467038717652e+001,-1.88754558802774e-001

1.02811382665607e+004,-1.63467053041859e+001,-1.91389209677498e-001

1.04246576084112e+004,-1.63467067768040e+001,-1.94060627688675e-001

1.05701804056138e+004,-1.63467082907454e+001,-1.96769325609983e-001

1.07177346253629e+004,-1.63467098471673e+001,-1.99515823355475e-001

1.08673486252606e+004,-1.63467114472593e+001,-2.02300648074723e-001

1.10190511587661e+004,-1.63467130922444e+001,-2.05124334252921e-001

1.11728713807222e+004,-1.63467147833793e+001,-2.07987423816015e-001

1.13288388529580e+004,-1.63467165219560e+001,-2.10890466230281e-001

1.14869835499703e+004,-1.63467183093026e+001,-2.13834018605471e-001

1.16473358646846e+004,-1.63467201467837e+001,-2.16818645806619e-001

1.18099266142953e+004,-1.63467220358026e+001,-2.19844920553895e-001

1.19747870461893e+004,-1.63467239778011e+001,-2.22913423535674e-001

1.21419488439505e+004,-1.63467259742616e+001,-2.26024743516591e-001

1.23114441334492e+004,-1.63467280267072e+001,-2.29179477451494e-001

1.24833054890161e+004,-1.63467301367042e+001,-2.32378230594015e-001

1.26575659397028e+004,-1.63467323058616e+001,-2.35621616616752e-001

1.28342589756290e+004,-1.63467345358338e+001,-2.38910257721416e-001

1.30134185544193e+004,-1.63467368283207e+001,-2.42244784762805e-001

1.31950791077289e+004,-1.63467391850701e+001,-2.45625837361383e-001

1.33792755478611e+004,-1.63467416078775e+001,-2.49054064031068e-001

1.35660432744767e+004,-1.63467440985891e+001,-2.52530122294435e-001

1.37554181813974e+004,-1.63467466591016e+001,-2.56054678814630e-001

1.39474366635040e+004,-1.63467492913652e+001,-2.59628409512536e-001

1.41421356237309e+004,-1.63467519973833e+001,-2.63251999703018e-001

1.43395524801583e+004,-1.63467547792156e+001,-2.66926144216447e-001

1.45397251732031e+004,-1.63467576389784e+001,-2.70651547535232e-001

1.47426921729110e+004,-1.63467605788471e+001,-2.74428923922105e-001

1.49484924863494e+004,-1.63467636010570e+001,-2.78258997558141e-001

1.51571656651040e+004,-1.63467667079052e+001,-2.82142502677703e-001

1.53687518128801e+004,-1.63467699017530e+001,-2.86080183703222e-001

1.55832915932100e+004,-1.63467731850264e+001,-2.90072795390537e-001

1.58008262372675e+004,-1.63467765602187e+001,-2.94121102966795e-001

1.60213975517924e+004,-1.63467800298923e+001,-2.98225882275164e-001

1.62450479271247e+004,-1.63467835966802e+001,-3.02387919919740e-001

1.64718203453514e+004,-1.63467872632882e+001,-3.06608013412690e-001

1.67017583885674e+004,-1.63467910324964e+001,-3.10886971327026e-001

1.69349062472505e+004,-1.63467949071622e+001,-3.15225613440653e-001

1.71713087287550e+004,-1.63467988902215e+001,-3.19624770896346e-001

1.74110112659224e+004,-1.63468029846911e+001,-3.24085286353558e-001

1.76540599258131e+004,-1.63468071936708e+001,-3.28608014147424e-001

1.79005014185594e+004,-1.63468115203458e+001,-3.33193820446404e-001

1.81503831063432e+004,-1.63468159679890e+001,-3.37843583413778e-001

1.84037530124975e+004,-1.63468205399631e+001,-3.42558193372430e-001

1.86606598307361e+004,-1.63468252397235e+001,-3.47338552970177e-001

1.89211529345119e+004,-1.63468300708200e+001,-3.52185577345888e-001

1.91852823865052e+004,-1.63468350369001e+001,-3.57100194302417e-001

1.94530989482457e+004,-1.63468401417113e+001,-3.62083344473866e-001

1.97246540898671e+004,-1.63468453891037e+001,-3.67135981504997e-001

1.99999999999999e+004,-1.63468507830329e+001,-3.72259072225210e-001

2.02791895958005e+004,-1.63468563275625e+001,-3.77453596826309e-001

2.05622765331213e+004,-1.63468620268674e+001,-3.82720549046223e-001

2.08493152168224e+004,-1.63468678852364e+001,-3.88060936351067e-001

2.11403608112276e+004,-1.63468739070755e+001,-3.93475780119495e-001

2.14354692507258e+004,-1.63468800969106e+001,-3.98966115832687e-001

2.17346972505211e+004,-1.63468864593912e+001,-4.04532993264505e-001

2.20381023175322e+004,-1.63468929992931e+001,-4.10177476673594e-001

2.23457427614443e+004,-1.63468997215222e+001,-4.15900644998188e-001

2.26576777059159e+004,-1.63469066311174e+001,-4.21703592055007e-001

2.29739670999406e+004,-1.63469137332546e+001,-4.27587426739231e-001

2.32946717293690e+004,-1.63469210332501e+001,-4.33553273225800e-001

2.36198532285905e+004,-1.63469285365639e+001,-4.39602271176581e-001

2.39495740923785e+004,-1.63469362488042e+001,-4.45735575945491e-001

2.42838976879009e+004,-1.63469441757302e+001,-4.51954358791686e-001

2.46228882668982e+004,-1.63469523232571e+001,-4.58259807090013e-001

2.49666109780322e+004,-1.63469606974592e+001,-4.64653124547821e-001

2.53151318794055e+004,-1.63469693045748e+001,-4.71135531421647e-001

2.56685179512580e+004,-1.63469781510098e+001,-4.77708264739845e-001

2.60268371088386e+004,-1.63469872433421e+001,-4.84372578523612e-001

2.63901582154578e+004,-1.63469965883265e+001,-4.91129744014717e-001

2.67585510957221e+004,-1.63470061928982e+001,-4.97981049905180e-001

2.71320865489533e+004,-1.63470160641785e+001,-5.04927802565215e-001

2.75108363627948e+004,-1.63470262094787e+001,-5.11971326281571e-001

2.78948733270080e+004,-1.63470366363054e+001,-5.19112963490698e-001

2.82842712474618e+004,-1.63470473523649e+001,-5.26354075023085e-001

2.86791049603164e+004,-1.63470583655688e+001,-5.33696040341496e-001

2.90794503464061e+004,-1.63470696840384e+001,-5.41140257789376e-001

2.94853843458219e+004,-1.63470813161108e+001,-5.48688144837686e-001

2.98969849726987e+004,-1.63470932703435e+001,-5.56341138336663e-001

3.03143313302078e+004,-1.63471055555200e+001,-5.64100694770865e-001

3.07375036257601e+004,-1.63471181806558e+001,-5.71968290514002e-001

3.11665831864199e+004,-1.63471311550034e+001,-5.79945422092057e-001

3.16016524745350e+004,-1.63471444880585e+001,-5.88033606442531e-001

3.20427951035848e+004,-1.63471581895660e+001,-5.96234381183621e-001

3.24900958542493e+004,-1.63471722695256e+001,-6.04549304880678e-001

3.29436406907028e+004,-1.63471867381983e+001,-6.12979957319808e-001

3.34035167771346e+004,-1.63472016061123e+001,-6.21527939782203e-001

3.38698124945009e+004,-1.63472168840699e+001,-6.30194875321750e-001

3.43426174575100e+004,-1.63472325831531e+001,-6.38982409046780e-001

3.48220225318448e+004,-1.63472487147312e+001,-6.47892208403153e-001

3.53081198516260e+004,-1.63472652904669e+001,-6.56925963461808e-001

3.58010028371187e+004,-1.63472823223231e+001,-6.66085387209430e-001

3.63007662126863e+004,-1.63472998225700e+001,-6.75372215842653e-001

3.68075060249948e+004,-1.63473178037925e+001,-6.84788209061341e-001

3.73213196614721e+004,-1.63473362788967e+001,-6.94335150371271e-001

3.78423058690237e+004,-1.63473552611173e+001,-7.04014847386274e-001

3.83705647730104e+004,-1.63473747640257e+001,-7.13829132133498e-001

3.89061978964912e+004,-1.63473948015368e+001,-7.23779861361734e-001

3.94493081797342e+004,-1.63474153879166e+001,-7.33868916856374e-001

3.99999999999998e+004,-1.63474365377904e+001,-7.44098205751626e-001

4.05583791916010e+004,-1.63474582661502e+001,-7.54469660852298e-001

4.11245530662425e+004,-1.63474805883628e+001,-7.64985240952171e-001

4.16986304336447e+004,-1.63475035201779e+001,-7.75646931162245e-001

4.22807216224550e+004,-1.63475270777359e+001,-7.86456743237486e-001

4.28709385014515e+004,-1.63475512775765e+001,-7.97416715908773e-001

4.34693945010421e+004,-1.63475761366466e+001,-8.08528915217264e-001

4.40762046350642e+004,-1.63476016723092e+001,-8.19795434852031e-001

4.46914855228886e+004,-1.63476279023513e+001,-8.31218396493363e-001

4.53153554118317e+004,-1.63476548449925e+001,-8.42799950155357e-001

4.59479341998812e+004,-1.63476825188940e+001,-8.54542274533706e-001

4.65893434587380e+004,-1.63477109431671e+001,-8.66447577357727e-001

4.72397064571810e+004,-1.63477401373812e+001,-8.78518095745826e-001

4.78991481847569e+004,-1.63477701215736e+001,-8.90756096560197e-001

4.85677953758016e+004,-1.63478009162578e+001,-9.03163876769813e-001

4.92457765337964e+004,-1.63478325424318e+001,-9.15743763815506e-001

4.99332219560642e+004,-1.63478650215881e+001,-9.28498115975323e-001

5.06302637588109e+004,-1.63478983757212e+001,-9.41429322737622e-001

5.13370359025159e+004,-1.63479326273374e+001,-9.54539805174651e-001

5.20536742176771e+004,-1.63479677994632e+001,-9.67832016319615e-001

5.27803164309155e+004,-1.63480039156541e+001,-9.81308441549595e-001

5.35171021914442e+004,-1.63480410000033e+001,-9.94971598968145e-001

5.42641730979066e+004,-1.63480790771506e+001,-1.00882403979437e+000

5.50216727255895e+004,-1.63481181722909e+001,-1.02286834875368e+000

5.57897466540159e+004,-1.63481583111825e+001,-1.03710714447351e+000

5.65685424949235e+004,-1.63481995201557e+001,-1.05154307988160e+000

5.73582099206328e+004,-1.63482418261217e+001,-1.06617884260598e+000

5.81589006928121e+004,-1.63482852565795e+001,-1.08101715538330e+000

5.89707686916437e+004,-1.63483298396251e+001,-1.09606077646576e+000

5.97939699453972e+004,-1.63483756039586e+001,-1.11131250003478e+000

6.06286626604156e+004,-1.63484225788924e+001,-1.12677515661658e+000

6.14750072515201e+004,-1.63484707943581e+001,-1.14245161350252e+000

6.23331663728396e+004,-1.63485202809140e+001,-1.15834477517378e+000

6.32033049490698e+004,-1.63485710697519e+001,-1.17445758372753e+000

6.40855902071694e+004,-1.63486231927039e+001,-1.19079301930972e+000

6.49801917084985e+004,-1.63486766822483e+001,-1.20735410054968e+000

6.58872813814055e+004,-1.63487315715158e+001,-1.22414388500092e+000

6.68070335542691e+004,-1.63487878942953e+001,-1.24116546958263e+000

6.77396249890018e+004,-1.63488456850385e+001,-1.25842199103141e+000

6.86852349150199e+004,-1.63489049788652e+001,-1.27591662634930e+000

6.96440450636895e+004,-1.63489658115670e+001,-1.29365259326396e+000

7.06162397032520e+004,-1.63490282196114e+001,-1.31163315068771e+000

7.16020056742374e+004,-1.63490922401450e+001,-1.32986159918579e+000

7.26015324253724e+004,-1.63491579109959e+001,-1.34834128144523e+000

7.36150120499896e+004,-1.63492252706758e+001,-1.36707558275262e+000

7.46426393229441e+004,-1.63492943583814e+001,-1.38606793147450e+000

7.56846117380472e+004,-1.63493652139951e+001,-1.40532179954405e+000

7.67411295460207e+004,-1.63494378780848e+001,-1.42484070295258e+000

7.78123957929823e+004,-1.63495123919030e+001,-1.44462820225028e+000

7.88986163594682e+004,-1.63495887973853e+001,-1.46468790304704e+000

7.99999999999995e+004,-1.63496671371476e+001,-1.48502345652522e+000

8.11167583832018e+004,-1.63497474544833e+001,-1.50563855995515e+000

8.22491061324848e+004,-1.63498297933581e+001,-1.52653695722074e+000

8.33972608672892e+004,-1.63499141984051e+001,-1.54772243934947e+000

8.45614432449099e+004,-1.63500007149182e+001,-1.56919884505115e+000

8.57418770029029e+004,-1.63500893888446e+001,-1.59097006126578e+000

8.69387890020841e+004,-1.63501802667767e+001,-1.61304002371604e+000

8.81524092701283e+004,-1.63502733959411e+001,-1.63541271747388e+000

8.93829710457770e+004,-1.63503688241889e+001,-1.65809217753088e+000

9.06307108236633e+004,-1.63504665999823e+001,-1.68108248938203e+000

9.18958683997622e+004,-1.63505667723816e+001,-1.70438778961749e+000

9.31786869174758e+004,-1.63506693910303e+001,-1.72801226652559e+000

9.44794129143618e+004,-1.63507745061379e+001,-1.75196016070781e+000

9.57982963695136e+004,-1.63508821684630e+001,-1.77623576570348e+000

9.71355907516031e+004,-1.63509924292934e+001,-1.80084342862962e+000

9.84915530675926e+004,-1.63511053404255e+001,-1.82578755083068e+000

9.98664439121282e+004,-1.63512209541416e+001,-1.85107258854445e+000

1.01260527517622e+005,-1.63513393231862e+001,-1.87670305358102e+000

1.02674071805032e+005,-1.63514605007400e+001,-1.90268351401666e+000

1.04107348435354e+005,-1.63515845403928e+001,-1.92901859490542e+000

1.05560632861831e+005,-1.63517114961143e+001,-1.95571297900491e+000

1.07034204382888e+005,-1.63518414222237e+001,-1.98277140752092e+000

1.08528346195813e+005,-1.63519743733568e+001,-2.01019868087081e+000

1.10043345451179e+005,-1.63521104044317e+001,-2.03799965946588e+000

1.11579493308032e+005,-1.63522495706136e+001,-2.06617926451266e+000

1.13137084989847e+005,-1.63523919272762e+001,-2.09474247883815e+000

1.14716419841265e+005,-1.63525375299626e+001,-2.12369434773498e+000

1.16317801385624e+005,-1.63526864343440e+001,-2.15303997983095e+000

1.17941537383287e+005,-1.63528386961767e+001,-2.18278454798254e+000

1.19587939890794e+005,-1.63529943712574e+001,-2.21293329019451e+000

1.21257325320831e+005,-1.63531535153769e+001,-2.24349151056485e+000

1.22950014503040e+005,-1.63533161842720e+001,-2.27446458025926e+000

1.24666332745679e+005,-1.63534824335759e+001,-2.30585793851286e+000

1.26406609898139e+005,-1.63536523187672e+001,-2.33767709366353e+000

1.28171180414339e+005,-1.63538258951168e+001,-2.36992762421474e+000

1.29960383416997e+005,-1.63540032176347e+001,-2.40261517993358e+000

1.31774562762811e+005,-1.63541843410138e+001,-2.43574548297983e+000

1.33614067108538e+005,-1.63543693195741e+001,-2.46932432907189e+000

1.35479249978003e+005,-1.63545582072044e+001,-2.50335758868853e+000

1.37370469830040e+005,-1.63547510573045e+001,-2.53785120830794e+000

1.39288090127379e+005,-1.63549479227249e+001,-2.57281121168630e+000

1.41232479406504e+005,-1.63551488557071e+001,-2.60824370117519e+000

1.43204011348474e+005,-1.63553539078232e+001,-2.64415485908155e+000

1.45203064850745e+005,-1.63555631299140e+001,-2.68055094906937e+000

1.47230024099979e+005,-1.63557765720288e+001,-2.71743831760473e+000

1.49285278645888e+005,-1.63559942833633e+001,-2.75482339544605e+000

1.51369223476094e+005,-1.63562163121993e+001,-2.79271269918038e+000

1.53482259092041e+005,-1.63564427058438e+001,-2.83111283280570e+000

1.55624791585964e+005,-1.63566735105693e+001,-2.87003048936115e+000

1.57797232718936e+005,-1.63569087715550e+001,-2.90947245260680e+000

1.59999999999999e+005,-1.63571485328290e+001,-2.94944559875222e+000

1.62233516766403e+005,-1.63573928372123e+001,-2.98995689823547e+000

1.64498212264969e+005,-1.63576417262646e+001,-3.03101341755331e+000

1.66794521734578e+005,-1.63578952402313e+001,-3.07262232114218e+000

1.69122886489819e+005,-1.63581534179945e+001,-3.11479087331312e+000

1.71483754005805e+005,-1.63584162970252e+001,-3.15752644023652e+000

1.73877578004168e+005,-1.63586839133392e+001,-3.20083649198224e+000

1.76304818540256e+005,-1.63589563014566e+001,-3.24472860460934e+000

1.78765942091554e+005,-1.63592334943646e+001,-3.28921046231260e+000

1.81261421647326e+005,-1.63595155234843e+001,-3.33428985961768e+000

1.83791736799524e+005,-1.63598024186423e+001,-3.37997470363216e+000

1.86357373834951e+005,-1.63600942080473e+001,-3.42627301634552e+000

1.88958825828723e+005,-1.63603909182704e+001,-3.47319293698346e+000

1.91596592739027e+005,-1.63606925742331e+001,-3.52074272441014e+000

1.94271181503206e+005,-1.63609991991992e+001,-3.56893075958264e+000

1.96983106135185e+005,-1.63613108147740e+001,-3.61776554805281e+000

1.99732887824256e+005,-1.63616274409094e+001,-3.66725572251683e+000

2.02521055035243e+005,-1.63619490959167e+001,-3.71741004541128e+000

2.05348143610063e+005,-1.63622757964855e+001,-3.76823741155418e+000

2.08214696870707e+005,-1.63626075577111e+001,-3.81974685082798e+000

2.11121265723661e+005,-1.63629443931290e+001,-3.87194753090528e+000

2.14068408765776e+005,-1.63632863147583e+001,-3.92484876001294e+000

2.17056692391625e+005,-1.63636333331524e+001,-3.97845998973199e+000

2.20086690902357e+005,-1.63639854574593e+001,-4.03279081783531e+000

2.23158986616063e+005,-1.63643426954902e+001,-4.08785099115487e+000

2.26274169979693e+005,-1.63647050537974e+001,-4.14365040848052e+000

2.29432839682530e+005,-1.63650725377611e+001,-4.20019912348528e+000

2.32635602771247e+005,-1.63654451516861e+001,-4.25750734767529e+000

2.35883074766574e+005,-1.63658228989073e+001,-4.31558545336173e+000

2.39175879781588e+005,-1.63662057819055e+001,-4.37444397665125e+000

2.42514650641661e+005,-1.63665938024325e+001,-4.43409362045221e+000

2.45900029006080e+005,-1.63669869616454e+001,-4.49454525749379e+000

2.49332665491357e+005,-1.63673852602516e+001,-4.55580993335537e+000

2.52813219796278e+005,-1.63677886986628e+001,-4.61789886950161e+000

2.56342360828676e+005,-1.63681972771580e+001,-4.68082346632277e+000

2.59920766833993e+005,-1.63686109960573e+001,-4.74459530617452e+000

2.63549125525621e+005,-1.63690298559037e+001,-4.80922615641585e+000

2.67228134217075e+005,-1.63694538576549e+001,-4.87472797244282e+000

2.70958499956006e+005,-1.63698830028833e+001,-4.94111290071313e+000

2.74740939660078e+005,-1.63703172939852e+001,-5.00839328176057e+000

2.78576180254757e+005,-1.63707567343982e+001,-5.07658165319702e+000

2.82464958813007e+005,-1.63712013288264e+001,-5.14569075269747e+000

2.86408022696948e+005,-1.63716510834737e+001,-5.21573352096863e+000

2.90406129701488e+005,-1.63721060062843e+001,-5.28672310469599e+000

2.94460048199957e+005,-1.63725661071903e+001,-5.35867285947072e+000

2.98570557291775e+005,-1.63730313983654e+001,-5.43159635269070e+000

3.02738446952187e+005,-1.63735018944852e+001,-5.50550736643904e+000

3.06964518184081e+005,-1.63739776129933e+001,-5.58041990033301e+000

3.11249583171928e+005,-1.63744585743717e+001,-5.65634817434924e+000

3.15594465437872e+005,-1.63749448024170e+001,-5.73330663161638e+000

3.19999999999997e+005,-1.63754363245200e+001,-5.81130994118251e+000

3.24467033532806e+005,-1.63759331719496e+001,-5.89037300075152e+000

3.28996424529938e+005,-1.63764353801392e+001,-5.97051093939115e+000

3.33589043469155e+005,-1.63769429889769e+001,-6.05173912021167e+000

3.38245772979638e+005,-1.63774560430966e+001,-6.13407314301569e+000

3.42967508011610e+005,-1.63779745921720e+001,-6.21752884692226e+000

3.47755156008335e+005,-1.63784986912108e+001,-6.30212231296239e+000

3.52609637080511e+005,-1.63790284008509e+001,-6.38786986664980e+000

3.57531884183106e+005,-1.63795637876556e+001,-6.47478808052873e+000

3.62522843294651e+005,-1.63801049244094e+001,-6.56289377669855e+000

3.67583473599047e+005,-1.63806518904134e+001,-6.65220402931904e+000

3.72714747669902e+005,-1.63812047717794e+001,-6.74273616709814e+000

3.77917651657445e+005,-1.63817636617228e+001,-6.83450777576273e+000

3.83193185478053e+005,-1.63823286608541e+001,-6.92753670051858e+000

3.88542363006410e+005,-1.63828998774681e+001,-7.02184104849849e+000

3.93966212270369e+005,-1.63834774278313e+001,-7.11743919120420e+000

3.99465775648511e+005,-1.63840614364667e+001,-7.21434976694322e+000

4.05042110070485e+005,-1.63846520364362e+001,-7.31259168326576e+000

4.10696287220124e+005,-1.63852493696195e+001,-7.41218411940213e+000

4.16429393741414e+005,-1.63858535869913e+001,-7.51314652870719e+000

4.22242531447321e+005,-1.63864648488942e+001,-7.61549864111200e+000

4.28136817531551e+005,-1.63870833253096e+001,-7.71926046558925e+000

4.34113384783250e+005,-1.63877091961251e+001,-7.82445229263261e+000

4.40173381804713e+005,-1.63883426513988e+001,-7.93109469675584e+000

4.46317973232124e+005,-1.63889838916209e+001,-8.03920853901428e+000

4.52548339959385e+005,-1.63896331279721e+001,-8.14881496955123e+000

4.58865679365059e+005,-1.63902905825798e+001,-8.25993543017396e+000

4.65271205542494e+005,-1.63909564887713e+001,-8.37259165696085e+000

4.71766149533147e+005,-1.63916310913249e+001,-8.48680568290405e+000

4.78351759563174e+005,-1.63923146467187e+001,-8.60259984059095e+000

4.85029301283321e+005,-1.63930074233780e+001,-8.71999676492492e+000

4.91800058012158e+005,-1.63937097019205e+001,-8.83901939589103e+000

4.98665330982714e+005,-1.63944217754013e+001,-8.95969098136716e+000

5.05626439592555e+005,-1.63951439495558e+001,-9.08203507998425e+000

5.12684721657352e+005,-1.63958765430432e+001,-9.20607556403723e+000

5.19841533667984e+005,-1.63966198876895e+001,-9.33183662244840e+000

5.27098251051240e+005,-1.63973743287310e+001,-9.45934276378606e+000

5.34456268434150e+005,-1.63981402250579e+001,-9.58861881933973e+000

5.41916999912011e+005,-1.63989179494603e+001,-9.71968994625271e+000

