Freq.,VOut,OutRef

1.00000000000000e+004,-1.20241180119483e+001,-1.89599413820949e-001

1.01395947979003e+004,-1.20241185340364e+001,-1.92246025324837e-001

1.02811382665607e+004,-1.20241190707807e+001,-1.94929578003309e-001

1.04246576084112e+004,-1.20241196225919e+001,-1.97650587362010e-001

1.05701804056138e+004,-1.20241201898925e+001,-2.00409576091544e-001

1.07177346253629e+004,-1.20241207731163e+001,-2.03207074174483e-001

1.08673486252606e+004,-1.20241213727097e+001,-2.06043618982290e-001

1.10190511587661e+004,-1.20241219891314e+001,-2.08919755378928e-001

1.11728713807222e+004,-1.20241226228525e+001,-2.11836035827529e-001

1.13288388529580e+004,-1.20241232743582e+001,-2.14793020490337e-001

1.14869835499703e+004,-1.20241239441462e+001,-2.17791277344392e-001

1.16473358646846e+004,-1.20241246327288e+001,-2.20831382282535e-001

1.18099266142953e+004,-1.20241253406323e+001,-2.23913919225921e-001

1.19747870461893e+004,-1.20241260683977e+001,-2.27039480238266e-001

1.21419488439505e+004,-1.20241268165811e+001,-2.30208665636261e-001

1.23114441334492e+004,-1.20241275857543e+001,-2.33422084102991e-001

1.24833054890161e+004,-1.20241283765046e+001,-2.36680352809674e-001

1.26575659397028e+004,-1.20241291894361e+001,-2.39984097527559e-001

1.28342589756290e+004,-1.20241300251695e+001,-2.43333952750036e-001

1.30134185544193e+004,-1.20241308843429e+001,-2.46730561815811e-001

1.31950791077289e+004,-1.20241317676121e+001,-2.50174577027480e-001

1.33792755478611e+004,-1.20241326756510e+001,-2.53666659781239e-001

1.35660432744767e+004,-1.20241336091527e+001,-2.57207480687026e-001

1.37554181813974e+004,-1.20241345688293e+001,-2.60797719701792e-001

1.39474366635040e+004,-1.20241355554126e+001,-2.64438066257336e-001

1.41421356237309e+004,-1.20241365696547e+001,-2.68129219392542e-001

1.43395524801583e+004,-1.20241376123290e+001,-2.71871887883281e-001

1.45397251732031e+004,-1.20241386842303e+001,-2.75666790381760e-001

1.47426921729110e+004,-1.20241397861750e+001,-2.79514655554323e-001

1.49484924863494e+004,-1.20241409190028e+001,-2.83416222214592e-001

1.51571656651040e+004,-1.20241420835764e+001,-2.87372239469651e-001

1.53687518128801e+004,-1.20241432807822e+001,-2.91383466861974e-001

1.55832915932100e+004,-1.20241445115318e+001,-2.95450674510570e-001

1.58008262372675e+004,-1.20241457767615e+001,-2.99574643262936e-001

1.60213975517924e+004,-1.20241470774340e+001,-3.03756164839004e-001

1.62450479271247e+004,-1.20241484145384e+001,-3.07996041983914e-001

1.64718203453514e+004,-1.20241497890910e+001,-3.12295088624306e-001

1.67017583885674e+004,-1.20241512021369e+001,-3.16654130014846e-001

1.69349062472505e+004,-1.20241526547495e+001,-3.21074002902102e-001

1.71713087287550e+004,-1.20241541480321e+001,-3.25555555683409e-001

1.74110112659224e+004,-1.20241556831185e+001,-3.30099648563662e-001

1.76540599258131e+004,-1.20241572611740e+001,-3.34707153722171e-001

1.79005014185594e+004,-1.20241588833958e+001,-3.39378955478617e-001

1.81503831063432e+004,-1.20241605510142e+001,-3.44115950459368e-001

1.84037530124975e+004,-1.20241622652937e+001,-3.48919047768454e-001

1.86606598307361e+004,-1.20241640275334e+001,-3.53789169160679e-001

1.89211529345119e+004,-1.20241658390684e+001,-3.58727249214167e-001

1.91852823865052e+004,-1.20241677012704e+001,-3.63734235512345e-001

1.94530989482457e+004,-1.20241696155489e+001,-3.68811088818457e-001

1.97246540898671e+004,-1.20241715833524e+001,-3.73958783260281e-001

1.99999999999999e+004,-1.20241736061689e+001,-3.79178306514341e-001

2.02791895958005e+004,-1.20241756855275e+001,-3.84470659993997e-001

2.05622765331213e+004,-1.20241778229992e+001,-3.89836859036528e-001

2.08493152168224e+004,-1.20241800201984e+001,-3.95277933096689e-001

2.11403608112276e+004,-1.20241822787831e+001,-4.00794925943763e-001

2.14354692507258e+004,-1.20241846004575e+001,-4.06388895852827e-001

2.17346972505211e+004,-1.20241869869722e+001,-4.12060915811593e-001

2.20381023175322e+004,-1.20241894401253e+001,-4.17812073719311e-001

2.23457427614443e+004,-1.20241919617646e+001,-4.23643472592297e-001

2.26576777059159e+004,-1.20241945537883e+001,-4.29556230773086e-001

2.29739670999406e+004,-1.20241972181462e+001,-4.35551482140610e-001

2.32946717293690e+004,-1.20241999568414e+001,-4.41630376325716e-001

2.36198532285905e+004,-1.20242027719317e+001,-4.47794078924859e-001

2.39495740923785e+004,-1.20242056655306e+001,-4.54043771722432e-001

2.42838976879009e+004,-1.20242086398095e+001,-4.60380652911389e-001

2.46228882668982e+004,-1.20242116969986e+001,-4.66805937319618e-001

2.49666109780322e+004,-1.20242148393886e+001,-4.73320856638228e-001

2.53151318794055e+004,-1.20242180693326e+001,-4.79926659651538e-001

2.56685179512580e+004,-1.20242213892470e+001,-4.86624612475364e-001

2.60268371088386e+004,-1.20242248016141e+001,-4.93415998790122e-001

2.63901582154578e+004,-1.20242283089828e+001,-5.00302120084798e-001

2.67585510957221e+004,-1.20242319139715e+001,-5.07284295898288e-001

2.71320865489533e+004,-1.20242356192686e+001,-5.14363864069337e-001

2.75108363627948e+004,-1.20242394276353e+001,-5.21542180985349e-001

2.78948733270080e+004,-1.20242433419068e+001,-5.28820621837229e-001

2.82842712474618e+004,-1.20242473649948e+001,-5.36200580873880e-001

2.86791049603164e+004,-1.20242514998891e+001,-5.43683471665235e-001

2.90794503464061e+004,-1.20242557496596e+001,-5.51270727365359e-001

2.94853843458219e+004,-1.20242601174582e+001,-5.58963800979398e-001

2.98969849726987e+004,-1.20242646065211e+001,-5.66764165634942e-001

3.03143313302078e+004,-1.20242692201712e+001,-5.74673314855022e-001

3.07375036257601e+004,-1.20242739618196e+001,-5.82692762836895e-001

3.11665831864199e+004,-1.20242788349682e+001,-5.90824044734794e-001

3.16016524745350e+004,-1.20242838432120e+001,-5.99068716942239e-001

3.20427951035848e+004,-1.20242889902413e+001,-6.07428357382287e-001

3.24900958542493e+004,-1.20242942798442e+001,-6.15904565800980e-001

3.29436406907028e+004,-1.20242997159086e+001,-6.24498964062017e-001

3.34035167771346e+004,-1.20243053024255e+001,-6.33213196446626e-001

3.38698124945009e+004,-1.20243110434904e+001,-6.42048929960003e-001

3.43426174575100e+004,-1.20243169433067e+001,-6.51007854636422e-001

3.48220225318448e+004,-1.20243230061880e+001,-6.60091683852698e-001

3.53081198516260e+004,-1.20243292365610e+001,-6.69302154641730e-001

3.58010028371187e+004,-1.20243356389676e+001,-6.78641028015632e-001

3.63007662126863e+004,-1.20243422180683e+001,-6.88110089286322e-001

3.68075060249948e+004,-1.20243489786447e+001,-6.97711148395873e-001

3.73213196614721e+004,-1.20243559256027e+001,-7.07446040245560e-001

3.78423058690237e+004,-1.20243630639748e+001,-7.17316625034960e-001

3.83705647730104e+004,-1.20243703989234e+001,-7.27324788602229e-001

3.89061978964912e+004,-1.20243779357441e+001,-7.37472442765481e-001

3.94493081797342e+004,-1.20243856798683e+001,-7.47761525676839e-001

3.99999999999998e+004,-1.20243936368665e+001,-7.58194002170774e-001

4.05583791916010e+004,-1.20244018124514e+001,-7.68771864125835e-001

4.11245530662425e+004,-1.20244102124815e+001,-7.79497130823275e-001

4.16986304336447e+004,-1.20244188429635e+001,-7.90371849317676e-001

4.22807216224550e+004,-1.20244277100565e+001,-8.01398094804593e-001

4.28709385014515e+004,-1.20244368200748e+001,-8.12577970997850e-001

4.34693945010421e+004,-1.20244461794916e+001,-8.23913610510661e-001

4.40762046350642e+004,-1.20244557949422e+001,-8.35407175238524e-001

4.46914855228886e+004,-1.20244656732276e+001,-8.47060856750185e-001

4.53153554118317e+004,-1.20244758213180e+001,-8.58876876682876e-001

4.59479341998812e+004,-1.20244862463565e+001,-8.70857487139286e-001

4.65893434587380e+004,-1.20244969556621e+001,-8.83004971094723e-001

4.72397064571810e+004,-1.20245079567344e+001,-8.95321642801717e-001

4.78991481847569e+004,-1.20245192572562e+001,-9.07809848208560e-001

4.85677953758016e+004,-1.20245308650976e+001,-9.20471965374322e-001

4.92457765337964e+004,-1.20245427883201e+001,-9.33310404894846e-001

4.99332219560642e+004,-1.20245550351796e+001,-9.46327610330483e-001

5.06302637588109e+004,-1.20245676141307e+001,-9.59526058639810e-001

5.13370359025159e+004,-1.20245805338302e+001,-9.72908260620143e-001

5.20536742176771e+004,-1.20245938031410e+001,-9.86476761350481e-001

5.27803164309155e+004,-1.20246074311358e+001,-1.00023414064095e+000

5.35171021914442e+004,-1.20246214271011e+001,-1.01418301348781e+000

5.42641730979066e+004,-1.20246358005406e+001,-1.02832603053369e+000

5.50216727255895e+004,-1.20246505611794e+001,-1.04266587853271e+000

5.57897466540159e+004,-1.20246657189675e+001,-1.05720528082148e+000

5.65685424949235e+004,-1.20246812840835e+001,-1.07194699779524e+000

5.73582099206328e+004,-1.20246972669385e+001,-1.08689382739002e+000

5.81589006928121e+004,-1.20247136781799e+001,-1.10204860556871e+000

5.89707686916437e+004,-1.20247305286946e+001,-1.11741420681558e+000

5.97939699453972e+004,-1.20247478296127e+001,-1.13299354463519e+000

6.06286626604156e+004,-1.20247655923117e+001,-1.14878957205389e+000

6.14750072515201e+004,-1.20247838284189e+001,-1.16480528213362e+000

6.23331663728396e+004,-1.20248025498155e+001,-1.18104370848574e+000

6.32033049490698e+004,-1.20248217686398e+001,-1.19750792579250e+000

6.40855902071694e+004,-1.20248414972903e+001,-1.21420105033622e+000

6.49801917084985e+004,-1.20248617484287e+001,-1.23112624053196e+000

6.58872813814055e+004,-1.20248825349828e+001,-1.24828669746865e+000

6.68070335542691e+004,-1.20249038701500e+001,-1.26568566545315e+000

6.77396249890018e+004,-1.20249257673991e+001,-1.28332643256286e+000

6.86852349150199e+004,-1.20249482404735e+001,-1.30121233120601e+000

6.96440450636895e+004,-1.20249713033928e+001,-1.31934673868433e+000

7.06162397032520e+004,-1.20249949704561e+001,-1.33773307776380e+000

7.16020056742374e+004,-1.20250192562427e+001,-1.35637481725494e+000

7.26015324253724e+004,-1.20250441756146e+001,-1.37527547259346e+000

7.36150120499896e+004,-1.20250697437178e+001,-1.39443860643422e+000

7.46426393229441e+004,-1.20250959759834e+001,-1.41386782924584e+000

7.56846117380472e+004,-1.20251228881287e+001,-1.43356679991770e+000

7.67411295460207e+004,-1.20251504961576e+001,-1.45353922636901e+000

7.78123957929823e+004,-1.20251788163611e+001,-1.47378886616877e+000

7.88986163594682e+004,-1.20252078653171e+001,-1.49431952715998e+000

7.99999999999995e+004,-1.20252376598902e+001,-1.51513506809190e+000

8.11167583832018e+004,-1.20252682172306e+001,-1.53623939926203e+000

8.22491061324848e+004,-1.20252995547729e+001,-1.55763648316151e+000

8.33972608672892e+004,-1.20253316902348e+001,-1.57933033513039e+000

8.45614432449099e+004,-1.20253646416143e+001,-1.60132502402204e+000

8.57418770029029e+004,-1.20253984271876e+001,-1.62362467287201e+000

8.69387890020841e+004,-1.20254330655055e+001,-1.64623345957727e+000

8.81524092701283e+004,-1.20254685753897e+001,-1.66915561758361e+000

8.93829710457770e+004,-1.20255049759288e+001,-1.69239543658089e+000

9.06307108236633e+004,-1.20255422864726e+001,-1.71595726320665e+000

9.18958683997622e+004,-1.20255805266274e+001,-1.73984550175798e+000

9.31786869174758e+004,-1.20256197162484e+001,-1.76406461491593e+000

9.44794129143618e+004,-1.20256598754339e+001,-1.78861912447250e+000

9.57982963695136e+004,-1.20257010245164e+001,-1.81351361207425e+000

9.71355907516031e+004,-1.20257431840546e+001,-1.83875271997040e+000

9.84915530675926e+004,-1.20257863748234e+001,-1.86434115177334e+000

9.98664439121282e+004,-1.20258306178038e+001,-1.89028367322830e+000

1.01260527517622e+005,-1.20258759341717e+001,-1.91658511299465e+000

1.02674071805032e+005,-1.20259223452851e+001,-1.94325036343658e+000

1.04107348435354e+005,-1.20259698726714e+001,-1.97028438142526e+000

1.05560632861831e+005,-1.20260185380122e+001,-1.99769218915461e+000

1.07034204382888e+005,-1.20260683631290e+001,-2.02547887496477e+000

1.08528346195813e+005,-1.20261193699657e+001,-2.05364959418210e+000

1.10043345451179e+005,-1.20261715805712e+001,-2.08220956996798e+000

1.11579493308032e+005,-1.20262250170803e+001,-2.11116409418420e+000

1.13137084989847e+005,-1.20262797016936e+001,-2.14051852826895e+000

1.14716419841265e+005,-1.20263356566560e+001,-2.17027830412872e+000

1.16317801385624e+005,-1.20263929042334e+001,-2.20044892504253e+000

1.17941537383287e+005,-1.20264514666891e+001,-2.23103596658412e+000

1.19587939890794e+005,-1.20265113662572e+001,-2.26204507755675e+000

1.21257325320831e+005,-1.20265726251163e+001,-2.29348198094502e+000

1.22950014503040e+005,-1.20266352653602e+001,-2.32535247488514e+000

1.24666332745679e+005,-1.20266993089676e+001,-2.35766243364904e+000

1.26406609898139e+005,-1.20267647777709e+001,-2.39041780864878e+000

1.28171180414339e+005,-1.20268316934219e+001,-2.42362462946005e+000

1.29960383416997e+005,-1.20269000773570e+001,-2.45728900486286e+000

1.31774562762811e+005,-1.20269699507606e+001,-2.49141712390324e+000

1.33614067108538e+005,-1.20270413345264e+001,-2.52601525697600e+000

1.35479249978003e+005,-1.20271142492168e+001,-2.56108975692994e+000

1.37370469830040e+005,-1.20271887150212e+001,-2.59664706019224e+000

1.39288090127379e+005,-1.20272647517121e+001,-2.63269368792007e+000

1.41232479406504e+005,-1.20273423785992e+001,-2.66923624717382e+000

1.43204011348474e+005,-1.20274216144822e+001,-2.70628143211513e+000

1.45203064850745e+005,-1.20275024776016e+001,-2.74383602523307e+000

1.47230024099979e+005,-1.20275849855870e+001,-2.78190689859501e+000

1.49285278645888e+005,-1.20276691554049e+001,-2.82050101512563e+000

1.51369223476094e+005,-1.20277550033035e+001,-2.85962542991634e+000

1.53482259092041e+005,-1.20278425447563e+001,-2.89928729156273e+000

1.55624791585964e+005,-1.20279317944036e+001,-2.93949384353403e+000

1.57797232718936e+005,-1.20280227659926e+001,-2.98025242557462e+000

1.59999999999999e+005,-1.20281154723156e+001,-3.02157047513675e+000

1.62233516766403e+005,-1.20282099251467e+001,-3.06345552885048e+000

1.64498212264969e+005,-1.20283061351760e+001,-3.10591522402700e+000

1.66794521734578e+005,-1.20284041119439e+001,-3.14895730019752e+000

1.69122886489819e+005,-1.20285038637723e+001,-3.19258960069171e+000

1.71483754005805e+005,-1.20286053976950e+001,-3.23682007425416e+000

1.73877578004168e+005,-1.20287087193874e+001,-3.28165677669847e+000

1.76304818540256e+005,-1.20288138330933e+001,-3.32710787260553e+000

1.78765942091554e+005,-1.20289207415525e+001,-3.37318163706153e+000

1.81261421647326e+005,-1.20290294459259e+001,-3.41988645743959e+000

1.83791736799524e+005,-1.20291399457202e+001,-3.46723083522580e+000

1.86357373834951e+005,-1.20292522387121e+001,-3.51522338788954e+000

1.88958825828723e+005,-1.20293663208713e+001,-3.56387285080130e+000

1.91596592739027e+005,-1.20294821862832e+001,-3.61318807919733e+000

1.94271181503206e+005,-1.20295998270717e+001,-3.66317805019111e+000

1.96983106135185e+005,-1.20297192333208e+001,-3.71385186483570e+000

1.99732887824256e+005,-1.20298403929976e+001,-3.76521875023568e+000

2.02521055035243e+005,-1.20299632918739e+001,-3.81728806170856e+000

2.05348143610063e+005,-1.20300879134497e+001,-3.87006928499933e+000

2.08214696870707e+005,-1.20302142388762e+001,-3.92357203854574e+000

2.11121265723661e+005,-1.20303422468800e+001,-3.97780607579809e+000

2.14068408765776e+005,-1.20304719136886e+001,-4.03278128759050e+000

2.17056692391625e+005,-1.20306032129563e+001,-4.08850770456723e+000

2.20086690902357e+005,-1.20307361156926e+001,-4.14499549966310e+000

2.23158986616063e+005,-1.20308705901913e+001,-4.20225499063743e+000

2.26274169979693e+005,-1.20310066019626e+001,-4.26029664266338e+000

2.29432839682530e+005,-1.20311441136660e+001,-4.31913107097249e+000

2.32635602771247e+005,-1.20312830850472e+001,-4.37876904355263e+000

2.35883074766574e+005,-1.20314234728762e+001,-4.43922148390134e+000

2.39175879781588e+005,-1.20315652308894e+001,-4.50049947383292e+000

2.42514650641661e+005,-1.20317083097336e+001,-4.56261425634121e+000

2.45900029006080e+005,-1.20318526569152e+001,-4.62557723851299e+000

2.49332665491357e+005,-1.20319982167510e+001,-4.68939999449662e+000

2.52813219796278e+005,-1.20321449303239e+001,-4.75409426852242e+000

2.56342360828676e+005,-1.20322927354427e+001,-4.81967197797346e+000

2.59920766833993e+005,-1.20324415666056e+001,-4.88614521650862e+000

2.63549125525621e+005,-1.20325913549684e+001,-4.95352625723336e+000

2.67228134217075e+005,-1.20327420283171e+001,-5.02182755592021e+000

2.70958499956006e+005,-1.20328935110458e+001,-5.09106175427518e+000

2.74740939660078e+005,-1.20330457241389e+001,-5.16124168325148e+000

2.78576180254757e+005,-1.20331985851583e+001,-5.23238036640608e+000

2.82464958813007e+005,-1.20333520082367e+001,-5.30449102329983e+000

2.86408022696948e+005,-1.20335059040746e+001,-5.37758707293910e+000

2.90406129701488e+005,-1.20336601799444e+001,-5.45168213725666e+000

2.94460048199957e+005,-1.20338147396983e+001,-5.52679004463072e+000

2.98570557291775e+005,-1.20339694837824e+001,-5.60292483344024e+000

3.02738446952187e+005,-1.20341243092562e+001,-5.68010075565386e+000

3.06964518184081e+005,-1.20342791098173e+001,-5.75833228045293e+000

3.11249583171928e+005,-1.20344337758310e+001,-5.83763409788473e+000

3.15594465437872e+005,-1.20345881943662e+001,-5.91802112254328e+000

3.19999999999997e+005,-1.20347422492353e+001,-5.99950849728007e+000

3.24467033532806e+005,-1.20348958210396e+001,-6.08211159693861e+000

3.28996424529938e+005,-1.20350487872197e+001,-6.16584603211262e+000

3.33589043469155e+005,-1.20352010221101e+001,-6.25072765292723e+000

3.38245772979638e+005,-1.20353523969986e+001,-6.33677255284097e+000

3.42967508011610e+005,-1.20355027801896e+001,-6.42399707246557e+000

3.47755156008335e+005,-1.20356520370716e+001,-6.51241780340517e+000

3.52609637080511e+005,-1.20358000301878e+001,-6.60205159211151e+000

3.57531884183106e+005,-1.20359466193108e+001,-6.69291554375420e+000

3.62522843294651e+005,-1.20360916615193e+001,-6.78502702610630e+000

3.67583473599047e+005,-1.20362350112782e+001,-6.87840367344370e+000

3.72714747669902e+005,-1.20363765205206e+001,-6.97306339045690e+000

3.77917651657445e+005,-1.20365160387313e+001,-7.06902435617647e+000

3.83193185478053e+005,-1.20366534130324e+001,-7.16630502791124e+000

3.88542363006410e+005,-1.20367884882692e+001,-7.26492414519807e+000

3.93966212270369e+005,-1.20369211070970e+001,-7.36490073376513e+000

3.99465775648511e+005,-1.20370511100680e+001,-7.46625410950902e+000

4.05042110070485e+005,-1.20371783357176e+001,-7.56900388248449e+000

4.10696287220124e+005,-1.20373026206503e+001,-7.67316996090952e+000

4.16429393741414e+005,-1.20374237996238e+001,-7.77877255518671e+000

4.22242531447321e+005,-1.20375417056315e+001,-7.88583218194132e+000

4.28136817531551e+005,-1.20376561699836e+001,-7.99436966807832e+000

4.34113384783250e+005,-1.20377670223844e+001,-8.10440615485989e+000

4.40173381804713e+005,-1.20378740910070e+001,-8.21596310200568e+000

4.46317973232124e+005,-1.20379772025649e+001,-8.32906229181858e+000

4.52548339959385e+005,-1.20380761823795e+001,-8.44372583333597e+000

4.58865679365059e+005,-1.20381708544425e+001,-8.55997616651351e+000

4.65271205542494e+005,-1.20382610414749e+001,-8.67783606644001e+000

4.71766149533147e+005,-1.20383465649803e+001,-8.79732864758878e+000

4.78351759563174e+005,-1.20384272452926e+001,-8.91847736810862e+000

4.85029301283321e+005,-1.20385029016185e+001,-9.04130603415685e+000

4.91800058012158e+005,-1.20385733520737e+001,-9.16583880427905e+000

4.98665330982714e+005,-1.20386384137131e+001,-9.29210019383844e+000

5.05626439592555e+005,-1.20386979025539e+001,-9.42011507949954e+000

5.12684721657352e+005,-1.20387516335932e+001,-9.54990870376893e+000

5.19841533667984e+005,-1.20387994208174e+001,-9.68150667959845e+000

5.27098251051240e+005,-1.20388410772054e+001,-9.81493499505456e+000

5.34456268434150e+005,-1.20388764147240e+001,-9.95022001805778e+000

5.41916999912011e+005,-1.20389052443172e+001,-1.00873885011963e+001

