Freq.,VOut,OutRef

1.00000000000000e+004,-1.86917585260969e+001,-9.94740840606202e-002

1.01395947979003e+004,-1.86917590989950e+001,-1.00862607782073e-001

1.02811382665607e+004,-1.86917596879814e+001,-1.02270511061253e-001

1.04246576084112e+004,-1.86917602935072e+001,-1.03698064278695e-001

1.05701804056138e+004,-1.86917609160362e+001,-1.05145541582400e-001

1.07177346253629e+004,-1.86917615560456e+001,-1.06613220939126e-001

1.08673486252606e+004,-1.86917622140254e+001,-1.08101384191247e-001

1.10190511587661e+004,-1.86917628904797e+001,-1.09610317106897e-001

1.11728713807222e+004,-1.86917635859263e+001,-1.11140309437741e-001

1.13288388529580e+004,-1.86917643008978e+001,-1.12691654970338e-001

1.14869835499703e+004,-1.86917650359416e+001,-1.14264651586115e-001

1.16473358646846e+004,-1.86917657916203e+001,-1.15859601315002e-001

1.18099266142953e+004,-1.86917665685127e+001,-1.17476810393920e-001

1.19747870461893e+004,-1.86917673672129e+001,-1.19116589328083e-001

1.21419488439505e+004,-1.86917681883324e+001,-1.20779252945511e-001

1.23114441334492e+004,-1.86917690324994e+001,-1.22465120459027e-001

1.24833054890161e+004,-1.86917699003597e+001,-1.24174515528548e-001

1.26575659397028e+004,-1.86917707925773e+001,-1.25907766319116e-001

1.28342589756290e+004,-1.86917717098344e+001,-1.27665205568586e-001

1.30134185544193e+004,-1.86917726528326e+001,-1.29447170645552e-001

1.31950791077289e+004,-1.86917736222930e+001,-1.31254003615864e-001

1.33792755478611e+004,-1.86917746189565e+001,-1.33086051309955e-001

1.35660432744767e+004,-1.86917756435851e+001,-1.34943665384020e-001

1.37554181813974e+004,-1.86917766969617e+001,-1.36827202390743e-001

1.39474366635040e+004,-1.86917777798915e+001,-1.38737023844894e-001

1.41421356237309e+004,-1.86917788932017e+001,-1.40673496293023e-001

1.43395524801583e+004,-1.86917800377427e+001,-1.42636991383575e-001

1.45397251732031e+004,-1.86917812143887e+001,-1.44627885935703e-001

1.47426921729110e+004,-1.86917824240381e+001,-1.46646562011957e-001

1.49484924863494e+004,-1.86917836676143e+001,-1.48693406991790e-001

1.51571656651040e+004,-1.86917849460667e+001,-1.50768813641250e-001

1.53687518128801e+004,-1.86917862603708e+001,-1.52873180192536e-001

1.55832915932100e+004,-1.86917876115294e+001,-1.55006910414897e-001

1.58008262372675e+004,-1.86917890005733e+001,-1.57170413694705e-001

1.60213975517924e+004,-1.86917904285618e+001,-1.59364105109678e-001

1.62450479271247e+004,-1.86917918965836e+001,-1.61588405511196e-001

1.64718203453514e+004,-1.86917934057578e+001,-1.63843741600393e-001

1.67017583885674e+004,-1.86917949572347e+001,-1.66130546010558e-001

1.69349062472505e+004,-1.86917965521961e+001,-1.68449257389572e-001

1.71713087287550e+004,-1.86917981918575e+001,-1.70800320478572e-001

1.74110112659224e+004,-1.86917998774671e+001,-1.73184186203943e-001

1.76540599258131e+004,-1.86918016103084e+001,-1.75601311754017e-001

1.79005014185594e+004,-1.86918033917002e+001,-1.78052160671620e-001

1.81503831063432e+004,-1.86918052229982e+001,-1.80537202935573e-001

1.84037530124975e+004,-1.86918071055954e+001,-1.83056915055614e-001

1.86606598307361e+004,-1.86918090409234e+001,-1.85611780158446e-001

1.89211529345119e+004,-1.86918110304536e+001,-1.88202288077546e-001

1.91852823865052e+004,-1.86918130756979e+001,-1.90828935449325e-001

1.94530989482457e+004,-1.86918151782102e+001,-1.93492225802544e-001

1.97246540898671e+004,-1.86918173395877e+001,-1.96192669654175e-001

1.99999999999999e+004,-1.86918195614712e+001,-1.98930784608272e-001

2.02791895958005e+004,-1.86918218455468e+001,-2.01707095449267e-001

2.05622765331213e+004,-1.86918241935478e+001,-2.04522134240745e-001

2.08493152168224e+004,-1.86918266072549e+001,-2.07376440426448e-001

2.11403608112276e+004,-1.86918290884979e+001,-2.10270560932140e-001

2.14354692507258e+004,-1.86918316391573e+001,-2.13205050265285e-001

2.17346972505211e+004,-1.86918342611654e+001,-2.16180470620711e-001

2.20381023175322e+004,-1.86918369565075e+001,-2.19197391986395e-001

2.23457427614443e+004,-1.86918397272236e+001,-2.22256392247825e-001

2.26576777059159e+004,-1.86918425754101e+001,-2.25358057295347e-001

2.29739670999406e+004,-1.86918455032208e+001,-2.28502981136916e-001

2.32946717293690e+004,-1.86918485128688e+001,-2.31691766006520e-001

2.36198532285905e+004,-1.86918516066280e+001,-2.34925022474042e-001

2.39495740923785e+004,-1.86918547868343e+001,-2.38203369564565e-001

2.42838976879009e+004,-1.86918580558884e+001,-2.41527434866778e-001

2.46228882668982e+004,-1.86918614162562e+001,-2.44897854654762e-001

2.49666109780322e+004,-1.86918648704714e+001,-2.48315274002209e-001

2.53151318794055e+004,-1.86918684211369e+001,-2.51780346905575e-001

2.56685179512580e+004,-1.86918720709270e+001,-2.55293736400834e-001

2.60268371088386e+004,-1.86918758225885e+001,-2.58856114691436e-001

2.63901582154578e+004,-1.86918796789441e+001,-2.62468163265313e-001

2.67585510957221e+004,-1.86918836428927e+001,-2.66130573029014e-001

2.71320865489533e+004,-1.86918877174125e+001,-2.69844044427422e-001

2.75108363627948e+004,-1.86918919055629e+001,-2.73609287578198e-001

2.78948733270080e+004,-1.86918962104863e+001,-2.77427022398128e-001

2.82842712474618e+004,-1.86919006354107e+001,-2.81297978739918e-001

2.86791049603164e+004,-1.86919051836519e+001,-2.85222896520688e-001

2.90794503464061e+004,-1.86919098586151e+001,-2.89202525862602e-001

2.94853843458219e+004,-1.86919146637982e+001,-2.93237627227109e-001

2.98969849726987e+004,-1.86919196027937e+001,-2.97328971554822e-001

3.03143313302078e+004,-1.86919246792914e+001,-3.01477340405127e-001

3.07375036257601e+004,-1.86919298970804e+001,-3.05683526101022e-001

3.11665831864199e+004,-1.86919352600523e+001,-3.09948331870982e-001

3.16016524745350e+004,-1.86919407722035e+001,-3.14272571995661e-001

3.20427951035848e+004,-1.86919464376379e+001,-3.18657071955722e-001

3.24900958542493e+004,-1.86919522605701e+001,-3.23102668580535e-001

3.29436406907028e+004,-1.86919582453269e+001,-3.27610210203452e-001

3.34035167771346e+004,-1.86919643963523e+001,-3.32180556807420e-001

3.38698124945009e+004,-1.86919707182087e+001,-3.36814580186639e-001

3.43426174575100e+004,-1.86919772155800e+001,-3.41513164102884e-001

3.48220225318448e+004,-1.86919838932761e+001,-3.46277204439602e-001

3.53081198516260e+004,-1.86919907562345e+001,-3.51107609367692e-001

3.58010028371187e+004,-1.86919978095243e+001,-3.56005299504897e-001

3.63007662126863e+004,-1.86920050583494e+001,-3.60971208082338e-001

3.68075060249948e+004,-1.86920125080514e+001,-3.66006281109457e-001

3.73213196614721e+004,-1.86920201641139e+001,-3.71111477543267e-001

3.78423058690237e+004,-1.86920280321653e+001,-3.76287769457553e-001

3.83705647730104e+004,-1.86920361179823e+001,-3.81536142217781e-001

3.89061978964912e+004,-1.86920444274941e+001,-3.86857594651999e-001

3.94493081797342e+004,-1.86920529667856e+001,-3.92253139230204e-001

3.99999999999998e+004,-1.86920617421017e+001,-3.97723802239921e-001

4.05583791916010e+004,-1.86920707598506e+001,-4.03270623968414e-001

4.11245530662425e+004,-1.86920800266080e+001,-4.08894658886193e-001

4.16986304336447e+004,-1.86920895491213e+001,-4.14596975827867e-001

4.22807216224550e+004,-1.86920993343133e+001,-4.20378658181555e-001

4.28709385014515e+004,-1.86921093892868e+001,-4.26240804076787e-001

4.34693945010421e+004,-1.86921197213284e+001,-4.32184526574920e-001

4.40762046350642e+004,-1.86921303379131e+001,-4.38210953862363e-001

4.46914855228886e+004,-1.86921412467086e+001,-4.44321229444785e-001

4.53153554118317e+004,-1.86921524555798e+001,-4.50516512344937e-001

4.59479341998812e+004,-1.86921639725933e+001,-4.56797977301157e-001

4.65893434587380e+004,-1.86921758060222e+001,-4.63166814969276e-001

4.72397064571810e+004,-1.86921879643502e+001,-4.69624232126545e-001

4.78991481847569e+004,-1.86922004562772e+001,-4.76171451874528e-001

4.85677953758016e+004,-1.86922132907235e+001,-4.82809713850754e-001

4.92457765337964e+004,-1.86922264768350e+001,-4.89540274435880e-001

4.99332219560642e+004,-1.86922400239880e+001,-4.96364406967420e-001

5.06302637588109e+004,-1.86922539417944e+001,-5.03283401953151e-001

5.13370359025159e+004,-1.86922682401068e+001,-5.10298567286959e-001

5.20536742176771e+004,-1.86922829290235e+001,-5.17411228470160e-001

5.27803164309155e+004,-1.86922980188937e+001,-5.24622728830990e-001

5.35171021914442e+004,-1.86923135203232e+001,-5.31934429747436e-001

5.42641730979066e+004,-1.86923294441794e+001,-5.39347710871922e-001

5.50216727255895e+004,-1.86923458015967e+001,-5.46863970362641e-001

5.57897466540159e+004,-1.86923626039821e+001,-5.54484625108873e-001

5.65685424949235e+004,-1.86923798630207e+001,-5.62211110966963e-001

5.73582099206328e+004,-1.86923975906811e+001,-5.70044882992019e-001

5.81589006928121e+004,-1.86924157992211e+001,-5.77987415676903e-001

5.89707686916437e+004,-1.86924345011933e+001,-5.86040203190203e-001

5.97939699453972e+004,-1.86924537094508e+001,-5.94204759617571e-001

6.06286626604156e+004,-1.86924734371528e+001,-6.02482619205528e-001

6.14750072515201e+004,-1.86924936977703e+001,-6.10875336607602e-001

6.23331663728396e+004,-1.86925145050921e+001,-6.19384487131622e-001

6.32033049490698e+004,-1.86925358732299e+001,-6.28011666992508e-001

6.40855902071694e+004,-1.86925578166246e+001,-6.36758493563100e-001

6.49801917084985e+004,-1.86925803500519e+001,-6.45626605629535e-001

6.58872813814055e+004,-1.86926034886277e+001,-6.54617663650739e-001

6.68070335542691e+004,-1.86926272478140e+001,-6.63733350017280e-001

6.77396249890018e+004,-1.86926516434249e+001,-6.72975369313334e-001

6.86852349150199e+004,-1.86926766916315e+001,-6.82345448582026e-001

6.96440450636895e+004,-1.86927024089679e+001,-6.91845337593636e-001

7.06162397032520e+004,-1.86927288123368e+001,-7.01476809112883e-001

7.16020056742374e+004,-1.86927559190146e+001,-7.11241659174395e-001

7.26015324253724e+004,-1.86927837466569e+001,-7.21141707354293e-001

7.36150120499896e+004,-1.86928123133038e+001,-7.31178797050584e-001

7.46426393229441e+004,-1.86928416373852e+001,-7.41354795759139e-001

7.56846117380472e+004,-1.86928717377251e+001,-7.51671595359976e-001

7.67411295460207e+004,-1.86929026335475e+001,-7.62131112398614e-001

7.78123957929823e+004,-1.86929343444807e+001,-7.72735288376137e-001

7.88986163594682e+004,-1.86929668905615e+001,-7.83486090039158e-001

7.99999999999995e+004,-1.86930002922401e+001,-7.94385509671808e-001

8.11167583832018e+004,-1.86930345703842e+001,-8.05435565391848e-001

8.22491061324848e+004,-1.86930697462828e+001,-8.16638301450776e-001

8.33972608672892e+004,-1.86931058416500e+001,-8.27995788533752e-001

8.45614432449099e+004,-1.86931428786287e+001,-8.39510124064489e-001

8.57418770029029e+004,-1.86931808797937e+001,-8.51183432512420e-001

8.69387890020841e+004,-1.86932198681543e+001,-8.63017865705733e-001

8.81524092701283e+004,-1.86932598671575e+001,-8.75015603141856e-001

8.93829710457770e+004,-1.86933009006897e+001,-8.87178852307043e-001

9.06307108236633e+004,-1.86933429930793e+001,-8.99509848995926e-001

9.18958683997622e+004,-1.86933861690972e+001,-9.12010857636658e-001

9.31786869174758e+004,-1.86934304539590e+001,-9.24684171616078e-001

9.44794129143618e+004,-1.86934758733251e+001,-9.37532113614358e-001

9.57982963695136e+004,-1.86935224533009e+001,-9.50557035938282e-001

9.71355907516031e+004,-1.86935702204368e+001,-9.63761320860873e-001

9.84915530675926e+004,-1.86936192017273e+001,-9.77147380964845e-001

9.98664439121282e+004,-1.86936694246097e+001,-9.90717659490451e-001

1.01260527517622e+005,-1.86937209169622e+001,-1.00447463068831e+000

1.02674071805032e+005,-1.86937737071015e+001,-1.01842080017515e+000

1.04107348435354e+005,-1.86938278237796e+001,-1.03255870529782e+000

1.05560632861831e+005,-1.86938832961801e+001,-1.04689091549755e+000

1.07034204382888e+005,-1.86939401539140e+001,-1.06142003268435e+000

1.08528346195813e+005,-1.86939984270141e+001,-1.07614869161518e+000

1.10043345451179e+005,-1.86940581459296e+001,-1.09107956027636e+000

1.11579493308032e+005,-1.86941193415189e+001,-1.10621534027488e+000

1.13137084989847e+005,-1.86941820450430e+001,-1.12155876723371e+000

1.14716419841265e+005,-1.86942462881562e+001,-1.13711261119683e+000

1.16317801385624e+005,-1.86943121028978e+001,-1.15287967703806e+000

1.17941537383287e+005,-1.86943795216816e+001,-1.16886280487916e+000

1.19587939890794e+005,-1.86944485772853e+001,-1.18506487051616e+000

1.21257325320831e+005,-1.86945193028384e+001,-1.20148878585267e+000

1.22950014503040e+005,-1.86945917318094e+001,-1.21813749934231e+000

1.24666332745679e+005,-1.86946658979921e+001,-1.23501399644126e+000

1.26406609898139e+005,-1.86947418354909e+001,-1.25212130006757e+000

1.28171180414339e+005,-1.86948195787045e+001,-1.26946247107389e+000

1.29960383416997e+005,-1.86948991623093e+001,-1.28704060872882e+000

1.31774562762811e+005,-1.86949806212418e+001,-1.30485885120891e+000

1.33614067108538e+005,-1.86950639906787e+001,-1.32292037610276e+000

1.35479249978003e+005,-1.86951493060176e+001,-1.34122840092827e+000

1.37370469830040e+005,-1.86952366028552e+001,-1.35978618366107e+000

1.39288090127379e+005,-1.86953259169652e+001,-1.37859702327684e+000

1.41232479406504e+005,-1.86954172842749e+001,-1.39766426030786e+000

1.43204011348474e+005,-1.86955107408405e+001,-1.41699127741278e+000

1.45203064850745e+005,-1.86956063228216e+001,-1.43658149996512e+000

1.47230024099979e+005,-1.86957040664541e+001,-1.45643839665288e+000

1.49285278645888e+005,-1.86958040080228e+001,-1.47656548009911e+000

1.51369223476094e+005,-1.86959061838322e+001,-1.49696630749693e+000

1.53482259092041e+005,-1.86960106301769e+001,-1.51764448126479e+000

1.55624791585964e+005,-1.86961173833101e+001,-1.53860364971902e+000

1.57797232718936e+005,-1.86962264794124e+001,-1.55984750776651e+000

1.59999999999999e+005,-1.86963379545583e+001,-1.58137979761952e+000

1.62233516766403e+005,-1.86964518446830e+001,-1.60320430952833e+000

1.64498212264969e+005,-1.86965681855477e+001,-1.62532488253857e+000

1.66794521734578e+005,-1.86966870127041e+001,-1.64774540527215e+000

1.69122886489819e+005,-1.86968083614588e+001,-1.67046981672776e+000

1.71483754005805e+005,-1.86969322668364e+001,-1.69350210711029e+000

1.73877578004168e+005,-1.86970587635425e+001,-1.71684631868306e+000

1.76304818540256e+005,-1.86971878859263e+001,-1.74050654664757e+000

1.78765942091554e+005,-1.86973196679421e+001,-1.76448694004764e+000

1.81261421647326e+005,-1.86974541431121e+001,-1.78879170270388e+000

1.83791736799524e+005,-1.86975913444876e+001,-1.81342509417515e+000

1.86357373834951e+005,-1.86977313046105e+001,-1.83839143075011e+000

1.88958825828723e+005,-1.86978740554761e+001,-1.86369508646644e+000

1.91596592739027e+005,-1.86980196284949e+001,-1.88934049416273e+000

1.94271181503206e+005,-1.86981680544551e+001,-1.91533214656105e+000

1.96983106135185e+005,-1.86983193634862e+001,-1.94167459738073e+000

1.99732887824256e+005,-1.86984735850232e+001,-1.96837246248353e+000

2.02521055035243e+005,-1.86986307477713e+001,-1.99543042105419e+000

2.05348143610063e+005,-1.86987908796724e+001,-2.02285321681161e+000

2.08214696870707e+005,-1.86989540078727e+001,-2.05064565925537e+000

2.11121265723661e+005,-1.86991201586912e+001,-2.07881262494495e+000

2.14068408765776e+005,-1.86992893575913e+001,-2.10735905881396e+000

2.17056692391625e+005,-1.86994616291529e+001,-2.13628997551896e+000

2.20086690902357e+005,-1.86996369970476e+001,-2.16561046082145e+000

2.23158986616063e+005,-1.86998154840161e+001,-2.19532567300640e+000

2.26274169979693e+005,-1.86999971118476e+001,-2.22544084433335e+000

2.29432839682530e+005,-1.87001819013631e+001,-2.25596128252363e+000

2.32635602771247e+005,-1.87003698724007e+001,-2.28689237227972e+000

2.35883074766574e+005,-1.87005610438050e+001,-2.31823957683954e+000

2.39175879781588e+005,-1.87007554334195e+001,-2.35000843956570e+000

2.42514650641661e+005,-1.87009530580830e+001,-2.38220458556311e+000

2.45900029006080e+005,-1.87011539336298e+001,-2.41483372333343e+000

2.49332665491357e+005,-1.87013580748940e+001,-2.44790164645868e+000

2.52813219796278e+005,-1.87015654957190e+001,-2.48141423531530e+000

2.56342360828676e+005,-1.87017762089704e+001,-2.51537745881891e+000

2.59920766833993e+005,-1.87019902265543e+001,-2.54979737619687e+000

2.63549125525621e+005,-1.87022075594411e+001,-2.58468013878923e+000

2.67228134217075e+005,-1.87024282176938e+001,-2.62003199187439e+000

2.70958499956006e+005,-1.87026522105016e+001,-2.65585927652223e+000

2.74740939660078e+005,-1.87028795462199e+001,-2.69216843146810e+000

2.78576180254757e+005,-1.87031102324148e+001,-2.72896599501051e+000

2.82464958813007e+005,-1.87033442759149e+001,-2.76625860692836e+000

2.86408022696948e+005,-1.87035816828671e+001,-2.80405301041820e+000

2.90406129701488e+005,-1.87038224588004e+001,-2.84235605404768e+000

2.94460048199957e+005,-1.87040666086945e+001,-2.88117469372410e+000

2.98570557291775e+005,-1.87043141370549e+001,-2.92051599467710e+000

3.02738446952187e+005,-1.87045650479947e+001,-2.96038713345302e+000

3.06964518184081e+005,-1.87048193453220e+001,-3.00079539991882e+000

3.11249583171928e+005,-1.87050770326339e+001,-3.04174819927400e+000

3.15594465437872e+005,-1.87053381134163e+001,-3.08325305406829e+000

3.19999999999997e+005,-1.87056025911507e+001,-3.12531760622429e+000

3.24467033532806e+005,-1.87058704694263e+001,-3.16794961906092e+000

3.28996424529938e+005,-1.87061417520587e+001,-3.21115697931845e+000

3.33589043469155e+005,-1.87064164432137e+001,-3.25494769918167e+000

3.38245772979638e+005,-1.87066945475383e+001,-3.29932991830007e+000

3.42967508011610e+005,-1.87069760702957e+001,-3.34431190580217e+000

3.47755156008335e+005,-1.87072610175071e+001,-3.38990206230521e+000

3.52609637080511e+005,-1.87075493960979e+001,-3.43610892191469e+000

3.57531884183106e+005,-1.87078412140495e+001,-3.48294115421593e+000

3.62522843294651e+005,-1.87081364805558e+001,-3.53040756625432e+000

3.67583473599047e+005,-1.87084352061839e+001,-3.57851710450335e+000

3.72714747669902e+005,-1.87087374030398e+001,-3.62727885682028e+000

3.77917651657445e+005,-1.87090430849378e+001,-3.67670205438644e+000

3.83193185478053e+005,-1.87093522675737e+001,-3.72679607363462e+000

3.88542363006410e+005,-1.87096649687010e+001,-3.77757043815968e+000

3.93966212270369e+005,-1.87099812083119e+001,-3.82903482061322e+000

3.99465775648511e+005,-1.87103010088188e+001,-3.88119904458328e+000

4.05042110070485e+005,-1.87106243952406e+001,-3.93407308645603e+000

4.10696287220124e+005,-1.87109513953896e+001,-3.98766707726247e+000

4.16429393741414e+005,-1.87112820400615e+001,-4.04199130450848e+000

4.22242531447321e+005,-1.87116163632260e+001,-4.09705621398860e+000

4.28136817531551e+005,-1.87119544022200e+001,-4.15287241158508e+000

4.34113384783250e+005,-1.87122961979401e+001,-4.20945066505293e+000

4.40173381804713e+005,-1.87126417950376e+001,-4.26680190579011e+000

4.46317973232124e+005,-1.87129912421127e+001,-4.32493723059556e+000

4.52548339959385e+005,-1.87133445919092e+001,-4.38386790341628e+000

4.58865679365059e+005,-1.87137019015092e+001,-4.44360535708309e+000

4.65271205542494e+005,-1.87140632325279e+001,-4.50416119503877e+000

4.71766149533147e+005,-1.87144286513068e+001,-4.56554719305830e+000

4.78351759563174e+005,-1.87147982291067e+001,-4.62777530096420e+000

4.85029301283321e+005,-1.87151720423002e+001,-4.69085764433810e+000

4.91800058012158e+005,-1.87155501725625e+001,-4.75480652622991e+000

4.98665330982714e+005,-1.87159327070607e+001,-4.81963442886901e+000

5.05626439592555e+005,-1.87163197386427e+001,-4.88535401537544e+000

5.12684721657352e+005,-1.87167113660234e+001,-4.95197813147821e+000

5.19841533667984e+005,-1.87171076939705e+001,-5.01951980723791e+000

5.27098251051240e+005,-1.87175088334880e+001,-5.08799225878002e+000

5.34456268434150e+005,-1.87179149019982e+001,-5.15740889003859e+000

5.41916999912011e+005,-1.87183260235224e+001,-5.22778329451352e+000

