Freq.,VOut,OutRef

1.00000000000000e+004,-2.42004470089942e+001,-4.66751140000057e-001

1.01395947979003e+004,-2.42004519597691e+001,-4.73266290301954e-001

1.02811382665607e+004,-2.42004570496387e+001,-4.79872369499746e-001

1.04246576084112e+004,-2.42004622825083e+001,-4.86570646098233e-001

1.05701804056138e+004,-2.42004676623927e+001,-4.93362406276130e-001

1.07177346253629e+004,-2.42004731934193e+001,-5.00248954130158e-001

1.08673486252606e+004,-2.42004788798314e+001,-5.07231611923807e-001

1.10190511587661e+004,-2.42004847259907e+001,-5.14311720340554e-001

1.11728713807222e+004,-2.42004907363818e+001,-5.21490638737365e-001

1.13288388529580e+004,-2.42004969156145e+001,-5.28769745405047e-001

1.14869835499703e+004,-2.42005032684281e+001,-5.36150437830385e-001

1.16473358646846e+004,-2.42005097996946e+001,-5.43634132961689e-001

1.18099266142953e+004,-2.42005165144223e+001,-5.51222267480590e-001

1.19747870461893e+004,-2.42005234177603e+001,-5.58916298071922e-001

1.21419488439505e+004,-2.42005305150017e+001,-5.66717701703767e-001

1.23114441334492e+004,-2.42005378115875e+001,-5.74627975908805e-001

1.24833054890161e+004,-2.42005453131118e+001,-5.82648639064891e-001

1.26575659397028e+004,-2.42005530253247e+001,-5.90781230689048e-001

1.28342589756290e+004,-2.42005609541380e+001,-5.99027311725665e-001

1.30134185544193e+004,-2.42005691056283e+001,-6.07388464846984e-001

1.31950791077289e+004,-2.42005774860429e+001,-6.15866294749596e-001

1.33792755478611e+004,-2.42005861018038e+001,-6.24462428461498e-001

1.35660432744767e+004,-2.42005949595126e+001,-6.33178515650695e-001

1.37554181813974e+004,-2.42006040659558e+001,-6.42016228938965e-001

1.39474366635040e+004,-2.42006134281099e+001,-6.50977264215928e-001

1.41421356237309e+004,-2.42006230531464e+001,-6.60063340964233e-001

1.43395524801583e+004,-2.42006329484374e+001,-6.69276202583348e-001

1.45397251732031e+004,-2.42006431215616e+001,-6.78617616719559e-001

1.47426921729110e+004,-2.42006535803092e+001,-6.88089375602554e-001

1.49484924863494e+004,-2.42006643326884e+001,-6.97693296383134e-001

1.51571656651040e+004,-2.42006753869315e+001,-7.07431221476655e-001

1.53687518128801e+004,-2.42006867515007e+001,-7.17305018913469e-001

1.55832915932100e+004,-2.42006984350947e+001,-7.27316582689654e-001

1.58008262372675e+004,-2.42007104466555e+001,-7.37467833126590e-001

1.60213975517924e+004,-2.42007227953749e+001,-7.47760717232380e-001

1.62450479271247e+004,-2.42007354907013e+001,-7.58197209070681e-001

1.64718203453514e+004,-2.42007485423471e+001,-7.68779310132224e-001

1.67017583885674e+004,-2.42007619602962e+001,-7.79509049711826e-001

1.69349062472505e+004,-2.42007757548109e+001,-7.90388485292428e-001

1.71713087287550e+004,-2.42007899364402e+001,-8.01419702931034e-001

1.74110112659224e+004,-2.42008045160273e+001,-8.12604817652753e-001

1.76540599258131e+004,-2.42008195047183e+001,-8.23945973846956e-001

1.79005014185594e+004,-2.42008349139701e+001,-8.35445345672873e-001

1.81503831063432e+004,-2.42008507555590e+001,-8.47105137466224e-001

1.84037530124975e+004,-2.42008670415901e+001,-8.58927584153794e-001

1.86606598307361e+004,-2.42008837845055e+001,-8.70914951674187e-001

1.89211529345119e+004,-2.42009009970946e+001,-8.83069537399887e-001

1.91852823865052e+004,-2.42009186925028e+001,-8.95393670571813e-001

1.94530989482457e+004,-2.42009368842421e+001,-9.07889712731864e-001

1.97246540898671e+004,-2.42009555862006e+001,-9.20560058167001e-001

1.99999999999999e+004,-2.42009748126531e+001,-9.33407134356656e-001

2.02791895958005e+004,-2.42009945782720e+001,-9.46433402427766e-001

2.05622765331213e+004,-2.42010148981379e+001,-9.59641357610373e-001

2.08493152168224e+004,-2.42010357877510e+001,-9.73033529708510e-001

2.11403608112276e+004,-2.42010572630426e+001,-9.86612483568136e-001

2.14354692507258e+004,-2.42010793403872e+001,-1.00038081955548e+000

2.17346972505211e+004,-2.42011020366141e+001,-1.01434117404385e+000

2.20381023175322e+004,-2.42011253690208e+001,-1.02849621989937e+000

2.23457427614443e+004,-2.42011493553847e+001,-1.04284866698204e+000

2.26576777059159e+004,-2.42011740139774e+001,-1.05740126264540e+000

2.29739670999406e+004,-2.42011993635775e+001,-1.07215679224837e+000

2.32946717293690e+004,-2.42012254234847e+001,-1.08711807966992e+000

2.36198532285905e+004,-2.42012522135343e+001,-1.10228798783180e+000

2.39495740923785e+004,-2.42012797541115e+001,-1.11766941922934e+000

2.42838976879009e+004,-2.42013080661666e+001,-1.13326531646495e+000

2.46228882668982e+004,-2.42013371712304e+001,-1.14907866279389e+000

2.49666109780322e+004,-2.42013670914301e+001,-1.16511248267179e+000

2.53151318794055e+004,-2.42013978495056e+001,-1.18136984231216e+000

2.56685179512580e+004,-2.42014294688259e+001,-1.19785385025021e+000

2.60268371088386e+004,-2.42014619734067e+001,-1.21456765791388e+000

2.63901582154578e+004,-2.42014953879274e+001,-1.23151446020192e+000

2.67585510957221e+004,-2.42015297377499e+001,-1.24869749606771e+000

2.71320865489533e+004,-2.42015650489363e+001,-1.26612004911326e+000

2.75108363627948e+004,-2.42016013482685e+001,-1.28378544818855e+000

2.78948733270080e+004,-2.42016386632674e+001,-1.30169706799904e+000

2.82842712474618e+004,-2.42016770222129e+001,-1.31985832971922e+000

2.86791049603164e+004,-2.42017164541647e+001,-1.33827270161721e+000

2.90794503464061e+004,-2.42017569889829e+001,-1.35694369968184e+000

2.94853843458219e+004,-2.42017986573500e+001,-1.37587488826315e+000

2.98969849726987e+004,-2.42018414907930e+001,-1.39506988071489e+000

3.03143313302078e+004,-2.42018855217056e+001,-1.41453234005027e+000

3.07375036257601e+004,-2.42019307833722e+001,-1.43426597960140e+000

3.11665831864199e+004,-2.42019773099917e+001,-1.45427456368818e+000

3.16016524745350e+004,-2.42020251367014e+001,-1.47456190829628e+000

3.20427951035848e+004,-2.42020742996028e+001,-1.49513188176178e+000

3.24900958542493e+004,-2.42021248357870e+001,-1.51598840546388e+000

3.29436406907028e+004,-2.42021767833615e+001,-1.53713545452618e+000

3.34035167771346e+004,-2.42022301814765e+001,-1.55857705852738e+000

3.38698124945009e+004,-2.42022850703536e+001,-1.58031730221748e+000

3.43426174575100e+004,-2.42023414913138e+001,-1.60236032624480e+000

3.48220225318448e+004,-2.42023994868065e+001,-1.62471032789109e+000

3.53081198516260e+004,-2.42024591004396e+001,-1.64737156181373e+000

3.58010028371187e+004,-2.42025203770105e+001,-1.67034834079654e+000

3.63007662126863e+004,-2.42025833625365e+001,-1.69364503651174e+000

3.68075060249948e+004,-2.42026481042879e+001,-1.71726608028755e+000

3.73213196614721e+004,-2.42027146508206e+001,-1.74121596388499e+000

3.78423058690237e+004,-2.42027830520099e+001,-1.76549924028435e+000

3.83705647730104e+004,-2.42028533590847e+001,-1.79012052448053e+000

3.89061978964912e+004,-2.42029256246636e+001,-1.81508449428519e+000

3.94493081797342e+004,-2.42029999027902e+001,-1.84039589114038e+000

3.99999999999998e+004,-2.42030762489714e+001,-1.86605952093811e+000

4.05583791916010e+004,-2.42031547202142e+001,-1.89208025485194e+000

4.11245530662425e+004,-2.42032353750654e+001,-1.91846303017486e+000

4.16986304336447e+004,-2.42033182736510e+001,-1.94521285116723e+000

4.22807216224550e+004,-2.42034034777172e+001,-1.97233478991402e+000

4.28709385014515e+004,-2.42034910506719e+001,-1.99983398718964e+000

4.34693945010421e+004,-2.42035810576276e+001,-2.02771565333374e+000

4.40762046350642e+004,-2.42036735654444e+001,-2.05598506913498e+000

4.46914855228886e+004,-2.42037686427757e+001,-2.08464758672283e+000

4.53153554118317e+004,-2.42038663601125e+001,-2.11370863047083e+000

4.59479341998812e+004,-2.42039667898315e+001,-2.14317369790676e+000

4.65893434587380e+004,-2.42040700062416e+001,-2.17304836063273e+000

4.72397064571810e+004,-2.42041760856335e+001,-2.20333826525487e+000

4.78991481847569e+004,-2.42042851063291e+001,-2.23404913432143e+000

4.85677953758016e+004,-2.42043971487325e+001,-2.26518676726942e+000

4.92457765337964e+004,-2.42045122953823e+001,-2.29675704138251e+000

4.99332219560642e+004,-2.42046306310046e+001,-2.32876591275527e+000

5.06302637588109e+004,-2.42047522425672e+001,-2.36121941726901e+000

5.13370359025159e+004,-2.42048772193354e+001,-2.39412367157387e+000

5.20536742176771e+004,-2.42050056529281e+001,-2.42748487408335e+000

5.27803164309155e+004,-2.42051376373762e+001,-2.46130930597525e+000

5.35171021914442e+004,-2.42052732691810e+001,-2.49560333220243e+000

5.42641730979066e+004,-2.42054126473750e+001,-2.53037340251306e+000

5.50216727255895e+004,-2.42055558735827e+001,-2.56562605247935e+000

5.57897466540159e+004,-2.42057030520835e+001,-2.60136790453539e+000

5.65685424949235e+004,-2.42058542898758e+001,-2.63760566902373e+000

5.73582099206328e+004,-2.42060096967416e+001,-2.67434614525121e+000

5.81589006928121e+004,-2.42061693853131e+001,-2.71159622255366e+000

5.89707686916437e+004,-2.42063334711405e+001,-2.74936288136858e+000

5.97939699453972e+004,-2.42065020727602e+001,-2.78765319431824e+000

6.06286626604156e+004,-2.42066753117660e+001,-2.82647432729958e+000

6.14750072515201e+004,-2.42068533128792e+001,-2.86583354058497e+000

6.23331663728396e+004,-2.42070362040226e+001,-2.90573818992961e+000

6.32033049490698e+004,-2.42072241163934e+001,-2.94619572768876e+000

6.40855902071694e+004,-2.42074171845391e+001,-2.98721370394406e+000

6.49801917084985e+004,-2.42076155464337e+001,-3.02879976763676e+000

6.58872813814055e+004,-2.42078193435556e+001,-3.07096166771107e+000

6.68070335542691e+004,-2.42080287209666e+001,-3.11370725426469e+000

6.77396249890018e+004,-2.42082438273924e+001,-3.15704447971016e+000

6.86852349150199e+004,-2.42084648153042e+001,-3.20098139994063e+000

6.96440450636895e+004,-2.42086918410012e+001,-3.24552617550843e+000

7.06162397032520e+004,-2.42089250646950e+001,-3.29068707280948e+000

7.16020056742374e+004,-2.42091646505950e+001,-3.33647246527623e+000

7.26015324253724e+004,-2.42094107669948e+001,-3.38289083457945e+000

7.36150120499896e+004,-2.42096635863600e+001,-3.42995077183940e+000

7.46426393229441e+004,-2.42099232854170e+001,-3.47766097884230e+000

7.56846117380472e+004,-2.42101900452433e+001,-3.52603026926944e+000

7.67411295460207e+004,-2.42104640513587e+001,-3.57506756993025e+000

7.78123957929823e+004,-2.42107454938176e+001,-3.62478192200763e+000

7.88986163594682e+004,-2.42110345673025e+001,-3.67518248230893e+000

7.99999999999995e+004,-2.42113314712186e+001,-3.72627852452761e+000

8.11167583832018e+004,-2.42116364097892e+001,-3.77807944051121e+000

8.22491061324848e+004,-2.42119495921524e+001,-3.83059474154047e+000

8.33972608672892e+004,-2.42122712324588e+001,-3.88383405961497e+000

8.45614432449099e+004,-2.42126015499696e+001,-3.93780714874957e+000

8.57418770029029e+004,-2.42129407691562e+001,-3.99252388627888e+000

8.69387890020841e+004,-2.42132891198005e+001,-4.04799427417071e+000

8.81524092701283e+004,-2.42136468370959e+001,-4.10422844034968e+000

8.93829710457770e+004,-2.42140141617488e+001,-4.16123664002982e+000

9.06307108236633e+004,-2.42143913400816e+001,-4.21902925705808e+000

9.18958683997622e+004,-2.42147786241355e+001,-4.27761680526617e+000

9.31786869174758e+004,-2.42151762717748e+001,-4.33700992983471e+000

9.44794129143618e+004,-2.42155845467906e+001,-4.39721940866715e+000

9.57982963695136e+004,-2.42160037190061e+001,-4.45825615377506e+000

9.71355907516031e+004,-2.42164340643822e+001,-4.52013121267514e+000

9.84915530675926e+004,-2.42168758651227e+001,-4.58285576979794e+000

9.98664439121282e+004,-2.42173294097804e+001,-4.64644114791019e+000

1.01260527517622e+005,-2.42177949933644e+001,-4.71089880954848e+000

1.02674071805032e+005,-2.42182729174454e+001,-4.77624035846794e+000

1.04107348435354e+005,-2.42187634902635e+001,-4.84247754110567e+000

1.05560632861831e+005,-2.42192670268345e+001,-4.90962224805740e+000

1.07034204382888e+005,-2.42197838490574e+001,-4.97768651557200e+000

1.08528346195813e+005,-2.42203142858207e+001,-5.04668252706150e+000

1.10043345451179e+005,-2.42208586731099e+001,-5.11662261462912e+000

1.11579493308032e+005,-2.42214173541139e+001,-5.18751926061523e+000

1.13137084989847e+005,-2.42219906793322e+001,-5.25938509916299e+000

1.14716419841265e+005,-2.42225790066806e+001,-5.33223291780610e+000

1.16317801385624e+005,-2.42231827015983e+001,-5.40607565907525e+000

1.17941537383287e+005,-2.42238021371533e+001,-5.48092642213033e+000

1.19587939890794e+005,-2.42244376941482e+001,-5.55679846441576e+000

1.21257325320831e+005,-2.42250897612259e+001,-5.63370520334107e+000

1.22950014503040e+005,-2.42257587349742e+001,-5.71166021798942e+000

1.24666332745679e+005,-2.42264450200309e+001,-5.79067725085440e+000

1.26406609898139e+005,-2.42271490291881e+001,-5.87077020960691e+000

1.28171180414339e+005,-2.42278711834961e+001,-5.95195316889425e+000

1.29960383416997e+005,-2.42286119123672e+001,-6.03424037217323e+000

1.31774562762811e+005,-2.42293716536797e+001,-6.11764623357787e+000

1.33614067108538e+005,-2.42301508538806e+001,-6.20218533982574e+000

1.35479249978003e+005,-2.42309499680893e+001,-6.28787245216300e+000

1.37370469830040e+005,-2.42317694602004e+001,-6.37472250835157e+000

1.39288090127379e+005,-2.42326098029871e+001,-6.46275062470052e+000

1.41232479406504e+005,-2.42334714782048e+001,-6.55197209814165e+000

1.43204011348474e+005,-2.42343549766944e+001,-6.64240240835591e+000

1.45203064850745e+005,-2.42352607984871e+001,-6.73405721994856e+000

1.47230024099979e+005,-2.42361894529086e+001,-6.82695238467854e+000

1.49285278645888e+005,-2.42371414586854e+001,-6.92110394374305e+000

1.51369223476094e+005,-2.42381173440517e+001,-7.01652813012023e+000

1.53482259092041e+005,-2.42391176468574e+001,-7.11324137097299e+000

1.55624791585964e+005,-2.42401429146787e+001,-7.21126029011550e+000

1.57797232718936e+005,-2.42411937049295e+001,-7.31060171054602e+000

1.59999999999999e+005,-2.42422705849763e+001,-7.41128265704830e+000

1.62233516766403e+005,-2.42433741322554e+001,-7.51332035886424e+000

1.64498212264969e+005,-2.42445049343933e+001,-7.61673225243946e+000

1.66794521734578e+005,-2.42456635893311e+001,-7.72153598424668e+000

1.69122886489819e+005,-2.42468507054524e+001,-7.82774941368681e+000

1.71483754005805e+005,-2.42480669017170e+001,-7.93539061607208e+000

1.73877578004168e+005,-2.42493128077991e+001,-8.04447788569272e+000

1.76304818540256e+005,-2.42505890642317e+001,-8.15502973896935e+000

1.78765942091554e+005,-2.42518963225576e+001,-8.26706491769486e+000

1.81261421647326e+005,-2.42532352454882e+001,-8.38060239236505e+000

1.83791736799524e+005,-2.42546065070698e+001,-8.49566136560288e+000

1.86357373834951e+005,-2.42560107928586e+001,-8.61226127567599e+000

1.88958825828723e+005,-2.42574488001066e+001,-8.73042180011023e+000

1.91596592739027e+005,-2.42589212379568e+001,-8.85016285939951e+000

1.94271181503206e+005,-2.42604288276507e+001,-8.97150462081368e+000

1.96983106135185e+005,-2.42619723027482e+001,-9.09446750230599e+000

1.99732887824256e+005,-2.42635524093609e+001,-9.21907217651831e+000

2.02521055035243e+005,-2.42651699063996e+001,-9.34533957488704e+000

2.05348143610063e+005,-2.42668255658384e+001,-9.47329089184706e+000

2.08214696870707e+005,-2.42685201729946e+001,-9.60294758913552e+000

2.11121265723661e+005,-2.42702545268271e+001,-9.73433140019232e+000

2.14068408765776e+005,-2.42720294402535e+001,-9.86746433465730e+000

2.17056692391625e+005,-2.42738457404876e+001,-1.00023686829623e+001

2.20086690902357e+005,-2.42757042693985e+001,-1.01390670210145e+001

2.23158986616063e+005,-2.42776058838924e+001,-1.02775822149696e+001

2.26274169979693e+005,-2.42795514563186e+001,-1.04179374260915e+001

2.29432839682530e+005,-2.42815418749001e+001,-1.05601561156935e+001

2.32635602771247e+005,-2.42835780441921e+001,-1.07042620501569e+001

2.35883074766574e+005,-2.42856608855664e+001,-1.08502793060232e+001

2.39175879781588e+005,-2.42877913377272e+001,-1.09982322751534e+001

2.42514650641661e+005,-2.42899703572552e+001,-1.11481456699475e+001

2.45900029006080e+005,-2.42921989191849e+001,-1.13000445286180e+001

2.49332665491357e+005,-2.42944780176137e+001,-1.14539542205113e+001

2.52813219796278e+005,-2.42968086663454e+001,-1.16099004514669e+001

2.56342360828676e+005,-2.42991918995694e+001,-1.17679092692055e+001

2.59920766833993e+005,-2.43016287725751e+001,-1.19280070687401e+001

2.63549125525621e+005,-2.43041203625048e+001,-1.20902205977953e+001

2.67228134217075e+005,-2.43066677691442e+001,-1.22545769622285e+001

2.70958499956006e+005,-2.43092721157525e+001,-1.24211036314389e+001

2.74740939660078e+005,-2.43119345499328e+001,-1.25898284437547e+001

2.78576180254757e+005,-2.43146562445432e+001,-1.27607796117843e+001

2.82464958813007e+005,-2.43174383986495e+001,-1.29339857277213e+001

2.86408022696948e+005,-2.43202822385208e+001,-1.31094757685865e+001

2.90406129701488e+005,-2.43231890186670e+001,-1.32872791013964e+001

2.94460048199957e+005,-2.43261600229200e+001,-1.34674254882427e+001

2.98570557291775e+005,-2.43291965655587e+001,-1.36499450912674e+001

3.02738446952187e+005,-2.43322999924770e+001,-1.38348684775196e+001

3.06964518184081e+005,-2.43354716823956e+001,-1.40222266236797e+001

3.11249583171928e+005,-2.43387130481187e+001,-1.42120509206320e+001

3.15594465437872e+005,-2.43420255378320e+001,-1.44043731778750e+001

3.19999999999997e+005,-2.43454106364464e+001,-1.45992256277485e+001

3.24467033532806e+005,-2.43488698669823e+001,-1.47966409294658e+001

3.28996424529938e+005,-2.43524047919974e+001,-1.49966521729321e+001

3.33589043469155e+005,-2.43560170150558e+001,-1.51992928823343e+001

3.38245772979638e+005,-2.43597081822368e+001,-1.54045970194864e+001

3.42967508011610e+005,-2.43634799836849e+001,-1.56125989869147e+001

3.47755156008335e+005,-2.43673341551967e+001,-1.58233336306667e+001

3.52609637080511e+005,-2.43712724798462e+001,-1.60368362428285e+001

3.57531884183106e+005,-2.43752967896460e+001,-1.62531425637365e+001

3.62522843294651e+005,-2.43794089672418e+001,-1.64722887838673e+001

3.67583473599047e+005,-2.43836109476413e+001,-1.66943115453931e+001

3.72714747669902e+005,-2.43879047199731e+001,-1.69192479433866e+001

3.77917651657445e+005,-2.43922923292754e+001,-1.71471355266648e+001

3.83193185478053e+005,-2.43967758783113e+001,-1.73780122982558e+001

3.88542363006410e+005,-2.44013575294106e+001,-1.76119167154794e+001

3.93966212270369e+005,-2.44060395063334e+001,-1.78488876896263e+001

3.99465775648511e+005,-2.44108240961559e+001,-1.80889645852286e+001

4.05042110070485e+005,-2.44157136511735e+001,-1.83321872189078e+001

4.10696287220124e+005,-2.44207105908213e+001,-1.85785958577925e+001

4.16429393741414e+005,-2.44258174036081e+001,-1.88282312174958e+001

4.22242531447321e+005,-2.44310366490613e+001,-1.90811344596450e+001

4.28136817531551e+005,-2.44363709596812e+001,-1.93373471889535e+001

4.34113384783250e+005,-2.44418230429012e+001,-1.95969114498301e+001

4.40173381804713e+005,-2.44473956830519e+001,-1.98598697225186e+001

4.46317973232124e+005,-2.44530917433256e+001,-2.01262649187611e+001

4.52548339959385e+005,-2.44589141677398e+001,-2.03961403769805e+001

4.58865679365059e+005,-2.44648659830958e+001,-2.06695398569772e+001

4.65271205542494e+005,-2.44709503009302e+001,-2.09465075341373e+001

4.71766149533147e+005,-2.44771703194569e+001,-2.12270879931466e+001

4.78351759563174e+005,-2.44835293254962e+001,-2.15113262212102e+001

4.85029301283321e+005,-2.44900306963884e+001,-2.17992676007729e+001

4.91800058012158e+005,-2.44966779018902e+001,-2.20909579017403e+001

4.98665330982714e+005,-2.45034745060492e+001,-2.23864432731994e+001

5.05626439592555e+005,-2.45104241690553e+001,-2.26857702346353e+001

5.12684721657352e+005,-2.45175306490663e+001,-2.29889856666469e+001

5.19841533667984e+005,-2.45247978040037e+001,-2.32961368011586e+001

5.27098251051240e+005,-2.45322295933169e+001,-2.36072712111302e+001

5.34456268434150e+005,-2.45398300797130e+001,-2.39224367997633e+001

5.41916999912011e+005,-2.45476034308492e+001,-2.42416817892079e+001

