Freq.,VOut,OutRef

1.00000000000000e+004,-3.58799838556890e+001,-1.89269937567924e-001

1.01395947979003e+004,-3.58799853664238e+001,-1.91911869199020e-001

1.02811382665607e+004,-3.58799869195925e+001,-1.94590673259052e-001

1.04246576084112e+004,-3.58799885163859e+001,-1.97306864147702e-001

1.05701804056138e+004,-3.58799901580285e+001,-2.00060963429715e-001

1.07177346253629e+004,-3.58799918457783e+001,-2.02853499939737e-001

1.08673486252606e+004,-3.58799935809292e+001,-2.05685009878340e-001

1.10190511587661e+004,-3.58799953648111e+001,-2.08556036914639e-001

1.11728713807222e+004,-3.58799971987910e+001,-2.11467132292943e-001

1.13288388529580e+004,-3.58799990842743e+001,-2.14418854935052e-001

1.14869835499703e+004,-3.58800010227060e+001,-2.17411771546849e-001

1.16473358646846e+004,-3.58800030155708e+001,-2.20446456729960e-001

1.18099266142953e+004,-3.58800050643958e+001,-2.23523493083963e-001

1.19747870461893e+004,-3.58800071707502e+001,-2.26643471324922e-001

1.21419488439505e+004,-3.58800093362474e+001,-2.29806990393424e-001

1.23114441334492e+004,-3.58800115625461e+001,-2.33014657567459e-001

1.24833054890161e+004,-3.58800138513508e+001,-2.36267088584439e-001

1.26575659397028e+004,-3.58800162044143e+001,-2.39564907748812e-001

1.28342589756290e+004,-3.58800186235380e+001,-2.42908748060007e-001

1.30134185544193e+004,-3.58800211105737e+001,-2.46299251326270e-001

1.31950791077289e+004,-3.58800236674252e+001,-2.49737068288904e-001

1.33792755478611e+004,-3.58800262960494e+001,-2.53222858745749e-001

1.35660432744767e+004,-3.58800289984577e+001,-2.56757291678068e-001

1.37554181813974e+004,-3.58800317767178e+001,-2.60341045374126e-001

1.39474366635040e+004,-3.58800346329551e+001,-2.63974807560813e-001

1.41421356237309e+004,-3.58800375693547e+001,-2.67659275531540e-001

1.43395524801583e+004,-3.58800405881623e+001,-2.71395156281061e-001

1.45397251732031e+004,-3.58800436916865e+001,-2.75183166637630e-001

1.47426921729110e+004,-3.58800468823000e+001,-2.79024033400960e-001

1.49484924863494e+004,-3.58800501624422e+001,-2.82918493476237e-001

1.51571656651040e+004,-3.58800535346202e+001,-2.86867294016308e-001

1.53687518128801e+004,-3.58800570014113e+001,-2.90871192562649e-001

1.55832915932100e+004,-3.58800605654646e+001,-2.94930957187846e-001

1.58008262372675e+004,-3.58800642295027e+001,-2.99047366643002e-001

1.60213975517924e+004,-3.58800679963244e+001,-3.03221210501908e-001

1.62450479271247e+004,-3.58800718688067e+001,-3.07453289310743e-001

1.64718203453514e+004,-3.58800758499063e+001,-3.11744414741667e-001

1.67017583885674e+004,-3.58800799426625e+001,-3.16095409743075e-001

1.69349062472505e+004,-3.58800841501993e+001,-3.20507108696443e-001

1.71713087287550e+004,-3.58800884757275e+001,-3.24980357572966e-001

1.74110112659224e+004,-3.58800929225473e+001,-3.29516014093399e-001

1.76540599258131e+004,-3.58800974940508e+001,-3.34114947888130e-001

1.79005014185594e+004,-3.58801021937242e+001,-3.38778040663897e-001

1.81503831063432e+004,-3.58801070251509e+001,-3.43506186366369e-001

1.84037530124975e+004,-3.58801119920140e+001,-3.48300291348312e-001

1.86606598307361e+004,-3.58801170980986e+001,-3.53161274543216e-001

1.89211529345119e+004,-3.58801223472951e+001,-3.58090067633680e-001

1.91852823865052e+004,-3.58801277436018e+001,-3.63087615230002e-001

1.94530989482457e+004,-3.58801332911285e+001,-3.68154875042664e-001

1.97246540898671e+004,-3.58801389940983e+001,-3.73292818066996e-001

1.99999999999999e+004,-3.58801448568521e+001,-3.78502428760019e-001

2.02791895958005e+004,-3.58801508838508e+001,-3.83784705228260e-001

2.05622765331213e+004,-3.58801570796790e+001,-3.89140659413057e-001

2.08493152168224e+004,-3.58801634490483e+001,-3.94571317278904e-001

2.11403608112276e+004,-3.58801699968010e+001,-4.00077719005690e-001

2.14354692507258e+004,-3.58801767279132e+001,-4.05660919182176e-001

2.17346972505211e+004,-3.58801836474989e+001,-4.11321987003601e-001

2.20381023175322e+004,-3.58801907608133e+001,-4.17062006470103e-001

2.23457427614443e+004,-3.58801980732573e+001,-4.22882076586276e-001

2.26576777059159e+004,-3.58802055903805e+001,-4.28783311570248e-001

2.29739670999406e+004,-3.58802133178863e+001,-4.34766841055256e-001

2.32946717293690e+004,-3.58802212616352e+001,-4.40833810303009e-001

2.36198532285905e+004,-3.58802294276495e+001,-4.46985380414398e-001

2.39495740923785e+004,-3.58802378221176e+001,-4.53222728544028e-001

2.42838976879009e+004,-3.58802464513986e+001,-4.59547048117980e-001

2.46228882668982e+004,-3.58802553220265e+001,-4.65959549057327e-001

2.49666109780322e+004,-3.58802644407155e+001,-4.72461457995640e-001

2.53151318794055e+004,-3.58802738143642e+001,-4.79054018510898e-001

2.56685179512580e+004,-3.58802834500611e+001,-4.85738491350657e-001

2.60268371088386e+004,-3.58802933550895e+001,-4.92516154665613e-001

2.63901582154578e+004,-3.58803035369328e+001,-4.99388304243702e-001

2.67585510957221e+004,-3.58803140032797e+001,-5.06356253748179e-001

2.71320865489533e+004,-3.58803247620295e+001,-5.13421334959164e-001

2.75108363627948e+004,-3.58803358212985e+001,-5.20584898015178e-001

2.78948733270080e+004,-3.58803471894248e+001,-5.27848311662836e-001

2.82842712474618e+004,-3.58803588749752e+001,-5.35212963502786e-001

2.86791049603164e+004,-3.58803708867503e+001,-5.42680260247594e-001

2.90794503464061e+004,-3.58803832337914e+001,-5.50251627972767e-001

2.94853843458219e+004,-3.58803959253867e+001,-5.57928512378667e-001

2.98969849726987e+004,-3.58804089710777e+001,-5.65712379053640e-001

3.03143313302078e+004,-3.58804223806659e+001,-5.73604713736514e-001

3.07375036257601e+004,-3.58804361642198e+001,-5.81607022588603e-001

3.11665831864199e+004,-3.58804503320820e+001,-5.89720832462729e-001

3.16016524745350e+004,-3.58804648948760e+001,-5.97947691180703e-001

3.20427951035848e+004,-3.58804798635139e+001,-6.06289167811379e-001

3.24900958542493e+004,-3.58804952492039e+001,-6.14746852951611e-001

3.29436406907028e+004,-3.58805110634578e+001,-6.23322359012731e-001

3.34035167771346e+004,-3.58805273180994e+001,-6.32017320508238e-001

3.38698124945009e+004,-3.58805440252721e+001,-6.40833394346497e-001

3.43426174575100e+004,-3.58805611974473e+001,-6.49772260125536e-001

3.48220225318448e+004,-3.58805788474330e+001,-6.58835620432651e-001

3.53081198516260e+004,-3.58805969883826e+001,-6.68025201146265e-001

3.58010028371187e+004,-3.58806156338034e+001,-6.77342751742398e-001

3.63007662126863e+004,-3.58806347975659e+001,-6.86790045603633e-001

3.68075060249948e+004,-3.58806544939132e+001,-6.96368880331477e-001

3.73213196614721e+004,-3.58806747374705e+001,-7.06081078064230e-001

3.78423058690237e+004,-3.58806955432546e+001,-7.15928485795098e-001

3.83705647730104e+004,-3.58807169266839e+001,-7.25912975698739e-001

3.89061978964912e+004,-3.58807389035885e+001,-7.36036445455759e-001

3.94493081797342e+004,-3.58807614902212e+001,-7.46300818584617e-001

3.99999999999998e+004,-3.58807847032670e+001,-7.56708044777462e-001

4.05583791916010e+004,-3.58808085598550e+001,-7.67260100236135e-001

4.11245530662425e+004,-3.58808330775687e+001,-7.77958988016846e-001

4.16986304336447e+004,-3.58808582744578e+001,-7.88806738372551e-001

4.22807216224550e+004,-3.58808841690496e+001,-7.99805409105717e-001

4.28709385014515e+004,-3.58809107803605e+001,-8.10957085919085e-001

4.34693945010421e+004,-3.58809381279087e+001,-8.22263882773702e-001

4.40762046350642e+004,-3.58809662317257e+001,-8.33727942248723e-001

4.46914855228886e+004,-3.58809951123694e+001,-8.45351435907299e-001

4.53153554118317e+004,-3.58810247909365e+001,-8.57136564663201e-001

4.59479341998812e+004,-3.58810552890758e+001,-8.69085559154263e-001

4.65893434587380e+004,-3.58810866290015e+001,-8.81200680116290e-001

4.72397064571810e+004,-3.58811188335062e+001,-8.93484218765614e-001

4.78991481847569e+004,-3.58811519259753e+001,-9.05938497180064e-001

4.85677953758016e+004,-3.58811859304009e+001,-9.18565868686512e-001

4.92457765337964e+004,-3.58812208713961e+001,-9.31368718253861e-001

4.99332219560642e+004,-3.58812567742090e+001,-9.44349462886328e-001

5.06302637588109e+004,-3.58812936647384e+001,-9.57510552023095e-001

5.13370359025159e+004,-3.58813315695486e+001,-9.70854467940220e-001

5.20536742176771e+004,-3.58813705158841e+001,-9.84383726158724e-001

5.27803164309155e+004,-3.58814105316860e+001,-9.98100875854076e-001

5.35171021914442e+004,-3.58814516456074e+001,-1.01200850026972e+000

5.42641730979066e+004,-3.58814938870296e+001,-1.02610921713746e+000

5.50216727255895e+004,-3.58815372860784e+001,-1.04040567909727e+000

5.57897466540159e+004,-3.58815818736407e+001,-1.05490057412448e+000

5.65685424949235e+004,-3.58816276813812e+001,-1.06959662596010e+000

5.73582099206328e+004,-3.58816747417598e+001,-1.08449659454278e+000

5.81589006928121e+004,-3.58817230880485e+001,-1.09960327644812e+000

5.89707686916437e+004,-3.58817727543491e+001,-1.11491950532945e+000

5.97939699453972e+004,-3.58818237756108e+001,-1.13044815236312e+000

6.06286626604156e+004,-3.58818761876485e+001,-1.14619212669739e+000

6.14750072515201e+004,-3.58819300271606e+001,-1.16215437590714e+000

6.23331663728396e+004,-3.58819853317478e+001,-1.17833788644850e+000

6.32033049490698e+004,-3.58820421399308e+001,-1.19474568412160e+000

6.40855902071694e+004,-3.58821004911702e+001,-1.21138083453519e+000

6.49801917084985e+004,-3.58821604258846e+001,-1.22824644357468e+000

6.58872813814055e+004,-3.58822219854700e+001,-1.24534565787481e+000

6.68070335542691e+004,-3.58822852123187e+001,-1.26268166529741e+000

6.77396249890018e+004,-3.58823501498393e+001,-1.28025769540996e+000

6.86852349150199e+004,-3.58824168424756e+001,-1.29807701997168e+000

6.96440450636895e+004,-3.58824853357265e+001,-1.31614295342185e+000

7.06162397032520e+004,-3.58825556761656e+001,-1.33445885337023e+000

7.16020056742374e+004,-3.58826279114608e+001,-1.35302812109698e+000

7.26015324253724e+004,-3.58827020903945e+001,-1.37185420204987e+000

7.36150120499896e+004,-3.58827782628832e+001,-1.39094058635047e+000

7.46426393229441e+004,-3.58828564799975e+001,-1.41029080930216e+000

7.56846117380472e+004,-3.58829367939816e+001,-1.42990845190414e+000

7.67411295460207e+004,-3.58830192582739e+001,-1.44979714136673e+000

7.78123957929823e+004,-3.58831039275261e+001,-1.46996055163351e+000

7.88986163594682e+004,-3.58831908576232e+001,-1.49040240390751e+000

7.99999999999995e+004,-3.58832801057030e+001,-1.51112646718020e+000

8.11167583832018e+004,-3.58833717301758e+001,-1.53213655876648e+000

8.22491061324848e+004,-3.58834657907436e+001,-1.55343654484295e+000

8.33972608672892e+004,-3.58835623484192e+001,-1.57503034099345e+000

8.45614432449099e+004,-3.58836614655452e+001,-1.59692191275537e+000

8.57418770029029e+004,-3.58837632058123e+001,-1.61911527617445e+000

8.69387890020841e+004,-3.58838676342785e+001,-1.64161449836190e+000

8.81524092701283e+004,-3.58839748173861e+001,-1.66442369805981e+000

8.93829710457770e+004,-3.58840848229800e+001,-1.68754704620772e+000

9.06307108236633e+004,-3.58841977203250e+001,-1.71098876651915e+000

9.18958683997622e+004,-3.58843135801223e+001,-1.73475313605964e+000

9.31786869174758e+004,-3.58844324745261e+001,-1.75884448583476e+000

9.44794129143618e+004,-3.58845544771592e+001,-1.78326720138057e+000

9.57982963695136e+004,-3.58846796631285e+001,-1.80802572336294e+000

9.71355907516031e+004,-3.58848081090394e+001,-1.83312454818253e+000

9.84915530675926e+004,-3.58849398930100e+001,-1.85856822858701e+000

9.98664439121282e+004,-3.58850750946842e+001,-1.88436137428987e+000

1.01260527517622e+005,-3.58852137952442e+001,-1.91050865259776e+000

1.02674071805032e+005,-3.58853560774225e+001,-1.93701478904614e+000

1.04107348435354e+005,-3.58855020255124e+001,-1.96388456804038e+000

1.05560632861831e+005,-3.58856517253783e+001,-1.99112283351067e+000

1.07034204382888e+005,-3.58858052644644e+001,-2.01873448957067e+000

1.08528346195813e+005,-3.58859627318034e+001,-2.04672450118977e+000

1.10043345451179e+005,-3.58861242180226e+001,-2.07509789487396e+000

1.11579493308032e+005,-3.58862898153507e+001,-2.10385975935810e+000

1.13137084989847e+005,-3.58864596176219e+001,-2.13301524630824e+000

1.14716419841265e+005,-3.58866337202801e+001,-2.16256957103749e+000

1.16317801385624e+005,-3.58868122203808e+001,-2.19252801323420e+000

1.17941537383287e+005,-3.58869952165928e+001,-2.22289591770132e+000

1.19587939890794e+005,-3.58871828091974e+001,-2.25367869511422e+000

1.21257325320831e+005,-3.58873751000873e+001,-2.28488182278802e+000

1.22950014503040e+005,-3.58875721927638e+001,-2.31651084546444e+000

1.24666332745679e+005,-3.58877741923321e+001,-2.34857137611363e+000

1.26406609898139e+005,-3.58879812054958e+001,-2.38106909675368e+000

1.28171180414339e+005,-3.58881933405498e+001,-2.41400975928790e+000

1.29960383416997e+005,-3.58884107073715e+001,-2.44739918636191e+000

1.31774562762811e+005,-3.58886334174105e+001,-2.48124327224102e+000

1.33614067108538e+005,-3.58888615836771e+001,-2.51554798370914e+000

1.35479249978003e+005,-3.58890953207291e+001,-2.55031936098964e+000

1.37370469830040e+005,-3.58893347446568e+001,-2.58556351869048e+000

1.39288090127379e+005,-3.58895799730673e+001,-2.62128664677374e+000

1.41232479406504e+005,-3.58898311250662e+001,-2.65749501155162e+000

1.43204011348474e+005,-3.58900883212390e+001,-2.69419495671009e+000

1.45203064850745e+005,-3.58903516836302e+001,-2.73139290436080e+000

1.47230024099979e+005,-3.58906213357212e+001,-2.76909535612323e+000

1.49285278645888e+005,-3.58908974024076e+001,-2.80730889423796e+000

1.51369223476094e+005,-3.58911800099743e+001,-2.84604018271439e+000

1.53482259092041e+005,-3.58914692860698e+001,-2.88529596851132e+000

1.55624791585964e+005,-3.58917653596795e+001,-2.92508308275349e+000

1.57797232718936e+005,-3.58920683610980e+001,-2.96540844198739e+000

1.59999999999999e+005,-3.58923784219007e+001,-3.00627904947319e+000

1.62233516766403e+005,-3.58926956749141e+001,-3.04770199652020e+000

1.64498212264969e+005,-3.58930202541860e+001,-3.08968446386210e+000

1.66794521734578e+005,-3.58933522949556e+001,-3.13223372307734e+000

1.69122886489819e+005,-3.58936919336223e+001,-3.17535713805422e+000

1.71483754005805e+005,-3.58940393077158e+001,-3.21906216650206e+000

1.73877578004168e+005,-3.58943945558652e+001,-3.26335636151307e+000

1.76304818540256e+005,-3.58947578177694e+001,-3.30824737317131e+000

1.78765942091554e+005,-3.58951292341676e+001,-3.35374295021538e+000

1.81261421647326e+005,-3.58955089468107e+001,-3.39985094175251e+000

1.83791736799524e+005,-3.58958970984349e+001,-3.44657929902776e+000

1.86357373834951e+005,-3.58962938327353e+001,-3.49393607724861e+000

1.88958825828723e+005,-3.58966992943422e+001,-3.54192943746730e+000

1.91596592739027e+005,-3.58971136288002e+001,-3.59056764852056e+000

1.94271181503206e+005,-3.58975369825482e+001,-3.63985908902900e+000

1.96983106135185e+005,-3.58979695029043e+001,-3.68981224945719e+000

1.99732887824256e+005,-3.58984113380523e+001,-3.74043573423542e+000

2.02521055035243e+005,-3.58988626370331e+001,-3.79173826394392e+000

2.05348143610063e+005,-3.58993235497397e+001,-3.84372867755916e+000

2.08214696870707e+005,-3.58997942269175e+001,-3.89641593476514e+000

2.11121265723661e+005,-3.59002748201687e+001,-3.94980911832813e+000

2.14068408765776e+005,-3.59007654819631e+001,-4.00391743653600e+000

2.17056692391625e+005,-3.59012663656550e+001,-4.05875022570232e+000

2.20086690902357e+005,-3.59017776255061e+001,-4.11431695273467e+000

2.23158986616063e+005,-3.59022994167161e+001,-4.17062721776819e+000

2.26274169979693e+005,-3.59028318954602e+001,-4.22769075686263e+000

2.29432839682530e+005,-3.59033752189361e+001,-4.28551744476178e+000

2.32635602771247e+005,-3.59039295454181e+001,-4.34411729771761e+000

2.35883074766574e+005,-3.59044950343215e+001,-4.40350047637440e+000

2.39175879781588e+005,-3.59050718462766e+001,-4.46367728871416e+000

2.42514650641661e+005,-3.59056601432127e+001,-4.52465819305970e+000

2.45900029006080e+005,-3.59062600884534e+001,-4.58645380113697e+000

2.49332665491357e+005,-3.59068718468227e+001,-4.64907488119040e+000

2.52813219796278e+005,-3.59074955847639e+001,-4.71253236115360e+000

2.56342360828676e+005,-3.59081314704701e+001,-4.77683733186935e+000

2.59920766833993e+005,-3.59087796740281e+001,-4.84200105035808e+000

2.63549125525621e+005,-3.59094403675751e+001,-4.90803494313357e+000

2.67228134217075e+005,-3.59101137254703e+001,-4.97495060955769e+000

2.70958499956006e+005,-3.59107999244800e+001,-5.04275982523800e+000

2.74740939660078e+005,-3.59114991439774e+001,-5.11147454545817e+000

2.78576180254757e+005,-3.59122115661577e+001,-5.18110690864204e+000

2.82464958813007e+005,-3.59129373762690e+001,-5.25166923984615e+000

2.86408022696948e+005,-3.59136767628583e+001,-5.32317405427516e+000

2.90406129701488e+005,-3.59144299180337e+001,-5.39563406081917e+000

2.94460048199957e+005,-3.59151970377437e+001,-5.46906216560553e+000

2.98570557291775e+005,-3.59159783220718e+001,-5.54347147556296e+000

3.02738446952187e+005,-3.59167739755486e+001,-5.61887530199268e+000

3.06964518184081e+005,-3.59175842074806e+001,-5.69528716414118e+000

3.11249583171928e+005,-3.59184092322956e+001,-5.77272079277254e+000

3.15594465437872e+005,-3.59192492699055e+001,-5.85119013373121e+000

3.19999999999997e+005,-3.59201045460858e+001,-5.93070935149642e+000

3.24467033532806e+005,-3.59209752928718e+001,-6.01129283271759e+000

3.28996424529938e+005,-3.59218617489719e+001,-6.09295518973106e+000

3.33589043469155e+005,-3.59227641601978e+001,-6.17571126404982e+000

3.38245772979638e+005,-3.59236827799105e+001,-6.25957612982449e+000

3.42967508011610e+005,-3.59246178694831e+001,-6.34456509726921e+000

3.47755156008335e+005,-3.59255696987796e+001,-6.43069371604987e+000

3.52609637080511e+005,-3.59265385466490e+001,-6.51797777862887e+000

3.57531884183106e+005,-3.59275247014354e+001,-6.60643332356449e+000

3.62522843294651e+005,-3.59285284615021e+001,-6.69607663875808e+000

3.67583473599047e+005,-3.59295501357713e+001,-6.78692426465055e+000

3.72714747669902e+005,-3.59305900442776e+001,-6.87899299735857e+000

3.77917651657445e+005,-3.59316485187345e+001,-6.97229989175348e+000

3.83193185478053e+005,-3.59327259031149e+001,-7.06686226447585e+000

3.88542363006410e+005,-3.59338225542439e+001,-7.16269769688627e+000

3.93966212270369e+005,-3.59349388424036e+001,-7.25982403794728e+000

3.99465775648511e+005,-3.59360751519499e+001,-7.35825940703746e+000

4.05042110070485e+005,-3.59372318819397e+001,-7.45802219669415e+000

4.10696287220124e+005,-3.59384094467690e+001,-7.55913107528533e+000

4.16429393741414e+005,-3.59396082768213e+001,-7.66160498960681e+000

4.22242531447321e+005,-3.59408288191241e+001,-7.76546316740780e+000

4.28136817531551e+005,-3.59420715380160e+001,-7.87072511984172e+000

4.34113384783250e+005,-3.59433369158205e+001,-7.97741064384393e+000

4.40173381804713e+005,-3.59446254535289e+001,-8.08553982443555e+000

4.46317973232124e+005,-3.59459376714895e+001,-8.19513303695434e+000

4.52548339959385e+005,-3.59472741101046e+001,-8.30621094921457e+000

4.58865679365059e+005,-3.59486353305334e+001,-8.41879452359396e+000

4.65271205542494e+005,-3.59500219154010e+001,-8.53290501905374e+000

4.71766149533147e+005,-3.59514344695134e+001,-8.64856399308753e+000

4.78351759563174e+005,-3.59528736205777e+001,-8.76579330360606e+000

4.85029301283321e+005,-3.59543400199274e+001,-8.88461511075659e+000

4.91800058012158e+005,-3.59558343432528e+001,-9.00505187867952e+000

4.98665330982714e+005,-3.59573572913357e+001,-9.12712637720482e+000

5.05626439592555e+005,-3.59589095907889e+001,-9.25086168348999e+000

5.12684721657352e+005,-3.59604919948006e+001,-9.37628118360227e+000

5.19841533667984e+005,-3.59621052838820e+001,-9.50340857404748e+000

5.27098251051240e+005,-3.59637502666208e+001,-9.63226786324599e+000

5.34456268434150e+005,-3.59654277804381e+001,-9.76288337296113e+000

5.41916999912011e+005,-3.59671386923503e+001,-9.89527973967970e+000

