Freq.,VOut,OutRef

1.00000000000000e+004,-5.98746084787452e+000,-6.31493726926800e-002

1.01395947979003e+004,-5.98746156190554e+000,-6.40307797443265e-002

1.02811382665607e+004,-5.98746229598310e+000,-6.49244854618002e-002

1.04246576084112e+004,-5.98746305066933e+000,-6.58306613015405e-002

1.05701804056138e+004,-5.98746382654170e+000,-6.67494811068627e-002

1.07177346253629e+004,-5.98746462419400e+000,-6.76811211359774e-002

1.08673486252606e+004,-5.98746544423700e+000,-6.86257600954487e-002

1.10190511587661e+004,-5.98746628729820e+000,-6.95835791775484e-002

1.11728713807222e+004,-5.98746715402224e+000,-7.05547620950370e-002

1.13288388529580e+004,-5.98746804507265e+000,-7.15394951079147e-002

1.14869835499703e+004,-5.98746896113076e+000,-7.25379670687656e-002

1.16473358646846e+004,-5.98746990289741e+000,-7.35503694501603e-002

1.18099266142953e+004,-5.98747087109250e+000,-7.45768963879513e-002

1.19747870461893e+004,-5.98747186645648e+000,-7.56177447110580e-002

1.21419488439505e+004,-5.98747288975009e+000,-7.66731139837671e-002

1.23114441334492e+004,-5.98747394175554e+000,-7.77432065398991e-002

1.24833054890161e+004,-5.98747502327699e+000,-7.88282275209165e-002

1.26575659397028e+004,-5.98747613514048e+000,-7.99283849191862e-002

1.28342589756290e+004,-5.98747727819593e+000,-8.10438896077810e-002

1.30134185544193e+004,-5.98747845331580e+000,-8.21749553936140e-002

1.31950791077289e+004,-5.98747966139832e+000,-8.33217990400264e-002

1.33792755478611e+004,-5.98748090336511e+000,-8.44846403271440e-002

1.35660432744767e+004,-5.98748218016481e+000,-8.56637020749191e-002

1.37554181813974e+004,-5.98748349277175e+000,-8.68592101968752e-002

1.39474366635040e+004,-5.98748484218767e+000,-8.80713937370016e-002

1.41421356237309e+004,-5.98748622944198e+000,-8.93004849148330e-002

1.43395524801583e+004,-5.98748765559266e+000,-9.05467191680381e-002

1.45397251732031e+004,-5.98748912172787e+000,-9.18103351923760e-002

1.47426921729110e+004,-5.98749062896491e+000,-9.30915749956225e-002

1.49484924863494e+004,-5.98749217845265e+000,-9.43906839346747e-002

1.51571656651040e+004,-5.98749377137238e+000,-9.57079107601030e-002

1.53687518128801e+004,-5.98749540893750e+000,-9.70435076701882e-002

1.55832915932100e+004,-5.98749709239505e+000,-9.83977303534332e-002

1.58008262372675e+004,-5.98749882302719e+000,-9.97708380334855e-002

1.60213975517924e+004,-5.98750060215171e+000,-1.01163093518251e-001

1.62450479271247e+004,-5.98750243112207e+000,-1.02574763256454e-001

1.64718203453514e+004,-5.98750431133042e+000,-1.04006117372493e-001

1.67017583885674e+004,-5.98750624420659e+000,-1.05457429730451e-001

1.69349062472505e+004,-5.98750823122026e+000,-1.06928977976297e-001

1.71713087287550e+004,-5.98751027388237e+000,-1.08421043588472e-001

1.74110112659224e+004,-5.98751237374486e+000,-1.09933911937146e-001

1.76540599258131e+004,-5.98751453240285e+000,-1.11467872330929e-001

1.79005014185594e+004,-5.98751675149609e+000,-1.13023218067646e-001

1.81503831063432e+004,-5.98751903270907e+000,-1.14600246495485e-001

1.84037530124975e+004,-5.98752137777297e+000,-1.16199259062641e-001

1.86606598307361e+004,-5.98752378846688e+000,-1.17820561373026e-001

1.89211529345119e+004,-5.98752626661886e+000,-1.19464463243006e-001

1.91852823865052e+004,-5.98752881410753e+000,-1.21131278757629e-001

1.94530989482457e+004,-5.98753143286321e+000,-1.22821326327104e-001

1.97246540898671e+004,-5.98753412486974e+000,-1.24534928744515e-001

1.99999999999999e+004,-5.98753689216493e+000,-1.26272413248459e-001

2.02791895958005e+004,-5.98753973684312e+000,-1.28034111577327e-001

2.05622765331213e+004,-5.98754266105633e+000,-1.29820360030427e-001

2.08493152168224e+004,-5.98754566701567e+000,-1.31631499530196e-001

2.11403608112276e+004,-5.98754875699292e+000,-1.33467875683799e-001

2.14354692507258e+004,-5.98755193332206e+000,-1.35329838845404e-001

2.17346972505211e+004,-5.98755519840130e+000,-1.37217744178112e-001

2.20381023175322e+004,-5.98755855469497e+000,-1.39131951715116e-001

2.23457427614443e+004,-5.98756200473438e+000,-1.41072826430834e-001

2.26576777059159e+004,-5.98756555112013e+000,-1.43040738302706e-001

2.29739670999406e+004,-5.98756919652439e+000,-1.45036062374193e-001

2.32946717293690e+004,-5.98757294369206e+000,-1.47059178826469e-001

2.36198532285905e+004,-5.98757679544322e+000,-1.49110473042521e-001

2.39495740923785e+004,-5.98758075467464e+000,-1.51190335678687e-001

2.42838976879009e+004,-5.98758482436209e+000,-1.53299162731601e-001

2.46228882668982e+004,-5.98758900756300e+000,-1.55437355604767e-001

2.49666109780322e+004,-5.98759330741717e+000,-1.57605321187915e-001

2.53151318794055e+004,-5.98759772715029e+000,-1.59803471920369e-001

2.56685179512580e+004,-5.98760227007577e+000,-1.62032225865957e-001

2.60268371088386e+004,-5.98760693959648e+000,-1.64292006788647e-001

2.63901582154578e+004,-5.98761173920823e+000,-1.66583244220248e-001

2.67585510957221e+004,-5.98761667250073e+000,-1.68906373543415e-001

2.71320865489533e+004,-5.98762174316151e+000,-1.71261836058376e-001

2.75108363627948e+004,-5.98762695497720e+000,-1.73650079066750e-001

2.78948733270080e+004,-5.98763231183727e+000,-1.76071555941542e-001

2.82842712474618e+004,-5.98763781773526e+000,-1.78526726212469e-001

2.86791049603164e+004,-5.98764347677316e+000,-1.81016055636225e-001

2.90794503464061e+004,-5.98764929316279e+000,-1.83540016283071e-001

2.94853843458219e+004,-5.98765527122896e+000,-1.86099086615121e-001

2.98969849726987e+004,-5.98766141541285e+000,-1.88693751564660e-001

3.03143313302078e+004,-5.98766773027461e+000,-1.91324502618577e-001

3.07375036257601e+004,-5.98767422049608e+000,-1.93991837901546e-001

3.11665831864199e+004,-5.98768089088460e+000,-1.96696262256422e-001

3.16016524745350e+004,-5.98768774637548e+000,-1.99438287332057e-001

3.20427951035848e+004,-5.98769479203546e+000,-2.02218431666740e-001

3.24900958542493e+004,-5.98770203306639e+000,-2.05037220771974e-001

3.29436406907028e+004,-5.98770947480763e+000,-2.07895187225014e-001

3.34035167771346e+004,-5.98771712274059e+000,-2.10792870749276e-001

3.38698124945009e+004,-5.98772498249133e+000,-2.13730818308322e-001

3.43426174575100e+004,-5.98773305983480e+000,-2.16709584190378e-001

3.48220225318448e+004,-5.98774136069819e+000,-2.19729730100588e-001

3.53081198516260e+004,-5.98774989116455e+000,-2.22791825251297e-001

3.58010028371187e+004,-5.98775865747645e+000,-2.25896446454824e-001

3.63007662126863e+004,-5.98776766604083e+000,-2.29044178209210e-001

3.68075060249948e+004,-5.98777692343124e+000,-2.32235612801622e-001

3.73213196614721e+004,-5.98778643639378e+000,-2.35471350389696e-001

3.78423058690237e+004,-5.98779621184945e+000,-2.38751999106637e-001

3.83705647730104e+004,-5.98780625689950e+000,-2.42078175148939e-001

3.89061978964912e+004,-5.98781657882923e+000,-2.45450502874824e-001

3.94493081797342e+004,-5.98782718511215e+000,-2.48869614901242e-001

3.99999999999998e+004,-5.98783808341485e+000,-2.52336152198273e-001

4.05583791916010e+004,-5.98784928160109e+000,-2.55850764188571e-001

4.11245530662425e+004,-5.98786078773638e+000,-2.59414108846500e-001

4.16986304336447e+004,-5.98787261009261e+000,-2.63026852795134e-001

4.22807216224550e+004,-5.98788475715296e+000,-2.66689671406330e-001

4.28709385014515e+004,-5.98789723761605e+000,-2.70403248903440e-001

4.34693945010421e+004,-5.98791006040186e+000,-2.74168278455564e-001

4.40762046350642e+004,-5.98792323465556e+000,-2.77985462285943e-001

4.46914855228886e+004,-5.98793676975259e+000,-2.81855511771613e-001

4.53153554118317e+004,-5.98795067530453e+000,-2.85779147542563e-001

4.59479341998812e+004,-5.98796496116345e+000,-2.89757099587426e-001

4.65893434587380e+004,-5.98797963742710e+000,-2.93790107357268e-001

4.72397064571810e+004,-5.98799471444447e+000,-2.97878919867390e-001

4.78991481847569e+004,-5.98801020282076e+000,-3.02024295803151e-001

4.85677953758016e+004,-5.98802611342292e+000,-3.06227003622849e-001

4.92457765337964e+004,-5.98804245738491e+000,-3.10487821664056e-001

4.99332219560642e+004,-5.98805924611300e+000,-3.14807538249389e-001

5.06302637588109e+004,-5.98807649129170e+000,-3.19186951788805e-001

5.13370359025159e+004,-5.98809420488861e+000,-3.23626870889936e-001

5.20536742176771e+004,-5.98811239916059e+000,-3.28128114460787e-001

5.27803164309155e+004,-5.98813108665891e+000,-3.32691511817589e-001

5.35171021914442e+004,-5.98815028023496e+000,-3.37317902791695e-001

5.42641730979066e+004,-5.98816999304601e+000,-3.42008137834833e-001

5.50216727255895e+004,-5.98819023856038e+000,-3.46763078128376e-001

5.57897466540159e+004,-5.98821103056385e+000,-3.51583595686546e-001

5.65685424949235e+004,-5.98823238316465e+000,-3.56470573466248e-001

5.73582099206328e+004,-5.98825431079916e+000,-3.61424905474598e-001

5.81589006928121e+004,-5.98827682823747e+000,-3.66447496874340e-001

5.89707686916437e+004,-5.98829995058954e+000,-3.71539264089800e-001

5.97939699453972e+004,-5.98832369330997e+000,-3.76701134916174e-001

6.06286626604156e+004,-5.98834807220378e+000,-3.81934048625731e-001

6.14750072515201e+004,-5.98837310343190e+000,-3.87238956073454e-001

6.23331663728396e+004,-5.98839880351645e+000,-3.92616819804535e-001

6.32033049490698e+004,-5.98842518934616e+000,-3.98068614158420e-001

6.40855902071694e+004,-5.98845227818146e+000,-4.03595325377435e-001

6.49801917084985e+004,-5.98848008765919e+000,-4.09197951712114e-001

6.58872813814055e+004,-5.98850863579817e+000,-4.14877503525027e-001

6.68070335542691e+004,-5.98853794100376e+000,-4.20635003395572e-001

6.77396249890018e+004,-5.98856802207237e+000,-4.26471486226405e-001

6.86852349150199e+004,-5.98859889819605e+000,-4.32387999346599e-001

6.96440450636895e+004,-5.98863058896687e+000,-4.38385602614889e-001

7.06162397032520e+004,-5.98866311438098e+000,-4.44465368522557e-001

7.16020056742374e+004,-5.98869649484226e+000,-4.50628382298481e-001

7.26015324253724e+004,-5.98873075116621e+000,-4.56875742008537e-001

7.36150120499896e+004,-5.98876590458311e+000,-4.63208558658913e-001

7.46426393229441e+004,-5.98880197674131e+000,-4.69627956295157e-001

7.56846117380472e+004,-5.98883898970961e+000,-4.76135072105560e-001

7.67411295460207e+004,-5.98887696597968e+000,-4.82731056519841e-001

7.78123957929823e+004,-5.98891592846857e+000,-4.89417073306491e-001

7.88986163594682e+004,-5.98895590051973e+000,-4.96194299674137e-001

7.99999999999995e+004,-5.98899690590431e+000,-5.03063926369222e-001

8.11167583832018e+004,-5.98903896882232e+000,-5.10027157771788e-001

8.22491061324848e+004,-5.98908211390222e+000,-5.17085211995258e-001

8.33972608672892e+004,-5.98912636620125e+000,-5.24239320979901e-001

8.45614432449099e+004,-5.98917175120422e+000,-5.31490730591070e-001

8.57418770029029e+004,-5.98921829482219e+000,-5.38840700713807e-001

8.69387890020841e+004,-5.98926602339065e+000,-5.46290505347349e-001

8.81524092701283e+004,-5.98931496366626e+000,-5.53841432701785e-001

8.93829710457770e+004,-5.98936514282416e+000,-5.61494785290088e-001

9.06307108236633e+004,-5.98941658845322e+000,-5.69251880024536e-001

9.18958683997622e+004,-5.98946932855144e+000,-5.77114048309061e-001

9.31786869174758e+004,-5.98952339152004e+000,-5.85082636135225e-001

9.44794129143618e+004,-5.98957880615721e+000,-5.93159004172969e-001

9.57982963695136e+004,-5.98963560164974e+000,-6.01344527871031e-001

9.71355907516031e+004,-5.98969380756562e+000,-6.09640597544253e-001

9.84915530675926e+004,-5.98975345384373e+000,-6.18048618475005e-001

9.98664439121282e+004,-5.98981457078344e+000,-6.26570011007382e-001

1.01260527517622e+005,-5.98987718903334e+000,-6.35206210641741e-001

1.02674071805032e+005,-5.98994133957789e+000,-6.43958668136915e-001

1.04107348435354e+005,-5.99000705372394e+000,-6.52828849605555e-001

1.05560632861831e+005,-5.99007436308503e+000,-6.61818236617825e-001

1.07034204382888e+005,-5.99014329956518e+000,-6.70928326302798e-001

1.08528346195813e+005,-5.99021389534062e+000,-6.80160631454507e-001

1.10043345451179e+005,-5.99028618284080e+000,-6.89516680638277e-001

1.11579493308032e+005,-5.99036019472719e+000,-6.98998018302856e-001

1.13137084989847e+005,-5.99043596387172e+000,-7.08606204889526e-001

1.14716419841265e+005,-5.99051352333187e+000,-7.18342816955323e-001

1.16317801385624e+005,-5.99059290632605e+000,-7.28209447289081e-001

1.17941537383287e+005,-5.99067414620597e+000,-7.38207705039229e-001

1.19587939890794e+005,-5.99075727642801e+000,-7.48339215842945e-001

1.21257325320831e+005,-5.99084233052240e+000,-7.58605621963172e-001

1.22950014503040e+005,-5.99092934206086e+000,-7.69008582428875e-001

1.24666332745679e+005,-5.99101834462233e+000,-7.79549773184304e-001

1.26406609898139e+005,-5.99110937175643e+000,-7.90230887244910e-001

1.28171180414339e+005,-5.99120245694570e+000,-8.01053634858520e-001

1.29960383416997e+005,-5.99129763356515e+000,-8.12019743678387e-001

1.31774562762811e+005,-5.99139493484028e+000,-8.23130958942857e-001

1.33614067108538e+005,-5.99149439380249e+000,-8.34389043667118e-001

1.35479249978003e+005,-5.99159604324317e+000,-8.45795778841842e-001

1.37370469830040e+005,-5.99169991566495e+000,-8.57352963648113e-001

1.39288090127379e+005,-5.99180604323110e+000,-8.69062415680570e-001

1.41232479406504e+005,-5.99191445771323e+000,-8.80925971183684e-001

1.43204011348474e+005,-5.99202519043557e+000,-8.92945485307065e-001

1.45203064850745e+005,-5.99213827221889e+000,-9.05122832367107e-001

1.47230024099979e+005,-5.99225373332059e+000,-9.17459906131941e-001

1.49285278645888e+005,-5.99237160337344e+000,-9.29958620120403e-001

1.51369223476094e+005,-5.99249191132242e+000,-9.42620907915661e-001

1.53482259092041e+005,-5.99261468535841e+000,-9.55448723505175e-001

1.55624791585964e+005,-5.99273995285126e+000,-9.68444041630556e-001

1.57797232718936e+005,-5.99286774027941e+000,-9.81608858167033e-001

1.59999999999999e+005,-5.99299807315829e+000,-9.94945190520537e-001

1.62233516766403e+005,-5.99313097596678e+000,-1.00845507804703e+000

1.64498212264969e+005,-5.99326647207132e+000,-1.02214058249967e+000

1.66794521734578e+005,-5.99340458364866e+000,-1.03600378849718e+000

1.69122886489819e+005,-5.99354533160684e+000,-1.05004680402109e+000

1.71483754005805e+005,-5.99368873550432e+000,-1.06427176093903e+000

1.73877578004168e+005,-5.99383481346791e+000,-1.07868081555713e+000

1.76304818540256e+005,-5.99398358210915e+000,-1.09327614920266e+000

1.78765942091554e+005,-5.99413505643923e+000,-1.10805996883618e+000

1.81261421647326e+005,-5.99428924978361e+000,-1.12303450769453e+000

1.83791736799524e+005,-5.99444617369458e+000,-1.13820202597038e+000

1.86357373834951e+005,-5.99460583786391e+000,-1.15356481152083e+000

1.88958825828723e+005,-5.99476825003476e+000,-1.16912518061320e+000

1.91596592739027e+005,-5.99493341591292e+000,-1.18488547870568e+000

1.94271181503206e+005,-5.99510133907795e+000,-1.20084808126534e+000

1.96983106135185e+005,-5.99527202089467e+000,-1.21701539462159e+000

1.99732887824256e+005,-5.99544546042457e+000,-1.23338985685843e+000

2.02521055035243e+005,-5.99562165433782e+000,-1.24997393874572e+000

2.05348143610063e+005,-5.99580059682633e+000,-1.26677014470713e+000

2.08214696870707e+005,-5.99598227951722e+000,-1.28378101383142e+000

2.11121265723661e+005,-5.99616669138836e+000,-1.30100912091986e+000

2.14068408765776e+005,-5.99635381868490e+000,-1.31845707757546e+000

2.17056692391625e+005,-5.99654364483795e+000,-1.33612753333242e+000

2.20086690902357e+005,-5.99673615038543e+000,-1.35402317682516e+000

2.23158986616063e+005,-5.99693131289527e+000,-1.37214673699835e+000

2.26274169979693e+005,-5.99712910689151e+000,-1.39050098435622e+000

2.29432839682530e+005,-5.99732950378353e+000,-1.40908873225110e+000

2.32635602771247e+005,-5.99753247179840e+000,-1.42791283821257e+000

2.35883074766574e+005,-5.99773797591748e+000,-1.44697620531244e+000

2.39175879781588e+005,-5.99794597781646e+000,-1.46628178356974e+000

2.42514650641661e+005,-5.99815643581016e+000,-1.48583257139085e+000

2.45900029006080e+005,-5.99836930480183e+000,-1.50563161704554e+000

2.49332665491357e+005,-5.99858453623725e+000,-1.52568202017809e+000

2.52813219796278e+005,-5.99880207806459e+000,-1.54598693334820e+000

2.56342360828676e+005,-5.99902187469875e+000,-1.56654956360858e+000

2.59920766833993e+005,-5.99924386699286e+000,-1.58737317410537e+000

2.63549125525621e+005,-5.99946799221448e+000,-1.60846108571238e+000

2.67228134217075e+005,-5.99969418402902e+000,-1.62981667868623e+000

2.70958499956006e+005,-5.99992237248901e+000,-1.65144339434817e+000

2.74740939660078e+005,-6.00015248403059e+000,-1.67334473678469e+000

2.78576180254757e+005,-6.00038444147630e+000,-1.69552427456842e+000

2.82464958813007e+005,-6.00061816404537e+000,-1.71798564249434e+000

2.86408022696948e+005,-6.00085356737082e+000,-1.74073254332999e+000

2.90406129701488e+005,-6.00109056352391e+000,-1.76376874957598e+000

2.94460048199957e+005,-6.00132906104597e+000,-1.78709810523479e+000

2.98570557291775e+005,-6.00156896498717e+000,-1.81072452758506e+000

3.02738446952187e+005,-6.00181017695332e+000,-1.83465200895616e+000

3.06964518184081e+005,-6.00205259515924e+000,-1.85888461850421e+000

3.11249583171928e+005,-6.00229611449013e+000,-1.88342650398220e+000

3.15594465437872e+005,-6.00254062656926e+000,-1.90828189350469e+000

3.19999999999997e+005,-6.00278601983349e+000,-1.93345509730141e+000

3.24467033532806e+005,-6.00303217961525e+000,-1.95895050945777e+000

3.28996424529938e+005,-6.00327898823123e+000,-1.98477260964027e+000

3.33589043469155e+005,-6.00352632507740e+000,-2.01092596480351e+000

3.38245772979638e+005,-6.00377406673063e+000,-2.03741523087256e+000

3.42967508011610e+005,-6.00402208705567e+000,-2.06424515440603e+000

3.47755156008335e+005,-6.00427025731785e+000,-2.09142057422722e+000

3.52609637080511e+005,-6.00451844630109e+000,-2.11894642302875e+000

3.57531884183106e+005,-6.00476652043046e+000,-2.14682772894533e+000

3.62522843294651e+005,-6.00501434389914e+000,-2.17506961709191e+000

3.67583473599047e+005,-6.00526177879935e+000,-2.20367731106680e+000

3.72714747669902e+005,-6.00550868525652e+000,-2.23265613441752e+000

3.77917651657445e+005,-6.00575492156652e+000,-2.26201151206610e+000

3.83193185478053e+005,-6.00600034433518e+000,-2.29174897169760e+000

3.88542363006410e+005,-6.00624480861969e+000,-2.32187414510316e+000

3.93966212270369e+005,-6.00648816807121e+000,-2.35239276948441e+000

3.99465775648511e+005,-6.00673027507840e+000,-2.38331068871317e+000

4.05042110070485e+005,-6.00697098091085e+000,-2.41463385454957e+000

4.10696287220124e+005,-6.00721013586227e+000,-2.44636832781624e+000

4.16429393741414e+005,-6.00744758939267e+000,-2.47852027952964e+000

4.22242531447321e+005,-6.00768319026876e+000,-2.51109599199141e+000

4.28136817531551e+005,-6.00791678670246e+000,-2.54410185983418e+000

4.34113384783250e+005,-6.00814822648646e+000,-2.57754439103161e+000

4.40173381804713e+005,-6.00837735712654e+000,-2.61143020786543e+000

4.46317973232124e+005,-6.00860402597018e+000,-2.64576604785759e+000

4.52548339959385e+005,-6.00882808033062e+000,-2.68055876466380e+000

4.58865679365059e+005,-6.00904936760600e+000,-2.71581532893725e+000

4.65271205542494e+005,-6.00926773539342e+000,-2.75154282915589e+000

4.71766149533147e+005,-6.00948303159685e+000,-2.78774847242414e+000

4.78351759563174e+005,-6.00969510452879e+000,-2.82443958524650e+000

4.85029301283321e+005,-6.00990380300534e+000,-2.86162361427779e+000

4.91800058012158e+005,-6.01010897643402e+000,-2.89930812705207e+000

4.98665330982714e+005,-6.01031047489441e+000,-2.93750081269393e+000

5.05626439592555e+005,-6.01050814921041e+000,-2.97620948261611e+000

5.12684721657352e+005,-6.01070185101532e+000,-3.01544207120431e+000

5.19841533667984e+005,-6.01089143280753e+000,-3.05520663649647e+000

5.27098251051240e+005,-6.01107674799861e+000,-3.09551136085473e+000

5.34456268434150e+005,-6.01125765095179e+000,-3.13636455164070e+000

5.41916999912011e+005,-6.01143399701233e+000,-3.17777464188905e+000

