Freq.,VOut,OutRef

1.00000000000000e+004,-2.78135170129318e+001,-2.71000980341871e-001

1.01395947979003e+004,-2.78135192758731e+001,-2.74783778980130e-001

1.02811382665607e+004,-2.78135216023849e+001,-2.78619373587997e-001

1.04246576084112e+004,-2.78135239942516e+001,-2.82508500748837e-001

1.05701804056138e+004,-2.78135264533075e+001,-2.86451907310078e-001

1.07177346253629e+004,-2.78135289814385e+001,-2.90450350526396e-001

1.08673486252606e+004,-2.78135315805831e+001,-2.94504598203829e-001

1.10190511587661e+004,-2.78135342527345e+001,-2.98615428846168e-001

1.11728713807222e+004,-2.78135369999414e+001,-3.02783631804119e-001

1.13288388529580e+004,-2.78135398243098e+001,-3.07010007425497e-001

1.14869835499703e+004,-2.78135427280050e+001,-3.11295367206767e-001

1.16473358646846e+004,-2.78135457132529e+001,-3.15640533949392e-001

1.18099266142953e+004,-2.78135487823413e+001,-3.20046341916585e-001

1.19747870461893e+004,-2.78135519376226e+001,-3.24513636990051e-001

1.21419488439505e+004,-2.78135551815149e+001,-3.29043276832901e-001

1.23114441334492e+004,-2.78135585165037e+001,-3.33636131053219e-001

1.24833054890161e+004,-2.78135619451445e+001,-3.38293081368612e-001

1.26575659397028e+004,-2.78135654700640e+001,-3.43015021774627e-001

1.28342589756290e+004,-2.78135690939625e+001,-3.47802858715216e-001

1.30134185544193e+004,-2.78135728196159e+001,-3.52657511253191e-001

1.31950791077289e+004,-2.78135766498775e+001,-3.57579911247920e-001

1.33792755478611e+004,-2.78135805876809e+001,-3.62571003530316e-001

1.35660432744767e+004,-2.78135846360413e+001,-3.67631746082753e-001

1.37554181813974e+004,-2.78135887980583e+001,-3.72763110221805e-001

1.39474366635040e+004,-2.78135930769184e+001,-3.77966080782554e-001

1.41421356237309e+004,-2.78135974758969e+001,-3.83241656304651e-001

1.43395524801583e+004,-2.78136019983606e+001,-3.88590849223001e-001

1.45397251732031e+004,-2.78136066477708e+001,-3.94014686059135e-001

1.47426921729110e+004,-2.78136114276849e+001,-3.99514207617075e-001

1.49484924863494e+004,-2.78136163417602e+001,-4.05090469177920e-001

1.51571656651040e+004,-2.78136213937557e+001,-4.10744540703965e-001

1.53687518128801e+004,-2.78136265875360e+001,-4.16477507036324e-001

1.55832915932100e+004,-2.78136319270729e+001,-4.22290468106444e-001

1.58008262372675e+004,-2.78136374164494e+001,-4.28184539137692e-001

1.60213975517924e+004,-2.78136430598625e+001,-4.34160850862878e-001

1.62450479271247e+004,-2.78136488616261e+001,-4.40220549732817e-001

1.64718203453514e+004,-2.78136548261747e+001,-4.46364798136291e-001

1.67017583885674e+004,-2.78136609580662e+001,-4.52594774618328e-001

1.69349062472505e+004,-2.78136672619857e+001,-4.58911674102639e-001

1.71713087287550e+004,-2.78136737427492e+001,-4.65316708118231e-001

1.74110112659224e+004,-2.78136804053064e+001,-4.71811105028252e-001

1.76540599258131e+004,-2.78136872547452e+001,-4.78396110259797e-001

1.79005014185594e+004,-2.78136942962953e+001,-4.85072986539978e-001

1.81503831063432e+004,-2.78137015353319e+001,-4.91843014134020e-001

1.84037530124975e+004,-2.78137089773800e+001,-4.98707491085451e-001

1.86606598307361e+004,-2.78137166281181e+001,-5.05667733461025e-001

1.89211529345119e+004,-2.78137244933830e+001,-5.12725075598866e-001

1.91852823865052e+004,-2.78137325791740e+001,-5.19880870357067e-001

1.94530989482457e+004,-2.78137408916566e+001,-5.27136489371072e-001

1.97246540898671e+004,-2.78137494371685e+001,-5.34493323306823e-001

1.99999999999999e+004,-2.78137582222230e+001,-5.41952782127572e-001

2.02791895958005e+004,-2.78137672535146e+001,-5.49516295351874e-001

2.05622765331213e+004,-2.78137765379237e+001,-5.57185312326518e-001

2.08493152168224e+004,-2.78137860825217e+001,-5.64961302494707e-001

2.11403608112276e+004,-2.78137958945764e+001,-5.72845755672174e-001

2.14354692507258e+004,-2.78138059815570e+001,-5.80840182326121e-001

2.17346972505211e+004,-2.78138163511401e+001,-5.88946113857091e-001

2.20381023175322e+004,-2.78138270112150e+001,-5.97165102883670e-001

2.23457427614443e+004,-2.78138379698898e+001,-6.05498723533474e-001

2.26576777059159e+004,-2.78138492354970e+001,-6.13948571737034e-001

2.29739670999406e+004,-2.78138608166000e+001,-6.22516265522996e-001

2.32946717293690e+004,-2.78138727219992e+001,-6.31203445320948e-001

2.36198532285905e+004,-2.78138849607384e+001,-6.40011774264062e-001

2.39495740923785e+004,-2.78138975421117e+001,-6.48942938501477e-001

2.42838976879009e+004,-2.78139104756698e+001,-6.57998647508663e-001

2.46228882668982e+004,-2.78139237712277e+001,-6.67180634403467e-001

2.49666109780322e+004,-2.78139374388709e+001,-6.76490656270303e-001

2.53151318794055e+004,-2.78139514889639e+001,-6.85930494481875e-001

2.56685179512580e+004,-2.78139659321567e+001,-6.95501955030362e-001

2.60268371088386e+004,-2.78139807793930e+001,-7.05206868860050e-001

2.63901582154578e+004,-2.78139960419182e+001,-7.15047092205305e-001

2.67585510957221e+004,-2.78140117312875e+001,-7.25024506931309e-001

2.71320865489533e+004,-2.78140278593739e+001,-7.35141020883077e-001

2.75108363627948e+004,-2.78140444383772e+001,-7.45398568232330e-001

2.78948733270080e+004,-2.78140614808326e+001,-7.55799109835598e-001

2.82842712474618e+004,-2.78140789996197e+001,-7.66344633591452e-001

2.86791049603164e+004,-2.78140970079717e+001,-7.77037154806167e-001

2.90794503464061e+004,-2.78141155194851e+001,-7.87878716560973e-001

2.94853843458219e+004,-2.78141345481290e+001,-7.98871390085752e-001

2.98969849726987e+004,-2.78141541082554e+001,-8.10017275135140e-001

3.03143313302078e+004,-2.78141742146093e+001,-8.21318500374419e-001

3.07375036257601e+004,-2.78141948823390e+001,-8.32777223762198e-001

3.11665831864199e+004,-2.78142161270072e+001,-8.44395632945657e-001

3.16016524745350e+004,-2.78142379646016e+001,-8.56175945653928e-001

3.20427951035848e+004,-2.78142604115465e+001,-8.68120410102542e-001

3.24900958542493e+004,-2.78142834847138e+001,-8.80231305397528e-001

3.29436406907028e+004,-2.78143072014357e+001,-8.92510941947374e-001

3.34035167771346e+004,-2.78143315795158e+001,-9.04961661878964e-001

3.38698124945009e+004,-2.78143566372423e+001,-9.17585839458126e-001

3.43426174575100e+004,-2.78143823934006e+001,-9.30385881516059e-001

3.48220225318448e+004,-2.78144088672858e+001,-9.43364227881348e-001

3.53081198516260e+004,-2.78144360787163e+001,-9.56523351814871e-001

3.58010028371187e+004,-2.78144640480482e+001,-9.69865760450898e-001

3.63007662126863e+004,-2.78144927961879e+001,-9.83393995244885e-001

3.68075060249948e+004,-2.78145223446076e+001,-9.97110632424728e-001

3.73213196614721e+004,-2.78145527153592e+001,-1.01101828344715e+000

3.78423058690237e+004,-2.78145839310900e+001,-1.02511959546018e+000

3.83705647730104e+004,-2.78146160150569e+001,-1.03941725177199e+000

3.89061978964912e+004,-2.78146489911437e+001,-1.05391397232099e+000

3.94493081797342e+004,-2.78146828838757e+001,-1.06861251415672e+000

3.99999999999998e+004,-2.78147177184369e+001,-1.08351567192244e+000

4.05583791916010e+004,-2.78147535206867e+001,-1.09862627834353e+000

4.11245530662425e+004,-2.78147903171770e+001,-1.11394720472404e+000

4.16986304336447e+004,-2.78148281351698e+001,-1.12948136144454e+000

4.22807216224550e+004,-2.78148670026551e+001,-1.14523169846862e+000

4.28709385014515e+004,-2.78149069483693e+001,-1.16120120585484e+000

4.34693945010421e+004,-2.78149480018142e+001,-1.17739291427205e+000

4.40762046350642e+004,-2.78149901932757e+001,-1.19380989552204e+000

4.46914855228886e+004,-2.78150335538439e+001,-1.21045526306883e+000

4.53153554118317e+004,-2.78150781154326e+001,-1.22733217256978e+000

4.59479341998812e+004,-2.78151239108003e+001,-1.24444382241716e+000

4.65893434587380e+004,-2.78151709735704e+001,-1.26179345428211e+000

4.72397064571810e+004,-2.78152193382531e+001,-1.27938435366546e+000

4.78991481847569e+004,-2.78152690402669e+001,-1.29721985045296e+000

4.85677953758016e+004,-2.78153201159605e+001,-1.31530331948010e+000

4.92457765337964e+004,-2.78153726026358e+001,-1.33363818109805e+000

4.99332219560642e+004,-2.78154265385710e+001,-1.35222790174679e+000

5.06302637588109e+004,-2.78154819630437e+001,-1.37107599453672e+000

5.13370359025159e+004,-2.78155389163552e+001,-1.39018601983259e+000

5.20536742176771e+004,-2.78155974398550e+001,-1.40956158584533e+000

5.27803164309155e+004,-2.78156575759653e+001,-1.42920634922831e+000

5.35171021914442e+004,-2.78157193682069e+001,-1.44912401568089e+000

5.42641730979066e+004,-2.78157828612246e+001,-1.46931834055663e+000

5.50216727255895e+004,-2.78158481008137e+001,-1.48979312947872e+000

5.57897466540159e+004,-2.78159151339464e+001,-1.51055223895957e+000

5.65685424949235e+004,-2.78159840087998e+001,-1.53159957702739e+000

5.73582099206328e+004,-2.78160547747826e+001,-1.55293910385988e+000

5.81589006928121e+004,-2.78161274825638e+001,-1.57457483242035e+000

5.89707686916437e+004,-2.78162021841014e+001,-1.59651082910319e+000

5.97939699453972e+004,-2.78162789326710e+001,-1.61875121438384e+000

6.06286626604156e+004,-2.78163577828958e+001,-1.64130016347504e+000

6.14750072515201e+004,-2.78164387907762e+001,-1.66416190698787e+000

6.23331663728396e+004,-2.78165220137203e+001,-1.68734073160125e+000

6.32033049490698e+004,-2.78166075105749e+001,-1.71084098073456e+000

6.40855902071694e+004,-2.78166953416565e+001,-1.73466705522892e+000

6.49801917084985e+004,-2.78167855687833e+001,-1.75882341403207e+000

6.58872813814055e+004,-2.78168782553070e+001,-1.78331457489119e+000

6.68070335542691e+004,-2.78169734661457e+001,-1.80814511505082e+000

6.77396249890018e+004,-2.78170712678165e+001,-1.83331967195686e+000

6.86852349150199e+004,-2.78171717284687e+001,-1.85884294396706e+000

6.96440450636895e+004,-2.78172749179179e+001,-1.88471969106726e+000

7.06162397032520e+004,-2.78173809076798e+001,-1.91095473559411e+000

7.16020056742374e+004,-2.78174897710045e+001,-1.93755296296416e+000

7.26015324253724e+004,-2.78176015829113e+001,-1.96451932240867e+000

7.36150120499896e+004,-2.78177164202235e+001,-1.99185882771452e+000

7.46426393229441e+004,-2.78178343616040e+001,-2.01957655797209e+000

7.56846117380472e+004,-2.78179554875909e+001,-2.04767765832966e+000

7.67411295460207e+004,-2.78180798806326e+001,-2.07616734075427e+000

7.78123957929823e+004,-2.78182076251247e+001,-2.10505088479714e+000

7.88986163594682e+004,-2.78183388074460e+001,-2.13433363836926e+000

7.99999999999995e+004,-2.78184735159942e+001,-2.16402101852115e+000

8.11167583832018e+004,-2.78186118412236e+001,-2.19411851222929e+000

8.22491061324848e+004,-2.78187538756809e+001,-2.22463167719130e+000

8.33972608672892e+004,-2.78188997140421e+001,-2.25556614262742e+000

8.45614432449099e+004,-2.78190494531496e+001,-2.28692761008735e+000

8.57418770029029e+004,-2.78192031920488e+001,-2.31872185426755e+000

8.69387890020841e+004,-2.78193610320246e+001,-2.35095472383479e+000

8.81524092701283e+004,-2.78195230766391e+001,-2.38363214225528e+000

8.93829710457770e+004,-2.78196894317671e+001,-2.41676010863586e+000

9.06307108236633e+004,-2.78198602056335e+001,-2.45034469856929e+000

9.18958683997622e+004,-2.78200355088491e+001,-2.48439206499112e+000

9.31786869174758e+004,-2.78202154544474e+001,-2.51890843904297e+000

9.44794129143618e+004,-2.78204001579197e+001,-2.55390013094584e+000

9.57982963695136e+004,-2.78205897372514e+001,-2.58937353088253e+000

9.71355907516031e+004,-2.78207843129570e+001,-2.62533510988898e+000

9.84915530675926e+004,-2.78209840081150e+001,-2.66179142075712e+000

9.98664439121282e+004,-2.78211889484024e+001,-2.69874909894558e+000

1.01260527517622e+005,-2.78213992621286e+001,-2.73621486350405e+000

1.02674071805032e+005,-2.78216150802688e+001,-2.77419551800656e+000

1.04107348435354e+005,-2.78218365364971e+001,-2.81269795149755e+000

1.05560632861831e+005,-2.78220637672185e+001,-2.85172913945003e+000

1.07034204382888e+005,-2.78222969116008e+001,-2.89129614473554e+000

1.08528346195813e+005,-2.78225361116051e+001,-2.93140611860983e+000

1.10043345451179e+005,-2.78227815120162e+001,-2.97206630170998e+000

1.11579493308032e+005,-2.78230332604715e+001,-3.01328402506735e+000

1.13137084989847e+005,-2.78232915074899e+001,-3.05506671113692e+000

1.14716419841265e+005,-2.78235564064992e+001,-3.09742187484022e+000

1.16317801385624e+005,-2.78238281138625e+001,-3.14035712462775e+000

1.17941537383287e+005,-2.78241067889040e+001,-3.18388016355858e+000

1.19587939890794e+005,-2.78243925939337e+001,-3.22799879039736e+000

1.21257325320831e+005,-2.78246856942708e+001,-3.27272090073352e+000

1.22950014503040e+005,-2.78249862582665e+001,-3.31805448811787e+000

1.24666332745679e+005,-2.78252944573251e+001,-3.36400764522489e+000

1.26406609898139e+005,-2.78256104659245e+001,-3.41058856503455e+000

1.28171180414339e+005,-2.78259344616355e+001,-3.45780554203961e+000

1.29960383416997e+005,-2.78262666251398e+001,-3.50566697347886e+000

1.31774562762811e+005,-2.78266071402466e+001,-3.55418136059531e+000

1.33614067108538e+005,-2.78269561939094e+001,-3.60335730992265e+000

1.35479249978003e+005,-2.78273139762397e+001,-3.65320353460286e+000

1.37370469830040e+005,-2.78276806805211e+001,-3.70372885573104e+000

1.39288090127379e+005,-2.78280565032222e+001,-3.75494220373603e+000

1.41232479406504e+005,-2.78284416440078e+001,-3.80685261979135e+000

1.43204011348474e+005,-2.78288363057498e+001,-3.85946925726437e+000

1.45203064850745e+005,-2.78292406945372e+001,-3.91280138319955e+000

1.47230024099979e+005,-2.78296550196848e+001,-3.96685837984330e+000

1.49285278645888e+005,-2.78300794937419e+001,-4.02164974620650e+000

1.51369223476094e+005,-2.78305143325002e+001,-4.07718509966987e+000

1.53482259092041e+005,-2.78309597550005e+001,-4.13347417763385e+000

1.55624791585964e+005,-2.78314159835407e+001,-4.19052683921412e+000

1.57797232718936e+005,-2.78318832436821e+001,-4.24835306698280e+000

1.59999999999999e+005,-2.78323617642564e+001,-4.30696296876107e+000

1.62233516766403e+005,-2.78328517773734e+001,-4.36636677946260e+000

1.64498212264969e+005,-2.78333535184281e+001,-4.42657486298906e+000

1.66794521734578e+005,-2.78338672261092e+001,-4.48759771418225e+000

1.69122886489819e+005,-2.78343931424087e+001,-4.54944596083120e+000

1.71483754005805e+005,-2.78349315126324e+001,-4.61213036574041e+000

1.73877578004168e+005,-2.78354825854117e+001,-4.67566182885632e+000

1.76304818540256e+005,-2.78360466127181e+001,-4.74005138945778e+000

1.78765942091554e+005,-2.78366238498791e+001,-4.80531022841099e+000

1.81261421647326e+005,-2.78372145555971e+001,-4.87144967048838e+000

1.83791736799524e+005,-2.78378189919714e+001,-4.93848118675784e+000

1.86357373834951e+005,-2.78384374245236e+001,-5.00641639703843e+000

1.88958825828723e+005,-2.78390701222263e+001,-5.07526707242930e+000

1.91596592739027e+005,-2.78397173575376e+001,-5.14504513790829e+000

1.94271181503206e+005,-2.78403794064385e+001,-5.21576267500585e+000

1.96983106135185e+005,-2.78410565484775e+001,-5.28743192455238e+000

1.99732887824256e+005,-2.78417490668202e+001,-5.36006528950084e+000

2.02521055035243e+005,-2.78424572483056e+001,-5.43367533782676e+000

2.05348143610063e+005,-2.78431813835094e+001,-5.50827480550493e+000

2.08214696870707e+005,-2.78439217668157e+001,-5.58387659956296e+000

2.11121265723661e+005,-2.78446786964958e+001,-5.66049380121358e+000

2.14068408765776e+005,-2.78454524747975e+001,-5.73813966906425e+000

2.17056692391625e+005,-2.78462434080428e+001,-5.81682764240548e+000

2.20086690902357e+005,-2.78470518067372e+001,-5.89657134457611e+000

2.23158986616063e+005,-2.78478779856889e+001,-5.97738458640519e+000

2.26274169979693e+005,-2.78487222641406e+001,-6.05928136973163e+000

2.29432839682530e+005,-2.78495849659138e+001,-6.14227589099590e+000

2.32635602771247e+005,-2.78504664195662e+001,-6.22638254490828e+000

2.35883074766574e+005,-2.78513669585627e+001,-6.31161592818730e+000

2.39175879781588e+005,-2.78522869214618e+001,-6.39799084336875e+000

2.42514650641661e+005,-2.78532266521175e+001,-6.48552230268169e+000

2.45900029006080e+005,-2.78541864998967e+001,-6.57422553199010e+000

2.49332665491357e+005,-2.78551668199141e+001,-6.66411597479682e+000

2.52813219796278e+005,-2.78561679732846e+001,-6.75520929630525e+000

2.56342360828676e+005,-2.78571903273943e+001,-6.84752138753806e+000

2.59920766833993e+005,-2.78582342561898e+001,-6.94106836950673e+000

2.63549125525621e+005,-2.78593001404881e+001,-7.03586659742757e+000

2.67228134217075e+005,-2.78603883683060e+001,-7.13193266498279e+000

2.70958499956006e+005,-2.78614993352112e+001,-7.22928340861797e+000

2.74740939660078e+005,-2.78626334446942e+001,-7.32793591187421e+000

2.78576180254757e+005,-2.78637911085624e+001,-7.42790750974704e+000

2.82464958813007e+005,-2.78649727473573e+001,-7.52921579306876e+000

2.86408022696948e+005,-2.78661787907938e+001,-7.63187861290666e+000

2.90406129701488e+005,-2.78674096782237e+001,-7.73591408497265e+000

2.94460048199957e+005,-2.78686658591220e+001,-7.84134059403712e+000

2.98570557291775e+005,-2.78699477935987e+001,-7.94817679834022e+000

3.02738446952187e+005,-2.78712559529335e+001,-8.05644163399537e+000

3.06964518184081e+005,-2.78725908201357e+001,-8.16615431937808e+000

3.11249583171928e+005,-2.78739528905291e+001,-8.27733435949105e+000

3.15594465437872e+005,-2.78753426723610e+001,-8.39000155030297e+000

3.19999999999997e+005,-2.78767606874366e+001,-8.50417598304946e+000

3.24467033532806e+005,-2.78782074717777e+001,-8.61987804849247e+000

3.28996424529938e+005,-2.78796835763067e+001,-8.73712844113014e+000

3.33589043469155e+005,-2.78811895675546e+001,-8.85594816335016e+000

3.38245772979638e+005,-2.78827260283941e+001,-8.97635852951940e+000

3.42967508011610e+005,-2.78842935587956e+001,-9.09838117000467e+000

3.47755156008335e+005,-2.78858927766084e+001,-9.22203803511561e+000

3.52609637080511e+005,-2.78875243183647e+001,-9.34735139896622e+000

3.57531884183106e+005,-2.78891888401061e+001,-9.47434386324626e+000

3.62522843294651e+005,-2.78908870182339e+001,-9.60303836089727e+000

3.67583473599047e+005,-2.78926195503802e+001,-9.73345815968862e+000

3.72714747669902e+005,-2.78943871563011e+001,-9.86562686568653e+000

3.77917651657445e+005,-2.78961905787912e+001,-9.99956842661097e+000

3.83193185478053e+005,-2.78980305846172e+001,-1.01353071350772e+001

3.88542363006410e+005,-2.78999079654723e+001,-1.02728676317139e+001

3.93966212270369e+005,-2.79018235389490e+001,-1.04122749081584e+001

3.99465775648511e+005,-2.79037781495298e+001,-1.05535543099200e+001

4.05042110070485e+005,-2.79057726695963e+001,-1.06967315391112e+001

4.10696287220124e+005,-2.79078080004545e+001,-1.08418326570421e+001

4.16429393741414e+005,-2.79098850733759e+001,-1.09888840866762e+001

4.22242531447321e+005,-2.79120048506546e+001,-1.11379126149420e+001

4.28136817531551e+005,-2.79141683266787e+001,-1.12889453949029e+001

4.34113384783250e+005,-2.79163765290156e+001,-1.14420099477788e+001

4.40173381804713e+005,-2.79186305195101e+001,-1.15971341648211e+001

4.46317973232124e+005,-2.79209313953957e+001,-1.17543463090371e+001

4.52548339959385e+005,-2.79232802904174e+001,-1.19136750167656e+001

4.58865679365059e+005,-2.79256783759653e+001,-1.20751492990999e+001

4.65271205542494e+005,-2.79281268622198e+001,-1.22387985431598e+001

4.71766149533147e+005,-2.79306269993057e+001,-1.24046525132112e+001

4.78351759563174e+005,-2.79331800784564e+001,-1.25727413516341e+001

4.85029301283321e+005,-2.79357874331874e+001,-1.27430955797365e+001

4.91800058012158e+005,-2.79384504404774e+001,-1.29157460984177e+001

4.98665330982714e+005,-2.79411705219587e+001,-1.30907241886782e+001

5.05626439592555e+005,-2.79439491451146e+001,-1.32680615119780e+001

5.12684721657352e+005,-2.79467878244844e+001,-1.34477901104428e+001

5.19841533667984e+005,-2.79496881228758e+001,-1.36299424069181e+001

5.27098251051240e+005,-2.79526516525842e+001,-1.38145512048726e+001

5.34456268434150e+005,-2.79556800766191e+001,-1.40016496881484e+001

5.41916999912011e+005,-2.79587751099361e+001,-1.41912714205603e+001

