Freq.,VOut,OutRef

1.00000000000000e+004,-3.84879766859168e+001,-2.00187414789118e-001

1.01395947979003e+004,-3.84879790188064e+001,-2.02981613038880e-001

1.02811382665607e+004,-3.84879814172138e+001,-2.05814803523846e-001

1.04246576084112e+004,-3.84879838829774e+001,-2.08687529990030e-001

1.05701804056138e+004,-3.84879864179865e+001,-2.11600343750621e-001

1.07177346253629e+004,-3.84879890241836e+001,-2.14553803790076e-001

1.08673486252606e+004,-3.84879917035656e+001,-2.17548476868361e-001

1.10190511587661e+004,-3.84879944581849e+001,-2.20584937633298e-001

1.11728713807222e+004,-3.84879972901516e+001,-2.23663768723220e-001

1.13288388529580e+004,-3.84880002016349e+001,-2.26785560881300e-001

1.14869835499703e+004,-3.84880031948646e+001,-2.29950913067109e-001

1.16473358646846e+004,-3.84880062721328e+001,-2.33160432568110e-001

1.18099266142953e+004,-3.84880094357955e+001,-2.36414735118517e-001

1.19747870461893e+004,-3.84880126882752e+001,-2.39714445009269e-001

1.21419488439505e+004,-3.84880160320613e+001,-2.43060195214007e-001

1.23114441334492e+004,-3.84880194697136e+001,-2.46452627500662e-001

1.24833054890161e+004,-3.84880230038626e+001,-2.49892392560788e-001

1.26575659397028e+004,-3.84880266372132e+001,-2.53380150123546e-001

1.28342589756290e+004,-3.84880303725451e+001,-2.56916569088426e-001

1.30134185544193e+004,-3.84880342127161e+001,-2.60502327647491e-001

1.31950791077289e+004,-3.84880381606633e+001,-2.64138113412775e-001

1.33792755478611e+004,-3.84880422194064e+001,-2.67824623546907e-001

1.35660432744767e+004,-3.84880463920494e+001,-2.71562564892631e-001

1.37554181813974e+004,-3.84880506817822e+001,-2.75352654111188e-001

1.39474366635040e+004,-3.84880550918843e+001,-2.79195617810004e-001

1.41421356237309e+004,-3.84880596257267e+001,-2.83092192683202e-001

1.43395524801583e+004,-3.84880642867744e+001,-2.87043125649631e-001

1.45397251732031e+004,-3.84880690785885e+001,-2.91049173994349e-001

1.47426921729110e+004,-3.84880740048301e+001,-2.95111105506357e-001

1.49484924863494e+004,-3.84880790692620e+001,-2.99229698626979e-001

1.51571656651040e+004,-3.84880842757520e+001,-3.03405742593509e-001

1.53687518128801e+004,-3.84880896282753e+001,-3.07640037589113e-001

1.55832915932100e+004,-3.84880951309182e+001,-3.11933394888659e-001

1.58008262372675e+004,-3.84881007878807e+001,-3.16286637013495e-001

1.60213975517924e+004,-3.84881066034795e+001,-3.20700597885923e-001

1.62450479271247e+004,-3.84881125821517e+001,-3.25176122980642e-001

1.64718203453514e+004,-3.84881187284576e+001,-3.29714069486965e-001

1.67017583885674e+004,-3.84881250470846e+001,-3.34315306465989e-001

1.69349062472505e+004,-3.84881315428501e+001,-3.38980715012237e-001

1.71713087287550e+004,-3.84881382207059e+001,-3.43711188419549e-001

1.74110112659224e+004,-3.84881450857409e+001,-3.48507632344474e-001

1.76540599258131e+004,-3.84881521431854e+001,-3.53370964977730e-001

1.79005014185594e+004,-3.84881593984153e+001,-3.58302117211012e-001

1.81503831063432e+004,-3.84881668569554e+001,-3.63302032812218e-001

1.84037530124975e+004,-3.84881745244837e+001,-3.68371668598443e-001

1.86606598307361e+004,-3.84881824068363e+001,-3.73511994612851e-001

1.89211529345119e+004,-3.84881905100104e+001,-3.78723994305883e-001

1.91852823865052e+004,-3.84881988401697e+001,-3.84008664714853e-001

1.94530989482457e+004,-3.84882074036491e+001,-3.89367016647329e-001

1.97246540898671e+004,-3.84882162069581e+001,-3.94800074869668e-001

1.99999999999999e+004,-3.84882252567870e+001,-4.00308878293018e-001

2.02791895958005e+004,-3.84882345600110e+001,-4.05894480165531e-001

2.05622765331213e+004,-3.84882441236956e+001,-4.11557948264218e-001

2.08493152168224e+004,-3.84882539551014e+001,-4.17300365092171e-001

2.11403608112276e+004,-3.84882640616898e+001,-4.23122828075593e-001

2.14354692507258e+004,-3.84882744511283e+001,-4.29026449763882e-001

2.17346972505211e+004,-3.84882851312958e+001,-4.35012358033706e-001

2.20381023175322e+004,-3.84882961102889e+001,-4.41081696293605e-001

2.23457427614443e+004,-3.84883073964270e+001,-4.47235623693004e-001

2.26576777059159e+004,-3.84883189982595e+001,-4.53475315330043e-001

2.29739670999406e+004,-3.84883309245706e+001,-4.59801962469504e-001

2.32946717293690e+004,-3.84883431843866e+001,-4.66216772753183e-001

2.36198532285905e+004,-3.84883557869821e+001,-4.72720970421376e-001

2.39495740923785e+004,-3.84883687418868e+001,-4.79315796532070e-001

2.42838976879009e+004,-3.84883820588922e+001,-4.86002509186075e-001

2.46228882668982e+004,-3.84883957480585e+001,-4.92782383752753e-001

2.49666109780322e+004,-3.84884098197223e+001,-4.99656713096748e-001

2.53151318794055e+004,-3.84884242845031e+001,-5.06626807813574e-001

2.56685179512580e+004,-3.84884391533120e+001,-5.13693996459052e-001

2.60268371088386e+004,-3.84884544373586e+001,-5.20859625790883e-001

2.63901582154578e+004,-3.84884701481593e+001,-5.28125061004879e-001

2.67585510957221e+004,-3.84884862975454e+001,-5.35491685979047e-001

2.71320865489533e+004,-3.84885028976712e+001,-5.42960903519484e-001

2.75108363627948e+004,-3.84885199610230e+001,-5.50534135607096e-001

2.78948733270080e+004,-3.84885375004276e+001,-5.58212823649519e-001

2.82842712474618e+004,-3.84885555290615e+001,-5.65998428732979e-001

2.86791049603164e+004,-3.84885740604597e+001,-5.73892431882024e-001

2.90794503464061e+004,-3.84885931085254e+001,-5.81896334316302e-001

2.94853843458219e+004,-3.84886126875398e+001,-5.90011657713613e-001

2.98969849726987e+004,-3.84886328121718e+001,-5.98239944475036e-001

3.03143313302078e+004,-3.84886534974882e+001,-6.06582757993043e-001

3.07375036257601e+004,-3.84886747589638e+001,-6.15041682923005e-001

3.11665831864199e+004,-3.84886966124926e+001,-6.23618325455139e-001

3.16016524745350e+004,-3.84887190743980e+001,-6.32314313593922e-001

3.20427951035848e+004,-3.84887421614446e+001,-6.41131297434624e-001

3.24900958542493e+004,-3.84887658908489e+001,-6.50070949448843e-001

3.29436406907028e+004,-3.84887902802915e+001,-6.59134964767990e-001

3.34035167771346e+004,-3.84888153479288e+001,-6.68325061472150e-001

3.38698124945009e+004,-3.84888411124052e+001,-6.77642980881763e-001

3.43426174575100e+004,-3.84888675928657e+001,-6.87090487851466e-001

3.48220225318448e+004,-3.84888948089680e+001,-6.96669371067992e-001

3.53081198516260e+004,-3.84889227808968e+001,-7.06381443347942e-001

3.58010028371187e+004,-3.84889515293760e+001,-7.16228541944618e-001

3.63007662126863e+004,-3.84889810756827e+001,-7.26212528850749e-001

3.68075060249948e+004,-3.84890114416615e+001,-7.36335291107258e-001

3.73213196614721e+004,-3.84890426497378e+001,-7.46598741118084e-001

3.78423058690237e+004,-3.84890747229334e+001,-7.57004816961602e-001

3.83705647730104e+004,-3.84891076848808e+001,-7.67555482708462e-001

3.89061978964912e+004,-3.84891415598381e+001,-7.78252728744179e-001

3.94493081797342e+004,-3.84891763727051e+001,-7.89098572089079e-001

3.99999999999998e+004,-3.84892121490387e+001,-8.00095056726776e-001

4.05583791916010e+004,-3.84892489150689e+001,-8.11244253931885e-001

4.11245530662425e+004,-3.84892866977156e+001,-8.22548262601658e-001

4.16986304336447e+004,-3.84893255246051e+001,-8.34009209590431e-001

4.22807216224550e+004,-3.84893654240874e+001,-8.45629250046097e-001

4.28709385014515e+004,-3.84894064252535e+001,-8.57410567751060e-001

4.34693945010421e+004,-3.84894485579531e+001,-8.69355375463353e-001

4.40762046350642e+004,-3.84894918528129e+001,-8.81465915262150e-001

4.46914855228886e+004,-3.84895363412546e+001,-8.93744458896822e-001

4.53153554118317e+004,-3.84895820555145e+001,-9.06193308134550e-001

4.59479341998812e+004,-3.84896290286617e+001,-9.18814795115376e-001

4.65893434587380e+004,-3.84896772946179e+001,-9.31611282706952e-001

4.72397064571810e+004,-3.84897268881775e+001,-9.44585164860972e-001

4.78991481847569e+004,-3.84897778450272e+001,-9.57738866975837e-001

4.85677953758016e+004,-3.84898302017667e+001,-9.71074846256896e-001

4.92457765337964e+004,-3.84898839959295e+001,-9.84595592082346e-001

4.99332219560642e+004,-3.84899392660038e+001,-9.98303626370907e-001

5.06302637588109e+004,-3.84899960514542e+001,-1.01220150394922e+000

5.13370359025159e+004,-3.84900543927431e+001,-1.02629181292626e+000

5.20536742176771e+004,-3.84901143313531e+001,-1.04057717506490e+000

5.27803164309155e+004,-3.84901759098091e+001,-1.05506024615758e+000

5.35171021914442e+004,-3.84902391717011e+001,-1.06974371640427e+000

5.42641730979066e+004,-3.84903041617071e+001,-1.08463031079361e+000

5.50216727255895e+004,-3.84903709256162e+001,-1.09972278948183e+000

5.57897466540159e+004,-3.84904395103523e+001,-1.11502394817793e+000

5.65685424949235e+004,-3.84905099639981e+001,-1.13053661852671e+000

5.73582099206328e+004,-3.84905823358183e+001,-1.14626366849854e+000

5.81589006928121e+004,-3.84906566762847e+001,-1.16220800277424e+000

5.89707686916437e+004,-3.84907330371005e+001,-1.17837256313663e+000

5.97939699453972e+004,-3.84908114712245e+001,-1.19476032886216e+000

6.06286626604156e+004,-3.84908920328966e+001,-1.21137431711183e+000

6.14750072515201e+004,-3.84909747776626e+001,-1.22821758332761e+000

6.23331663728396e+004,-3.84910597623993e+001,-1.24529322162467e+000

6.32033049490698e+004,-3.84911470453401e+001,-1.26260436519027e+000

6.40855902071694e+004,-3.84912366861002e+001,-1.28015418667982e+000

6.49801917084985e+004,-3.84913287457026e+001,-1.29794589861617e+000

6.58872813814055e+004,-3.84914232866028e+001,-1.31598275378982e+000

6.68070335542691e+004,-3.84915203727157e+001,-1.33426804565652e+000

6.77396249890018e+004,-3.84916200694402e+001,-1.35280510874201e+000

6.86852349150199e+004,-3.84917224436853e+001,-1.37159731904256e+000

6.96440450636895e+004,-3.84918275638955e+001,-1.39064809442798e+000

7.06162397032520e+004,-3.84919355000765e+001,-1.40996089504454e+000

7.16020056742374e+004,-3.84920463238201e+001,-1.42953922372171e+000

7.26015324253724e+004,-3.84921601083298e+001,-1.44938662637391e+000

7.36150120499896e+004,-3.84922769284457e+001,-1.46950669240797e+000

7.46426393229441e+004,-3.84923968606687e+001,-1.48990305512924e+000

7.56846117380472e+004,-3.84925199831854e+001,-1.51057939214782e+000

7.67411295460207e+004,-3.84926463758920e+001,-1.53153942578580e+000

7.78123957929823e+004,-3.84927761204179e+001,-1.55278692348505e+000

7.88986163594682e+004,-3.84929093001486e+001,-1.57432569821666e+000

7.99999999999995e+004,-3.84930460002487e+001,-1.59615960888921e+000

8.11167583832018e+004,-3.84931863076841e+001,-1.61829256075840e+000

8.22491061324848e+004,-3.84933303112427e+001,-1.64072850583798e+000

8.33972608672892e+004,-3.84934781015560e+001,-1.66347144331141e+000

8.45614432449099e+004,-3.84936297711186e+001,-1.68652541994371e+000

8.57418770029029e+004,-3.84937854143071e+001,-1.70989453049585e+000

8.69387890020841e+004,-3.84939451273990e+001,-1.73358291813723e+000

8.81524092701283e+004,-3.84941090085894e+001,-1.75759477486375e+000

8.93829710457770e+004,-3.84942771580074e+001,-1.78193434191456e+000

9.06307108236633e+004,-3.84944496777311e+001,-1.80660591019018e+000

9.18958683997622e+004,-3.84946266718012e+001,-1.83161382067537e+000

9.31786869174758e+004,-3.84948082462340e+001,-1.85696246486142e+000

9.44794129143618e+004,-3.84949945090320e+001,-1.88265628517272e+000

9.57982963695136e+004,-3.84951855701938e+001,-1.90869977539494e+000

9.71355907516031e+004,-3.84953815417222e+001,-1.93509748110816e+000

9.84915530675926e+004,-3.84955825376303e+001,-1.96185400012204e+000

9.98664439121282e+004,-3.84957886739464e+001,-1.98897398291549e+000

1.01260527517622e+005,-3.84960000687167e+001,-2.01646213308229e+000

1.02674071805032e+005,-3.84962168420061e+001,-2.04432320777931e+000

1.04107348435354e+005,-3.84964391158967e+001,-2.07256201818349e+000

1.05560632861831e+005,-3.84966670144848e+001,-2.10118342995226e+000

1.07034204382888e+005,-3.84969006638748e+001,-2.13019236369385e+000

1.08528346195813e+005,-3.84971401921717e+001,-2.15959379544243e+000

1.10043345451179e+005,-3.84973857294698e+001,-2.18939275714494e+000

1.11579493308032e+005,-3.84976374078405e+001,-2.21959433715394e+000

1.13137084989847e+005,-3.84978953613159e+001,-2.25020368073460e+000

1.14716419841265e+005,-3.84981597258706e+001,-2.28122599057960e+000

1.16317801385624e+005,-3.84984306394005e+001,-2.31266652733860e+000

1.17941537383287e+005,-3.84987082416980e+001,-2.34453061016063e+000

1.19587939890794e+005,-3.84989926744252e+001,-2.37682361725005e+000

1.21257325320831e+005,-3.84992840810829e+001,-2.40955098644107e+000

1.22950014503040e+005,-3.84995826069775e+001,-2.44271821578579e+000

1.24666332745679e+005,-3.84998883991832e+001,-2.47633086416474e+000

1.26406609898139e+005,-3.85002016065025e+001,-2.51039455191399e+000

1.28171180414339e+005,-3.85005223794219e+001,-2.54491496147739e+000

1.29960383416997e+005,-3.85008508700645e+001,-2.57989783807875e+000

1.31774562762811e+005,-3.85011872321399e+001,-2.61534899042149e+000

1.33614067108538e+005,-3.85015316208888e+001,-2.65127429141349e+000

1.35479249978003e+005,-3.85018841930257e+001,-2.68767967892246e+000

1.37370469830040e+005,-3.85022451066770e+001,-2.72457115655830e+000

1.39288090127379e+005,-3.85026145213158e+001,-2.76195479449272e+000

1.41232479406504e+005,-3.85029925976929e+001,-2.79983673030976e+000

1.43204011348474e+005,-3.85033794977642e+001,-2.83822316989457e+000

1.45203064850745e+005,-3.85037753846149e+001,-2.87712038836154e+000

1.47230024099979e+005,-3.85041804223795e+001,-2.91653473102330e+000

1.49285278645888e+005,-3.85045947761591e+001,-2.95647261440246e+000

1.51369223476094e+005,-3.85050186119342e+001,-2.99694052729243e+000

1.53482259092041e+005,-3.85054520964763e+001,-3.03794503186295e+000

1.55624791585964e+005,-3.85058953972537e+001,-3.07949276481977e+000

1.57797232718936e+005,-3.85063486823366e+001,-3.12159043861618e+000

1.59999999999999e+005,-3.85068121202982e+001,-3.16424484272180e+000

1.62233516766403e+005,-3.85072858801135e+001,-3.20746284495062e+000

1.64498212264969e+005,-3.85077701310560e+001,-3.25125139284845e+000

1.66794521734578e+005,-3.85082650425919e+001,-3.29561751514734e+000

1.69122886489819e+005,-3.85087707842723e+001,-3.34056832328577e+000

1.71483754005805e+005,-3.85092875256250e+001,-3.38611101299645e+000

1.73877578004168e+005,-3.85098154360438e+001,-3.43225286597038e+000

1.76304818540256e+005,-3.85103546846777e+001,-3.47900125159141e+000

1.78765942091554e+005,-3.85109054403196e+001,-3.52636362875085e+000

1.81261421647326e+005,-3.85114678712948e+001,-3.57434754774071e+000

1.83791736799524e+005,-3.85120421453509e+001,-3.62296065222886e+000

1.86357373834951e+005,-3.85126284295471e+001,-3.67221068132016e+000

1.88958825828723e+005,-3.85132268901466e+001,-3.72210547170201e+000

1.91596592739027e+005,-3.85138376925105e+001,-3.77265295988017e+000

1.94271181503206e+005,-3.85144610009939e+001,-3.82386118450569e+000

1.96983106135185e+005,-3.85150969788463e+001,-3.87573828879186e+000

1.99732887824256e+005,-3.85157457881151e+001,-3.92829252302807e+000

2.02521055035243e+005,-3.85164075895548e+001,-3.98153224718693e+000

2.05348143610063e+005,-3.85170825425399e+001,-4.03546593362953e+000

2.08214696870707e+005,-3.85177708049862e+001,-4.09010216990703e+000

2.11121265723661e+005,-3.85184725332768e+001,-4.14544966166095e+000

2.14068408765776e+005,-3.85191878821974e+001,-4.20151723562263e+000

2.17056692391625e+005,-3.85199170048794e+001,-4.25831384271012e+000

2.20086690902357e+005,-3.85206600527522e+001,-4.31584856122544e+000

2.23158986616063e+005,-3.85214171755064e+001,-4.37413060014893e+000

2.26274169979693e+005,-3.85221885210672e+001,-4.43316930253037e+000

2.29432839682530e+005,-3.85229742355805e+001,-4.49297414897817e+000

2.32635602771247e+005,-3.85237744634114e+001,-4.55355476124107e+000

2.35883074766574e+005,-3.85245893471564e+001,-4.61492090588438e+000

2.39175879781588e+005,-3.85254190276706e+001,-4.67708249805491e+000

2.42514650641661e+005,-3.85262636441099e+001,-4.74004960533585e+000

2.45900029006080e+005,-3.85271233339898e+001,-4.80383245168366e+000

2.49332665491357e+005,-3.85279982332614e+001,-4.86844142144958e+000

2.52813219796278e+005,-3.85288884764054e+001,-4.93388706347541e+000

2.56342360828676e+005,-3.85297941965451e+001,-5.00018009526424e+000

2.59920766833993e+005,-3.85307155255790e+001,-5.06733140721959e+000

2.63549125525621e+005,-3.85316525943336e+001,-5.13535206694739e+000

2.67228134217075e+005,-3.85326055327377e+001,-5.20425332361648e+000

2.70958499956006e+005,-3.85335744700183e+001,-5.27404661237195e+000

2.74740939660078e+005,-3.85345595349193e+001,-5.34474355879332e+000

2.78576180254757e+005,-3.85355608559427e+001,-5.41635598339358e+000

2.82464958813007e+005,-3.85365785616139e+001,-5.48889590615144e+000

2.86408022696948e+005,-3.85376127807706e+001,-5.56237555106782e+000

2.90406129701488e+005,-3.85386636428764e+001,-5.63680735074376e+000

2.94460048199957e+005,-3.85397312783593e+001,-5.71220395096672e+000

2.98570557291775e+005,-3.85408158189749e+001,-5.78857821530208e+000

3.02738446952187e+005,-3.85419173981951e+001,-5.86594322967890e+000

3.06964518184081e+005,-3.85430361516220e+001,-5.94431230696440e+000

3.11249583171928e+005,-3.85441722174272e+001,-6.02369899151719e+000

3.15594465437872e+005,-3.85453257368167e+001,-6.10411706371129e+000

3.19999999999997e+005,-3.85464968545203e+001,-6.18558054442451e+000

3.24467033532806e+005,-3.85476857193069e+001,-6.26810369948023e+000

3.28996424529938e+005,-3.85488924845239e+001,-6.35170104403801e+000

3.33589043469155e+005,-3.85501173086609e+001,-6.43638734692136e+000

3.38245772979638e+005,-3.85513603559379e+001,-6.52217763487855e+000

3.42967508011610e+005,-3.85526217969160e+001,-6.60908719676587e+000

3.47755156008335e+005,-3.85539018091312e+001,-6.69713158764886e+000

3.52609637080511e+005,-3.85552005777506e+001,-6.78632663281152e+000

3.57531884183106e+005,-3.85565182962492e+001,-6.87668843167050e+000

3.62522843294651e+005,-3.85578551671077e+001,-6.96823336158441e+000

3.67583473599047e+005,-3.85592114025297e+001,-7.06097808155464e+000

3.72714747669902e+005,-3.85605872251776e+001,-7.15493953581286e+000

3.77917651657445e+005,-3.85619828689259e+001,-7.25013495728730e+000

3.83193185478053e+005,-3.85633985796314e+001,-7.34658187094755e+000

3.88542363006410e+005,-3.85648346159194e+001,-7.44429809701967e+000

3.93966212270369e+005,-3.85662912499835e+001,-7.54330175407237e+000

3.99465775648511e+005,-3.85677687683989e+001,-7.64361126196951e+000

4.05042110070485e+005,-3.85692674729491e+001,-7.74524534468533e+000

4.10696287220124e+005,-3.85707876814619e+001,-7.84822303298445e+000

4.16429393741414e+005,-3.85723297286568e+001,-7.95256366696254e+000

4.22242531447321e+005,-3.85738939670000e+001,-8.05828689844917e+000

4.28136817531551e+005,-3.85754807675685e+001,-8.16541269327153e+000

4.34113384783250e+005,-3.85770905209193e+001,-8.27396133338153e+000

4.40173381804713e+005,-3.85787236379650e+001,-8.38395341884521e+000

4.46317973232124e+005,-3.85803805508538e+001,-8.49540986969970e+000

4.52548339959385e+005,-3.85820617138526e+001,-8.60835192767604e+000

4.58865679365059e+005,-3.85837676042329e+001,-8.72280115779430e+000

4.65271205542494e+005,-3.85854987231586e+001,-8.83877944983247e+000

4.71766149533147e+005,-3.85872555965738e+001,-8.95630901967220e+000

4.78351759563174e+005,-3.85890387760919e+001,-9.07541241052763e+000

4.85029301283321e+005,-3.85908488398832e+001,-9.19611249406036e+000

4.91800058012158e+005,-3.85926863935611e+001,-9.31843247138410e+000

4.98665330982714e+005,-3.85945520710677e+001,-9.44239587396773e+000

5.05626439592555e+005,-3.85964465355561e+001,-9.56802656443699e+000

5.12684721657352e+005,-3.85983704802704e+001,-9.69534873728482e+000

5.19841533667984e+005,-3.86003246294235e+001,-9.82438691949170e+000

5.27098251051240e+005,-3.86023097390708e+001,-9.95516597106567e+000

5.34456268434150e+005,-3.86043265979818e+001,-1.00877110855033e+001

5.41916999912011e+005,-3.86063760285077e+001,-1.02220477901801e+001

