Freq.,VOut,OutRef

1.00000000000000e+004,-2.29634727503536e+001,-4.32697372430875e-001

1.01395947979003e+004,-2.29634768283331e+001,-4.38737236897909e-001

1.02811382665607e+004,-2.29634810208869e+001,-4.44861399210921e-001

1.04246576084112e+004,-2.29634853312318e+001,-4.51071035466511e-001

1.05701804056138e+004,-2.29634897626753e+001,-4.57367338149518e-001

1.07177346253629e+004,-2.29634943186170e+001,-4.63751516362900e-001

1.08673486252606e+004,-2.29634990025521e+001,-4.70224796058988e-001

1.10190511587661e+004,-2.29635038180739e+001,-4.76788420270627e-001

1.11728713807222e+004,-2.29635087688762e+001,-4.83443649349782e-001

1.13288388529580e+004,-2.29635138587565e+001,-4.90191761209137e-001

1.14869835499703e+004,-2.29635190916186e+001,-4.97034051564088e-001

1.16473358646846e+004,-2.29635244714758e+001,-5.03971834179835e-001

1.18099266142953e+004,-2.29635300024538e+001,-5.11006441123170e-001

1.19747870461893e+004,-2.29635356887939e+001,-5.18139223014172e-001

1.21419488439505e+004,-2.29635415348563e+001,-5.25371549285153e-001

1.23114441334492e+004,-2.29635475451232e+001,-5.32704808442336e-001

1.24833054890161e+004,-2.29635537242026e+001,-5.40140408326162e-001

1.26575659397028e+004,-2.29635600768313e+001,-5.47679776384579e-001

1.28342589756290e+004,-2.29635666078788e+001,-5.55324359941249e-001

1.30134185544193e+004,-2.29635733223511e+001,-5.63075626471418e-001

1.31950791077289e+004,-2.29635802253942e+001,-5.70935063882140e-001

1.33792755478611e+004,-2.29635873222984e+001,-5.78904180793788e-001

1.35660432744767e+004,-2.29635946185018e+001,-5.86984506828159e-001

1.37554181813974e+004,-2.29636021195948e+001,-5.95177592898456e-001

1.39474366635040e+004,-2.29636098313243e+001,-6.03485011503743e-001

1.41421356237309e+004,-2.29636177595980e+001,-6.11908357028961e-001

1.43395524801583e+004,-2.29636259104890e+001,-6.20449246043613e-001

1.45397251732031e+004,-2.29636342902400e+001,-6.29109317615326e-001

1.47426921729110e+004,-2.29636429052685e+001,-6.37890233614752e-001

1.49484924863494e+004,-2.29636517621715e+001,-6.46793679032925e-001

1.51571656651040e+004,-2.29636608677304e+001,-6.55821362300717e-001

1.53687518128801e+004,-2.29636702289162e+001,-6.64975015614218e-001

1.55832915932100e+004,-2.29636798528948e+001,-6.74256395259247e-001

1.58008262372675e+004,-2.29636897470322e+001,-6.83667281947442e-001

1.60213975517924e+004,-2.29636999189007e+001,-6.93209481150840e-001

1.62450479271247e+004,-2.29637103762836e+001,-7.02884823444900e-001

1.64718203453514e+004,-2.29637211271820e+001,-7.12695164854203e-001

1.67017583885674e+004,-2.29637321798204e+001,-7.22642387203220e-001

1.69349062472505e+004,-2.29637435426528e+001,-7.32728398472909e-001

1.71713087287550e+004,-2.29637552243694e+001,-7.42955133159166e-001

1.74110112659224e+004,-2.29637672339029e+001,-7.53324552639215e-001

1.76540599258131e+004,-2.29637795804355e+001,-7.63838645541457e-001

1.79005014185594e+004,-2.29637922734052e+001,-7.74499428120823e-001

1.81503831063432e+004,-2.29638053225136e+001,-7.85308944638276e-001

1.84037530124975e+004,-2.29638187377329e+001,-7.96269267745745e-001

1.86606598307361e+004,-2.29638325293133e+001,-8.07382498876844e-001

1.89211529345119e+004,-2.29638467077906e+001,-8.18650768643005e-001

1.91852823865052e+004,-2.29638612839944e+001,-8.30076237231791e-001

1.94530989482457e+004,-2.29638762690561e+001,-8.41661094814981e-001

1.97246540898671e+004,-2.29638916744172e+001,-8.53407561959787e-001

1.99999999999999e+004,-2.29639075118377e+001,-8.65317890044062e-001

2.02791895958005e+004,-2.29639237934050e+001,-8.77394361681350e-001

2.05622765331213e+004,-2.29639405315434e+001,-8.89639291145290e-001

2.08493152168224e+004,-2.29639577390224e+001,-9.02055024806772e-001

2.11403608112276e+004,-2.29639754289671e+001,-9.14643941569642e-001

2.14354692507258e+004,-2.29639936148675e+001,-9.27408453319237e-001

2.17346972505211e+004,-2.29640123105885e+001,-9.40351005370130e-001

2.20381023175322e+004,-2.29640315303808e+001,-9.53474076924523e-001

2.23457427614443e+004,-2.29640512888907e+001,-9.66780181535058e-001

2.26576777059159e+004,-2.29640716011714e+001,-9.80271867572593e-001

2.29739670999406e+004,-2.29640924826942e+001,-9.93951718701419e-001

2.32946717293690e+004,-2.29641139493597e+001,-1.00782235436024e+000

2.36198532285905e+004,-2.29641360175097e+001,-1.02188643025041e+000

2.39495740923785e+004,-2.29641587039396e+001,-1.03614663882701e+000

2.42838976879009e+004,-2.29641820259100e+001,-1.05060570980176e+000

2.46228882668982e+004,-2.29642060011604e+001,-1.06526641064622e+000

2.49666109780322e+004,-2.29642306479211e+001,-1.08013154710800e+000

2.53151318794055e+004,-2.29642559849281e+001,-1.09520396372672e+000

2.56685179512580e+004,-2.29642820314353e+001,-1.11048654436336e+000

2.60268371088386e+004,-2.29643088072299e+001,-1.12598221272983e+000

2.63901582154578e+004,-2.29643363326461e+001,-1.14169393293074e+000

2.67585510957221e+004,-2.29643646285802e+001,-1.15762471000974e+000

2.71320865489533e+004,-2.29643937165062e+001,-1.17377759050097e+000

2.75108363627948e+004,-2.29644236184908e+001,-1.19015566299165e+000

2.78948733270080e+004,-2.29644543572103e+001,-1.20676205868719e+000

2.82842712474618e+004,-2.29644859559661e+001,-1.22359995198797e+000

2.86791049603164e+004,-2.29645184387026e+001,-1.24067256106874e+000

2.90794503464061e+004,-2.29645518300240e+001,-1.25798314846971e+000

2.94853843458219e+004,-2.29645861552124e+001,-1.27553502169032e+000

2.98969849726987e+004,-2.29646214402457e+001,-1.29333153379526e+000

3.03143313302078e+004,-2.29646577118166e+001,-1.31137608402345e+000

3.07375036257601e+004,-2.29646949973520e+001,-1.32967211840917e+000

3.11665831864199e+004,-2.29647333250322e+001,-1.34822313040503e+000

3.16016524745350e+004,-2.29647727238118e+001,-1.36703266151856e+000

3.20427951035848e+004,-2.29648132234397e+001,-1.38610430195239e+000

3.24900958542493e+004,-2.29648548544810e+001,-1.40544169125451e+000

3.29436406907028e+004,-2.29648976483383e+001,-1.42504851897386e+000

3.34035167771346e+004,-2.29649416372745e+001,-1.44492852532799e+000

3.38698124945009e+004,-2.29649868544352e+001,-1.46508550187342e+000

3.43426174575100e+004,-2.29650333338728e+001,-1.48552329218893e+000

3.48220225318448e+004,-2.29650811105701e+001,-1.50624579256357e+000

3.53081198516260e+004,-2.29651302204650e+001,-1.52725695269445e+000

3.58010028371187e+004,-2.29651807004760e+001,-1.54856077639313e+000

3.63007662126863e+004,-2.29652325885279e+001,-1.57016132229817e+000

3.68075060249948e+004,-2.29652859235788e+001,-1.59206270459788e+000

3.73213196614721e+004,-2.29653407456465e+001,-1.61426909376153e+000

3.78423058690237e+004,-2.29653970958370e+001,-1.63678471727853e+000

3.83705647730104e+004,-2.29654550163730e+001,-1.65961386040407e+000

3.89061978964912e+004,-2.29655145506227e+001,-1.68276086691834e+000

3.94493081797342e+004,-2.29655757431302e+001,-1.70623013988885e+000

3.99999999999998e+004,-2.29656386396461e+001,-1.73002614244482e+000

4.05583791916010e+004,-2.29657032871583e+001,-1.75415339855960e+000

4.11245530662425e+004,-2.29657697339249e+001,-1.77861649384104e+000

4.16986304336447e+004,-2.29658380295067e+001,-1.80342007633135e+000

4.22807216224550e+004,-2.29659082248010e+001,-1.82856885731529e+000

4.28709385014515e+004,-2.29659803720758e+001,-1.85406761213871e+000

4.34693945010421e+004,-2.29660545250053e+001,-1.87992118103339e+000

4.40762046350642e+004,-2.29661307387060e+001,-1.90613446995348e+000

4.46914855228886e+004,-2.29662090697733e+001,-1.93271245141966e+000

4.53153554118317e+004,-2.29662895763194e+001,-1.95966016537196e+000

4.59479341998812e+004,-2.29663723180120e+001,-1.98698272003288e+000

4.65893434587380e+004,-2.29664573561136e+001,-2.01468529277866e+000

4.72397064571810e+004,-2.29665447535218e+001,-2.04277313101994e+000

4.78991481847569e+004,-2.29666345748106e+001,-2.07125155309164e+000

4.85677953758016e+004,-2.29667268862727e+001,-2.10012594915255e+000

4.92457765337964e+004,-2.29668217559622e+001,-2.12940178209268e+000

4.99332219560642e+004,-2.29669192537391e+001,-2.15908458845142e+000

5.06302637588109e+004,-2.29670194513136e+001,-2.18917997934421e+000

5.13370359025159e+004,-2.29671224222926e+001,-2.21969364139888e+000

5.20536742176771e+004,-2.29672282422261e+001,-2.25063133770024e+000

5.27803164309155e+004,-2.29673369886555e+001,-2.28199890874563e+000

5.35171021914442e+004,-2.29674487411620e+001,-2.31380227340901e+000

5.42641730979066e+004,-2.29675635814167e+001,-2.34604742991338e+000

5.50216727255895e+004,-2.29676815932314e+001,-2.37874045681424e+000

5.57897466540159e+004,-2.29678028626106e+001,-2.41188751399145e+000

5.65685424949235e+004,-2.29679274778040e+001,-2.44549484365141e+000

5.73582099206328e+004,-2.29680555293611e+001,-2.47956877133616e+000

5.81589006928121e+004,-2.29681871101855e+001,-2.51411570694561e+000

5.89707686916437e+004,-2.29683223155914e+001,-2.54914214576581e+000

5.97939699453972e+004,-2.29684612433607e+001,-2.58465466950842e+000

6.06286626604156e+004,-2.29686039938008e+001,-2.62065994735913e+000

6.14750072515201e+004,-2.29687506698043e+001,-2.65716473703546e+000

6.23331663728396e+004,-2.29689013769091e+001,-2.69417588585350e+000

6.32033049490698e+004,-2.29690562233597e+001,-2.73170033180544e+000

6.40855902071694e+004,-2.29692153201700e+001,-2.76974510464449e+000

6.49801917084985e+004,-2.29693787811863e+001,-2.80831732698123e+000

6.58872813814055e+004,-2.29695467231525e+001,-2.84742421538800e+000

6.68070335542691e+004,-2.29697192657757e+001,-2.88707308151290e+000

6.77396249890018e+004,-2.29698965317924e+001,-2.92727133320436e+000

6.86852349150199e+004,-2.29700786470372e+001,-2.96802647564360e+000

6.96440450636895e+004,-2.29702657405113e+001,-3.00934611248711e+000

7.06162397032520e+004,-2.29704579444523e+001,-3.05123794702003e+000

7.16020056742374e+004,-2.29706553944057e+001,-3.09370978331592e+000

7.26015324253724e+004,-2.29708582292963e+001,-3.13676952740954e+000

7.36150120499896e+004,-2.29710665915022e+001,-3.18042518847678e+000

7.46426393229441e+004,-2.29712806269280e+001,-3.22468488002583e+000

7.56846117380472e+004,-2.29715004850806e+001,-3.26955682109627e+000

7.67411295460207e+004,-2.29717263191449e+001,-3.31504933746956e+000

7.78123957929823e+004,-2.29719582860613e+001,-3.36117086288848e+000

7.88986163594682e+004,-2.29721965466030e+001,-3.40792994028650e+000

7.99999999999995e+004,-2.29724412654558e+001,-3.45533522302803e+000

8.11167583832018e+004,-2.29726926112975e+001,-3.50339547615701e+000

8.22491061324848e+004,-2.29729507568789e+001,-3.55211957765665e+000

8.33972608672892e+004,-2.29732158791050e+001,-3.60151651972101e+000

8.45614432449099e+004,-2.29734881591178e+001,-3.65159541003313e+000

8.57418770029029e+004,-2.29737677823797e+001,-3.70236547305888e+000

8.69387890020841e+004,-2.29740549387572e+001,-3.75383605134670e+000

8.81524092701283e+004,-2.29743498226055e+001,-3.80601660684227e+000

8.93829710457770e+004,-2.29746526328546e+001,-3.85891672221176e+000

9.06307108236633e+004,-2.29749635730949e+001,-3.91254610217844e+000

9.18958683997622e+004,-2.29752828516638e+001,-3.96691457487006e+000

9.31786869174758e+004,-2.29756106817341e+001,-4.02203209317764e+000

9.44794129143618e+004,-2.29759472814004e+001,-4.07790873612946e+000

9.57982963695136e+004,-2.29762928737688e+001,-4.13455471027440e+000

9.71355907516031e+004,-2.29766476870452e+001,-4.19198035108041e+000

9.84915530675926e+004,-2.29770119546246e+001,-4.25019612434675e+000

9.98664439121282e+004,-2.29773859151810e+001,-4.30921262762920e+000

1.01260527517622e+005,-2.29777698127576e+001,-4.36904059168076e+000

1.02674071805032e+005,-2.29781638968565e+001,-4.42969088190722e+000

1.04107348435354e+005,-2.29785684225302e+001,-4.49117449983822e+000

1.05560632861831e+005,-2.29789836504717e+001,-4.55350258461560e+000

1.07034204382888e+005,-2.29794098471059e+001,-4.61668641449666e+000

1.08528346195813e+005,-2.29798472846804e+001,-4.68073740837832e+000

1.10043345451179e+005,-2.29802962413572e+001,-4.74566712733742e+000

1.11579493308032e+005,-2.29807570013035e+001,-4.81148727619088e+000

1.13137084989847e+005,-2.29812298547833e+001,-4.87820970507750e+000

1.14716419841265e+005,-2.29817150982484e+001,-4.94584641105906e+000

1.16317801385624e+005,-2.29822130344302e+001,-5.01440953974512e+000

1.17941537383287e+005,-2.29827239724301e+001,-5.08391138694071e+000

1.19587939890794e+005,-2.29832482278115e+001,-5.15436440031825e+000

1.21257325320831e+005,-2.29837861226901e+001,-5.22578118111559e+000

1.22950014503040e+005,-2.29843379858253e+001,-5.29817448586083e+000

1.24666332745679e+005,-2.29849041527108e+001,-5.37155722812499e+000

1.26406609898139e+005,-2.29854849656655e+001,-5.44594248030447e+000

1.28171180414339e+005,-2.29860807739242e+001,-5.52134347543592e+000

1.29960383416997e+005,-2.29866919337281e+001,-5.59777360904116e+000

1.31774562762811e+005,-2.29873188084157e+001,-5.67524644100875e+000

1.33614067108538e+005,-2.29879617685132e+001,-5.75377569750990e+000

1.35479249978003e+005,-2.29886211918256e+001,-5.83337527295332e+000

1.37370469830040e+005,-2.29892974635275e+001,-5.91405923197777e+000

1.39288090127379e+005,-2.29899909762547e+001,-5.99584181148750e+000

1.41232479406504e+005,-2.29907021301954e+001,-6.07873742272998e+000

1.43204011348474e+005,-2.29914313331828e+001,-6.16276065341880e+000

1.45203064850745e+005,-2.29921790007877e+001,-6.24792626990447e+000

1.47230024099979e+005,-2.29929455564123e+001,-6.33424921939268e+000

1.49285278645888e+005,-2.29937314313848e+001,-6.42174463221633e+000

1.51369223476094e+005,-2.29945370650552e+001,-6.51042782415942e+000

1.53482259092041e+005,-2.29953629048928e+001,-6.60031429883642e+000

1.55624791585964e+005,-2.29962094065849e+001,-6.69141975013154e+000

1.57797232718936e+005,-2.29970770341382e+001,-6.78376006469522e+000

1.59999999999999e+005,-2.29979662599816e+001,-6.87735132450587e+000

1.62233516766403e+005,-2.29988775650723e+001,-6.97220980949432e+000

1.64498212264969e+005,-2.29998114390044e+001,-7.06835200023624e+000

1.66794521734578e+005,-2.30007683801216e+001,-7.16579458071278e+000

1.69122886489819e+005,-2.30017488956324e+001,-7.26455444114320e+000

1.71483754005805e+005,-2.30027535017313e+001,-7.36464868089078e+000

1.73877578004168e+005,-2.30037827237229e+001,-7.46609461144414e+000

1.76304818540256e+005,-2.30048370961527e+001,-7.56890975947605e+000

1.78765942091554e+005,-2.30059171629431e+001,-7.67311186998165e+000

1.81261421647326e+005,-2.30070234775359e+001,-7.77871890949803e+000

1.83791736799524e+005,-2.30081566030418e+001,-7.88574906940700e+000

1.86357373834951e+005,-2.30093171123978e+001,-7.99422076932156e+000

1.88958825828723e+005,-2.30105055885329e+001,-8.10415266055911e+000

1.91596592739027e+005,-2.30117226245431e+001,-8.21556362970137e+000

1.94271181503206e+005,-2.30129688238760e+001,-8.32847280224254e+000

1.96983106135185e+005,-2.30142448005266e+001,-8.44289954632597e+000

1.99732887824256e+005,-2.30155511792444e+001,-8.55886347657076e+000

2.02521055035243e+005,-2.30168885957531e+001,-8.67638445798799e+000

2.05348143610063e+005,-2.30182576969832e+001,-8.79548260998659e+000

2.08214696870707e+005,-2.30196591413200e+001,-8.91617831046863e+000

2.11121265723661e+005,-2.30210935988653e+001,-9.03849220001405e+000

2.14068408765776e+005,-2.30225617517168e+001,-9.16244518615219e+000

2.17056692391625e+005,-2.30240642942639e+001,-9.28805844772107e+000

2.20086690902357e+005,-2.30256019335019e+001,-9.41535343931081e+000

2.23158986616063e+005,-2.30271753893659e+001,-9.54435189578995e+000

2.26274169979693e+005,-2.30287853950847e+001,-9.67507583691233e+000

2.29432839682530e+005,-2.30304326975562e+001,-9.80754757200024e+000

2.32635602771247e+005,-2.30321180577457e+001,-9.94178970470318e+000

2.35883074766574e+005,-2.30338422511074e+001,-1.00778251378245e+001

2.39175879781588e+005,-2.30356060680306e+001,-1.02156770782150e+001

2.42514650641661e+005,-2.30374103143123e+001,-1.03553690417262e+001

2.45900029006080e+005,-2.30392558116557e+001,-1.04969248582207e+001

2.49332665491357e+005,-2.30411433981975e+001,-1.06403686766285e+001

2.52813219796278e+005,-2.30430739290630e+001,-1.07857249700508e+001

2.56342360828676e+005,-2.30450482769525e+001,-1.09330185408964e+001

2.59920766833993e+005,-2.30470673327570e+001,-1.10822745260482e+001

2.63549125525621e+005,-2.30491320062071e+001,-1.12335184020508e+001

2.67228134217075e+005,-2.30512432265535e+001,-1.13867759903098e+001

2.70958499956006e+005,-2.30534019432814e+001,-1.15420734622951e+001

2.74740939660078e+005,-2.30556091268591e+001,-1.16994373447382e+001

2.78576180254757e+005,-2.30578657695217e+001,-1.18588945248139e+001

2.82464958813007e+005,-2.30601728860899e+001,-1.20204722552954e+001

2.86408022696948e+005,-2.30625315148257e+001,-1.21841981596741e+001

2.90406129701488e+005,-2.30649427183240e+001,-1.23501002372307e+001

2.94460048199957e+005,-2.30674075844420e+001,-1.25182068680470e+001

2.98570557291775e+005,-2.30699272272653e+001,-1.26885468179480e+001

3.02738446952187e+005,-2.30725027881123e+001,-1.28611492433599e+001

3.06964518184081e+005,-2.30751354365758e+001,-1.30360436960735e+001

3.11249583171928e+005,-2.30778263716029e+001,-1.32132601278996e+001

3.15594465437872e+005,-2.30805768226127e+001,-1.33928288952042e+001

3.19999999999997e+005,-2.30833880506509e+001,-1.35747807633102e+001

3.24467033532806e+005,-2.30862613495829e+001,-1.37591469107527e+001

3.28996424529938e+005,-2.30891980473231e+001,-1.39459589333755e+001

3.33589043469155e+005,-2.30921995071009e+001,-1.41352488482547e+001

3.38245772979638e+005,-2.30952671287631e+001,-1.43270490974381e+001

3.42967508011610e+005,-2.30984023501110e+001,-1.45213925514854e+001

3.47755156008335e+005,-2.31016066482728e+001,-1.47183125127983e+001

3.52609637080511e+005,-2.31048815411087e+001,-1.49178427187270e+001

3.57531884183106e+005,-2.31082285886494e+001,-1.51200173444409e+001

3.62522843294651e+005,-2.31116493945661e+001,-1.53248710055513e+001

3.67583473599047e+005,-2.31151456076709e+001,-1.55324387604742e+001

3.72714747669902e+005,-2.31187189234458e+001,-1.57427561125233e+001

3.77917651657445e+005,-2.31223710856011e+001,-1.59558590117178e+001

3.83193185478053e+005,-2.31261038876578e+001,-1.61717838562998e+001

3.88542363006410e+005,-2.31299191745575e+001,-1.63905674939473e+001

3.93966212270369e+005,-2.31338188442937e+001,-1.66122472226730e+001

3.99465775648511e+005,-2.31378048495659e+001,-1.68368607914011e+001

4.05042110070485e+005,-2.31418791994533e+001,-1.70644464002125e+001

4.10696287220124e+005,-2.31460439611067e+001,-1.72950427002487e+001

4.16429393741414e+005,-2.31503012614573e+001,-1.75286887932685e+001

4.22242531447321e+005,-2.31546532889397e+001,-1.77654242308472e+001

4.28136817531551e+005,-2.31591022952278e+001,-1.80052890132150e+001

4.34113384783250e+005,-2.31636505969817e+001,-1.82483235877237e+001

4.40173381804713e+005,-2.31683005776035e+001,-1.84945688469395e+001

4.46317973232124e+005,-2.31730546889998e+001,-1.87440661263532e+001

4.52548339959385e+005,-2.31779154533499e+001,-1.89968572017052e+001

4.58865679365059e+005,-2.31828854648760e+001,-1.92529842859183e+001

4.65271205542494e+005,-2.31879673916153e+001,-1.95124900256352e+001

4.71766149533147e+005,-2.31931639771910e+001,-1.97754174973568e+001

4.78351759563174e+005,-2.31984780425800e+001,-2.00418102031765e+001

4.85029301283321e+005,-2.32039124878756e+001,-2.03117120661093e+001

4.91800058012158e+005,-2.32094702940440e+001,-2.05851674250091e+001

4.98665330982714e+005,-2.32151545246708e+001,-2.08622210290757e+001

5.05626439592555e+005,-2.32209683276973e+001,-2.11429180319466e+001

5.12684721657352e+005,-2.32269149371429e+001,-2.14273039853701e+001

5.19841533667984e+005,-2.32329976748138e+001,-2.17154248324611e+001

5.27098251051240e+005,-2.32392199519934e+001,-2.20073269005337e+001

5.34456268434150e+005,-2.32455852711141e+001,-2.23030568935115e+001

5.41916999912011e+005,-2.32520972274084e+001,-2.26026618839132e+001

