Freq.,VOut,OutRef

1.00000000000000e+004,-2.20309217679992e+001,-1.82203099876862e-001

1.01395947979003e+004,-2.20309237005964e+001,-1.84746288608879e-001

1.02811382665607e+004,-2.20309256874671e+001,-1.87324967401039e-001

1.04246576084112e+004,-2.20309277301334e+001,-1.89939631189147e-001

1.05701804056138e+004,-2.20309298301603e+001,-1.92590781795066e-001

1.07177346253629e+004,-2.20309319891569e+001,-1.95278928024188e-001

1.08673486252606e+004,-2.20309342087770e+001,-1.98004585762181e-001

1.10190511587661e+004,-2.20309364907206e+001,-2.00768278073621e-001

1.11728713807222e+004,-2.20309388367355e+001,-2.03570535299256e-001

1.13288388529580e+004,-2.20309412486184e+001,-2.06411895158094e-001

1.14869835499703e+004,-2.20309437282158e+001,-2.09292902849812e-001

1.16473358646846e+004,-2.20309462774262e+001,-2.12214111155974e-001

1.18099266142953e+004,-2.20309488982015e+001,-2.15176080544779e-001

1.19747870461893e+004,-2.20309515925472e+001,-2.18179379281748e-001

1.21419488439505e+004,-2.20309543625258e+001,-2.21224583530054e-001

1.23114441334492e+004,-2.20309572102570e+001,-2.24312277464425e-001

1.24833054890161e+004,-2.20309601379197e+001,-2.27443053381445e-001

1.26575659397028e+004,-2.20309631477538e+001,-2.30617511809531e-001

1.28342589756290e+004,-2.20309662420616e+001,-2.33836261622465e-001

1.30134185544193e+004,-2.20309694232099e+001,-2.37099920155944e-001

1.31950791077289e+004,-2.20309726936313e+001,-2.40409113323404e-001

1.33792755478611e+004,-2.20309760558264e+001,-2.43764475733281e-001

1.35660432744767e+004,-2.20309795123658e+001,-2.47166650809689e-001

1.37554181813974e+004,-2.20309830658915e+001,-2.50616290912879e-001

1.39474366635040e+004,-2.20309867191194e+001,-2.54114057462106e-001

1.41421356237309e+004,-2.20309904748410e+001,-2.57660621061031e-001

1.43395524801583e+004,-2.20309943359258e+001,-2.61256661621904e-001

1.45397251732031e+004,-2.20309983053231e+001,-2.64902868495435e-001

1.47426921729110e+004,-2.20310023860645e+001,-2.68599940600804e-001

1.49484924863494e+004,-2.20310065812661e+001,-2.72348586552590e-001

1.51571656651040e+004,-2.20310108941306e+001,-2.76149524798447e-001

1.53687518128801e+004,-2.20310153279501e+001,-2.80003483752882e-001

1.55832915932100e+004,-2.20310198861082e+001,-2.83911201930092e-001

1.58008262372675e+004,-2.20310245720829e+001,-2.87873428086799e-001

1.60213975517924e+004,-2.20310293894485e+001,-2.91890921360772e-001

1.62450479271247e+004,-2.20310343418793e+001,-2.95964451410634e-001

1.64718203453514e+004,-2.20310394331514e+001,-3.00094798562322e-001

1.67017583885674e+004,-2.20310446671458e+001,-3.04282753955276e-001

1.69349062472505e+004,-2.20310500478517e+001,-3.08529119685675e-001

1.71713087287550e+004,-2.20310555793689e+001,-3.12834708959841e-001

1.74110112659224e+004,-2.20310612659109e+001,-3.17200346245981e-001

1.76540599258131e+004,-2.20310671118086e+001,-3.21626867423118e-001

1.79005014185594e+004,-2.20310731215125e+001,-3.26115119942481e-001

1.81503831063432e+004,-2.20310792995972e+001,-3.30665962978187e-001

1.84037530124975e+004,-2.20310856507637e+001,-3.35280267592924e-001

1.86606598307361e+004,-2.20310921798435e+001,-3.39958916894870e-001

1.89211529345119e+004,-2.20310988918018e+001,-3.44702806203875e-001

1.91852823865052e+004,-2.20311057917415e+001,-3.49512843215483e-001

1.94530989482457e+004,-2.20311128849069e+001,-3.54389948168019e-001

1.97246540898671e+004,-2.20311201766870e+001,-3.59335054014483e-001

1.99999999999999e+004,-2.20311276726202e+001,-3.64349106592835e-001

2.02791895958005e+004,-2.20311353783980e+001,-3.69433064800970e-001

2.05622765331213e+004,-2.20311432998690e+001,-3.74587900772272e-001

2.08493152168224e+004,-2.20311514430434e+001,-3.79814600055488e-001

2.11403608112276e+004,-2.20311598140976e+001,-3.85114161792372e-001

2.14354692507258e+004,-2.20311684193781e+001,-3.90487598903752e-001

2.17346972505211e+004,-2.20311772654065e+001,-3.95935938275391e-001

2.20381023175322e+004,-2.20311863588843e+001,-4.01460220942026e-001

2.23457427614443e+004,-2.20311957066974e+001,-4.07061502279282e-001

2.26576777059159e+004,-2.20312053159215e+001,-4.12740852196836e-001

2.29739670999406e+004,-2.20312151938269e+001,-4.18499355331064e-001

2.32946717293690e+004,-2.20312253478837e+001,-4.24338111243646e-001

2.36198532285905e+004,-2.20312357857676e+001,-4.30258234618820e-001

2.39495740923785e+004,-2.20312465153648e+001,-4.36260855467955e-001

2.42838976879009e+004,-2.20312575447780e+001,-4.42347119331467e-001

2.46228882668982e+004,-2.20312688823324e+001,-4.48518187485074e-001

2.49666109780322e+004,-2.20312805365810e+001,-4.54775237152471e-001

2.53151318794055e+004,-2.20312925163114e+001,-4.61119461711968e-001

2.56685179512580e+004,-2.20313048305513e+001,-4.67552070915283e-001

2.60268371088386e+004,-2.20313174885756e+001,-4.74074291100395e-001

2.63901582154578e+004,-2.20313304999126e+001,-4.80687365412882e-001

2.67585510957221e+004,-2.20313438743506e+001,-4.87392554026626e-001

2.71320865489533e+004,-2.20313576219451e+001,-4.94191134369488e-001

2.75108363627948e+004,-2.20313717530255e+001,-5.01084401347713e-001

2.78948733270080e+004,-2.20313862782026e+001,-5.08073667578785e-001

2.82842712474618e+004,-2.20314012083760e+001,-5.15160263619635e-001

2.86791049603164e+004,-2.20314165547413e+001,-5.22345538204874e-001

2.90794503464061e+004,-2.20314323287985e+001,-5.29630858481927e-001

2.94853843458219e+004,-2.20314485423592e+001,-5.37017610252033e-001

2.98969849726987e+004,-2.20314652075554e+001,-5.44507198213095e-001

3.03143313302078e+004,-2.20314823368474e+001,-5.52101046203684e-001

3.07375036257601e+004,-2.20314999430326e+001,-5.59800597453160e-001

3.11665831864199e+004,-2.20315180392541e+001,-5.67607314830239e-001

3.16016524745350e+004,-2.20315366390094e+001,-5.75522681099203e-001

3.20427951035848e+004,-2.20315557561602e+001,-5.83548199172409e-001

3.24900958542493e+004,-2.20315754049409e+001,-5.91685392373598e-001

3.29436406907028e+004,-2.20315955999690e+001,-5.99935804694629e-001

3.34035167771346e+004,-2.20316163562541e+001,-6.08301001065075e-001

3.38698124945009e+004,-2.20316376892087e+001,-6.16782567614408e-001

3.43426174575100e+004,-2.20316596146576e+001,-6.25382111945183e-001

3.48220225318448e+004,-2.20316821488493e+001,-6.34101263404811e-001

3.53081198516260e+004,-2.20317053084655e+001,-6.42941673360131e-001

3.58010028371187e+004,-2.20317291106335e+001,-6.51905015475699e-001

3.63007662126863e+004,-2.20317535729358e+001,-6.60992985995875e-001

3.68075060249948e+004,-2.20317787134226e+001,-6.70207304026905e-001

3.73213196614721e+004,-2.20318045506234e+001,-6.79549711822923e-001

3.78423058690237e+004,-2.20318311035581e+001,-6.89021975077017e-001

3.83705647730104e+004,-2.20318583917500e+001,-6.98625883210288e-001

3.89061978964912e+004,-2.20318864352376e+001,-7.08363249669395e-001

3.94493081797342e+004,-2.20319152545876e+001,-7.18235912220252e-001

3.99999999999998e+004,-2.20319448709078e+001,-7.28245733249993e-001

4.05583791916010e+004,-2.20319753058597e+001,-7.38394600070456e-001

4.11245530662425e+004,-2.20320065816730e+001,-7.48684425219457e-001

4.16986304336447e+004,-2.20320387211582e+001,-7.59117146773005e-001

4.22807216224550e+004,-2.20320717477211e+001,-7.69694728652798e-001

4.28709385014515e+004,-2.20321056853769e+001,-7.80419160940384e-001

4.34693945010421e+004,-2.20321405587643e+001,-7.91292460193633e-001

4.40762046350642e+004,-2.20321763931613e+001,-8.02316669761935e-001

4.46914855228886e+004,-2.20322132144988e+001,-8.13493860110708e-001

4.53153554118317e+004,-2.20322510493768e+001,-8.24826129141803e-001

4.59479341998812e+004,-2.20322899250796e+001,-8.36315602520906e-001

4.65893434587380e+004,-2.20323298695916e+001,-8.47964434004438e-001

4.72397064571810e+004,-2.20323709116134e+001,-8.59774805770632e-001

4.78991481847569e+004,-2.20324130805780e+001,-8.71748928753315e-001

4.85677953758016e+004,-2.20324564066675e+001,-8.83889042975582e-001

4.92457765337964e+004,-2.20325009208297e+001,-8.96197417888830e-001

4.99332219560642e+004,-2.20325466547952e+001,-9.08676352712469e-001

5.06302637588109e+004,-2.20325936410950e+001,-9.21328176774951e-001

5.13370359025159e+004,-2.20326419130777e+001,-9.34155249858855e-001

5.20536742176771e+004,-2.20326915049272e+001,-9.47159962548109e-001

5.27803164309155e+004,-2.20327424516813e+001,-9.60344736574886e-001

5.35171021914442e+004,-2.20327947892489e+001,-9.73712025172241e-001

5.42641730979066e+004,-2.20328485544295e+001,-9.87264313424313e-001

5.50216727255895e+004,-2.20329037849312e+001,-1.00100411862293e+000

5.57897466540159e+004,-2.20329605193896e+001,-1.01493399062350e+000

5.65685424949235e+004,-2.20330187973870e+001,-1.02905651220275e+000

5.73582099206328e+004,-2.20330786594714e+001,-1.04337429941957e+000

5.81589006928121e+004,-2.20331401471762e+001,-1.05789000197613e+000

5.89707686916437e+004,-2.20332033030389e+001,-1.07260630358302e+000

5.97939699453972e+004,-2.20332681706218e+001,-1.08752592232276e+000

6.06286626604156e+004,-2.20333347945309e+001,-1.10265161101664e+000

6.14750072515201e+004,-2.20334032204362e+001,-1.11798615759457e+000

6.23331663728396e+004,-2.20334734950912e+001,-1.13353238546327e+000

6.32033049490698e+004,-2.20335456663532e+001,-1.14929315387942e+000

6.40855902071694e+004,-2.20336197832035e+001,-1.16527135831898e+000

6.49801917084985e+004,-2.20336958957670e+001,-1.18146993085507e+000

6.58872813814055e+004,-2.20337740553324e+001,-1.19789184052995e+000

6.68070335542691e+004,-2.20338543143721e+001,-1.21454009373382e+000

6.77396249890018e+004,-2.20339367265626e+001,-1.23141773458012e+000

6.86852349150199e+004,-2.20340213468037e+001,-1.24852784528605e+000

6.96440450636895e+004,-2.20341082312386e+001,-1.26587354655258e+000

7.06162397032520e+004,-2.20341974372735e+001,-1.28345799794355e+000

7.16020056742374e+004,-2.20342890235967e+001,-1.30128439826900e+000

7.26015324253724e+004,-2.20343830501981e+001,-1.31935598596875e+000

7.36150120499896e+004,-2.20344795783878e+001,-1.33767603949431e+000

7.46426393229441e+004,-2.20345786708151e+001,-1.35624787769574e+000

7.56846117380472e+004,-2.20346803914861e+001,-1.37507486020738e+000

7.67411295460207e+004,-2.20347848057824e+001,-1.39416038783405e+000

7.78123957929823e+004,-2.20348919804776e+001,-1.41350790293971e+000

7.88986163594682e+004,-2.20350019837552e+001,-1.43312088983583e+000

7.99999999999995e+004,-2.20351148852242e+001,-1.45300287517292e+000

8.11167583832018e+004,-2.20352307559354e+001,-1.47315742833022e+000

8.22491061324848e+004,-2.20353496683963e+001,-1.49358816180984e+000

8.33972608672892e+004,-2.20354716965856e+001,-1.51429873162880e+000

8.45614432449099e+004,-2.20355969159672e+001,-1.53529283771498e+000

8.57418770029029e+004,-2.20357254035026e+001,-1.55657422430472e+000

8.69387890020841e+004,-2.20358572376630e+001,-1.57814668033962e+000

8.81524092701283e+004,-2.20359924984406e+001,-1.60001403986739e+000

8.93829710457770e+004,-2.20361312673584e+001,-1.62218018244282e+000

9.06307108236633e+004,-2.20362736274786e+001,-1.64464903353436e+000

9.18958683997622e+004,-2.20364196634111e+001,-1.66742456492752e+000

9.31786869174758e+004,-2.20365694613195e+001,-1.69051079513587e+000

9.44794129143618e+004,-2.20367231089260e+001,-1.71391178981324e+000

9.57982963695136e+004,-2.20368806955158e+001,-1.73763166216703e+000

9.71355907516031e+004,-2.20370423119380e+001,-1.76167457337956e+000

9.84915530675926e+004,-2.20372080506078e+001,-1.78604473302842e+000

9.98664439121282e+004,-2.20373780055040e+001,-1.81074639951447e+000

1.01260527517622e+005,-2.20375522721670e+001,-1.83578388049349e+000

1.02674071805032e+005,-2.20377309476939e+001,-1.86116153331227e+000

1.04107348435354e+005,-2.20379141307318e+001,-1.88688376545265e+000

1.05560632861831e+005,-2.20381019214690e+001,-1.91295503497919e+000

1.07034204382888e+005,-2.20382944216247e+001,-1.93937985099516e+000

1.08528346195813e+005,-2.20384917344353e+001,-1.96616277410710e+000

1.10043345451179e+005,-2.20386939646397e+001,-1.99330841689515e+000

1.11579493308032e+005,-2.20389012184614e+001,-2.02082144439497e+000

1.13137084989847e+005,-2.20391136035881e+001,-2.04870657458748e+000

1.14716419841265e+005,-2.20393312291491e+001,-2.07696857890085e+000

1.16317801385624e+005,-2.20395542056898e+001,-2.10561228272360e+000

1.17941537383287e+005,-2.20397826451435e+001,-2.13464256592982e+000

1.19587939890794e+005,-2.20400166608003e+001,-2.16406436341916e+000

1.21257325320831e+005,-2.20402563672729e+001,-2.19388266567095e+000

1.22950014503040e+005,-2.20405018804602e+001,-2.22410251931360e+000

1.24666332745679e+005,-2.20407533175066e+001,-2.25472902771248e+000

1.26406609898139e+005,-2.20410107967590e+001,-2.28576735157636e+000

1.28171180414339e+005,-2.20412744377204e+001,-2.31722270958225e+000

1.29960383416997e+005,-2.20415443610002e+001,-2.34910037902250e+000

1.31774562762811e+005,-2.20418206882613e+001,-2.38140569647548e+000

1.33614067108538e+005,-2.20421035421633e+001,-2.41414405849919e+000

1.35479249978003e+005,-2.20423930463033e+001,-2.44732092235149e+000

1.37370469830040e+005,-2.20426893251523e+001,-2.48094180673837e+000

1.39288090127379e+005,-2.20429925039887e+001,-2.51501229259181e+000

1.41232479406504e+005,-2.20433027088284e+001,-2.54953802387805e+000

1.43204011348474e+005,-2.20436200663510e+001,-2.58452470844024e+000

1.45203064850745e+005,-2.20439447038233e+001,-2.61997811887571e+000

1.47230024099979e+005,-2.20442767490187e+001,-2.65590409345067e+000

1.49285278645888e+005,-2.20446163301343e+001,-2.69230853705430e+000

1.51369223476094e+005,-2.20449635757030e+001,-2.72919742219438e+000

1.53482259092041e+005,-2.20453186145048e+001,-2.76657679003635e+000

1.55624791585964e+005,-2.20456815754731e+001,-2.80445275148861e+000

1.57797232718936e+005,-2.20460525875989e+001,-2.84283148833590e+000

1.59999999999999e+005,-2.20464317798322e+001,-2.88171925442258e+000

1.62233516766403e+005,-2.20468192809808e+001,-2.92112237689028e+000

1.64498212264969e+005,-2.20472152196065e+001,-2.96104725746831e+000

1.66794521734578e+005,-2.20476197239191e+001,-3.00150037382445e+000

1.69122886489819e+005,-2.20480329216686e+001,-3.04248828097249e+000

1.71483754005805e+005,-2.20484549400356e+001,-3.08401761274516e+000

1.73877578004168e+005,-2.20488859055203e+001,-3.12609508332920e+000

1.76304818540256e+005,-2.20493259438302e+001,-3.16872748886796e+000

1.78765942091554e+005,-2.20497751797674e+001,-3.21192170913415e+000

1.81261421647326e+005,-2.20502337371148e+001,-3.25568470927235e+000

1.83791736799524e+005,-2.20507017385236e+001,-3.30002354161591e+000

1.86357373834951e+005,-2.20511793053994e+001,-3.34494534757966e+000

1.88958825828723e+005,-2.20516665577908e+001,-3.39045735962892e+000

1.91596592739027e+005,-2.20521636142782e+001,-3.43656690332929e+000

1.94271181503206e+005,-2.20526705918654e+001,-3.48328139947675e+000

1.96983106135185e+005,-2.20531876058724e+001,-3.53060836631079e+000

1.99732887824256e+005,-2.20537147698323e+001,-3.57855542181132e+000

2.02521055035243e+005,-2.20542521953913e+001,-3.62713028608155e+000

2.05348143610063e+005,-2.20547999922121e+001,-3.67634078381821e+000

2.08214696870707e+005,-2.20553582678832e+001,-3.72619484686615e+000

2.11121265723661e+005,-2.20559271278332e+001,-3.77670051686538e+000

2.14068408765776e+005,-2.20565066752505e+001,-3.82786594798387e+000

2.17056692391625e+005,-2.20570970110111e+001,-3.87969940973977e+000

2.20086690902357e+005,-2.20576982336126e+001,-3.93220928991288e+000

2.23158986616063e+005,-2.20583104391173e+001,-3.98540409754404e+000

2.26274169979693e+005,-2.20589337211038e+001,-4.03929246602311e+000

2.29432839682530e+005,-2.20595681706285e+001,-4.09388315626303e+000

2.32635602771247e+005,-2.20602138761975e+001,-4.14918505996001e+000

2.35883074766574e+005,-2.20608709237496e+001,-4.20520720293833e+000

2.39175879781588e+005,-2.20615393966513e+001,-4.26195874857644e+000

2.42514650641661e+005,-2.20622193757051e+001,-4.31944900131406e+000

2.45900029006080e+005,-2.20629109391699e+001,-4.37768741023672e+000

2.49332665491357e+005,-2.20636141627970e+001,-4.43668357273429e+000

2.52813219796278e+005,-2.20643291198799e+001,-4.49644723823244e+000

2.56342360828676e+005,-2.20650558813207e+001,-4.55698831198997e+000

2.59920766833993e+005,-2.20657945157117e+001,-4.61831685896229e+000

2.63549125525621e+005,-2.20665450894349e+001,-4.68044310772324e+000

2.67228134217075e+005,-2.20673076667781e+001,-4.74337745444247e+000

2.70958499956006e+005,-2.20680823100697e+001,-4.80713046691337e+000

2.74740939660078e+005,-2.20688690798317e+001,-4.87171288862655e+000

2.78576180254757e+005,-2.20696680349523e+001,-4.93713564288205e+000

2.82464958813007e+005,-2.20704792328775e+001,-5.00340983693655e+000

2.86408022696948e+005,-2.20713027298228e+001,-5.07054676617852e+000

2.90406129701488e+005,-2.20721385810054e+001,-5.13855791832426e+000

2.94460048199957e+005,-2.20729868408963e+001,-5.20745497763149e+000

2.98570557291775e+005,-2.20738475634938e+001,-5.27724982911995e+000

3.02738446952187e+005,-2.20747208026175e+001,-5.34795456279573e+000

3.06964518184081e+005,-2.20756066122230e+001,-5.41958147787081e+000

3.11249583171928e+005,-2.20765050467385e+001,-5.49214308697101e+000

3.15594465437872e+005,-2.20774161614209e+001,-5.56565212032637e+000

3.19999999999997e+005,-2.20783400127336e+001,-5.64012152993656e+000

3.24467033532806e+005,-2.20792766587446e+001,-5.71556449370408e+000

3.28996424529938e+005,-2.20802261595451e+001,-5.79199441952959e+000

3.33589043469155e+005,-2.20811885776871e+001,-5.86942494936179e+000

3.38245772979638e+005,-2.20821639786419e+001,-5.94786996319529e+000

3.42967508011610e+005,-2.20831524312759e+001,-6.02734358301197e+000

3.47755156008335e+005,-2.20841540083466e+001,-6.10786017665709e+000

3.52609637080511e+005,-2.20851687870150e+001,-6.18943436164631e+000

3.57531884183106e+005,-2.20861968493760e+001,-6.27208100889782e+000

3.62522843294651e+005,-2.20872382830046e+001,-6.35581524638435e+000

3.67583473599047e+005,-2.20882931815182e+001,-6.44065246269948e+000

3.72714747669902e+005,-2.20893616451533e+001,-6.52660831053572e+000

3.77917651657445e+005,-2.20904437813561e+001,-6.61369871006885e+000

3.83193185478053e+005,-2.20915397053866e+001,-6.70193985224544e+000

3.88542363006410e+005,-2.20926495409337e+001,-6.79134820197181e+000

3.93966212270369e+005,-2.20937734207421e+001,-6.88194050119927e+000

3.99465775648511e+005,-2.20949114872492e+001,-6.97373377190675e+000

4.05042110070485e+005,-2.20960638932303e+001,-7.06674531897751e+000

4.10696287220124e+005,-2.20972308024527e+001,-7.16099273296868e+000

4.16429393741414e+005,-2.20984123903358e+001,-7.25649389277489e+000

4.22242531447321e+005,-2.20996088446184e+001,-7.35326696818455e+000

4.28136817531551e+005,-2.21008203660291e+001,-7.45133042233066e+000

4.34113384783250e+005,-2.21020471689627e+001,-7.55070301403534e+000

4.40173381804713e+005,-2.21032894821581e+001,-7.65140380005234e+000

4.46317973232124e+005,-2.21045475493787e+001,-7.75345213720784e+000

4.52548339959385e+005,-2.21058216300943e+001,-7.85686768444251e+000

4.58865679365059e+005,-2.21071120001629e+001,-7.96167040475812e+000

4.65271205542494e+005,-2.21084189525119e+001,-8.06788056707185e+000

4.71766149533147e+005,-2.21097427978192e+001,-8.17551874798229e+000

4.78351759563174e+005,-2.21110838651908e+001,-8.28460583345164e+000

4.85029301283321e+005,-2.21124425028370e+001,-8.39516302040754e+000

4.91800058012158e+005,-2.21138190787453e+001,-8.50721181827013e+000

4.98665330982714e+005,-2.21152139813498e+001,-8.62077405041003e+000

5.05626439592555e+005,-2.21166276201963e+001,-8.73587185554013e+000

5.12684721657352e+005,-2.21180604266036e+001,-8.85252768904912e+000

5.19841533667984e+005,-2.21195128543201e+001,-8.97076432428070e+000

5.27098251051240e+005,-2.21209853801752e+001,-9.09060485376466e+000

5.34456268434150e+005,-2.21224785047271e+001,-9.21207269040488e+000

5.41916999912011e+005,-2.21239927529042e+001,-9.33519156863014e+000

