Freq.,VOut,OutRef

1.00000000000000e+004,-1.88930119552115e+001,-2.44673096800880e-001

1.01395947979003e+004,-1.88930134641261e+001,-2.48088434607132e-001

1.02811382665607e+004,-1.88930150154254e+001,-2.51551441482172e-001

1.04246576084112e+004,-1.88930166102989e+001,-2.55062782552844e-001

1.05701804056138e+004,-1.88930182499692e+001,-2.58623132219622e-001

1.07177346253629e+004,-1.88930199356938e+001,-2.62233174280337e-001

1.08673486252606e+004,-1.88930216687645e+001,-2.65893602067075e-001

1.10190511587661e+004,-1.88930234505101e+001,-2.69605118573652e-001

1.11728713807222e+004,-1.88930252822961e+001,-2.73368436593156e-001

1.13288388529580e+004,-1.88930271655267e+001,-2.77184278851631e-001

1.14869835499703e+004,-1.88930291016448e+001,-2.81053378148605e-001

1.16473358646846e+004,-1.88930310921342e+001,-2.84976477495246e-001

1.18099266142953e+004,-1.88930331385198e+001,-2.88954330256512e-001

1.19747870461893e+004,-1.88930352423698e+001,-2.92987700293990e-001

1.21419488439505e+004,-1.88930374052957e+001,-2.97077362113245e-001

1.23114441334492e+004,-1.88930396289541e+001,-3.01224101013060e-001

1.24833054890161e+004,-1.88930419150484e+001,-3.05428713229769e-001

1.26575659397028e+004,-1.88930442653293e+001,-3.09692006093898e-001

1.28342589756290e+004,-1.88930466815965e+001,-3.14014798182777e-001

1.30134185544193e+004,-1.88930491657002e+001,-3.18397919475876e-001

1.31950791077289e+004,-1.88930517195419e+001,-3.22842211514486e-001

1.33792755478611e+004,-1.88930543450767e+001,-3.27348527559847e-001

1.35660432744767e+004,-1.88930570443143e+001,-3.31917732756367e-001

1.37554181813974e+004,-1.88930598193202e+001,-3.36550704298528e-001

1.39474366635040e+004,-1.88930626722179e+001,-3.41248331594480e-001

1.41421356237309e+004,-1.88930656051903e+001,-3.46011516438154e-001

1.43395524801583e+004,-1.88930686204812e+001,-3.50841173177798e-001

1.45397251732031e+004,-1.88930717203968e+001,-3.55738228894051e-001

1.47426921729110e+004,-1.88930749073079e+001,-3.60703623572448e-001

1.49484924863494e+004,-1.88930781836515e+001,-3.65738310283954e-001

1.51571656651040e+004,-1.88930815519326e+001,-3.70843255364930e-001

1.53687518128801e+004,-1.88930850147261e+001,-3.76019438602134e-001

1.55832915932100e+004,-1.88930885746787e+001,-3.81267853417793e-001

1.58008262372675e+004,-1.88930922345108e+001,-3.86589507059830e-001

1.60213975517924e+004,-1.88930959970189e+001,-3.91985420788666e-001

1.62450479271247e+004,-1.88930998650771e+001,-3.97456630077538e-001

1.64718203453514e+004,-1.88931038416401e+001,-4.03004184802566e-001

1.67017583885674e+004,-1.88931079297447e+001,-4.08629149445444e-001

1.69349062472505e+004,-1.88931121325121e+001,-4.14332603294850e-001

1.71713087287550e+004,-1.88931164531506e+001,-4.20115640650439e-001

1.74110112659224e+004,-1.88931208949578e+001,-4.25979371028453e-001

1.76540599258131e+004,-1.88931254613233e+001,-4.31924919374736e-001

1.79005014185594e+004,-1.88931301557306e+001,-4.37953426275320e-001

1.81503831063432e+004,-1.88931349817604e+001,-4.44066048173475e-001

1.84037530124975e+004,-1.88931399430931e+001,-4.50263957586860e-001

1.86606598307361e+004,-1.88931450435110e+001,-4.56548343330651e-001

1.89211529345119e+004,-1.88931502869018e+001,-4.62920410741294e-001

1.91852823865052e+004,-1.88931556772614e+001,-4.69381381903583e-001

1.94530989482457e+004,-1.88931612186963e+001,-4.75932495881869e-001

1.97246540898671e+004,-1.88931669154273e+001,-4.82575008954323e-001

1.99999999999999e+004,-1.88931727717921e+001,-4.89310194848167e-001

2.02791895958005e+004,-1.88931787922491e+001,-4.96139344981239e-001

2.05622765331213e+004,-1.88931849813800e+001,-5.03063768703372e-001

2.08493152168224e+004,-1.88931913438938e+001,-5.10084793544686e-001

2.11403608112276e+004,-1.88931978846299e+001,-5.17203765462949e-001

2.14354692507258e+004,-1.88932046085617e+001,-5.24422049100581e-001

2.17346972505211e+004,-1.88932115208006e+001,-5.31741028035225e-001

2.20381023175322e+004,-1.88932186265991e+001,-5.39162105044413e-001

2.23457427614443e+004,-1.88932259313552e+001,-5.46686702366518e-001

2.26576777059159e+004,-1.88932334406162e+001,-5.54316261968279e-001

2.29739670999406e+004,-1.88932411600829e+001,-5.62052245812719e-001

2.32946717293690e+004,-1.88932490956133e+001,-5.69896136136509e-001

2.36198532285905e+004,-1.88932572532274e+001,-5.77849435724093e-001

2.39495740923785e+004,-1.88932656391112e+001,-5.85913668190697e-001

2.42838976879009e+004,-1.88932742596215e+001,-5.94090378265353e-001

2.46228882668982e+004,-1.88932831212905e+001,-6.02381132080162e-001

2.49666109780322e+004,-1.88932922308298e+001,-6.10787517462919e-001

2.53151318794055e+004,-1.88933015951367e+001,-6.19311144231138e-001

2.56685179512580e+004,-1.88933112212978e+001,-6.27953644494042e-001

2.60268371088386e+004,-1.88933211165948e+001,-6.36716672954238e-001

2.63901582154578e+004,-1.88933312885097e+001,-6.45601907217099e-001

2.67585510957221e+004,-1.88933417447298e+001,-6.54611048100774e-001

2.71320865489533e+004,-1.88933524931538e+001,-6.63745819952743e-001

2.75108363627948e+004,-1.88933635418970e+001,-6.73007970968786e-001

2.78948733270080e+004,-1.88933748992971e+001,-6.82399273517673e-001

2.82842712474618e+004,-1.88933865739205e+001,-6.91921524467944e-001

2.86791049603164e+004,-1.88933985745680e+001,-7.01576545520707e-001

2.90794503464061e+004,-1.88934109102813e+001,-7.11366183545587e-001

2.94853843458219e+004,-1.88934235903493e+001,-7.21292310920837e-001

2.98969849726987e+004,-1.88934366243145e+001,-7.31356825880474e-001

3.03143313302078e+004,-1.88934500219802e+001,-7.41561652860111e-001

3.07375036257601e+004,-1.88934637934167e+001,-7.51908742854314e-001

3.11665831864199e+004,-1.88934779489690e+001,-7.62400073771255e-001

3.16016524745350e+004,-1.88934924992636e+001,-7.73037650797834e-001

3.20427951035848e+004,-1.88935074552162e+001,-7.83823506766387e-001

3.24900958542493e+004,-1.88935228280389e+001,-7.94759702526048e-001

3.29436406907028e+004,-1.88935386292487e+001,-8.05848327318110e-001

3.34035167771346e+004,-1.88935548706744e+001,-8.17091499159565e-001

3.38698124945009e+004,-1.88935715644656e+001,-8.28491365227036e-001

3.43426174575100e+004,-1.88935887231009e+001,-8.40050102247532e-001

3.48220225318448e+004,-1.88936063593960e+001,-8.51769916895037e-001

3.53081198516260e+004,-1.88936244865129e+001,-8.63653046189012e-001

3.58010028371187e+004,-1.88936431179688e+001,-8.75701757900102e-001

3.63007662126863e+004,-1.88936622676448e+001,-8.87918350960852e-001

3.68075060249948e+004,-1.88936819497960e+001,-9.00305155879872e-001

3.73213196614721e+004,-1.88937021790604e+001,-9.12864535162183e-001

3.78423058690237e+004,-1.88937229704692e+001,-9.25598883733971e-001

3.83705647730104e+004,-1.88937443394564e+001,-9.38510629373300e-001

3.89061978964912e+004,-1.88937663018693e+001,-9.51602233144520e-001

3.94493081797342e+004,-1.88937888739792e+001,-9.64876189840122e-001

3.99999999999998e+004,-1.88938120724915e+001,-9.78335028425392e-001

4.05583791916010e+004,-1.88938359145570e+001,-9.91981312489424e-001

4.11245530662425e+004,-1.88938604177835e+001,-1.00581764070112e+000

4.16986304336447e+004,-1.88938856002463e+001,-1.01984664727297e+000

4.22807216224550e+004,-1.88939114805007e+001,-1.03407100242403e+000

4.28709385014515e+004,-1.88939380775934e+001,-1.04849341285645e+000

4.34693945010421e+004,-1.88939654110750e+001,-1.06311662223103e+000

4.40762046350642e+004,-1.88939935010123e+001,-1.07794341165160e+000

4.46914855228886e+004,-1.88940223680010e+001,-1.09297660015241e+000

4.53153554118317e+004,-1.88940520331785e+001,-1.10821904519444e+000

4.59479341998812e+004,-1.88940825182374e+001,-1.12367364316537e+000

4.65893434587380e+004,-1.88941138454386e+001,-1.13934332988350e+000

4.72397064571810e+004,-1.88941460376255e+001,-1.15523108111112e+000

4.78991481847569e+004,-1.88941791182375e+001,-1.17133991307084e+000

4.85677953758016e+004,-1.88942131113245e+001,-1.18767288296846e+000

4.92457765337964e+004,-1.88942480415615e+001,-1.20423308952250e+000

4.99332219560642e+004,-1.88942839342635e+001,-1.22102367349702e+000

5.06302637588109e+004,-1.88943208154000e+001,-1.23804781824347e+000

5.13370359025159e+004,-1.88943587116112e+001,-1.25530875024704e+000

5.20536742176771e+004,-1.88943976502228e+001,-1.27280973967730e+000

5.27803164309155e+004,-1.88944376592626e+001,-1.29055410094817e+000

5.35171021914442e+004,-1.88944787674761e+001,-1.30854519328166e+000

5.42641730979066e+004,-1.88945210043432e+001,-1.32678642127652e+000

5.50216727255895e+004,-1.88945644000948e+001,-1.34528123548694e+000

5.57897466540159e+004,-1.88946089857301e+001,-1.36403313300229e+000

5.65685424949235e+004,-1.88946547930332e+001,-1.38304565803815e+000

5.73582099206328e+004,-1.88947018545911e+001,-1.40232240252954e+000

5.81589006928121e+004,-1.88947502038113e+001,-1.42186700673125e+000

5.89707686916437e+004,-1.88947998749396e+001,-1.44168315982630e+000

5.97939699453972e+004,-1.88948509030786e+001,-1.46177460053841e+000

6.06286626604156e+004,-1.88949033242062e+001,-1.48214511775146e+000

6.14750072515201e+004,-1.88949571751942e+001,-1.50279855113672e+000

6.23331663728396e+004,-1.88950124938271e+001,-1.52373879178318e+000

6.32033049490698e+004,-1.88950693188218e+001,-1.54496978283791e+000

6.40855902071694e+004,-1.88951276898463e+001,-1.56649552015165e+000

6.49801917084985e+004,-1.88951876475398e+001,-1.58832005292882e+000

6.58872813814055e+004,-1.88952492335326e+001,-1.61044748438686e+000

6.68070335542691e+004,-1.88953124904657e+001,-1.63288197242119e+000

6.77396249890018e+004,-1.88953774620109e+001,-1.65562773027649e+000

6.86852349150199e+004,-1.88954441928918e+001,-1.67868902722551e+000

6.96440450636895e+004,-1.88955127289035e+001,-1.70207018925267e+000

7.06162397032520e+004,-1.88955831169338e+001,-1.72577559974756e+000

7.16020056742374e+004,-1.88956554049836e+001,-1.74980970020205e+000

7.26015324253724e+004,-1.88957296421880e+001,-1.77417699091709e+000

7.36150120499896e+004,-1.88958058788370e+001,-1.79888203171474e+000

7.46426393229441e+004,-1.88958841663967e+001,-1.82392944265755e+000

7.56846117380472e+004,-1.88959645575304e+001,-1.84932390477650e+000

7.67411295460207e+004,-1.88960471061195e+001,-1.87507016080448e+000

7.78123957929823e+004,-1.88961318672848e+001,-1.90117301591687e+000

7.88986163594682e+004,-1.88962188974075e+001,-1.92763733848270e+000

7.99999999999995e+004,-1.88963082541504e+001,-1.95446806081894e+000

8.11167583832018e+004,-1.88963999964788e+001,-1.98167017995611e+000

8.22491061324848e+004,-1.88964941846814e+001,-2.00924875840973e+000

8.33972608672892e+004,-1.88965908803913e+001,-2.03720892496030e+000

8.45614432449099e+004,-1.88966901466064e+001,-2.06555587544141e+000

8.57418770029029e+004,-1.88967920477103e+001,-2.09429487353616e+000

8.69387890020841e+004,-1.88968966494922e+001,-2.12343125158235e+000

8.81524092701283e+004,-1.88970040191670e+001,-2.15297041138505e+000

8.93829710457770e+004,-1.88971142253956e+001,-2.18291782503907e+000

9.06307108236633e+004,-1.88972273383037e+001,-2.21327903576057e+000

9.18958683997622e+004,-1.88973434295015e+001,-2.24405965872760e+000

9.31786869174758e+004,-1.88974625721021e+001,-2.27526538192959e+000

9.44794129143618e+004,-1.88975848407403e+001,-2.30690196702763e+000

9.57982963695136e+004,-1.88977103115902e+001,-2.33897525022430e+000

9.71355907516031e+004,-1.88978390623825e+001,-2.37149114314404e+000

9.84915530675926e+004,-1.88979711724220e+001,-2.40445563372349e+000

9.98664439121282e+004,-1.88981067226033e+001,-2.43787478711466e+000

1.01260527517622e+005,-1.88982457954268e+001,-2.47175474659742e+000

1.02674071805032e+005,-1.88983884750139e+001,-2.50610173450460e+000

1.04107348435354e+005,-1.88985348471210e+001,-2.54092205316132e+000

1.05560632861831e+005,-1.88986849991534e+001,-2.57622208583245e+000

1.07034204382888e+005,-1.88988390201781e+001,-2.61200829768855e+000

1.08528346195813e+005,-1.88989970009357e+001,-2.64828723678112e+000

1.10043345451179e+005,-1.88991590338515e+001,-2.68506553503542e+000

1.11579493308032e+005,-1.88993252130461e+001,-2.72234990925522e+000

1.13137084989847e+005,-1.88994956343442e+001,-2.76014716214549e+000

1.14716419841265e+005,-1.88996703952831e+001,-2.79846418334917e+000

1.16317801385624e+005,-1.88998495951199e+001,-2.83730795050241e+000

1.17941537383287e+005,-1.89000333348379e+001,-2.87668553030518e+000

1.19587939890794e+005,-1.89002217171512e+001,-2.91660407961266e+000

1.21257325320831e+005,-1.89004148465092e+001,-2.95707084654276e+000

1.22950014503040e+005,-1.89006128290989e+001,-2.99809317160619e+000

1.24666332745679e+005,-1.89008157728468e+001,-3.03967848885501e+000

1.26406609898139e+005,-1.89010237874190e+001,-3.08183432705459e+000

1.28171180414339e+005,-1.89012369842207e+001,-3.12456831087648e+000

1.29960383416997e+005,-1.89014554763937e+001,-3.16788816211640e+000

1.31774562762811e+005,-1.89016793788132e+001,-3.21180170093569e+000

1.33614067108538e+005,-1.89019088080830e+001,-3.25631684712850e+000

1.35479249978003e+005,-1.89021438825298e+001,-3.30144162141690e+000

1.37370469830040e+005,-1.89023847221960e+001,-3.34718414677254e+000

1.39288090127379e+005,-1.89026314488310e+001,-3.39355264976859e+000

1.41232479406504e+005,-1.89028841858819e+001,-3.44055546196118e+000

1.43204011348474e+005,-1.89031430584823e+001,-3.48820102130348e+000

1.45203064850745e+005,-1.89034081934409e+001,-3.53649787359173e+000

1.47230024099979e+005,-1.89036797192275e+001,-3.58545467394734e+000

1.49285278645888e+005,-1.89039577659600e+001,-3.63508018833252e+000

1.51369223476094e+005,-1.89042424653882e+001,-3.68538329510509e+000

1.53482259092041e+005,-1.89045339508785e+001,-3.73637298661102e+000

1.55624791585964e+005,-1.89048323573968e+001,-3.78805837081792e+000

1.57797232718936e+005,-1.89051378214911e+001,-3.84044867298840e+000

1.59999999999999e+005,-1.89054504812732e+001,-3.89355323739932e+000

1.62233516766403e+005,-1.89057704764006e+001,-3.94738152910310e+000

1.64498212264969e+005,-1.89060979480572e+001,-4.00194313573763e+000

1.66794521734578e+005,-1.89064330389347e+001,-4.05724776938223e+000

1.69122886489819e+005,-1.89067758932134e+001,-4.11330526846418e+000

1.71483754005805e+005,-1.89071266565436e+001,-4.17012559971536e+000

1.73877578004168e+005,-1.89074854760275e+001,-4.22771886018295e+000

1.76304818540256e+005,-1.89078525002015e+001,-4.28609527929155e+000

1.78765942091554e+005,-1.89082278790197e+001,-4.34526522096323e+000

1.81261421647326e+005,-1.89086117638380e+001,-4.40523918579387e+000

1.83791736799524e+005,-1.89090043074009e+001,-4.46602781328699e+000

1.86357373834951e+005,-1.89094056638285e+001,-4.52764188414853e+000

1.88958825828723e+005,-1.89098159886068e+001,-4.59009232264193e+000

1.91596592739027e+005,-1.89102354385799e+001,-4.65339019900587e+000

1.94271181503206e+005,-1.89106641719448e+001,-4.71754673193552e+000

1.96983106135185e+005,-1.89111023482501e+001,-4.78257329112792e+000

1.99732887824256e+005,-1.89115501283971e+001,-4.84848139989317e+000

2.02521055035243e+005,-1.89120076746460e+001,-4.91528273783222e+000

2.05348143610063e+005,-1.89124751506257e+001,-4.98298914358130e+000

2.08214696870707e+005,-1.89129527213483e+001,-5.05161261762382e+000

2.11121265723661e+005,-1.89134405532300e+001,-5.12116532517204e+000

2.14068408765776e+005,-1.89139388141160e+001,-5.19165959911489e+000

2.17056692391625e+005,-1.89144476733129e+001,-5.26310794303715e+000

2.20086690902357e+005,-1.89149673016275e+001,-5.33552303430521e+000

2.23158986616063e+005,-1.89154978714125e+001,-5.40891772722243e+000

2.26274169979693e+005,-1.89160395566199e+001,-5.48330505625241e+000

2.29432839682530e+005,-1.89165925328632e+001,-5.55869823931098e+000

2.32635602771247e+005,-1.89171569774875e+001,-5.63511068112301e+000

2.35883074766574e+005,-1.89177330696494e+001,-5.71255597664773e+000

2.39175879781588e+005,-1.89183209904069e+001,-5.79104791456696e+000

2.42514650641661e+005,-1.89189209228188e+001,-5.87060048083773e+000

2.45900029006080e+005,-1.89195330520558e+001,-5.95122786230682e+000

2.49332665491357e+005,-1.89201575655220e+001,-6.03294445038578e+000

2.52813219796278e+005,-1.89207946529895e+001,-6.11576484478236e+000

2.56342360828676e+005,-1.89214445067442e+001,-6.19970385729014e+000

2.59920766833993e+005,-1.89221073217452e+001,-6.28477651562999e+000

2.63549125525621e+005,-1.89227832957968e+001,-6.37099806734225e+000

2.67228134217075e+005,-1.89234726297347e+001,-6.45838398372806e+000

2.70958499956006e+005,-1.89241755276267e+001,-6.54694996383321e+000

2.74740939660078e+005,-1.89248921969870e+001,-6.63671193847592e+000

2.78576180254757e+005,-1.89256228490064e+001,-6.72768607431048e+000

2.82464958813007e+005,-1.89263676987973e+001,-6.81988877792593e+000

2.86408022696948e+005,-1.89271269656541e+001,-6.91333669997567e+000

2.90406129701488e+005,-1.89279008733303e+001,-7.00804673933307e+000

2.94460048199957e+005,-1.89286896503311e+001,-7.10403604726888e+000

2.98570557291775e+005,-1.89294935302219e+001,-7.20132203164798e+000

3.02738446952187e+005,-1.89303127519549e+001,-7.29992236113854e+000

3.06964518184081e+005,-1.89311475602107e+001,-7.39985496943226e+000

3.11249583171928e+005,-1.89319982057574e+001,-7.50113805946732e+000

3.15594465437872e+005,-1.89328649458264e+001,-7.60379010765408e+000

3.19999999999997e+005,-1.89337480445053e+001,-7.70782986809373e+000

3.24467033532806e+005,-1.89346477731468e+001,-7.81327637679186e+000

3.28996424529938e+005,-1.89355644107953e+001,-7.92014895585495e+000

3.33589043469155e+005,-1.89364982446287e+001,-8.02846721767219e+000

3.38245772979638e+005,-1.89374495704182e+001,-8.13825106907354e+000

3.42967508011610e+005,-1.89384186930030e+001,-8.24952071546189e+000

3.47755156008335e+005,-1.89394059267814e+001,-8.36229666491438e+000

3.52609637080511e+005,-1.89404115962177e+001,-8.47659973225024e+000

3.57531884183106e+005,-1.89414360363643e+001,-8.59245104305757e+000

3.62522843294651e+005,-1.89424795933984e+001,-8.70987203768164e+000

3.67583473599047e+005,-1.89435426251737e+001,-8.82888447516358e+000

3.72714747669902e+005,-1.89446255017864e+001,-8.94951043713298e+000

3.77917651657445e+005,-1.89457286061543e+001,-9.07177233164670e+000

3.83193185478053e+005,-1.89468523346095e+001,-9.19569289697413e+000

3.88542363006410e+005,-1.89479970975039e+001,-9.32129520532355e+000

3.93966212270369e+005,-1.89491633198269e+001,-9.44860266651036e+000

3.99465775648511e+005,-1.89503514418343e+001,-9.57763903156174e+000

4.05042110070485e+005,-1.89515619196893e+001,-9.70842839626015e+000

4.10696287220124e+005,-1.89527952261135e+001,-9.84099520461902e+000

4.16429393741414e+005,-1.89540518510479e+001,-9.97536425229555e+000

4.22242531447321e+005,-1.89553323023241e+001,-1.01115606899336e+001

4.28136817531551e+005,-1.89566371063443e+001,-1.02496100264409e+001

4.34113384783250e+005,-1.89579668087693e+001,-1.03895381321972e+001

4.40173381804713e+005,-1.89593219752154e+001,-1.05313712421951e+001

4.46317973232124e+005,-1.89607031919585e+001,-1.06751359591128e+001

4.52548339959385e+005,-1.89621110666449e+001,-1.08208592563188e+001

4.58865679365059e+005,-1.89635462290097e+001,-1.09685684808100e+001

4.65271205542494e+005,-1.89650093316007e+001,-1.11182913560843e+001

4.71766149533147e+005,-1.89665010505085e+001,-1.12700559849474e+001

4.78351759563174e+005,-1.89680220861022e+001,-1.14238908522556e+001

4.85029301283321e+005,-1.89695731637702e+001,-1.15798248275969e+001

4.91800058012158e+005,-1.89711550346663e+001,-1.17378871679083e+001

4.98665330982714e+005,-1.89727684764600e+001,-1.18981075200375e+001

5.05626439592555e+005,-1.89744142940925e+001,-1.20605159232415e+001

5.12684721657352e+005,-1.89760933205356e+001,-1.22251428116322e+001

5.19841533667984e+005,-1.89778064175566e+001,-1.23920190165644e+001

5.27098251051240e+005,-1.89795544764860e+001,-1.25611757689720e+001

5.34456268434150e+005,-1.89813384189905e+001,-1.27326447016504e+001

5.41916999912011e+005,-1.89831591978499e+001,-1.29064578514889e+001

