Freq.,VOut,OutRef

1.00000000000000e+004,-9.92978336169635e+000,-1.36392006456753e-001

1.01395947979003e+004,-9.92978388474151e+000,-1.38295863427000e-001

1.02811382665607e+004,-9.92978442246838e+000,-1.40226292816237e-001

1.04246576084112e+004,-9.92978497528818e+000,-1.42183665375068e-001

1.05701804056138e+004,-9.92978554362390e+000,-1.44168357019812e-001

1.07177346253629e+004,-9.92978612791049e+000,-1.46180748905086e-001

1.08673486252606e+004,-9.92978672859453e+000,-1.48221227500893e-001

1.10190511587661e+004,-9.92978734613558e+000,-1.50290184659719e-001

1.11728713807222e+004,-9.92978798100580e+000,-1.52388017696341e-001

1.13288388529580e+004,-9.92978863369044e+000,-1.54515129462706e-001

1.14869835499703e+004,-9.92978930468827e+000,-1.56671928423842e-001

1.16473358646846e+004,-9.92978999451245e+000,-1.58858828733388e-001

1.18099266142953e+004,-9.92979070368956e+000,-1.61076250320747e-001

1.19747870461893e+004,-9.92979143276196e+000,-1.63324618959036e-001

1.21419488439505e+004,-9.92979218228626e+000,-1.65604366358061e-001

1.23114441334492e+004,-9.92979295283484e+000,-1.67915930240192e-001

1.24833054890161e+004,-9.92979374499614e+000,-1.70259754424070e-001

1.26575659397028e+004,-9.92979455937499e+000,-1.72636288910449e-001

1.28342589756290e+004,-9.92979539659277e+000,-1.75045989969174e-001

1.30134185544193e+004,-9.92979625728862e+000,-1.77489320222012e-001

1.31950791077289e+004,-9.92979714211895e+000,-1.79966748736360e-001

1.33792755478611e+004,-9.92979805175893e+000,-1.82478751108080e-001

1.35660432744767e+004,-9.92979898690205e+000,-1.85025809558467e-001

1.37554181813974e+004,-9.92979994826140e+000,-1.87608413021120e-001

1.39474366635040e+004,-9.92980093656999e+000,-1.90227057235548e-001

1.41421356237309e+004,-9.92980195258070e+000,-1.92882244846049e-001

1.43395524801583e+004,-9.92980299706773e+000,-1.95574485491189e-001

1.45397251732031e+004,-9.92980407082676e+000,-1.98304295903170e-001

1.47426921729110e+004,-9.92980517467548e+000,-2.01072200006821e-001

1.49484924863494e+004,-9.92980630945405e+000,-2.03878729019160e-001

1.51571656651040e+004,-9.92980747602633e+000,-2.06724421547544e-001

1.53687518128801e+004,-9.92980867527991e+000,-2.09609823694484e-001

1.55832915932100e+004,-9.92980990812706e+000,-2.12535489160527e-001

1.58008262372675e+004,-9.92981117550506e+000,-2.15501979350299e-001

1.60213975517924e+004,-9.92981247837759e+000,-2.18509863475689e-001

1.62450479271247e+004,-9.92981381773472e+000,-2.21559718666977e-001

1.64718203453514e+004,-9.92981519459394e+000,-2.24652130081424e-001

1.67017583885674e+004,-9.92981661000099e+000,-2.27787691012498e-001

1.69349062472505e+004,-9.92981806503036e+000,-2.30967003004795e-001

1.71713087287550e+004,-9.92981956078640e+000,-2.34190675964475e-001

1.74110112659224e+004,-9.92982109840367e+000,-2.37459328279355e-001

1.76540599258131e+004,-9.92982267904844e+000,-2.40773586929868e-001

1.79005014185594e+004,-9.92982430391887e+000,-2.44134087611955e-001

1.81503831063432e+004,-9.92982597424631e+000,-2.47541474855652e-001

1.84037530124975e+004,-9.92982769129602e+000,-2.50996402146427e-001

1.86606598307361e+004,-9.92982945636787e+000,-2.54499532050310e-001

1.89211529345119e+004,-9.92983127079785e+000,-2.58051536335120e-001

1.91852823865052e+004,-9.92983313595859e+000,-2.61653096100444e-001

1.94530989482457e+004,-9.92983505326026e+000,-2.65304901905752e-001

1.97246540898671e+004,-9.92983702415214e+000,-2.69007653896783e-001

1.99999999999999e+004,-9.92983905012297e+000,-2.72762061942524e-001

2.02791895958005e+004,-9.92984113270256e+000,-2.76568845764548e-001

2.05622765331213e+004,-9.92984327346253e+000,-2.80428735074217e-001

2.08493152168224e+004,-9.92984547401744e+000,-2.84342469710358e-001

2.11403608112276e+004,-9.92984773602644e+000,-2.88310799774647e-001

2.14354692507258e+004,-9.92985006119376e+000,-2.92334485776648e-001

2.17346972505211e+004,-9.92985245127042e+000,-2.96414298772826e-001

2.20381023175322e+004,-9.92985490805505e+000,-3.00551020514437e-001

2.23457427614443e+004,-9.92985743339544e+000,-3.04745443590762e-001

2.26576777059159e+004,-9.92986002918981e+000,-3.08998371578967e-001

2.29739670999406e+004,-9.92986269738820e+000,-3.13310619192796e-001

2.32946717293690e+004,-9.92986543999337e+000,-3.17683012438271e-001

2.36198532285905e+004,-9.92986825906318e+000,-3.22116388761513e-001

2.39495740923785e+004,-9.92987115671062e+000,-3.26611597212988e-001

2.42838976879009e+004,-9.92987413510647e+000,-3.31169498599131e-001

2.46228882668982e+004,-9.92987719648057e+000,-3.35790965643959e-001

2.49666109780322e+004,-9.92988034312273e+000,-3.40476883154157e-001

2.53151318794055e+004,-9.92988357738494e+000,-3.45228148181119e-001

2.56685179512580e+004,-9.92988690168259e+000,-3.50045670188323e-001

2.60268371088386e+004,-9.92989031849639e+000,-3.54930371219390e-001

2.63901582154578e+004,-9.92989383037415e+000,-3.59883186068110e-001

2.67585510957221e+004,-9.92989743993175e+000,-3.64905062455659e-001

2.71320865489533e+004,-9.92990114985604e+000,-3.69996961199171e-001

2.75108363627948e+004,-9.92990496290560e+000,-3.75159856395731e-001

2.78948733270080e+004,-9.92990888191328e+000,-3.80394735597928e-001

2.82842712474618e+004,-9.92991290978757e+000,-3.85702599998321e-001

2.86791049603164e+004,-9.92991704951505e+000,-3.91084464611553e-001

2.90794503464061e+004,-9.92992130416189e+000,-3.96541358463066e-001

2.94853843458219e+004,-9.92992567687612e+000,-4.02074324777031e-001

2.98969849726987e+004,-9.92993017088954e+000,-4.07684421168418e-001

3.03143313302078e+004,-9.92993478952005e+000,-4.13372719835396e-001

3.07375036257601e+004,-9.92993953617337e+000,-4.19140307758628e-001

3.11665831864199e+004,-9.92994441434576e+000,-4.24988286895634e-001

3.16016524745350e+004,-9.92994942762570e+000,-4.30917774385949e-001

3.20427951035848e+004,-9.92995457969667e+000,-4.36929902752424e-001

3.24900958542493e+004,-9.92995987433905e+000,-4.43025820108220e-001

3.29436406907028e+004,-9.92996531543307e+000,-4.49206690363806e-001

3.34035167771346e+004,-9.92997090696016e+000,-4.55473693443196e-001

3.38698124945009e+004,-9.92997665300674e+000,-4.61828025490935e-001

3.43426174575100e+004,-9.92998255776572e+000,-4.68270899093663e-001

3.48220225318448e+004,-9.92998862553948e+000,-4.74803543497392e-001

3.53081198516260e+004,-9.92999486074255e+000,-4.81427204828710e-001

3.58010028371187e+004,-9.93000126790400e+000,-4.88143146319980e-001

3.63007662126863e+004,-9.93000785167016e+000,-4.94952648537294e-001

3.68075060249948e+004,-9.93001461680785e+000,-5.01857009607099e-001

3.73213196614721e+004,-9.93002156820635e+000,-5.08857545453127e-001

3.78423058690237e+004,-9.93002871088102e+000,-5.15955590027830e-001

3.83705647730104e+004,-9.93003604997569e+000,-5.23152495553149e-001

3.89061978964912e+004,-9.93004359076575e+000,-5.30449632760095e-001

3.94493081797342e+004,-9.93005133866131e+000,-5.37848391132149e-001

3.99999999999998e+004,-9.93005929920987e+000,-5.45350179153316e-001

4.05583791916010e+004,-9.93006747809951e+000,-5.52956424556747e-001

4.11245530662425e+004,-9.93007588116235e+000,-5.60668574575592e-001

4.16986304336447e+004,-9.93008451437719e+000,-5.68488096200571e-001

4.22807216224550e+004,-9.93009338387292e+000,-5.76416476437501e-001

4.28709385014515e+004,-9.93010249593197e+000,-5.84455222566472e-001

4.34693945010421e+004,-9.93011185699302e+000,-5.92605862409464e-001

4.40762046350642e+004,-9.93012147365498e+000,-6.00869944593202e-001

4.46914855228886e+004,-9.93013135267985e+000,-6.09249038822481e-001

4.53153554118317e+004,-9.93014150099624e+000,-6.17744736151814e-001

4.59479341998812e+004,-9.93015192570280e+000,-6.26358649261566e-001

4.65893434587380e+004,-9.93016263407165e+000,-6.35092412737069e-001

4.72397064571810e+004,-9.93017363355179e+000,-6.43947683350847e-001

4.78991481847569e+004,-9.93018493177274e+000,-6.52926140347570e-001

4.85677953758016e+004,-9.93019653654755e+000,-6.62029485734280e-001

4.92457765337964e+004,-9.93020845587703e+000,-6.71259444568846e-001

4.99332219560642e+004,-9.93022069795266e+000,-6.80617765257016e-001

5.06302637588109e+004,-9.93023327116050e+000,-6.90106219848885e-001

5.13370359025159e+004,-9.93024618408459e+000,-6.99726604340362e-001

5.20536742176771e+004,-9.93025944551015e+000,-7.09480738978631e-001

5.27803164309155e+004,-9.93027306442790e+000,-7.19370468566084e-001

5.35171021914442e+004,-9.93028705003671e+000,-7.29397662774753e-001

5.42641730979066e+004,-9.93030141174771e+000,-7.39564216456922e-001

5.50216727255895e+004,-9.93031615918734e+000,-7.49872049965161e-001

5.57897466540159e+004,-9.93033130220112e+000,-7.60323109469714e-001

5.65685424949235e+004,-9.93034685085670e+000,-7.70919367284746e-001

5.73582099206328e+004,-9.93036281544774e+000,-7.81662822192095e-001

5.81589006928121e+004,-9.93037920649643e+000,-7.92555499776118e-001

5.89707686916437e+004,-9.93039603475753e+000,-8.03599452752270e-001

5.97939699453972e+004,-9.93041331122101e+000,-8.14796761307126e-001

6.06286626604156e+004,-9.93043104711540e+000,-8.26149533437453e-001

6.14750072515201e+004,-9.93044925391050e+000,-8.37659905295090e-001

6.23331663728396e+004,-9.93046794332070e+000,-8.49330041531882e-001

6.32033049490698e+004,-9.93048712730730e+000,-8.61162135651932e-001

6.40855902071694e+004,-9.93050681808148e+000,-8.73158410365418e-001

6.49801917084985e+004,-9.93052702810662e+000,-8.85321117945460e-001

6.58872813814055e+004,-9.93054777010085e+000,-8.97652540588491e-001

6.68070335542691e+004,-9.93056905703894e+000,-9.10154990780953e-001

6.77396249890018e+004,-9.93059090215477e+000,-9.22830811663458e-001

6.86852349150199e+004,-9.93061331894270e+000,-9.35682377406464e-001

6.96440450636895e+004,-9.93063632115940e+000,-9.48712093583025e-001

7.06162397032520e+004,-9.93065992282512e+000,-9.61922397548106e-001

7.16020056742374e+004,-9.93068413822495e+000,-9.75315758821209e-001

7.26015324253724e+004,-9.93070898190956e+000,-9.88894679472315e-001

7.36150120499896e+004,-9.93073446869566e+000,-1.00266169451308e+000

7.46426393229441e+004,-9.93076061366657e+000,-1.01661937228843e+000

7.56846117380472e+004,-9.93078743217187e+000,-1.03077031487593e+000

7.67411295460207e+004,-9.93081493982691e+000,-1.04511715848754e+000

7.78123957929823e+004,-9.93084315251235e+000,-1.05966257387355e+000

7.88986163594682e+004,-9.93087208637265e+000,-1.07440926673333e+000

7.99999999999995e+004,-9.93090175781447e+000,-1.08935997812938e+000

8.11167583832018e+004,-9.93093218350460e+000,-1.10451748490395e+000

8.22491061324848e+004,-9.93096338036746e+000,-1.11988460010234e+000

8.33972608672892e+004,-9.93099536558164e+000,-1.13546417339920e+000

8.45614432449099e+004,-9.93102815657688e+000,-1.15125909152838e+000

8.57418770029029e+004,-9.93106177102918e+000,-1.16727227871987e+000

8.69387890020841e+004,-9.93109622685645e+000,-1.18350669713929e+000

8.81524092701283e+004,-9.93113154221277e+000,-1.19996534733268e+000

8.93829710457770e+004,-9.93116773548228e+000,-1.21665126867666e+000

9.06307108236633e+004,-9.93120482527232e+000,-1.23356753983353e+000

9.18958683997622e+004,-9.93124283040590e+000,-1.25071727921056e+000

9.31786869174758e+004,-9.93128176991327e+000,-1.26810364542566e+000

9.44794129143618e+004,-9.93132166302236e+000,-1.28572983777986e+000

9.57982963695136e+004,-9.93136252914919e+000,-1.30359909673168e+000

9.71355907516031e+004,-9.93140438788643e+000,-1.32171470438155e+000

9.84915530675926e+004,-9.93144725899164e+000,-1.34007998495980e+000

9.98664439121282e+004,-9.93149116237428e+000,-1.35869830532147e+000

1.01260527517622e+005,-9.93153611808148e+000,-1.37757307544997e+000

1.02674071805032e+005,-9.93158214628336e+000,-1.39670774896247e+000

1.04107348435354e+005,-9.93162926725628e+000,-1.41610582362968e+000

1.05560632861831e+005,-9.93167750136593e+000,-1.43577084189538e+000

1.07034204382888e+005,-9.93172686904843e+000,-1.45570639140958e+000

1.08528346195813e+005,-9.93177739079041e+000,-1.47591610556748e+000

1.10043345451179e+005,-9.93182908710786e+000,-1.49640366405654e+000

1.11579493308032e+005,-9.93188197852362e+000,-1.51717279341293e+000

1.13137084989847e+005,-9.93193608554319e+000,-1.53822726758767e+000

1.14716419841265e+005,-9.93199142862940e+000,-1.55957090852216e+000

1.16317801385624e+005,-9.93204802817543e+000,-1.58120758673245e+000

1.17941537383287e+005,-9.93210590447622e+000,-1.60314122190675e+000

1.19587939890794e+005,-9.93216507769833e+000,-1.62537578351208e+000

1.21257325320831e+005,-9.93222556784827e+000,-1.64791529141241e+000

1.22950014503040e+005,-9.93228739473880e+000,-1.67076381650146e+000

1.24666332745679e+005,-9.93235057795383e+000,-1.69392548134473e+000

1.26406609898139e+005,-9.93241513681160e+000,-1.71740446083671e+000

1.28171180414339e+005,-9.93248109032547e+000,-1.74120498287319e+000

1.29960383416997e+005,-9.93254845716352e+000,-1.76533132903632e+000

1.31774562762811e+005,-9.93261725560598e+000,-1.78978783529537e+000

1.33614067108538e+005,-9.93268750350045e+000,-1.81457889272517e+000

1.35479249978003e+005,-9.93275921821590e+000,-1.83970894823831e+000

1.37370469830040e+005,-9.93283241659359e+000,-1.86518250533965e+000

1.39288090127379e+005,-9.93290711489740e+000,-1.89100412489275e+000

1.41232479406504e+005,-9.93298332876058e+000,-1.91717842591252e+000

1.43204011348474e+005,-9.93306107313167e+000,-1.94371008637367e+000

1.45203064850745e+005,-9.93314036221780e+000,-1.97060384404021e+000

1.47230024099979e+005,-9.93322120942596e+000,-1.99786449731985e+000

1.49285278645888e+005,-9.93330362730250e+000,-2.02549690613734e+000

1.51369223476094e+005,-9.93338762747013e+000,-2.05350599283533e+000

1.53482259092041e+005,-9.93347322056316e+000,-2.08189674309834e+000

1.55624791585964e+005,-9.93356041616077e+000,-2.11067420690137e+000

1.57797232718936e+005,-9.93364922271826e+000,-2.13984349948782e+000

1.59999999999999e+005,-9.93373964749581e+000,-2.16940980237502e+000

1.62233516766403e+005,-9.93383169648629e+000,-2.19937836438595e+000

1.64498212264969e+005,-9.93392537434030e+000,-2.22975450271474e+000

1.66794521734578e+005,-9.93402068428986e+000,-2.26054360402130e+000

1.69122886489819e+005,-9.93411762807022e+000,-2.29175112555800e+000

1.71483754005805e+005,-9.93421620583999e+000,-2.32338259633064e+000

1.73877578004168e+005,-9.93431641609970e+000,-2.35544361829320e+000

1.76304818540256e+005,-9.93441825560875e+000,-2.38793986757848e+000

1.78765942091554e+005,-9.93452171930114e+000,-2.42087709576427e+000

1.81261421647326e+005,-9.93462680019969e+000,-2.45426113117883e+000

1.83791736799524e+005,-9.93473348932943e+000,-2.48809788024266e+000

1.86357373834951e+005,-9.93484177562945e+000,-2.52239332885260e+000

1.88958825828723e+005,-9.93495164586447e+000,-2.55715354380359e+000

1.91596592739027e+005,-9.93506308453506e+000,-2.59238467425448e+000

1.94271181503206e+005,-9.93517607378784e+000,-2.62809295323438e+000

1.96983106135185e+005,-9.93529059332487e+000,-2.66428469919346e+000

1.99732887824256e+005,-9.93540662031316e+000,-2.70096631759656e+000

2.02521055035243e+005,-9.93552412929374e+000,-2.73814430256309e+000

2.05348143610063e+005,-9.93564309209128e+000,-2.77582523855112e+000

2.08214696870707e+005,-9.93576347772406e+000,-2.81401580208717e+000

2.11121265723661e+005,-9.93588525231420e+000,-2.85272276354427e+000

2.14068408765776e+005,-9.93600837899912e+000,-2.89195298896503e+000

2.17056692391625e+005,-9.93613281784402e+000,-2.93171344193211e+000

2.20086690902357e+005,-9.93625852575505e+000,-2.97201118548920e+000

2.23158986616063e+005,-9.93638545639503e+000,-3.01285338410432e+000

2.26274169979693e+005,-9.93651356010002e+000,-3.05424730568543e+000

2.29432839682530e+005,-9.93664278379848e+000,-3.09620032364158e+000

2.32635602771247e+005,-9.93677307093232e+000,-3.13871991899199e+000

2.35883074766574e+005,-9.93690436138076e+000,-3.18181368252191e+000

2.39175879781588e+005,-9.93703659138672e+000,-3.22548931698536e+000

2.42514650641661e+005,-9.93716969348651e+000,-3.26975463935386e+000

2.45900029006080e+005,-9.93730359644220e+000,-3.31461758311179e+000

2.49332665491357e+005,-9.93743822517825e+000,-3.36008620059356e+000

2.52813219796278e+005,-9.93757350072103e+000,-3.40616866536832e+000

2.56342360828676e+005,-9.93770934014291e+000,-3.45287327466437e+000

2.59920766833993e+005,-9.93784565650987e+000,-3.50020845183677e+000

2.63549125525621e+005,-9.93798235883408e+000,-3.54818274887385e+000

2.67228134217075e+005,-9.93811935203027e+000,-3.59680484894524e+000

2.70958499956006e+005,-9.93825653687739e+000,-3.64608356898303e+000

2.74740939660078e+005,-9.93839380998452e+000,-3.69602786230299e+000

2.78576180254757e+005,-9.93853106376225e+000,-3.74664682125632e+000

2.82464958813007e+005,-9.93866818639832e+000,-3.79794967991721e+000

2.86408022696948e+005,-9.93880506183935e+000,-3.84994581679598e+000

2.90406129701488e+005,-9.93894156977688e+000,-3.90264475758531e+000

2.94460048199957e+005,-9.93907758563904e+000,-3.95605617793020e+000

2.98570557291775e+005,-9.93921298058742e+000,-4.01018990622171e+000

3.02738446952187e+005,-9.93934762151897e+000,-4.06505592641476e+000

3.06964518184081e+005,-9.93948137107318e+000,-4.12066438086452e+000

3.11249583171928e+005,-9.93961408764427e+000,-4.17702557318111e+000

3.15594465437872e+005,-9.93974562539837e+000,-4.23414997109939e+000

3.19999999999997e+005,-9.93987583429566e+000,-4.29204820936242e+000

3.24467033532806e+005,-9.94000456011672e+000,-4.35073109261765e+000

3.28996424529938e+005,-9.94013164449403e+000,-4.41020959832013e+000

3.33589043469155e+005,-9.94025692494720e+000,-4.47049487964476e+000

3.38245772979638e+005,-9.94038023492229e+000,-4.53159826840369e+000

3.42967508011610e+005,-9.94050140383506e+000,-4.59353127796647e+000

3.47755156008335e+005,-9.94062025711720e+000,-4.65630560618363e+000

3.52609637080511e+005,-9.94073661626621e+000,-4.71993313830863e+000

3.57531884183106e+005,-9.94085029889731e+000,-4.78442594992074e+000

3.62522843294651e+005,-9.94096111879803e+000,-4.84979630984422e+000

3.67583473599047e+005,-9.94106888598475e+000,-4.91605668306377e+000

3.72714747669902e+005,-9.94117340676029e+000,-4.98321973363724e+000

3.77917651657445e+005,-9.94127448377300e+000,-5.05129832760081e+000

3.83193185478053e+005,-9.94137191607578e+000,-5.12030553587067e+000

3.88542363006410e+005,-9.94146549918574e+000,-5.19025463713687e+000

3.93966212270369e+005,-9.94155502514281e+000,-5.26115912075269e+000

3.99465775648511e+005,-9.94164028256792e+000,-5.33303268961620e+000

4.05042110070485e+005,-9.94172105671907e+000,-5.40588926304802e+000

4.10696287220124e+005,-9.94179712954587e+000,-5.47974297966293e+000

4.16429393741414e+005,-9.94186827974126e+000,-5.55460820023732e+000

4.22242531447321e+005,-9.94193428279012e+000,-5.63049951057409e+000

4.28136817531551e+005,-9.94199491101450e+000,-5.70743172436516e+000

4.34113384783250e+005,-9.94204993361428e+000,-5.78541988605440e+000

4.40173381804713e+005,-9.94209911670356e+000,-5.86447927370174e+000

4.46317973232124e+005,-9.94214222334181e+000,-5.94462540185064e+000

4.52548339959385e+005,-9.94217901355909e+000,-6.02587402440231e+000

4.58865679365059e+005,-9.94220924437542e+000,-6.10824113749700e+000

4.65271205542494e+005,-9.94223266981357e+000,-6.19174298240750e+000

4.71766149533147e+005,-9.94224904090452e+000,-6.27639604844579e+000

4.78351759563174e+005,-9.94225810568576e+000,-6.36221707588686e+000

4.85029301283321e+005,-9.94225960919149e+000,-6.44922305891267e+000

4.91800058012158e+005,-9.94225329343476e+000,-6.53743124857948e+000

4.98665330982714e+005,-9.94223889738094e+000,-6.62685915581228e+000

5.05626439592555e+005,-9.94221615691220e+000,-6.71752455443094e+000

5.12684721657352e+005,-9.94218480478286e+000,-6.80944548420910e+000

5.19841533667984e+005,-9.94214457056518e+000,-6.90264025397368e+000

5.27098251051240e+005,-9.94209518058546e+000,-6.99712744474454e+000

5.34456268434150e+005,-9.94203635785019e+000,-7.09292591292308e+000

5.41916999912011e+005,-9.94196782196194e+000,-7.19005479352994e+000

