Freq.,VOut,OutRef

1.00000000000000e+004,-2.29015585539904e+001,-4.86731036965064e-001

1.01395947979003e+004,-2.29015634648270e+001,-4.93525120126852e-001

1.02811382665607e+004,-2.29015685136418e+001,-5.00414026955357e-001

1.04246576084112e+004,-2.29015737043087e+001,-5.07399080367952e-001

1.05701804056138e+004,-2.29015790408109e+001,-5.14481621716456e-001

1.07177346253629e+004,-2.29015845272430e+001,-5.21663011042546e-001

1.08673486252606e+004,-2.29015901678143e+001,-5.28944627338656e-001

1.10190511587661e+004,-2.29015959668524e+001,-5.36327868809945e-001

1.11728713807222e+004,-2.29016019288059e+001,-5.43814153141346e-001

1.13288388529580e+004,-2.29016080582484e+001,-5.51404917767414e-001

1.14869835499703e+004,-2.29016143598815e+001,-5.59101620146777e-001

1.16473358646846e+004,-2.29016208385387e+001,-5.66905738039536e-001

1.18099266142953e+004,-2.29016274991889e+001,-5.74818769789377e-001

1.19747870461893e+004,-2.29016343469403e+001,-5.82842234608385e-001

1.21419488439505e+004,-2.29016413870441e+001,-5.90977672866440e-001

1.23114441334492e+004,-2.29016486248988e+001,-5.99226646384629e-001

1.24833054890161e+004,-2.29016560660540e+001,-6.07590738732673e-001

1.26575659397028e+004,-2.29016637162149e+001,-6.16071555529983e-001

1.28342589756290e+004,-2.29016715812464e+001,-6.24670724751501e-001

1.30134185544193e+004,-2.29016796671777e+001,-6.33389897036159e-001

1.31950791077289e+004,-2.29016879802066e+001,-6.42230746002936e-001

1.33792755478611e+004,-2.29016965267050e+001,-6.51194968565574e-001

1.35660432744767e+004,-2.29017053132226e+001,-6.60284285259267e-001

1.37554181813974e+004,-2.29017143464930e+001,-6.69500440562906e-001

1.39474366635040e+004,-2.29017236334377e+001,-6.78845203234463e-001

1.41421356237309e+004,-2.29017331811723e+001,-6.88320366643415e-001

1.43395524801583e+004,-2.29017429970115e+001,-6.97927749113483e-001

1.45397251732031e+004,-2.29017530884746e+001,-7.07669194266431e-001

1.47426921729110e+004,-2.29017634632913e+001,-7.17546571370721e-001

1.49484924863494e+004,-2.29017741294074e+001,-7.27561775698170e-001

1.51571656651040e+004,-2.29017850949911e+001,-7.37716728880595e-001

1.53687518128801e+004,-2.29017963684388e+001,-7.48013379276311e-001

1.55832915932100e+004,-2.29018079583820e+001,-7.58453702335923e-001

1.58008262372675e+004,-2.29018198736934e+001,-7.69039700978361e-001

1.60213975517924e+004,-2.29018321234933e+001,-7.79773405970397e-001

1.62450479271247e+004,-2.29018447171576e+001,-7.90656876307148e-001

1.64718203453514e+004,-2.29018576643235e+001,-8.01692199605667e-001

1.67017583885674e+004,-2.29018709748979e+001,-8.12881492495628e-001

1.69349062472505e+004,-2.29018846590644e+001,-8.24226901020753e-001

1.71713087287550e+004,-2.29018987272906e+001,-8.35730601044252e-001

1.74110112659224e+004,-2.29019131903368e+001,-8.47394798657028e-001

1.76540599258131e+004,-2.29019280592638e+001,-8.59221730595602e-001

1.79005014185594e+004,-2.29019433454406e+001,-8.71213664663789e-001

1.81503831063432e+004,-2.29019590605539e+001,-8.83372900158062e-001

1.84037530124975e+004,-2.29019752166164e+001,-8.95701768300643e-001

1.86606598307361e+004,-2.29019918259758e+001,-9.08202632679821e-001

1.89211529345119e+004,-2.29020089013241e+001,-9.20877889692281e-001

1.91852823865052e+004,-2.29020264557073e+001,-9.33729968993796e-001

1.94530989482457e+004,-2.29020445025351e+001,-9.46761333956498e-001

1.97246540898671e+004,-2.29020630555908e+001,-9.59974482129530e-001

1.99999999999999e+004,-2.29020821290419e+001,-9.73371945708046e-001

2.02791895958005e+004,-2.29021017374503e+001,-9.86956292008194e-001

2.05622765331213e+004,-2.29021218957835e+001,-1.00073012394745e+000

2.08493152168224e+004,-2.29021426194259e+001,-1.01469608053067e+000

2.11403608112276e+004,-2.29021639241898e+001,-1.02885683734618e+000

2.14354692507258e+004,-2.29021858263278e+001,-1.04321510706160e+000

2.17346972505211e+004,-2.29022083425442e+001,-1.05777363993506e+000

2.20381023175322e+004,-2.29022314900082e+001,-1.07253522432412e+000

2.23457427614443e+004,-2.29022552863661e+001,-1.08750268720834e+000

2.26576777059159e+004,-2.29022797497548e+001,-1.10267889471298e+000

2.29739670999406e+004,-2.29023048988147e+001,-1.11806675264606e+000

2.32946717293690e+004,-2.29023307527045e+001,-1.13366920703407e+000

2.36198532285905e+004,-2.29023573311143e+001,-1.14948924467363e+000

2.39495740923785e+004,-2.29023846542809e+001,-1.16552989368208e+000

2.42838976879009e+004,-2.29024127430026e+001,-1.18179422406084e+000

2.46228882668982e+004,-2.29024416186543e+001,-1.19828534826372e+000

2.49666109780322e+004,-2.29024713032038e+001,-1.21500642177123e+000

2.53151318794055e+004,-2.29025018192275e+001,-1.23196064367594e+000

2.56685179512580e+004,-2.29025331899271e+001,-1.24915125727266e+000

2.60268371088386e+004,-2.29025654391470e+001,-1.26658155065462e+000

2.63901582154578e+004,-2.29025985913914e+001,-1.28425485732123e+000

2.67585510957221e+004,-2.29026326718424e+001,-1.30217455679048e+000

2.71320865489533e+004,-2.29026677063786e+001,-1.32034407522040e+000

2.75108363627948e+004,-2.29027037215940e+001,-1.33876688603697e+000

2.78948733270080e+004,-2.29027407448169e+001,-1.35744651057270e+000

2.82842712474618e+004,-2.29027788041307e+001,-1.37638651870952e+000

2.86791049603164e+004,-2.29028179283938e+001,-1.39559052953181e+000

2.90794503464061e+004,-2.29028581472606e+001,-1.41506221198819e+000

2.94853843458219e+004,-2.29028994912032e+001,-1.43480528555909e+000

2.98969849726987e+004,-2.29029419915332e+001,-1.45482352093558e+000

3.03143313302078e+004,-2.29029856804250e+001,-1.47512074070292e+000

3.07375036257601e+004,-2.29030305909382e+001,-1.49570082003604e+000

3.11665831864199e+004,-2.29030767570420e+001,-1.51656768740197e+000

3.16016524745350e+004,-2.29031242136396e+001,-1.53772532526891e+000

3.20427951035848e+004,-2.29031729965930e+001,-1.55917777082799e+000

3.24900958542493e+004,-2.29032231427489e+001,-1.58092911672008e+000

3.29436406907028e+004,-2.29032746899653e+001,-1.60298351177309e+000

3.34035167771346e+004,-2.29033276771380e+001,-1.62534516174778e+000

3.38698124945009e+004,-2.29033821442287e+001,-1.64801833009212e+000

3.43426174575100e+004,-2.29034381322935e+001,-1.67100733870433e+000

3.48220225318448e+004,-2.29034956835119e+001,-1.69431656870694e+000

3.53081198516260e+004,-2.29035548412163e+001,-1.71795046122716e+000

3.58010028371187e+004,-2.29036156499234e+001,-1.74191351818743e+000

3.63007662126863e+004,-2.29036781553649e+001,-1.76621030310600e+000

3.68075060249948e+004,-2.29037424045201e+001,-1.79084544190573e+000

3.73213196614721e+004,-2.29038084456483e+001,-1.81582362373327e+000

3.78423058690237e+004,-2.29038763283232e+001,-1.84114960178529e+000

3.83705647730104e+004,-2.29039461034672e+001,-1.86682819414757e+000

3.89061978964912e+004,-2.29040178233865e+001,-1.89286428464033e+000

3.94493081797342e+004,-2.29040915418081e+001,-1.91926282367536e+000

3.99999999999998e+004,-2.29041673139163e+001,-1.94602882912132e+000

4.05583791916010e+004,-2.29042451963910e+001,-1.97316738717957e+000

4.11245530662425e+004,-2.29043252474470e+001,-2.00068365326866e+000

4.16986304336447e+004,-2.29044075268733e+001,-2.02858285291949e+000

4.22807216224550e+004,-2.29044920960744e+001,-2.05687028268103e+000

4.28709385014515e+004,-2.29045790181120e+001,-2.08555131103231e+000

4.34693945010421e+004,-2.29046683577476e+001,-2.11463137930886e+000

4.40762046350642e+004,-2.29047601814867e+001,-2.14411600263522e+000

4.46914855228886e+004,-2.29048545576231e+001,-2.17401077087056e+000

4.53153554118317e+004,-2.29049515562854e+001,-2.20432134956063e+000

4.59479341998812e+004,-2.29050512494831e+001,-2.23505348090328e+000

4.65893434587380e+004,-2.29051537111552e+001,-2.26621298472173e+000

4.72397064571810e+004,-2.29052590172192e+001,-2.29780575944844e+000

4.78991481847569e+004,-2.29053672456208e+001,-2.32983778311900e+000

4.85677953758016e+004,-2.29054784763858e+001,-2.36231511437647e+000

4.92457765337964e+004,-2.29055927916719e+001,-2.39524389348491e+000

4.99332219560642e+004,-2.29057102758228e+001,-2.42863034335419e+000

5.06302637588109e+004,-2.29058310154226e+001,-2.46248077057406e+000

5.13370359025159e+004,-2.29059550993521e+001,-2.49680156645783e+000

5.20536742176771e+004,-2.29060826188453e+001,-2.53159920809764e+000

5.27803164309155e+004,-2.29062136675485e+001,-2.56688025942944e+000

5.35171021914442e+004,-2.29063483415794e+001,-2.60265137230615e+000

5.42641730979066e+004,-2.29064867395879e+001,-2.63891928758406e+000

5.50216727255895e+004,-2.29066289628187e+001,-2.67569083621728e+000

5.57897466540159e+004,-2.29067751151740e+001,-2.71297294036283e+000

5.65685424949235e+004,-2.29069253032786e+001,-2.75077261449510e+000

5.73582099206328e+004,-2.29070796365460e+001,-2.78909696653249e+000

5.81589006928121e+004,-2.29072382272449e+001,-2.82795319897192e+000

5.89707686916437e+004,-2.29074011905688e+001,-2.86734861003427e+000

5.97939699453972e+004,-2.29075686447052e+001,-2.90729059482044e+000

6.06286626604156e+004,-2.29077407109072e+001,-2.94778664647587e+000

6.14750072515201e+004,-2.29079175135660e+001,-2.98884435736763e+000

6.23331663728396e+004,-2.29080991802849e+001,-3.03047142026833e+000

6.32033049490698e+004,-2.29082858419549e+001,-3.07267562955289e+000

6.40855902071694e+004,-2.29084776328309e+001,-3.11546488240395e+000

6.49801917084985e+004,-2.29086746906103e+001,-3.15884718002652e+000

6.58872813814055e+004,-2.29088771565122e+001,-3.20283062887488e+000

6.68070335542691e+004,-2.29090851753584e+001,-3.24742344188622e+000

6.77396249890018e+004,-2.29092988956555e+001,-3.29263393972798e+000

6.86852349150199e+004,-2.29095184696787e+001,-3.33847055205090e+000

6.96440450636895e+004,-2.29097440535565e+001,-3.38494181875629e+000

7.06162397032520e+004,-2.29099758073575e+001,-3.43205639126891e+000

7.16020056742374e+004,-2.29102138951777e+001,-3.47982303382380e+000

7.26015324253724e+004,-2.29104584852302e+001,-3.52825062475973e+000

7.36150120499896e+004,-2.29107097499348e+001,-3.57734815782481e+000

7.46426393229441e+004,-2.29109678660106e+001,-3.62712474348990e+000

7.56846117380472e+004,-2.29112330145689e+001,-3.67758961027472e+000

7.67411295460207e+004,-2.29115053812076e+001,-3.72875210608145e+000

7.78123957929823e+004,-2.29117851561067e+001,-3.78062169953963e+000

7.88986163594682e+004,-2.29120725341261e+001,-3.83320798136081e+000

7.99999999999995e+004,-2.29123677149031e+001,-3.88652066570307e+000

8.11167583832018e+004,-2.29126709029527e+001,-3.94056959154657e+000

8.22491061324848e+004,-2.29129823077678e+001,-3.99536472407841e+000

8.33972608672892e+004,-2.29133021439218e+001,-4.05091615608917e+000

8.45614432449099e+004,-2.29136306311711e+001,-4.10723410937826e+000

8.57418770029029e+004,-2.29139679945601e+001,-4.16432893617133e+000

8.69387890020841e+004,-2.29143144645264e+001,-4.22221112054858e+000

8.81524092701283e+004,-2.29146702770071e+001,-4.28089127988313e+000

8.93829710457770e+004,-2.29150356735467e+001,-4.34038016629114e+000

9.06307108236633e+004,-2.29154109014057e+001,-4.40068866809409e+000

9.18958683997622e+004,-2.29157962136700e+001,-4.46182781129126e+000

9.31786869174758e+004,-2.29161918693615e+001,-4.52380876104607e+000

9.44794129143618e+004,-2.29165981335499e+001,-4.58664282318303e+000

9.57982963695136e+004,-2.29170152774643e+001,-4.65034144569895e+000

9.71355907516031e+004,-2.29174435786071e+001,-4.71491622028595e+000

9.84915530675926e+004,-2.29178833208672e+001,-4.78037888386915e+000

9.98664439121282e+004,-2.29183347946353e+001,-4.84674132015713e+000

1.01260527517622e+005,-2.29187982969187e+001,-4.91401556120839e+000

1.02674071805032e+005,-2.29192741314577e+001,-4.98221378901107e+000

1.04107348435354e+005,-2.29197626088419e+001,-5.05134833708068e+000

1.05560632861831e+005,-2.29202640466278e+001,-5.12143169207092e+000

1.07034204382888e+005,-2.29207787694558e+001,-5.19247649540540e+000

1.08528346195813e+005,-2.29213071091692e+001,-5.26449554492344e+000

1.10043345451179e+005,-2.29218494049323e+001,-5.33750179654733e+000

1.11579493308032e+005,-2.29224060033497e+001,-5.41150836596678e+000

1.13137084989847e+005,-2.29229772585854e+001,-5.48652853034579e+000

1.14716419841265e+005,-2.29235635324832e+001,-5.56257573004895e+000

1.16317801385624e+005,-2.29241651946865e+001,-5.63966357039173e+000

1.17941537383287e+005,-2.29247826227585e+001,-5.71780582341273e+000

1.19587939890794e+005,-2.29254162023034e+001,-5.79701642967322e+000

1.21257325320831e+005,-2.29260663270872e+001,-5.87730950007893e+000

1.22950014503040e+005,-2.29267333991592e+001,-5.95869931773229e+000

1.24666332745679e+005,-2.29274178289733e+001,-6.04120033981237e+000

1.26406609898139e+005,-2.29281200355105e+001,-6.12482719948417e+000

1.28171180414339e+005,-2.29288404464006e+001,-6.20959470784039e+000

1.29960383416997e+005,-2.29295794980454e+001,-6.29551785587689e+000

1.31774562762811e+005,-2.29303376357417e+001,-6.38261181650142e+000

1.33614067108538e+005,-2.29311153138048e+001,-6.47089194658140e+000

1.35479249978003e+005,-2.29319129956927e+001,-6.56037378902820e+000

1.37370469830040e+005,-2.29327311541314e+001,-6.65107307492299e+000

1.39288090127379e+005,-2.29335702712401e+001,-6.74300572568470e+000

1.41232479406504e+005,-2.29344308386580e+001,-6.83618785528225e+000

1.43204011348474e+005,-2.29353133576723e+001,-6.93063577249280e+000

1.45203064850745e+005,-2.29362183393464e+001,-7.02636598321040e+000

1.47230024099979e+005,-2.29371463046510e+001,-7.12339519280271e+000

1.49285278645888e+005,-2.29380977845954e+001,-7.22174030852304e+000

1.51369223476094e+005,-2.29390733203620e+001,-7.32141844197590e+000

1.53482259092041e+005,-2.29400734634419e+001,-7.42244691164215e+000

1.55624791585964e+005,-2.29410987757737e+001,-7.52484324546172e+000

1.57797232718936e+005,-2.29421498298842e+001,-7.62862518347985e+000

1.59999999999999e+005,-2.29432272090336e+001,-7.73381068055803e+000

1.62233516766403e+005,-2.29443315073626e+001,-7.84041790915079e+000

1.64498212264969e+005,-2.29454633300448e+001,-7.94846526215239e+000

1.66794521734578e+005,-2.29466232934426e+001,-8.05797135581530e+000

1.69122886489819e+005,-2.29478120252684e+001,-8.16895503274063e+000

1.71483754005805e+005,-2.29490301647512e+001,-8.28143536494658e+000

1.73877578004168e+005,-2.29502783628089e+001,-8.39543165701328e+000

1.76304818540256e+005,-2.29515572822274e+001,-8.51096344930779e+000

1.78765942091554e+005,-2.29528675978470e+001,-8.62805052129149e+000

1.81261421647326e+005,-2.29542099967562e+001,-8.74671289491008e+000

1.83791736799524e+005,-2.29555851784949e+001,-8.86697083806938e+000

1.86357373834951e+005,-2.29569938552660e+001,-8.98884486819768e+000

1.88958825828723e+005,-2.29584367521581e+001,-9.11235575589498e+000

1.91596592739027e+005,-2.29599146073786e+001,-9.23752452867226e+000

1.94271181503206e+005,-2.29614281724986e+001,-9.36437247477926e+000

1.96983106135185e+005,-2.29629782127114e+001,-9.49292114712325e+000

1.99732887824256e+005,-2.29645655071036e+001,-9.62319236727694e+000

2.02521055035243e+005,-2.29661908489419e+001,-9.75520822957770e+000

2.05348143610063e+005,-2.29678550459750e+001,-9.88899110531602e+000

2.08214696870707e+005,-2.29695589207525e+001,-1.00245636470133e+001

2.11121265723661e+005,-2.29713033109622e+001,-1.01619487927868e+001

2.14068408765776e+005,-2.29730890697851e+001,-1.03011697708015e+001

2.17056692391625e+005,-2.29749170662721e+001,-1.04422501038062e+001

2.20086690902357e+005,-2.29767881857408e+001,-1.05852136137515e+001

2.23158986616063e+005,-2.29787033301952e+001,-1.07300844264854e+001

2.26274169979693e+005,-2.29806634187688e+001,-1.08768869765265e+001

2.29432839682530e+005,-2.29826693881932e+001,-1.10256460119068e+001

2.32635602771247e+005,-2.29847221932917e+001,-1.11763865990825e+001

2.35883074766574e+005,-2.29868228075010e+001,-1.13291341279063e+001

2.39175879781588e+005,-2.29889722234204e+001,-1.14839143166567e+001

2.42514650641661e+005,-2.29911714533918e+001,-1.16407532171163e+001

2.45900029006080e+005,-2.29934215301091e+001,-1.17996772196951e+001

2.49332665491357e+005,-2.29957235072607e+001,-1.19607130585884e+001

2.52813219796278e+005,-2.29980784602039e+001,-1.21238878169634e+001

2.56342360828676e+005,-2.30004874866742e+001,-1.22892289321662e+001

2.59920766833993e+005,-2.30029517075294e+001,-1.24567642009373e+001

2.63549125525621e+005,-2.30054722675293e+001,-1.26265217846300e+001

2.67228134217075e+005,-2.30080503361535e+001,-1.27985302144175e+001

2.70958499956006e+005,-2.30106871084559e+001,-1.29728183964798e+001

2.74740939660078e+005,-2.30133838059585e+001,-1.31494156171596e+001

2.78576180254757e+005,-2.30161416775844e+001,-1.33283515480729e+001

2.82464958813007e+005,-2.30189620006308e+001,-1.35096562511643e+001

2.86408022696948e+005,-2.30218460817826e+001,-1.36933601836921e+001

2.90406129701488e+005,-2.30247952581670e+001,-1.38794942031311e+001

2.94460048199957e+005,-2.30278108984495e+001,-1.40680895719784e+001

2.98570557291775e+005,-2.30308944039711e+001,-1.42591779624488e+001

3.02738446952187e+005,-2.30340472099278e+001,-1.44527914610438e+001

3.06964518184081e+005,-2.30372707865919e+001,-1.46489625729815e+001

3.11249583171928e+005,-2.30405666405740e+001,-1.48477242264704e+001

3.15594465437872e+005,-2.30439363161279e+001,-1.50491097768116e+001

3.19999999999997e+005,-2.30473813964953e+001,-1.52531530103172e+001

3.24467033532806e+005,-2.30509035052918e+001,-1.54598881480236e+001

3.28996424529938e+005,-2.30545043079329e+001,-1.56693498491898e+001

3.33589043469155e+005,-2.30581855130992e+001,-1.58815732145614e+001

3.38245772979638e+005,-2.30619488742396e+001,-1.60965937893859e+001

3.42967508011610e+005,-2.30657961911131e+001,-1.63144475661643e+001

3.47755156008335e+005,-2.30697293113653e+001,-1.65351709871219e+001

3.52609637080511e+005,-2.30737501321415e+001,-1.67588009463855e+001

3.57531884183106e+005,-2.30778606017324e+001,-1.69853747918508e+001

3.62522843294651e+005,-2.30820627212528e+001,-1.72149303267245e+001

3.67583473599047e+005,-2.30863585463499e+001,-1.74475058107298e+001

3.72714747669902e+005,-2.30907501889415e+001,-1.76831399609581e+001

3.77917651657445e+005,-2.30952398189804e+001,-1.79218719523560e+001

3.83193185478053e+005,-2.30998296662443e+001,-1.81637414178338e+001

3.88542363006410e+005,-2.31045220221482e+001,-1.84087884479828e+001

3.93966212270369e+005,-2.31093192415783e+001,-1.86570535903907e+001

3.99465775648511e+005,-2.31142237447439e+001,-1.89085778485419e+001

4.05042110070485e+005,-2.31192380190456e+001,-1.91634026802950e+001

4.10696287220124e+005,-2.31243646209581e+001,-1.94215699959238e+001

4.16429393741414e+005,-2.31296061779229e+001,-1.96831221557163e+001

4.22242531447321e+005,-2.31349653902520e+001,-1.99481019671192e+001

4.28136817531551e+005,-2.31404450330354e+001,-2.02165526814226e+001

4.34113384783250e+005,-2.31460479580545e+001,-2.04885179899759e+001

4.40173381804713e+005,-2.31517770956946e+001,-2.07640420199281e+001

4.46317973232124e+005,-2.31576354568567e+001,-2.10431693294882e+001

4.52548339959385e+005,-2.31636261348644e+001,-2.13259449026964e+001

4.58865679365059e+005,-2.31697523073630e+001,-2.16124141437046e+001

4.65271205542494e+005,-2.31760172382089e+001,-2.19026228705603e+001

4.71766149533147e+005,-2.31824242793456e+001,-2.21966173084904e+001

4.78351759563174e+005,-2.31889768726633e+001,-2.24944440826807e+001

4.85029301283321e+005,-2.31956785518408e+001,-2.27961502105505e+001

4.91800058012158e+005,-2.32025329441638e+001,-2.31017830935182e+001

4.98665330982714e+005,-2.32095437723200e+001,-2.34113905082566e+001

5.05626439592555e+005,-2.32167148561654e+001,-2.37250205974374e+001

5.12684721657352e+005,-2.32240501144605e+001,-2.40427218599639e+001

5.19841533667984e+005,-2.32315535665719e+001,-2.43645431406908e+001

5.27098251051240e+005,-2.32392293341384e+001,-2.46905336196325e+001

5.34456268434150e+005,-2.32470816426957e+001,-2.50207428006585e+001

5.41916999912011e+005,-2.32551148232598e+001,-2.53552204996801e+001

