Freq.,VOut,OutRef

1.00000000000000e+004,-2.56284646883483e+001,-2.18865653337329e-001

1.01395947979003e+004,-2.56284672124148e+001,-2.21920564922904e-001

1.02811382665607e+004,-2.56284698073687e+001,-2.25018107097612e-001

1.04246576084112e+004,-2.56284724751985e+001,-2.28158874353767e-001

1.05701804056138e+004,-2.56284752179488e+001,-2.31343469453474e-001

1.07177346253629e+004,-2.56284780377209e+001,-2.34572503549844e-001

1.08673486252606e+004,-2.56284809366756e+001,-2.37846596295500e-001

1.10190511587661e+004,-2.56284839170336e+001,-2.41166375965702e-001

1.11728713807222e+004,-2.56284869810777e+001,-2.44532479577361e-001

1.13288388529580e+004,-2.56284901311551e+001,-2.47945553004238e-001

1.14869835499703e+004,-2.56284933696781e+001,-2.51406251105724e-001

1.16473358646846e+004,-2.56284966991268e+001,-2.54915237847344e-001

1.18099266142953e+004,-2.56285001220505e+001,-2.58473186427529e-001

1.19747870461893e+004,-2.56285036410699e+001,-2.62080779404106e-001

1.21419488439505e+004,-2.56285072588788e+001,-2.65738708824567e-001

1.23114441334492e+004,-2.56285109782464e+001,-2.69447676356066e-001

1.24833054890161e+004,-2.56285148020192e+001,-2.73208393418220e-001

1.26575659397028e+004,-2.56285187331234e+001,-2.77021581317585e-001

1.28342589756290e+004,-2.56285227745668e+001,-2.80887971383456e-001

1.30134185544193e+004,-2.56285269294412e+001,-2.84808305106345e-001

1.31950791077289e+004,-2.56285312009251e+001,-2.88783334275808e-001

1.33792755478611e+004,-2.56285355922850e+001,-2.92813821127021e-001

1.35660432744767e+004,-2.56285401068793e+001,-2.96900538478912e-001

1.37554181813974e+004,-2.56285447481597e+001,-3.01044269881865e-001

1.39474366635040e+004,-2.56285495196746e+001,-3.05245809765657e-001

1.41421356237309e+004,-2.56285544250711e+001,-3.09505963587984e-001

1.43395524801583e+004,-2.56285594680980e+001,-3.13825547987183e-001

1.45397251732031e+004,-2.56285646526088e+001,-3.18205390932403e-001

1.47426921729110e+004,-2.56285699825645e+001,-3.22646331883348e-001

1.49484924863494e+004,-2.56285754620362e+001,-3.27149221943962e-001

1.51571656651040e+004,-2.56285810952086e+001,-3.31714924025066e-001

1.53687518128801e+004,-2.56285868863831e+001,-3.36344313002604e-001

1.55832915932100e+004,-2.56285928399809e+001,-3.41038275883930e-001

1.58008262372675e+004,-2.56285989605460e+001,-3.45797711973310e-001

1.60213975517924e+004,-2.56286052527494e+001,-3.50623533037750e-001

1.62450479271247e+004,-2.56286117213916e+001,-3.55516663482295e-001

1.64718203453514e+004,-2.56286183714068e+001,-3.60478040516333e-001

1.67017583885674e+004,-2.56286252078667e+001,-3.65508614332172e-001

1.69349062472505e+004,-2.56286322359837e+001,-3.70609348281030e-001

1.71713087287550e+004,-2.56286394611152e+001,-3.75781219052585e-001

1.74110112659224e+004,-2.56286468887675e+001,-3.81025216856571e-001

1.76540599258131e+004,-2.56286545245999e+001,-3.86342345605262e-001

1.79005014185594e+004,-2.56286623744286e+001,-3.91733623102490e-001

1.81503831063432e+004,-2.56286704442314e+001,-3.97200081230078e-001

1.84037530124975e+004,-2.56286787401522e+001,-4.02742766138828e-001

1.86606598307361e+004,-2.56286872685050e+001,-4.08362738444504e-001

1.89211529345119e+004,-2.56286960357790e+001,-4.14061073421197e-001

1.91852823865052e+004,-2.56287050486435e+001,-4.19838861200994e-001

1.94530989482457e+004,-2.56287143139520e+001,-4.25697206975708e-001

1.97246540898671e+004,-2.56287238387483e+001,-4.31637231199181e-001

1.99999999999999e+004,-2.56287336302710e+001,-4.37660069793974e-001

2.02791895958005e+004,-2.56287436959592e+001,-4.43766874359367e-001

2.05622765331213e+004,-2.56287540434576e+001,-4.49958812383808e-001

2.08493152168224e+004,-2.56287646806219e+001,-4.56237067459983e-001

2.11403608112276e+004,-2.56287756155257e+001,-4.62602839497150e-001

2.14354692507258e+004,-2.56287868564647e+001,-4.69057344945919e-001

2.17346972505211e+004,-2.56287984119642e+001,-4.75601817015469e-001

2.20381023175322e+004,-2.56288102907846e+001,-4.82237505901775e-001

2.23457427614443e+004,-2.56288225019275e+001,-4.88965679014263e-001

2.26576777059159e+004,-2.56288350546433e+001,-4.95787621203992e-001

2.29739670999406e+004,-2.56288479584366e+001,-5.02704635000480e-001

2.32946717293690e+004,-2.56288612230738e+001,-5.09718040845124e-001

2.36198532285905e+004,-2.56288748585902e+001,-5.16829177330191e-001

2.39495740923785e+004,-2.56288888752970e+001,-5.24039401440727e-001

2.42838976879009e+004,-2.56289032837884e+001,-5.31350088801252e-001

2.46228882668982e+004,-2.56289180949500e+001,-5.38762633919413e-001

2.49666109780322e+004,-2.56289333199658e+001,-5.46278450438862e-001

2.53151318794055e+004,-2.56289489703266e+001,-5.53898971393037e-001

2.56685179512580e+004,-2.56289650578382e+001,-5.61625649459805e-001

2.60268371088386e+004,-2.56289815946296e+001,-5.69459957221575e-001

2.63901582154578e+004,-2.56289985931619e+001,-5.77403387428378e-001

2.67585510957221e+004,-2.56290160662365e+001,-5.85457453263362e-001

2.71320865489533e+004,-2.56290340270050e+001,-5.93623688609137e-001

2.75108363627948e+004,-2.56290524889778e+001,-6.01903648321462e-001

2.78948733270080e+004,-2.56290714660339e+001,-6.10298908504015e-001

2.82842712474618e+004,-2.56290909724306e+001,-6.18811066784114e-001

2.86791049603164e+004,-2.56291110228132e+001,-6.27441742596029e-001

2.90794503464061e+004,-2.56291316322258e+001,-6.36192577462401e-001

2.94853843458219e+004,-2.56291528161209e+001,-6.45065235283807e-001

2.98969849726987e+004,-2.56291745903709e+001,-6.54061402627059e-001

3.03143313302078e+004,-2.56291969712787e+001,-6.63182789021039e-001

3.07375036257601e+004,-2.56292199755890e+001,-6.72431127249787e-001

3.11665831864199e+004,-2.56292436204997e+001,-6.81808173655664e-001

3.16016524745350e+004,-2.56292679236737e+001,-6.91315708440588e-001

3.20427951035848e+004,-2.56292929032511e+001,-7.00955535972958e-001

3.24900958542493e+004,-2.56293185778614e+001,-7.10729485096189e-001

3.29436406907028e+004,-2.56293449666361e+001,-7.20639409442403e-001

3.34035167771346e+004,-2.56293720892215e+001,-7.30687187748399e-001

3.38698124945009e+004,-2.56293999657921e+001,-7.40874724173307e-001

3.43426174575100e+004,-2.56294286170641e+001,-7.51203948621118e-001

3.48220225318448e+004,-2.56294580643091e+001,-7.61676817068282e-001

3.53081198516260e+004,-2.56294883293682e+001,-7.72295311890245e-001

3.58010028371187e+004,-2.56295194346665e+001,-7.83061442193408e-001

3.63007662126863e+004,-2.56295514032279e+001,-7.93977244151936e-001

3.68075060249948e+004,-2.56295842586898e+001,-8.05044781344442e-001

3.73213196614721e+004,-2.56296180253192e+001,-8.16266145096695e-001

3.78423058690237e+004,-2.56296527280278e+001,-8.27643454824516e-001

3.83705647730104e+004,-2.56296883923883e+001,-8.39178858384772e-001

3.89061978964912e+004,-2.56297250446510e+001,-8.50874532422630e-001

3.94493081797342e+004,-2.56297627117601e+001,-8.62732682729574e-001

3.99999999999998e+004,-2.56298014213712e+001,-8.74755544596919e-001

4.05583791916010e+004,-2.56298412018687e+001,-8.86945383179259e-001

4.11245530662425e+004,-2.56298820823833e+001,-8.99304493856790e-001

4.16986304336447e+004,-2.56299240928104e+001,-9.11835202601327e-001

4.22807216224550e+004,-2.56299672638289e+001,-9.24539866345919e-001

4.28709385014515e+004,-2.56300116269192e+001,-9.37420873359090e-001

4.34693945010421e+004,-2.56300572143836e+001,-9.50480643617616e-001

4.40762046350642e+004,-2.56301040593648e+001,-9.63721629187570e-001

4.46914855228886e+004,-2.56301521958665e+001,-9.77146314604699e-001

4.53153554118317e+004,-2.56302016587737e+001,-9.90757217257356e-001

4.59479341998812e+004,-2.56302524838732e+001,-1.00455688777558e+000

4.65893434587380e+004,-2.56303047078746e+001,-1.01854791042053e+000

4.72397064571810e+004,-2.56303583684322e+001,-1.03273290347537e+000

4.78991481847569e+004,-2.56304135041660e+001,-1.04711451964310e+000

4.85677953758016e+004,-2.56304701546845e+001,-1.06169544644215e+000

4.92457765337964e+004,-2.56305283606070e+001,-1.07647840660835e+000

4.99332219560642e+004,-2.56305881635864e+001,-1.09146615849810e+000

5.06302637588109e+004,-2.56306496063324e+001,-1.10666149649244e+000

5.13370359025159e+004,-2.56307127326352e+001,-1.12206725140640e+000

5.20536742176771e+004,-2.56307775873891e+001,-1.13768629089820e+000

5.27803164309155e+004,-2.56308442166170e+001,-1.15352151988429e+000

5.35171021914442e+004,-2.56309126674950e+001,-1.16957588095014e+000

5.42641730979066e+004,-2.56309829883770e+001,-1.18585235477147e+000

5.50216727255895e+004,-2.56310552288199e+001,-1.20235396053012e+000

5.57897466540159e+004,-2.56311294396094e+001,-1.21908375633803e+000

5.65685424949235e+004,-2.56312056727853e+001,-1.23604483965824e+000

5.73582099206328e+004,-2.56312839816682e+001,-1.25324034773083e+000

5.81589006928121e+004,-2.56313644208850e+001,-1.27067345800003e+000

5.89707686916437e+004,-2.56314470463960e+001,-1.28834738854241e+000

5.97939699453972e+004,-2.56315319155215e+001,-1.30626539849788e+000

6.06286626604156e+004,-2.56316190869688e+001,-1.32443078850040e+000

6.14750072515201e+004,-2.56317086208593e+001,-1.34284690111336e+000

6.23331663728396e+004,-2.56318005787561e+001,-1.36151712126233e+000

6.32033049490698e+004,-2.56318950236911e+001,-1.38044487667319e+000

6.40855902071694e+004,-2.56319920201930e+001,-1.39963363830819e+000

6.49801917084985e+004,-2.56320916343149e+001,-1.41908692080679e+000

6.58872813814055e+004,-2.56321939336619e+001,-1.43880828292370e+000

6.68070335542691e+004,-2.56322989874193e+001,-1.45880132797136e+000

6.77396249890018e+004,-2.56324068663801e+001,-1.47906970426145e+000

6.86852349150199e+004,-2.56325176429728e+001,-1.49961710554932e+000

6.96440450636895e+004,-2.56326313912897e+001,-1.52044727147601e+000

7.06162397032520e+004,-2.56327481871138e+001,-1.54156398801581e+000

7.16020056742374e+004,-2.56328681079470e+001,-1.56297108791977e+000

7.26015324253724e+004,-2.56329912330368e+001,-1.58467245116452e+000

7.36150120499896e+004,-2.56331176434039e+001,-1.60667200539810e+000

7.46426393229441e+004,-2.56332474218689e+001,-1.62897372638956e+000

7.56846117380472e+004,-2.56333806530787e+001,-1.65158163847643e+000

7.67411295460207e+004,-2.56335174235329e+001,-1.67449981501597e+000

7.78123957929823e+004,-2.56336578216090e+001,-1.69773237883548e+000

7.88986163594682e+004,-2.56338019375884e+001,-1.72128350268191e+000

7.99999999999995e+004,-2.56339498636802e+001,-1.74515740967662e+000

8.11167583832018e+004,-2.56341016940459e+001,-1.76935837376628e+000

8.22491061324848e+004,-2.56342575248224e+001,-1.79389072017773e+000

8.33972608672892e+004,-2.56344174541450e+001,-1.81875882587270e+000

8.45614432449099e+004,-2.56345815821688e+001,-1.84396712000377e+000

8.57418770029029e+004,-2.56347500110898e+001,-1.86952008437264e+000

8.69387890020841e+004,-2.56349228451648e+001,-1.89542225388745e+000

8.81524092701283e+004,-2.56351001907303e+001,-1.92167821702466e+000

8.93829710457770e+004,-2.56352821562204e+001,-1.94829261628967e+000

9.06307108236633e+004,-2.56354688521831e+001,-1.97527014868249e+000

9.18958683997622e+004,-2.56356603912956e+001,-2.00261556616324e+000

9.31786869174758e+004,-2.56358568883781e+001,-2.03033367612170e+000

9.44794129143618e+004,-2.56360584604061e+001,-2.05842934184895e+000

9.57982963695136e+004,-2.56362652265212e+001,-2.08690748301251e+000

9.71355907516031e+004,-2.56364773080401e+001,-2.11577307613595e+000

9.84915530675926e+004,-2.56366948284619e+001,-2.14503115508071e+000

9.98664439121282e+004,-2.56369179134734e+001,-2.17468681153448e+000

1.01260527517622e+005,-2.56371466909523e+001,-2.20474519550356e+000

1.02674071805032e+005,-2.56373812909688e+001,-2.23521151581186e+000

1.04107348435354e+005,-2.56376218457843e+001,-2.26609104060437e+000

1.05560632861831e+005,-2.56378684898485e+001,-2.29738909786033e+000

1.07034204382888e+005,-2.56381213597931e+001,-2.32911107591190e+000

1.08528346195813e+005,-2.56383805944244e+001,-2.36126242397223e+000

1.10043345451179e+005,-2.56386463347116e+001,-2.39384865267313e+000

1.11579493308032e+005,-2.56389187237736e+001,-2.42687533461348e+000

1.13137084989847e+005,-2.56391979068624e+001,-2.46034810491667e+000

1.14716419841265e+005,-2.56394840313438e+001,-2.49427266180383e+000

1.16317801385624e+005,-2.56397772466746e+001,-2.52865476717810e+000

1.17941537383287e+005,-2.56400777043770e+001,-2.56350024722429e+000

1.19587939890794e+005,-2.56403855580095e+001,-2.59881499302444e+000

1.21257325320831e+005,-2.56407009631351e+001,-2.63460496119090e+000

1.22950014503040e+005,-2.56410240772846e+001,-2.67087617451839e+000

1.24666332745679e+005,-2.56413550599183e+001,-2.70763472265495e+000

1.26406609898139e+005,-2.56416940723819e+001,-2.74488676279751e+000

1.28171180414339e+005,-2.56420412778611e+001,-2.78263852040668e+000

1.29960383416997e+005,-2.56423968413302e+001,-2.82089628995129e+000

1.31774562762811e+005,-2.56427609294985e+001,-2.85966643567726e+000

1.33614067108538e+005,-2.56431337107523e+001,-2.89895539240602e+000

1.35479249978003e+005,-2.56435153550926e+001,-2.93876966636399e+000

1.37370469830040e+005,-2.56439060340694e+001,-2.97911583604606e+000

1.39288090127379e+005,-2.56443059207126e+001,-3.02000055311270e+000

1.41232479406504e+005,-2.56447151894576e+001,-3.06143054332535e+000

1.43204011348474e+005,-2.56451340160681e+001,-3.10341260752276e+000

1.45203064850745e+005,-2.56455625775552e+001,-3.14595362263665e+000

1.47230024099979e+005,-2.56460010520918e+001,-3.18906054275543e+000

1.49285278645888e+005,-2.56464496189237e+001,-3.23274040023301e+000

1.51369223476094e+005,-2.56469084582782e+001,-3.27700030684794e+000

1.53482259092041e+005,-2.56473777512668e+001,-3.32184745501527e+000

1.55624791585964e+005,-2.56478576797873e+001,-3.36728911905307e+000

1.57797232718936e+005,-2.56483484264205e+001,-3.41333265650841e+000

1.59999999999999e+005,-2.56488501743253e+001,-3.45998550954160e+000

1.62233516766403e+005,-2.56493631071305e+001,-3.50725520637652e+000

1.64498212264969e+005,-2.56498874088239e+001,-3.55514936281631e+000

1.66794521734578e+005,-2.56504232636397e+001,-3.60367568382735e+000

1.69122886489819e+005,-2.56509708559436e+001,-3.65284196519818e+000

1.71483754005805e+005,-2.56515303701162e+001,-3.70265609527008e+000

1.73877578004168e+005,-2.56521019904356e+001,-3.75312605674804e+000

1.76304818540256e+005,-2.56526859009586e+001,-3.80425992859131e+000

1.78765942091554e+005,-2.56532822854023e+001,-3.85606588798687e+000

1.81261421647326e+005,-2.56538913270247e+001,-3.90855221241018e+000

1.83791736799524e+005,-2.56545132085071e+001,-3.96172728177316e+000

1.86357373834951e+005,-2.56551481118365e+001,-4.01559958066420e+000

1.88958825828723e+005,-2.56557962181904e+001,-4.07017770068067e+000

1.91596592739027e+005,-2.56564577078240e+001,-4.12547034285823e+000

1.94271181503206e+005,-2.56571327599596e+001,-4.18148632019646e+000

1.96983106135185e+005,-2.56578215526802e+001,-4.23823456028540e+000

1.99732887824256e+005,-2.56585242628276e+001,-4.29572410803232e+000

2.02521055035243e+005,-2.56592410659050e+001,-4.35396412849143e+000

2.05348143610063e+005,-2.56599721359859e+001,-4.41296390979842e+000

2.08214696870707e+005,-2.56607176456294e+001,-4.47273286620907e+000

2.11121265723661e+005,-2.56614777658034e+001,-4.53328054124369e+000

2.14068408765776e+005,-2.56622526658153e+001,-4.59461661093831e+000

2.17056692391625e+005,-2.56630425132529e+001,-4.65675088720161e+000

2.20086690902357e+005,-2.56638474739350e+001,-4.71969332127773e+000

2.23158986616063e+005,-2.56646677118727e+001,-4.78345400731569e+000

2.26274169979693e+005,-2.56655033892431e+001,-4.84804318604196e+000

2.29432839682530e+005,-2.56663546663762e+001,-4.91347124853831e+000

2.32635602771247e+005,-2.56672217017547e+001,-4.97974874011809e+000

2.35883074766574e+005,-2.56681046520296e+001,-5.04688636430650e+000

2.39175879781588e+005,-2.56690036720512e+001,-5.11489498691365e+000

2.42514650641661e+005,-2.56699189149166e+001,-5.18378564020490e+000

2.45900029006080e+005,-2.56708505320352e+001,-5.25356952716049e+000

2.49332665491357e+005,-2.56717986732130e+001,-5.32425802582269e+000

2.52813219796278e+005,-2.56727634867556e+001,-5.39586269372523e+000

2.56342360828676e+005,-2.56737451195924e+001,-5.46839527240281e+000

2.59920766833993e+005,-2.56747437174215e+001,-5.54186769197135e+000

2.63549125525621e+005,-2.56757594248771e+001,-5.61629207577779e+000

2.67228134217075e+005,-2.56767923857196e+001,-5.69168074511098e+000

2.70958499956006e+005,-2.56778427430489e+001,-5.76804622396832e+000

2.74740939660078e+005,-2.56789106395421e+001,-5.84540124387121e+000

2.78576180254757e+005,-2.56799962177167e+001,-5.92375874872347e+000

2.82464958813007e+005,-2.56810996202181e+001,-6.00313189970218e+000

2.86408022696948e+005,-2.56822209901342e+001,-6.08353408017795e+000

2.90406129701488e+005,-2.56833604713354e+001,-6.16497890065264e+000

2.94460048199957e+005,-2.56845182088419e+001,-6.24748020370818e+000

2.98570557291775e+005,-2.56856943492179e+001,-6.33105206895888e+000

3.02738446952187e+005,-2.56868890409929e+001,-6.41570881799586e+000

3.06964518184081e+005,-2.56881024351100e+001,-6.50146501931911e+000

3.11249583171928e+005,-2.56893346854026e+001,-6.58833549324298e+000

3.15594465437872e+005,-2.56905859490970e+001,-6.67633531677222e+000

3.19999999999997e+005,-2.56918563873433e+001,-6.76547982843525e+000

3.24467033532806e+005,-2.56931461657727e+001,-6.85578463306641e+000

3.28996424529938e+005,-2.56944554550814e+001,-6.94726560653250e+000

3.33589043469155e+005,-2.56957844316405e+001,-7.03993890038823e+000

3.38245772979638e+005,-2.56971332781324e+001,-7.13382094645876e+000

3.42967508011610e+005,-2.56985021842114e+001,-7.22892846133700e+000

3.47755156008335e+005,-2.56998913471890e+001,-7.32527845078920e+000

3.52609637080511e+005,-2.57013009727434e+001,-7.42288821406129e+000

3.57531884183106e+005,-2.57027312756509e+001,-7.52177534807884e+000

3.62522843294651e+005,-2.57041824805405e+001,-7.62195775153288e+000

3.67583473599047e+005,-2.57056548226682e+001,-7.72345362884682e+000

3.72714747669902e+005,-2.57071485487126e+001,-7.82628149401707e+000

3.77917651657445e+005,-2.57086639175884e+001,-7.93046017432342e+000

3.83193185478053e+005,-2.57102012012784e+001,-8.03600881390247e+000

3.88542363006410e+005,-2.57117606856817e+001,-8.14294687718206e+000

3.93966212270369e+005,-2.57133426714780e+001,-8.25129415217157e+000

3.99465775648511e+005,-2.57149474750050e+001,-8.36107075360562e+000

4.05042110070485e+005,-2.57165754291503e+001,-8.47229712593825e+000

4.10696287220124e+005,-2.57182268842536e+001,-8.58499404618675e+000

4.16429393741414e+005,-2.57199022090209e+001,-8.69918262662266e+000

4.22242531447321e+005,-2.57216017914463e+001,-8.81488431731047e+000

4.28136817531551e+005,-2.57233260397436e+001,-8.93212090849409e+000

4.34113384783250e+005,-2.57250753832833e+001,-9.05091453283049e+000

4.40173381804713e+005,-2.57268502735362e+001,-9.17128766747374e+000

4.46317973232124e+005,-2.57286511850210e+001,-9.29326313600923e+000

4.52548339959385e+005,-2.57304786162558e+001,-9.41686411024296e+000

4.58865679365059e+005,-2.57323330907119e+001,-9.54211411184552e+000

4.65271205542494e+005,-2.57342151577686e+001,-9.66903701385745e+000

4.71766149533147e+005,-2.57361253936694e+001,-9.79765704205803e+000

4.78351759563174e+005,-2.57380644024771e+001,-9.92799877620143e+000

4.85029301283321e+005,-2.57400328170282e+001,-1.00600871511267e+001

4.91800058012158e+005,-2.57420312998860e+001,-1.01939474577435e+001

4.98665330982714e+005,-2.57440605442902e+001,-1.03296053439024e+001

5.05626439592555e+005,-2.57461212751049e+001,-1.04670868151517e+001

5.12684721657352e+005,-2.57482142497627e+001,-1.06064182353891e+001

5.19841533667984e+005,-2.57503402592051e+001,-1.07476263274116e+001

5.27098251051240e+005,-2.57525001288193e+001,-1.08907381733707e+001

5.34456268434150e+005,-2.57546947193711e+001,-1.10357812151391e+001

5.41916999912011e+005,-2.57569249279333e+001,-1.11827832545920e+001

