Freq.,VOut,OutRef

1.00000000000000e+004,-1.69288405580797e+001,-8.88874164315801e-002

1.01395947979003e+004,-1.69288427876206e+001,-9.01278679493629e-002

1.02811382665607e+004,-1.69288450797606e+001,-9.13856198027147e-002

1.04246576084112e+004,-1.69288474362550e+001,-9.26609128271591e-002

1.05701804056138e+004,-1.69288498589080e+001,-9.39539911957084e-002

1.07177346253629e+004,-1.69288523495744e+001,-9.52651024565180e-002

1.08673486252606e+004,-1.69288549101610e+001,-9.65944975841149e-002

1.10190511587661e+004,-1.69288575426275e+001,-9.79424310258703e-002

1.11728713807222e+004,-1.69288602489887e+001,-9.93091607456728e-002

1.13288388529580e+004,-1.69288630313154e+001,-1.00694948275974e-001

1.14869835499703e+004,-1.69288658917365e+001,-1.02100058761931e-001

1.16473358646846e+004,-1.69288688324405e+001,-1.03524761012026e-001

1.18099266142953e+004,-1.69288718556764e+001,-1.04969327550821e-001

1.19747870461893e+004,-1.69288749637567e+001,-1.06434034661800e-001

1.21419488439505e+004,-1.69288781590578e+001,-1.07919162447749e-001

1.23114441334492e+004,-1.69288814440231e+001,-1.09424994871373e-001

1.24833054890161e+004,-1.69288848211637e+001,-1.10951819816445e-001

1.26575659397028e+004,-1.69288882930609e+001,-1.12499929136789e-001

1.28342589756290e+004,-1.69288918623679e+001,-1.14069618709448e-001

1.30134185544193e+004,-1.69288955318121e+001,-1.15661188489184e-001

1.31950791077289e+004,-1.69288993041965e+001,-1.17274942564350e-001

1.33792755478611e+004,-1.69289031824030e+001,-1.18911189207612e-001

1.35660432744767e+004,-1.69289071693931e+001,-1.20570240940081e-001

1.37554181813974e+004,-1.69289112682108e+001,-1.22252414581885e-001

1.39474366635040e+004,-1.69289154819854e+001,-1.23958031309284e-001

1.41421356237309e+004,-1.69289198139328e+001,-1.25687416717378e-001

1.43395524801583e+004,-1.69289242673591e+001,-1.27440900873544e-001

1.45397251732031e+004,-1.69289288456614e+001,-1.29218818383410e-001

1.47426921729110e+004,-1.69289335523322e+001,-1.31021508443548e-001

1.49484924863494e+004,-1.69289383909607e+001,-1.32849314908020e-001

1.51571656651040e+004,-1.69289433652360e+001,-1.34702586348051e-001

1.53687518128801e+004,-1.69289484789495e+001,-1.36581676116019e-001

1.55832915932100e+004,-1.69289537359985e+001,-1.38486942403049e-001

1.58008262372675e+004,-1.69289591403879e+001,-1.40418748310901e-001

1.60213975517924e+004,-1.69289646962345e+001,-1.42377461909510e-001

1.62450479271247e+004,-1.69289704077686e+001,-1.44363456307632e-001

1.64718203453514e+004,-1.69289762793383e+001,-1.46377109716343e-001

1.67017583885674e+004,-1.69289823154125e+001,-1.48418805512584e-001

1.69349062472505e+004,-1.69289885205835e+001,-1.50488932315025e-001

1.71713087287550e+004,-1.69289948995712e+001,-1.52587884044287e-001

1.74110112659224e+004,-1.69290014572264e+001,-1.54716059994275e-001

1.76540599258131e+004,-1.69290081985337e+001,-1.56873864905979e-001

1.79005014185594e+004,-1.69290151286160e+001,-1.59061709032938e-001

1.81503831063432e+004,-1.69290222527382e+001,-1.61280008213024e-001

1.84037530124975e+004,-1.69290295763101e+001,-1.63529183945814e-001

1.86606598307361e+004,-1.69290371048920e+001,-1.65809663455757e-001

1.89211529345119e+004,-1.69290448441968e+001,-1.68121879776496e-001

1.91852823865052e+004,-1.69290528000959e+001,-1.70466271817321e-001

1.94530989482457e+004,-1.69290609786225e+001,-1.72843284442021e-001

1.97246540898671e+004,-1.69290693859761e+001,-1.75253368544418e-001

1.99999999999999e+004,-1.69290780285275e+001,-1.77696981121563e-001

2.02791895958005e+004,-1.69290869128225e+001,-1.80174585358490e-001

2.05622765331213e+004,-1.69290960455878e+001,-1.82686650696815e-001

2.08493152168224e+004,-1.69291054337349e+001,-1.85233652921435e-001

2.11403608112276e+004,-1.69291150843654e+001,-1.87816074236591e-001

2.14354692507258e+004,-1.69291250047762e+001,-1.90434403347184e-001

2.17346972505211e+004,-1.69291352024645e+001,-1.93089135539542e-001

2.20381023175322e+004,-1.69291456851340e+001,-1.95780772761034e-001

2.23457427614443e+004,-1.69291564606988e+001,-1.98509823709118e-001

2.26576777059159e+004,-1.69291675372907e+001,-2.01276803906002e-001

2.29739670999406e+004,-1.69291789232640e+001,-2.04082235791147e-001

2.32946717293690e+004,-1.69291906272018e+001,-2.06926648797564e-001

2.36198532285905e+004,-1.69292026579220e+001,-2.09810579445172e-001

2.39495740923785e+004,-1.69292150244835e+001,-2.12734571422549e-001

2.42838976879009e+004,-1.69292277361925e+001,-2.15699175673350e-001

2.46228882668982e+004,-1.69292408026097e+001,-2.18704950484644e-001

2.49666109780322e+004,-1.69292542335559e+001,-2.21752461576316e-001

2.53151318794055e+004,-1.69292680391196e+001,-2.24842282190094e-001

2.56685179512580e+004,-1.69292822296643e+001,-2.27974993173804e-001

2.60268371088386e+004,-1.69292968158348e+001,-2.31151183079571e-001

2.63901582154578e+004,-1.69293118085653e+001,-2.34371448246609e-001

2.67585510957221e+004,-1.69293272190869e+001,-2.37636392897015e-001

2.71320865489533e+004,-1.69293430589352e+001,-2.40946629226151e-001

2.75108363627948e+004,-1.69293593399580e+001,-2.44302777496266e-001

2.78948733270080e+004,-1.69293760743239e+001,-2.47705466126553e-001

2.82842712474618e+004,-1.69293932745303e+001,-2.51155331788466e-001

2.86791049603164e+004,-1.69294109534121e+001,-2.54653019498440e-001

2.90794503464061e+004,-1.69294291241499e+001,-2.58199182714712e-001

2.94853843458219e+004,-1.69294478002800e+001,-2.61794483426387e-001

2.98969849726987e+004,-1.69294669957019e+001,-2.65439592255874e-001

3.03143313302078e+004,-1.69294867246891e+001,-2.69135188548301e-001

3.07375036257601e+004,-1.69295070018981e+001,-2.72881960468179e-001

3.11665831864199e+004,-1.69295278423778e+001,-2.76680605098013e-001

3.16016524745350e+004,-1.69295492615798e+001,-2.80531828534086e-001

3.20427951035848e+004,-1.69295712753685e+001,-2.84436345980255e-001

3.24900958542493e+004,-1.69295939000317e+001,-2.88394881846256e-001

3.29436406907028e+004,-1.69296171522908e+001,-2.92408169845860e-001

3.34035167771346e+004,-1.69296410493121e+001,-2.96476953091397e-001

3.38698124945009e+004,-1.69296656087175e+001,-3.00601984192600e-001

3.43426174575100e+004,-1.69296908485963e+001,-3.04784025352340e-001

3.48220225318448e+004,-1.69297167875162e+001,-3.09023848464905e-001

3.53081198516260e+004,-1.69297434445354e+001,-3.13322235210645e-001

3.58010028371187e+004,-1.69297708392147e+001,-3.17679977156048e-001

3.63007662126863e+004,-1.69297989916297e+001,-3.22097875845935e-001

3.68075060249948e+004,-1.69298279223832e+001,-3.26576742904859e-001

3.73213196614721e+004,-1.69298576526183e+001,-3.31117400126781e-001

3.78423058690237e+004,-1.69298882040308e+001,-3.35720679577529e-001

3.83705647730104e+004,-1.69299195988834e+001,-3.40387423683449e-001

3.89061978964912e+004,-1.69299518600182e+001,-3.45118485330572e-001

3.94493081797342e+004,-1.69299850108712e+001,-3.49914727956032e-001

3.99999999999998e+004,-1.69300190754859e+001,-3.54777025643829e-001

4.05583791916010e+004,-1.69300540785280e+001,-3.59706263212769e-001

4.11245530662425e+004,-1.69300900452993e+001,-3.64703336312914e-001

4.16986304336447e+004,-1.69301270017528e+001,-3.69769151515537e-001

4.22807216224550e+004,-1.69301649745080e+001,-3.74904626398894e-001

4.28709385014515e+004,-1.69302039908655e+001,-3.80110689642856e-001

4.34693945010421e+004,-1.69302440788229e+001,-3.85388281111835e-001

4.40762046350642e+004,-1.69302852670908e+001,-3.90738351941824e-001

4.46914855228886e+004,-1.69303275851079e+001,-3.96161864627919e-001

4.53153554118317e+004,-1.69303710630579e+001,-4.01659793104911e-001

4.59479341998812e+004,-1.69304157318858e+001,-4.07233122829251e-001

4.65893434587380e+004,-1.69304616233145e+001,-4.12882850860002e-001

4.72397064571810e+004,-1.69305087698614e+001,-4.18609985936531e-001

4.78991481847569e+004,-1.69305572048561e+001,-4.24415548554670e-001

4.85677953758016e+004,-1.69306069624566e+001,-4.30300571043229e-001

4.92457765337964e+004,-1.69306580776682e+001,-4.36266097630851e-001

4.99332219560642e+004,-1.69307105863598e+001,-4.42313184520612e-001

5.06302637588109e+004,-1.69307645252825e+001,-4.48442899955512e-001

5.13370359025159e+004,-1.69308199320872e+001,-4.54656324283514e-001

5.20536742176771e+004,-1.69308768453429e+001,-4.60954550019527e-001

5.27803164309155e+004,-1.69309353045552e+001,-4.67338681902946e-001

5.35171021914442e+004,-1.69309953501840e+001,-4.73809836956963e-001

5.42641730979066e+004,-1.69310570236625e+001,-4.80369144539811e-001

5.50216727255895e+004,-1.69311203674159e+001,-4.87017746393791e-001

5.57897466540159e+004,-1.69311854248795e+001,-4.93756796693756e-001

5.65685424949235e+004,-1.69312522405180e+001,-5.00587462087670e-001

5.73582099206328e+004,-1.69313208598433e+001,-5.07510921738367e-001

5.81589006928121e+004,-1.69313913294346e+001,-5.14528367355582e-001

5.89707686916437e+004,-1.69314636969559e+001,-5.21641003228083e-001

5.97939699453972e+004,-1.69315380111751e+001,-5.28850046253312e-001

6.06286626604156e+004,-1.69316143219825e+001,-5.36156725955678e-001

6.14750072515201e+004,-1.69316926804097e+001,-5.43562284506560e-001

6.23331663728396e+004,-1.69317731386471e+001,-5.51067976738815e-001

6.32033049490698e+004,-1.69318557500629e+001,-5.58675070151611e-001

6.40855902071694e+004,-1.69319405692205e+001,-5.66384844918271e-001

6.49801917084985e+004,-1.69320276518965e+001,-5.74198593881633e-001

6.58872813814055e+004,-1.69321170550981e+001,-5.82117622546370e-001

6.68070335542691e+004,-1.69322088370800e+001,-5.90143249068367e-001

6.77396249890018e+004,-1.69323030573613e+001,-5.98276804236527e-001

6.86852349150199e+004,-1.69323997767418e+001,-6.06519631446281e-001

6.96440450636895e+004,-1.69324990573178e+001,-6.14873086670874e-001

7.06162397032520e+004,-1.69326009624975e+001,-6.23338538425773e-001

7.16020056742374e+004,-1.69327055570154e+001,-6.31917367725758e-001

7.26015324253724e+004,-1.69328129069465e+001,-6.40610968036111e-001

7.36150120499896e+004,-1.69329230797200e+001,-6.49420745217423e-001

7.46426393229441e+004,-1.69330361441314e+001,-6.58348117462666e-001

7.56846117380472e+004,-1.69331521703548e+001,-6.67394515229682e-001

7.67411295460207e+004,-1.69332712299532e+001,-6.76561381165992e-001

7.78123957929823e+004,-1.69333933958885e+001,-6.85850170026025e-001

7.88986163594682e+004,-1.69335187425304e+001,-6.95262348582080e-001

7.99999999999995e+004,-1.69336473456645e+001,-7.04799395525346e-001

8.11167583832018e+004,-1.69337792824977e+001,-7.14462801367654e-001

8.22491061324848e+004,-1.69339146316640e+001,-7.24254068327007e-001

8.33972608672892e+004,-1.69340534732283e+001,-7.34174710210843e-001

8.45614432449099e+004,-1.69341958886882e+001,-7.44226252291452e-001

8.57418770029029e+004,-1.69343419609744e+001,-7.54410231176697e-001

8.69387890020841e+004,-1.69344917744503e+001,-7.64728194665431e-001

8.81524092701283e+004,-1.69346454149084e+001,-7.75181701609337e-001

8.93829710457770e+004,-1.69348029695658e+001,-7.85772321754182e-001

9.06307108236633e+004,-1.69349645270570e+001,-7.96501635585303e-001

9.18958683997622e+004,-1.69351301774249e+001,-8.07371234160657e-001

9.31786869174758e+004,-1.69353000121096e+001,-8.18382718938383e-001

9.44794129143618e+004,-1.69354741239346e+001,-8.29537701600620e-001

9.57982963695136e+004,-1.69356526070905e+001,-8.40837803870418e-001

9.71355907516031e+004,-1.69358355571157e+001,-8.52284657321672e-001

9.84915530675926e+004,-1.69360230708754e+001,-8.63879903188048e-001

9.98664439121282e+004,-1.69362152465363e+001,-8.75625192162327e-001

1.01260527517622e+005,-1.69364121835392e+001,-8.87522184196682e-001

1.02674071805032e+005,-1.69366139825680e+001,-8.99572548295930e-001

1.04107348435354e+005,-1.69368207455151e+001,-9.11777962310501e-001

1.05560632861831e+005,-1.69370325754442e+001,-9.24140112722956e-001

1.07034204382888e+005,-1.69372495765486e+001,-9.36660694438706e-001

1.08528346195813e+005,-1.69374718541057e+001,-9.49341410572025e-001

1.10043345451179e+005,-1.69376995144282e+001,-9.62183972232223e-001

1.11579493308032e+005,-1.69379326648110e+001,-9.75190098311817e-001

1.13137084989847e+005,-1.69381714134732e+001,-9.88361515278207e-001

1.14716419841265e+005,-1.69384158694967e+001,-1.00169995696380e+000

1.16317801385624e+005,-1.69386661427599e+001,-1.01520716436483e+000

1.17941537383287e+005,-1.69389223438664e+001,-1.02888488544255e+000

1.19587939890794e+005,-1.69391845840689e+001,-1.04273487493420e+000

1.21257325320831e+005,-1.69394529751894e+001,-1.05675889416716e+000

1.22950014503040e+005,-1.69397276295323e+001,-1.07095871088708e+000

1.24666332745679e+005,-1.69400086597940e+001,-1.08533609909502e+000

1.26406609898139e+005,-1.69402961789662e+001,-1.09989283889746e+000

1.28171180414339e+005,-1.69405903002344e+001,-1.11463071637013e+000

1.29960383416997e+005,-1.69408911368701e+001,-1.12955152344001e+000

1.31774562762811e+005,-1.69411988021184e+001,-1.14465705778284e+000

1.33614067108538e+005,-1.69415134090788e+001,-1.15994912274315e+000

1.35479249978003e+005,-1.69418350705807e+001,-1.17542952727503e+000

1.37370469830040e+005,-1.69421638990534e+001,-1.19110008590765e+000

1.39288090127379e+005,-1.69425000063896e+001,-1.20696261873766e+000

1.41232479406504e+005,-1.69428435038029e+001,-1.22301895145204e+000

1.43204011348474e+005,-1.69431945016799e+001,-1.23927091537924e+000

1.45203064850745e+005,-1.69435531094258e+001,-1.25572034757828e+000

1.47230024099979e+005,-1.69439194353046e+001,-1.27236909096201e+000

1.49285278645888e+005,-1.69442935862724e+001,-1.28921899446058e+000

1.51369223476094e+005,-1.69446756678062e+001,-1.30627191322705e+000

1.53482259092041e+005,-1.69450657837255e+001,-1.32352970889057e+000

1.55624791585964e+005,-1.69454640360095e+001,-1.34099424985175e+000

1.57797232718936e+005,-1.69458705246076e+001,-1.35866741163620e+000

1.59999999999999e+005,-1.69462853472458e+001,-1.37655107729468e+000

1.62233516766403e+005,-1.69467085992265e+001,-1.39464713786863e+000

1.64498212264969e+005,-1.69471403732243e+001,-1.41295749290733e+000

1.66794521734578e+005,-1.69475807590770e+001,-1.43148405105423e+000

1.69122886489819e+005,-1.69480298435715e+001,-1.45022873069633e+000

1.71483754005805e+005,-1.69484877102262e+001,-1.46919346068488e+000

1.73877578004168e+005,-1.69489544390692e+001,-1.48838018112751e+000

1.76304818540256e+005,-1.69494301064137e+001,-1.50779084425420e+000

1.78765942091554e+005,-1.69499147846294e+001,-1.52742741536483e+000

1.81261421647326e+005,-1.69504085419121e+001,-1.54729187385587e+000

1.83791736799524e+005,-1.69509114420512e+001,-1.56738621433051e+000

1.86357373834951e+005,-1.69514235441952e+001,-1.58771244779709e+000

1.88958825828723e+005,-1.69519449026168e+001,-1.60827260295535e+000

1.91596592739027e+005,-1.69524755664769e+001,-1.62906872757473e+000

1.94271181503206e+005,-1.69530155795899e+001,-1.65010288996793e+000

1.96983106135185e+005,-1.69535649801886e+001,-1.67137718055771e+000

1.99732887824256e+005,-1.69541238006921e+001,-1.69289371354237e+000

2.02521055035243e+005,-1.69546920674747e+001,-1.71465462866309e+000

2.05348143610063e+005,-1.69552698006392e+001,-1.73666209306782e+000

2.08214696870707e+005,-1.69558570137934e+001,-1.75891830327988e+000

2.11121265723661e+005,-1.69564537138313e+001,-1.78142548726907e+000

2.14068408765776e+005,-1.69570599007201e+001,-1.80418590662374e+000

2.17056692391625e+005,-1.69576755672944e+001,-1.82720185882815e+000

2.20086690902357e+005,-1.69583006990563e+001,-1.85047567964278e+000

2.23158986616063e+005,-1.69589352739849e+001,-1.87400974558553e+000

2.26274169979693e+005,-1.69595792623551e+001,-1.89780647651615e+000

2.29432839682530e+005,-1.69602326265659e+001,-1.92186833831924e+000

2.32635602771247e+005,-1.69608953209801e+001,-1.94619784568775e+000

2.35883074766574e+005,-1.69615672917765e+001,-1.97079756499930e+000

2.39175879781588e+005,-1.69622484768147e+001,-1.99567011728908e+000

2.42514650641661e+005,-1.69629388055134e+001,-2.02081818131141e+000

2.45900029006080e+005,-1.69636381987449e+001,-2.04624449668797e+000

2.49332665491357e+005,-1.69643465687439e+001,-2.07195186713957e+000

2.52813219796278e+005,-1.69650638190340e+001,-2.09794316379473e+000

2.56342360828676e+005,-1.69657898443709e+001,-2.12422132857345e+000

2.59920766833993e+005,-1.69665245307047e+001,-2.15078937763639e+000

2.63549125525621e+005,-1.69672677551608e+001,-2.17765040489841e+000

2.67228134217075e+005,-1.69680193860404e+001,-2.20480758559505e+000

2.70958499956006e+005,-1.69687792828423e+001,-2.23226417990005e+000

2.74740939660078e+005,-1.69695472963046e+001,-2.26002353658453e+000

2.78576180254757e+005,-1.69703232684691e+001,-2.28808909670938e+000

2.82464958813007e+005,-1.69711070327673e+001,-2.31646439734466e+000

2.86408022696948e+005,-1.69718984141286e+001,-2.34515307530734e+000

2.90406129701488e+005,-1.69726972291120e+001,-2.37415887091068e+000

2.94460048199957e+005,-1.69735032860606e+001,-2.40348563171074e+000

2.98570557291775e+005,-1.69743163852787e+001,-2.43313731625008e+000

3.02738446952187e+005,-1.69751363192332e+001,-2.46311799778149e+000

3.06964518184081e+005,-1.69759628727772e+001,-2.49343186796696e+000

3.11249583171928e+005,-1.69767958233975e+001,-2.52408324054216e+000

3.15594465437872e+005,-1.69776349414841e+001,-2.55507655493600e+000

3.19999999999997e+005,-1.69784799906234e+001,-2.58641637983526e+000

3.24467033532806e+005,-1.69793307279115e+001,-2.61810741669030e+000

3.28996424529938e+005,-1.69801869042912e+001,-2.65015450314407e+000

3.33589043469155e+005,-1.69810482649084e+001,-2.68256261638496e+000

3.38245772979638e+005,-1.69819145494891e+001,-2.71533687640752e+000

3.42967508011610e+005,-1.69827854927353e+001,-2.74848254917658e+000

3.47755156008335e+005,-1.69836608247400e+001,-2.78200504968735e+000

3.52609637080511e+005,-1.69845402714185e+001,-2.81590994490955e+000

3.57531884183106e+005,-1.69854235549566e+001,-2.85020295661522e+000

3.62522843294651e+005,-1.69863103942735e+001,-2.88488996407651e+000

3.67583473599047e+005,-1.69872005054985e+001,-2.91997700663201e+000

3.72714747669902e+005,-1.69880936024597e+001,-2.95547028611665e+000

3.77917651657445e+005,-1.69889893971844e+001,-2.99137616914551e+000

3.83193185478053e+005,-1.69898876004078e+001,-3.02770118925258e+000

3.88542363006410e+005,-1.69907879220910e+001,-3.06445204887862e+000

3.93966212270369e+005,-1.69916900719444e+001,-3.10163562120448e+000

3.99465775648511e+005,-1.69925937599566e+001,-3.13925895182990e+000

4.05042110070485e+005,-1.69934986969258e+001,-3.17732926029592e+000

4.10696287220124e+005,-1.69944045949936e+001,-3.21585394144814e+000

4.16429393741414e+005,-1.69953111681782e+001,-3.25484056664522e+000

4.22242531447321e+005,-1.69962181329063e+001,-3.29429688480966e+000

4.28136817531551e+005,-1.69971252085415e+001,-3.33423082332456e+000

4.34113384783250e+005,-1.69980321179083e+001,-3.37465048877932e+000

4.40173381804713e+005,-1.69989385878091e+001,-3.41556416756566e+000

4.46317973232124e+005,-1.69998443495339e+001,-3.45698032633003e+000

4.52548339959385e+005,-1.70007491393605e+001,-3.49890761228581e+000

4.58865679365059e+005,-1.70016526990438e+001,-3.54135485339042e+000

4.65271205542494e+005,-1.70025547762933e+001,-3.58433105839398e+000

4.71766149533147e+005,-1.70034551252372e+001,-3.62784541676653e+000

4.78351759563174e+005,-1.70043535068717e+001,-3.67190729850843e+000

4.85029301283321e+005,-1.70052496894955e+001,-3.71652625385468e+000

4.91800058012158e+005,-1.70061434491265e+001,-3.76171201287959e+000

4.98665330982714e+005,-1.70070345699018e+001,-3.80747448500916e+000

5.05626439592555e+005,-1.70079228444595e+001,-3.85382375845204e+000

5.12684721657352e+005,-1.70088080743004e+001,-3.90077009955656e+000

5.19841533667984e+005,-1.70096900701310e+001,-3.94832395210392e+000

5.27098251051240e+005,-1.70105686521857e+001,-3.99649593654747e+000

5.34456268434150e+005,-1.70114436505286e+001,-4.04529684920493e+000

5.41916999912011e+005,-1.70123149053342e+001,-4.09473766141792e+000

