Freq.,VOut,OutRef

1.00000000000000e+004,-1.52525669940777e+001,-1.35822371136422e-001

1.01395947979003e+004,-1.52525681046807e+001,-1.37718205172348e-001

1.02811382665607e+004,-1.52525692464685e+001,-1.39640496613181e-001

1.04246576084112e+004,-1.52525704203156e+001,-1.41589614475843e-001

1.05701804056138e+004,-1.52525716271208e+001,-1.43565932913766e-001

1.07177346253629e+004,-1.52525728678082e+001,-1.45569831289689e-001

1.08673486252606e+004,-1.52525741433279e+001,-1.47601694247650e-001

1.10190511587661e+004,-1.52525754546562e+001,-1.49661911785469e-001

1.11728713807222e+004,-1.52525768027972e+001,-1.51750879329386e-001

1.13288388529580e+004,-1.52525781887827e+001,-1.53868997808867e-001

1.14869835499703e+004,-1.52525796136733e+001,-1.56016673734939e-001

1.16473358646846e+004,-1.52525810785593e+001,-1.58194319272820e-001

1.18099266142953e+004,-1.52525825845616e+001,-1.60402352324267e-001

1.19747870461893e+004,-1.52525841328324e+001,-1.62641196604151e-001

1.21419488439505e+004,-1.52525857245559e+001,-1.64911281723272e-001

1.23114441334492e+004,-1.52525873609494e+001,-1.67213043267750e-001

1.24833054890161e+004,-1.52525890432642e+001,-1.69546922882334e-001

1.26575659397028e+004,-1.52525907727866e+001,-1.71913368353818e-001

1.28342589756290e+004,-1.52525925508386e+001,-1.74312833697582e-001

1.30134185544193e+004,-1.52525943787795e+001,-1.76745779238642e-001

1.31950791077289e+004,-1.52525962580060e+001,-1.79212671704473e-001

1.33792755478611e+004,-1.52525981899541e+001,-1.81713984310357e-001

1.35660432744767e+004,-1.52526001760997e+001,-1.84250196848763e-001

1.37554181813974e+004,-1.52526022179598e+001,-1.86821795780659e-001

1.39474366635040e+004,-1.52526043170935e+001,-1.89429274328753e-001

1.41421356237309e+004,-1.52526064751039e+001,-1.92073132564966e-001

1.43395524801583e+004,-1.52526086936381e+001,-1.94753877513758e-001

1.45397251732031e+004,-1.52526109743896e+001,-1.97472023237599e-001

1.47426921729110e+004,-1.52526133190985e+001,-2.00228090944404e-001

1.49484924863494e+004,-1.52526157295539e+001,-2.03022609074988e-001

1.51571656651040e+004,-1.52526182075942e+001,-2.05856113411483e-001

1.53687518128801e+004,-1.52526207551093e+001,-2.08729147171829e-001

1.55832915932100e+004,-1.52526233740410e+001,-2.11642261117726e-001

1.58008262372675e+004,-1.52526260663859e+001,-2.14596013651147e-001

1.60213975517924e+004,-1.52526288341958e+001,-2.17590970923869e-001

1.62450479271247e+004,-1.52526316795790e+001,-2.20627706945117e-001

1.64718203453514e+004,-1.52526346047030e+001,-2.23706803684324e-001

1.67017583885674e+004,-1.52526376117951e+001,-2.26828851182275e-001

1.69349062472505e+004,-1.52526407031444e+001,-2.29994447664671e-001

1.71713087287550e+004,-1.52526438811036e+001,-2.33204199648232e-001

1.74110112659224e+004,-1.52526471480907e+001,-2.36458722058633e-001

1.76540599258131e+004,-1.52526505065905e+001,-2.39758638343988e-001

1.79005014185594e+004,-1.52526539591567e+001,-2.43104580591447e-001

1.81503831063432e+004,-1.52526575084140e+001,-2.46497189643866e-001

1.84037530124975e+004,-1.52526611570592e+001,-2.49937115220466e-001

1.86606598307361e+004,-1.52526649078642e+001,-2.53425016038351e-001

1.89211529345119e+004,-1.52526687636772e+001,-2.56961559933962e-001

1.91852823865052e+004,-1.52526727274256e+001,-2.60547423985503e-001

1.94530989482457e+004,-1.52526768021170e+001,-2.64183294644112e-001

1.97246540898671e+004,-1.52526809908428e+001,-2.67869867854682e-001

1.99999999999999e+004,-1.52526852967790e+001,-2.71607849191115e-001

2.02791895958005e+004,-1.52526897231899e+001,-2.75397953979975e-001

2.05622765331213e+004,-1.52526942734293e+001,-2.79240907439117e-001

2.08493152168224e+004,-1.52526989509434e+001,-2.83137444809916e-001

2.11403608112276e+004,-1.52527037592737e+001,-2.87088311489722e-001

2.14354692507258e+004,-1.52527087020590e+001,-2.91094263173194e-001

2.17346972505211e+004,-1.52527137830380e+001,-2.95156065990038e-001

2.20381023175322e+004,-1.52527190060525e+001,-2.99274496645996e-001

2.23457427614443e+004,-1.52527243750495e+001,-3.03450342565144e-001

2.26576777059159e+004,-1.52527298940845e+001,-3.07684402035330e-001

2.29739670999406e+004,-1.52527355673245e+001,-3.11977484352073e-001

2.32946717293690e+004,-1.52527413990505e+001,-3.16330409970375e-001

2.36198532285905e+004,-1.52527473936607e+001,-3.20744010652404e-001

2.39495740923785e+004,-1.52527535556738e+001,-3.25219129619011e-001

2.42838976879009e+004,-1.52527598897325e+001,-3.29756621703077e-001

2.46228882668982e+004,-1.52527664006057e+001,-3.34357353507480e-001

2.49666109780322e+004,-1.52527730931929e+001,-3.39022203561775e-001

2.53151318794055e+004,-1.52527799725276e+001,-3.43752062477415e-001

2.56685179512580e+004,-1.52527870437801e+001,-3.48547833115543e-001

2.60268371088386e+004,-1.52527943122617e+001,-3.53410430746361e-001

2.63901582154578e+004,-1.52528017834282e+001,-3.58340783214984e-001

2.67585510957221e+004,-1.52528094628840e+001,-3.63339831108239e-001

2.71320865489533e+004,-1.52528173563855e+001,-3.68408527925351e-001

2.75108363627948e+004,-1.52528254698454e+001,-3.73547840248640e-001

2.78948733270080e+004,-1.52528338093370e+001,-3.78758747913841e-001

2.82842712474618e+004,-1.52528423810974e+001,-3.84042244191736e-001

2.86791049603164e+004,-1.52528511915332e+001,-3.89399335958777e-001

2.90794503464061e+004,-1.52528602472237e+001,-3.94831043880539e-001

2.94853843458219e+004,-1.52528695549260e+001,-4.00338402591786e-001

2.98969849726987e+004,-1.52528791215794e+001,-4.05922460880002e-001

3.03143313302078e+004,-1.52528889543097e+001,-4.11584281873414e-001

3.07375036257601e+004,-1.52528990604350e+001,-4.17324943223591e-001

3.11665831864199e+004,-1.52529094474694e+001,-4.23145537301042e-001

3.16016524745350e+004,-1.52529201231291e+001,-4.29047171383601e-001

3.20427951035848e+004,-1.52529310953367e+001,-4.35030967851712e-001

3.24900958542493e+004,-1.52529423722268e+001,-4.41098064386134e-001

3.29436406907028e+004,-1.52529539621515e+001,-4.47249614163822e-001

3.34035167771346e+004,-1.52529658736855e+001,-4.53486786060973e-001

3.38698124945009e+004,-1.52529781156318e+001,-4.59810764855494e-001

3.43426174575100e+004,-1.52529906970281e+001,-4.66222751430014e-001

3.48220225318448e+004,-1.52530036271513e+001,-4.72723962982376e-001

3.53081198516260e+004,-1.52530169155247e+001,-4.79315633233105e-001

3.58010028371187e+004,-1.52530305719236e+001,-4.85999012637026e-001

3.63007662126863e+004,-1.52530446063810e+001,-4.92775368600161e-001

3.68075060249948e+004,-1.52530590291951e+001,-4.99645985690003e-001

3.73213196614721e+004,-1.52530738509348e+001,-5.06612165860586e-001

3.78423058690237e+004,-1.52530890824466e+001,-5.13675228668345e-001

3.83705647730104e+004,-1.52531047348613e+001,-5.20836511497230e-001

3.89061978964912e+004,-1.52531208196012e+001,-5.28097369783292e-001

3.94493081797342e+004,-1.52531373483864e+001,-5.35459177240806e-001

3.99999999999998e+004,-1.52531543332424e+001,-5.42923326094564e-001

4.05583791916010e+004,-1.52531717865074e+001,-5.50491227308779e-001

4.11245530662425e+004,-1.52531897208395e+001,-5.58164310822803e-001

4.16986304336447e+004,-1.52532081492239e+001,-5.65944025787396e-001

4.22807216224550e+004,-1.52532270849815e+001,-5.73831840800937e-001

4.28709385014515e+004,-1.52532465417755e+001,-5.81829244153646e-001

4.34693945010421e+004,-1.52532665336200e+001,-5.89937744068020e-001

4.40762046350642e+004,-1.52532870748882e+001,-5.98158868944081e-001

4.46914855228886e+004,-1.52533081803198e+001,-6.06494167607656e-001

4.53153554118317e+004,-1.52533298650301e+001,-6.14945209558997e-001

4.59479341998812e+004,-1.52533521445179e+001,-6.23513585224411e-001

4.65893434587380e+004,-1.52533750346743e+001,-6.32200906211034e-001

4.72397064571810e+004,-1.52533985517911e+001,-6.41008805560909e-001

4.78991481847569e+004,-1.52534227125700e+001,-6.49938938011001e-001

4.85677953758016e+004,-1.52534475341309e+001,-6.58992980252710e-001

4.92457765337964e+004,-1.52534730340213e+001,-6.68172631193451e-001

4.99332219560642e+004,-1.52534992302257e+001,-6.77479612221367e-001

5.06302637588109e+004,-1.52535261411738e+001,-6.86915667473561e-001

5.13370359025159e+004,-1.52535537857511e+001,-6.96482564100907e-001

5.20536742176771e+004,-1.52535821833072e+001,-7.06182092541893e-001

5.27803164309155e+004,-1.52536113536659e+001,-7.16016066794923e-001

5.35171021914442e+004,-1.52536413171347e+001,-7.25986324690450e-001

5.42641730979066e+004,-1.52536720945141e+001,-7.36094728169980e-001

5.50216727255895e+004,-1.52537037071079e+001,-7.46343163562979e-001

5.57897466540159e+004,-1.52537361767325e+001,-7.56733541868520e-001

5.65685424949235e+004,-1.52537695257268e+001,-7.67267799036822e-001

5.73582099206328e+004,-1.52538037769622e+001,-7.77947896253773e-001

5.81589006928121e+004,-1.52538389538526e+001,-7.88775820225818e-001

5.89707686916437e+004,-1.52538750803636e+001,-7.99753583470478e-001

5.97939699453972e+004,-1.52539121810236e+001,-8.10883224603552e-001

6.06286626604156e+004,-1.52539502809327e+001,-8.22166808630965e-001

6.14750072515201e+004,-1.52539894057731e+001,-8.33606427243022e-001

6.23331663728396e+004,-1.52540295818187e+001,-8.45204199108939e-001

6.32033049490698e+004,-1.52540708359452e+001,-8.56962270173130e-001

6.40855902071694e+004,-1.52541131956396e+001,-8.68882813954815e-001

6.49801917084985e+004,-1.52541566890100e+001,-8.80968031845354e-001

6.58872813814055e+004,-1.52542013447952e+001,-8.93220153413546e-001

6.68070335542691e+004,-1.52542471923743e+001,-9.05641436705778e-001

6.77396249890018e+004,-1.52542942617753e+001,-9.18234168553842e-001

6.86852349150199e+004,-1.52543425836852e+001,-9.31000664879469e-001

6.96440450636895e+004,-1.52543921894585e+001,-9.43943271002627e-001

7.06162397032520e+004,-1.52544431111261e+001,-9.57064361952296e-001

7.16020056742374e+004,-1.52544953814034e+001,-9.70366342777743e-001

7.26015324253724e+004,-1.52545490336992e+001,-9.83851648860972e-001

7.36150120499896e+004,-1.52546041021234e+001,-9.97522746230991e-001

7.46426393229441e+004,-1.52546606214946e+001,-1.01138213188058e+000

7.56846117380472e+004,-1.52547186273475e+001,-1.02543233408432e+000

7.67411295460207e+004,-1.52547781559398e+001,-1.03967591271723e+000

7.78123957929823e+004,-1.52548392442588e+001,-1.05411545957585e+000

7.88986163594682e+004,-1.52549019300272e+001,-1.06875359870274e+000

7.99999999999995e+004,-1.52549662517091e+001,-1.08359298670785e+000

8.11167583832018e+004,-1.52550322485147e+001,-1.09863631309793e+000

8.22491061324848e+004,-1.52550999604049e+001,-1.11388630060270e+000

8.33972608672892e+004,-1.52551694280951e+001,-1.12934570550635e+000

8.45614432449099e+004,-1.52552406930588e+001,-1.14501731797802e+000

8.57418770029029e+004,-1.52553137975294e+001,-1.16090396240732e+000

8.69387890020841e+004,-1.52553887845025e+001,-1.17700849774038e+000

8.81524092701283e+004,-1.52554656977370e+001,-1.19333381781855e+000

8.93829710457770e+004,-1.52555445817545e+001,-1.20988285171865e+000

9.06307108236633e+004,-1.52556254818394e+001,-1.22665856409825e+000

9.18958683997622e+004,-1.52557084440366e+001,-1.24366395554152e+000

9.31786869174758e+004,-1.52557935151489e+001,-1.26090206290742e+000

9.44794129143618e+004,-1.52558807427335e+001,-1.27837595968460e+000

9.57982963695136e+004,-1.52559701750965e+001,-1.29608875634566e+000

9.71355907516031e+004,-1.52560618612873e+001,-1.31404360070715e+000

9.84915530675926e+004,-1.52561558510913e+001,-1.33224367829304e+000

9.98664439121282e+004,-1.52562521950207e+001,-1.35069221270241e+000

1.01260527517622e+005,-1.52563509443050e+001,-1.36939246598165e+000

1.02674071805032e+005,-1.52564521508797e+001,-1.38834773899937e+000

1.04107348435354e+005,-1.52565558673724e+001,-1.40756137183274e+000

1.05560632861831e+005,-1.52566621470897e+001,-1.42703674414980e+000

1.07034204382888e+005,-1.52567710439995e+001,-1.44677727560762e+000

1.08528346195813e+005,-1.52568826127147e+001,-1.46678642624902e+000

1.10043345451179e+005,-1.52569969084723e+001,-1.48706769691099e+000

1.11579493308032e+005,-1.52571139871130e+001,-1.50762462963904e+000

1.13137084989847e+005,-1.52572339050568e+001,-1.52846080810998e+000

1.14716419841265e+005,-1.52573567192787e+001,-1.54957985806192e+000

1.16317801385624e+005,-1.52574824872808e+001,-1.57098544773524e+000

1.17941537383287e+005,-1.52576112670628e+001,-1.59268128832259e+000

1.19587939890794e+005,-1.52577431170907e+001,-1.61467113442938e+000

1.21257325320831e+005,-1.52578780962628e+001,-1.63695878454786e+000

1.22950014503040e+005,-1.52580162638737e+001,-1.65954808153788e+000

1.24666332745679e+005,-1.52581576795753e+001,-1.68244291312885e+000

1.26406609898139e+005,-1.52583024033371e+001,-1.70564721242659e+000

1.28171180414339e+005,-1.52584504954015e+001,-1.72916495844257e+000

1.29960383416997e+005,-1.52586020162390e+001,-1.75300017663564e+000

1.31774562762811e+005,-1.52587570264996e+001,-1.77715693946852e+000

1.33614067108538e+005,-1.52589155869615e+001,-1.80163936698736e+000

1.35479249978003e+005,-1.52590777584783e+001,-1.82645162741539e+000

1.37370469830040e+005,-1.52592436019220e+001,-1.85159793777000e+000

1.39288090127379e+005,-1.52594131781251e+001,-1.87708256449908e+000

1.41232479406504e+005,-1.52595865478182e+001,-1.90290982414132e+000

1.43204011348474e+005,-1.52597637715664e+001,-1.92908408401062e+000

1.45203064850745e+005,-1.52599449097026e+001,-1.95560976290331e+000

1.47230024099979e+005,-1.52601300222573e+001,-1.98249133183548e+000

1.49285278645888e+005,-1.52603191688873e+001,-2.00973331480490e+000

1.51369223476094e+005,-1.52605124088003e+001,-2.03734028958559e+000

1.53482259092041e+005,-1.52607098006780e+001,-2.06531688855083e+000

1.55624791585964e+005,-1.52609114025960e+001,-2.09366779953001e+000

1.57797232718936e+005,-1.52611172719418e+001,-2.12239776669876e+000

1.59999999999999e+005,-1.52613274653301e+001,-2.15151159150440e+000

1.62233516766403e+005,-1.52615420385157e+001,-2.18101413363016e+000

1.64498212264969e+005,-1.52617610463045e+001,-2.21091031199639e+000

1.66794521734578e+005,-1.52619845424627e+001,-2.24120510580153e+000

1.69122886489819e+005,-1.52622125796233e+001,-2.27190355560803e+000

1.71483754005805e+005,-1.52624452091918e+001,-2.30301076446851e+000

1.73877578004168e+005,-1.52626824812492e+001,-2.33453189909881e+000

1.76304818540256e+005,-1.52629244444551e+001,-2.36647219109738e+000

1.78765942091554e+005,-1.52631711459478e+001,-2.39883693821226e+000

1.81261421647326e+005,-1.52634226312452e+001,-2.43163150565954e+000

1.83791736799524e+005,-1.52636789441437e+001,-2.46486132749037e+000

1.86357373834951e+005,-1.52639401266167e+001,-2.49853190801371e+000

1.88958825828723e+005,-1.52642062187138e+001,-2.53264882327128e+000

1.91596592739027e+005,-1.52644772584595e+001,-2.56721772256686e+000

1.94271181503206e+005,-1.52647532817516e+001,-2.60224433005544e+000

1.96983106135185e+005,-1.52650343222618e+001,-2.63773444638736e+000

1.99732887824256e+005,-1.52653204113359e+001,-2.67369395041179e+000

2.02521055035243e+005,-1.52656115778965e+001,-2.71012880094114e+000

2.05348143610063e+005,-1.52659078483465e+001,-2.74704503857438e+000

2.08214696870707e+005,-1.52662092464760e+001,-2.78444878758303e+000

2.11121265723661e+005,-1.52665157933705e+001,-2.82234625785789e+000

2.14068408765776e+005,-1.52668275073226e+001,-2.86074374691886e+000

2.17056692391625e+005,-1.52671444037477e+001,-2.89964764198689e+000

2.20086690902357e+005,-1.52674664951026e+001,-2.93906442211863e+000

2.23158986616063e+005,-1.52677937908087e+001,-2.97900066040326e+000

2.26274169979693e+005,-1.52681262971804e+001,-3.01946302622292e+000

2.29432839682530e+005,-1.52684640173583e+001,-3.06045828757241e+000

2.32635602771247e+005,-1.52688069512477e+001,-3.10199331344321e+000

2.35883074766574e+005,-1.52691550954643e+001,-3.14407507626554e+000

2.39175879781588e+005,-1.52695084432852e+001,-3.18671065441016e+000

2.42514650641661e+005,-1.52698669846083e+001,-3.22990723474899e+000

2.45900029006080e+005,-1.52702307059174e+001,-3.27367211527218e+000

2.49332665491357e+005,-1.52705995902578e+001,-3.31801270775780e+000

2.52813219796278e+005,-1.52709736172173e+001,-3.36293654049847e+000

2.56342360828676e+005,-1.52713527629185e+001,-3.40845126107433e+000

2.59920766833993e+005,-1.52717370000190e+001,-3.45456463917790e+000

2.63549125525621e+005,-1.52721262977211e+001,-3.50128456948329e+000

2.67228134217075e+005,-1.52725206217926e+001,-3.54861907455755e+000

2.70958499956006e+005,-1.52729199345959e+001,-3.59657630781481e+000

2.74740939660078e+005,-1.52733241951302e+001,-3.64516455650475e+000

2.78576180254757e+005,-1.52737333590820e+001,-3.69439224473576e+000

2.82464958813007e+005,-1.52741473788888e+001,-3.74426793652905e+000

2.86408022696948e+005,-1.52745662038128e+001,-3.79480033889751e+000

2.90406129701488e+005,-1.52749897800266e+001,-3.84599830494909e+000

2.94460048199957e+005,-1.52754180507106e+001,-3.89787083700779e+000

2.98570557291775e+005,-1.52758509561618e+001,-3.95042708974991e+000

3.02738446952187e+005,-1.52762884339146e+001,-4.00367637335134e+000

3.06964518184081e+005,-1.52767304188736e+001,-4.05762815664125e+000

3.11249583171928e+005,-1.52771768434575e+001,-4.11229207025800e+000

3.15594465437872e+005,-1.52776276377550e+001,-4.16767790980371e+000

3.19999999999997e+005,-1.52780827296926e+001,-4.22379563899279e+000

3.24467033532806e+005,-1.52785420452132e+001,-4.28065539279072e+000

3.28996424529938e+005,-1.52790055084655e+001,-4.33826748053847e+000

3.33589043469155e+005,-1.52794730420055e+001,-4.39664238905854e+000

3.38245772979638e+005,-1.52799445670068e+001,-4.45579078574050e+000

3.42967508011610e+005,-1.52804200034827e+001,-4.51572352159876e+000

3.47755156008335e+005,-1.52808992705162e+001,-4.57645163430340e+000

3.52609637080511e+005,-1.52813822865014e+001,-4.63798635117613e+000

3.57531884183106e+005,-1.52818689693913e+001,-4.70033909215278e+000

3.62522843294651e+005,-1.52823592369558e+001,-4.76352147270547e+000

3.67583473599047e+005,-1.52828530070462e+001,-4.82754530672417e+000

3.72714747669902e+005,-1.52833501978670e+001,-4.89242260935453e+000

3.77917651657445e+005,-1.52838507282541e+001,-4.95816559979002e+000

3.83193185478053e+005,-1.52843545179586e+001,-5.02478670401619e+000

3.88542363006410e+005,-1.52848614879361e+001,-5.09229855750563e+000

3.93966212270369e+005,-1.52853715606397e+001,-5.16071400786377e+000

3.99465775648511e+005,-1.52858846603169e+001,-5.23004611742321e+000

4.05042110070485e+005,-1.52864007133096e+001,-5.30030816578643e+000

4.10696287220124e+005,-1.52869196483555e+001,-5.37151365231785e+000

4.16429393741414e+005,-1.52874413968921e+001,-5.44367629858419e+000

4.22242531447321e+005,-1.52879658933603e+001,-5.51681005074496e+000

4.28136817531551e+005,-1.52884930755079e+001,-5.59092908189391e+000

4.34113384783250e+005,-1.52890228846939e+001,-5.66604779435133e+000

4.40173381804713e+005,-1.52895552661890e+001,-5.74218082191183e+000

4.46317973232124e+005,-1.52900901694760e+001,-5.81934303204690e+000

4.52548339959385e+005,-1.52906275485461e+001,-5.89754952806654e+000

4.58865679365059e+005,-1.52911673621924e+001,-5.97681565124187e+000

4.65271205542494e+005,-1.52917095742989e+001,-6.05715698289161e+000

4.71766149533147e+005,-1.52922541541259e+001,-6.13858934643649e+000

4.78351759563174e+005,-1.52928010765887e+001,-6.22112880942367e+000

4.85029301283321e+005,-1.52933503225321e+001,-6.30479168552845e+000

4.91800058012158e+005,-1.52939018789986e+001,-6.38959453653147e+000

4.98665330982714e+005,-1.52944557394891e+001,-6.47555417428212e+000

5.05626439592555e+005,-1.52950119042187e+001,-6.56268766264737e+000

5.12684721657352e+005,-1.52955703803634e+001,-6.65101231945403e+000

5.19841533667984e+005,-1.52961311823010e+001,-6.74054571842618e+000

5.27098251051240e+005,-1.52966943318439e+001,-6.83130569112571e+000

5.34456268434150e+005,-1.52972598584640e+001,-6.92331032889776e+000

5.41916999912011e+005,-1.52978277995100e+001,-7.01657798482751e+000

