Freq.,VOut,OutRef

1.00000000000000e+004,-1.02964615025361e+000,-1.54606385976258e-001

1.01395947979003e+004,-1.02964609146733e+000,-1.56764610352013e-001

1.02811382665607e+004,-1.02964603102801e+000,-1.58952962403436e-001

1.04246576084112e+004,-1.02964596888921e+000,-1.61171862696551e-001

1.05701804056138e+004,-1.02964590500339e+000,-1.63421737666697e-001

1.07177346253629e+004,-1.02964583932121e+000,-1.65703019704792e-001

1.08673486252606e+004,-1.02964577179214e+000,-1.68016147236585e-001

1.10190511587661e+004,-1.02964570236443e+000,-1.70361564806953e-001

1.11728713807222e+004,-1.02964563098447e+000,-1.72739723168226e-001

1.13288388529580e+004,-1.02964555759757e+000,-1.75151079362997e-001

1.14869835499703e+004,-1.02964548214704e+000,-1.77596096816414e-001

1.16473358646846e+004,-1.02964540457508e+000,-1.80075245419630e-001

1.18099266142953e+004,-1.02964532482190e+000,-1.82589001626019e-001

1.19747870461893e+004,-1.02964524282619e+000,-1.85137848538289e-001

1.21419488439505e+004,-1.02964515852491e+000,-1.87722276003535e-001

1.23114441334492e+004,-1.02964507185311e+000,-1.90342780707087e-001

1.24833054890161e+004,-1.02964498274431e+000,-1.92999866266723e-001

1.26575659397028e+004,-1.02964489112987e+000,-1.95694043331203e-001

1.28342589756290e+004,-1.02964479693930e+000,-1.98425829678070e-001

1.30134185544193e+004,-1.02964470010014e+000,-2.01195750311762e-001

1.31950791077289e+004,-1.02964460053800e+000,-2.04004337565627e-001

1.33792755478611e+004,-1.02964449817608e+000,-2.06852131205162e-001

1.35660432744767e+004,-1.02964439293594e+000,-2.09739678528238e-001

1.37554181813974e+004,-1.02964428473636e+000,-2.12667534475735e-001

1.39474366635040e+004,-1.02964417349426e+000,-2.15636261732645e-001

1.41421356237309e+004,-1.02964405912396e+000,-2.18646430840459e-001

1.43395524801583e+004,-1.02964394153765e+000,-2.21698620302920e-001

1.45397251732031e+004,-1.02964382064466e+000,-2.24793416702140e-001

1.47426921729110e+004,-1.02964369635215e+000,-2.27931414805873e-001

1.49484924863494e+004,-1.02964356856436e+000,-2.31113217686905e-001

1.51571656651040e+004,-1.02964343718311e+000,-2.34339436833949e-001

1.53687518128801e+004,-1.02964330210715e+000,-2.37610692274221e-001

1.55832915932100e+004,-1.02964316323272e+000,-2.40927612687994e-001

1.58008262372675e+004,-1.02964302045291e+000,-2.44290835532983e-001

1.60213975517924e+004,-1.02964287365777e+000,-2.47701007164720e-001

1.62450479271247e+004,-1.02964272273461e+000,-2.51158782960699e-001

1.64718203453514e+004,-1.02964256756697e+000,-2.54664827449571e-001

1.67017583885674e+004,-1.02964240803574e+000,-2.58219814432753e-001

1.69349062472505e+004,-1.02964224401799e+000,-2.61824427120986e-001

1.71713087287550e+004,-1.02964207538748e+000,-2.65479358260249e-001

1.74110112659224e+004,-1.02964190201453e+000,-2.69185310266759e-001

1.76540599258131e+004,-1.02964172376578e+000,-2.72942995362059e-001

1.79005014185594e+004,-1.02964154050398e+000,-2.76753135710350e-001

1.81503831063432e+004,-1.02964135208804e+000,-2.80616463557144e-001

1.84037530124975e+004,-1.02964115837298e+000,-2.84533721368403e-001

1.86606598307361e+004,-1.02964095920980e+000,-2.88505661974487e-001

1.89211529345119e+004,-1.02964075444504e+000,-2.92533048716204e-001

1.91852823865052e+004,-1.02964054392132e+000,-2.96616655587769e-001

1.94530989482457e+004,-1.02964032747640e+000,-3.00757267390032e-001

1.97246540898671e+004,-1.02964010494376e+000,-3.04955679877577e-001

1.99999999999999e+004,-1.02963987615204e+000,-3.09212699914037e-001

2.02791895958005e+004,-1.02963964092515e+000,-3.13529145625858e-001

2.05622765331213e+004,-1.02963939908202e+000,-3.17905846559502e-001

2.08493152168224e+004,-1.02963915043651e+000,-3.22343643841840e-001

2.11403608112276e+004,-1.02963889479713e+000,-3.26843390341471e-001

2.14354692507258e+004,-1.02963863196700e+000,-3.31405950831998e-001

2.17346972505211e+004,-1.02963836174388e+000,-3.36032202158199e-001

2.20381023175322e+004,-1.02963808391962e+000,-3.40723033406041e-001

2.23457427614443e+004,-1.02963779828030e+000,-3.45479346071388e-001

2.26576777059159e+004,-1.02963750460594e+000,-3.50302054234939e-001

2.29739670999406e+004,-1.02963720267049e+000,-3.55192084736430e-001

2.32946717293690e+004,-1.02963689224128e+000,-3.60150377354586e-001

2.36198532285905e+004,-1.02963657307936e+000,-3.65177884985818e-001

2.39495740923785e+004,-1.02963624493881e+000,-3.70275573828757e-001

2.42838976879009e+004,-1.02963590756690e+000,-3.75444423569097e-001

2.46228882668982e+004,-1.02963556070385e+000,-3.80685427567922e-001

2.49666109780322e+004,-1.02963520408235e+000,-3.85999593053529e-001

2.53151318794055e+004,-1.02963483742770e+000,-3.91387941313699e-001

2.56685179512580e+004,-1.02963446045743e+000,-3.96851507892486e-001

2.60268371088386e+004,-1.02963407288113e+000,-4.02391342789369e-001

2.63901582154578e+004,-1.02963367440022e+000,-4.08008510660467e-001

2.67585510957221e+004,-1.02963326470749e+000,-4.13704091025018e-001

2.71320865489533e+004,-1.02963284348734e+000,-4.19479178469864e-001

2.75108363627948e+004,-1.02963241041510e+000,-4.25334882861927e-001

2.78948733270080e+004,-1.02963196515711e+000,-4.31272329560220e-001

2.82842712474618e+004,-1.02963150737012e+000,-4.37292659633687e-001

2.86791049603164e+004,-1.02963103670121e+000,-4.43397030079346e-001

2.90794503464061e+004,-1.02963055278767e+000,-4.49586614044073e-001

2.94853843458219e+004,-1.02963005525637e+000,-4.55862601051487e-001

2.98969849726987e+004,-1.02962954372367e+000,-4.62226197230016e-001

3.03143313302078e+004,-1.02962901779531e+000,-4.68678625542876e-001

3.07375036257601e+004,-1.02962847706556e+000,-4.75221126027293e-001

3.11665831864199e+004,-1.02962792111761e+000,-4.81854956027319e-001

3.16016524745350e+004,-1.02962734952260e+000,-4.88581390440555e-001

3.20427951035848e+004,-1.02962676183966e+000,-4.95401721959757e-001

3.24900958542493e+004,-1.02962615761540e+000,-5.02317261322887e-001

3.29436406907028e+004,-1.02962553638383e+000,-5.09329337563585e-001

3.34035167771346e+004,-1.02962489766568e+000,-5.16439298267981e-001

3.38698124945009e+004,-1.02962424096794e+000,-5.23648509833577e-001

3.43426174575100e+004,-1.02962356578406e+000,-5.30958357730214e-001

3.48220225318448e+004,-1.02962287159279e+000,-5.38370246768713e-001

3.53081198516260e+004,-1.02962215785851e+000,-5.45885601368010e-001

3.58010028371187e+004,-1.02962142403014e+000,-5.53505865831739e-001

3.63007662126863e+004,-1.02962066954125e+000,-5.61232504623474e-001

3.68075060249948e+004,-1.02961989380931e+000,-5.69067002649118e-001

3.73213196614721e+004,-1.02961909623532e+000,-5.77010865542645e-001

3.78423058690237e+004,-1.02961827620333e+000,-5.85065619954831e-001

3.83705647730104e+004,-1.02961743308000e+000,-5.93232813846048e-001

3.89061978964912e+004,-1.02961656621404e+000,-6.01514016785330e-001

3.94493081797342e+004,-1.02961567493575e+000,-6.09910820250386e-001

3.99999999999998e+004,-1.02961475855657e+000,-6.18424837933629e-001

4.05583791916010e+004,-1.02961381636817e+000,-6.27057706054052e-001

4.11245530662425e+004,-1.02961284764255e+000,-6.35811083668555e-001

4.16986304336447e+004,-1.02961185163089e+000,-6.44686652993154e-001

4.22807216224550e+004,-1.02961082756310e+000,-6.53686119725887e-001

4.28709385014515e+004,-1.02960977464739e+000,-6.62811213373701e-001

4.34693945010421e+004,-1.02960869206956e+000,-6.72063687585130e-001

4.40762046350642e+004,-1.02960757899224e+000,-6.81445320487136e-001

4.46914855228886e+004,-1.02960643455451e+000,-6.90957915027427e-001

4.53153554118317e+004,-1.02960525787082e+000,-7.00603299320209e-001

4.59479341998812e+004,-1.02960404803065e+000,-7.10383326997911e-001

4.65893434587380e+004,-1.02960280409760e+000,-7.20299877566873e-001

4.72397064571810e+004,-1.02960152510882e+000,-7.30354856768647e-001

4.78991481847569e+004,-1.02960021007402e+000,-7.40550196946556e-001

4.85677953758016e+004,-1.02959885797486e+000,-7.50887857416675e-001

4.92457765337964e+004,-1.02959746776412e+000,-7.61369824844150e-001

4.99332219560642e+004,-1.02959603836480e+000,-7.71998113625357e-001

5.06302637588109e+004,-1.02959456866941e+000,-7.82774766274230e-001

5.13370359025159e+004,-1.02959305753889e+000,-7.93701853815683e-001

5.20536742176771e+004,-1.02959150380188e+000,-8.04781476183198e-001

5.27803164309155e+004,-1.02958990625380e+000,-8.16015762621402e-001

5.35171021914442e+004,-1.02958826365566e+000,-8.27406872097174e-001

5.42641730979066e+004,-1.02958657473335e+000,-8.38956993712448e-001

5.50216727255895e+004,-1.02958483817664e+000,-8.50668347125540e-001

5.57897466540159e+004,-1.02958305263775e+000,-8.62543182978661e-001

5.65685424949235e+004,-1.02958121673084e+000,-8.74583783328689e-001

5.73582099206328e+004,-1.02957932903042e+000,-8.86792462087060e-001

5.81589006928121e+004,-1.02957738807054e+000,-8.99171565463388e-001

5.89707686916437e+004,-1.02957539234339e+000,-9.11723472417097e-001

5.97939699453972e+004,-1.02957334029830e+000,-9.24450595113868e-001

6.06286626604156e+004,-1.02957123034038e+000,-9.37355379389537e-001

6.14750072515201e+004,-1.02956906082922e+000,-9.50440305220278e-001

6.23331663728396e+004,-1.02956683007776e+000,-9.63707887198064e-001

6.32033049490698e+004,-1.02956453635065e+000,-9.77160675015554e-001

6.40855902071694e+004,-1.02956217786317e+000,-9.90801253954557e-001

6.49801917084985e+004,-1.02955975277961e+000,-1.00463224538311e+000

6.58872813814055e+004,-1.02955725921179e+000,-1.01865630726023e+000

6.68070335542691e+004,-1.02955469521766e+000,-1.03287613464547e+000

6.77396249890018e+004,-1.02955205879969e+000,-1.04729446021703e+000

6.86852349150199e+004,-1.02954934790318e+000,-1.06191405479762e+000

6.96440450636895e+004,-1.02954656041479e+000,-1.07673772788595e+000

7.06162397032520e+004,-1.02954369416066e+000,-1.09176832819728e+000

7.16020056742374e+004,-1.02954074690464e+000,-1.10700874421087e+000

7.26015324253724e+004,-1.02953771634670e+000,-1.12246190472494e+000

7.36150120499896e+004,-1.02953460012094e+000,-1.13813077941905e+000

7.46426393229441e+004,-1.02953139579361e+000,-1.15401837942586e+000

7.56846117380472e+004,-1.02952810086127e+000,-1.17012775790873e+000

7.67411295460207e+004,-1.02952471274869e+000,-1.18646201064934e+000

7.78123957929823e+004,-1.02952122880675e+000,-1.20302427664281e+000

7.88986163594682e+004,-1.02951764631030e+000,-1.21981773870024e+000

7.99999999999995e+004,-1.02951396245609e+000,-1.23684562406060e+000

8.11167583832018e+004,-1.02951017436026e+000,-1.25411120501189e+000

8.22491061324848e+004,-1.02950627905603e+000,-1.27161779951976e+000

8.33972608672892e+004,-1.02950227349160e+000,-1.28936877186434e+000

8.45614432449099e+004,-1.02949815452717e+000,-1.30736753328850e+000

8.57418770029029e+004,-1.02949391893276e+000,-1.32561754265273e+000

8.69387890020841e+004,-1.02948956338540e+000,-1.34412230710064e+000

8.81524092701283e+004,-1.02948508446645e+000,-1.36288538273229e+000

8.93829710457770e+004,-1.02948047865886e+000,-1.38191037528905e+000

9.06307108236633e+004,-1.02947574234419e+000,-1.40120094084640e+000

9.18958683997622e+004,-1.02947087179962e+000,-1.42076078651714e+000

9.31786869174758e+004,-1.02946586319520e+000,-1.44059367116334e+000

9.44794129143618e+004,-1.02946071259021e+000,-1.46070340612094e+000

9.57982963695136e+004,-1.02945541593038e+000,-1.48109385593142e+000

9.71355907516031e+004,-1.02944996904427e+000,-1.50176893908528e+000

9.84915530675926e+004,-1.02944436763997e+000,-1.52273262877618e+000

9.98664439121282e+004,-1.02943860730159e+000,-1.54398895366479e+000

1.01260527517622e+005,-1.02943268348542e+000,-1.56554199865444e+000

1.02674071805032e+005,-1.02942659151643e+000,-1.58739590567627e+000

1.04107348435354e+005,-1.02942032658434e+000,-1.60955487448644e+000

1.05560632861831e+005,-1.02941388373957e+000,-1.63202316347463e+000

1.07034204382888e+005,-1.02940725788910e+000,-1.65480509048357e+000

1.08528346195813e+005,-1.02940044379255e+000,-1.67790503363888e+000

1.10043345451179e+005,-1.02939343605753e+000,-1.70132743219346e+000

1.11579493308032e+005,-1.02938622913531e+000,-1.72507678738108e+000

1.13137084989847e+005,-1.02937881731624e+000,-1.74915766328310e+000

1.14716419841265e+005,-1.02937119472503e+000,-1.77357468770734e+000

1.16317801385624e+005,-1.02936335531578e+000,-1.79833255307973e+000

1.17941537383287e+005,-1.02935529286703e+000,-1.82343601734713e+000

1.19587939890794e+005,-1.02934700097665e+000,-1.84888990489457e+000

1.21257325320831e+005,-1.02933847305653e+000,-1.87469910747449e+000

1.22950014503040e+005,-1.02932970232697e+000,-1.90086858514911e+000

1.24666332745679e+005,-1.02932068181119e+000,-1.92740336724665e+000

1.26406609898139e+005,-1.02931140432958e+000,-1.95430855332987e+000

1.28171180414339e+005,-1.02930186249346e+000,-1.98158931418078e+000

1.29960383416997e+005,-1.02929204869946e+000,-2.00925089279500e+000

1.31774562762811e+005,-1.02928195512260e+000,-2.03729860539596e+000

1.33614067108538e+005,-1.02927157371032e+000,-2.06573784245739e+000

1.35479249978003e+005,-1.02926089617553e+000,-2.09457406974495e+000

1.37370469830040e+005,-1.02924991398971e+000,-2.12381282937066e+000

1.39288090127379e+005,-1.02923861837603e+000,-2.15345974086162e+000

1.41232479406504e+005,-1.02922700030189e+000,-2.18352050224605e+000

1.43204011348474e+005,-1.02921505047167e+000,-2.21400089115201e+000

1.45203064850745e+005,-1.02920275931869e+000,-2.24490676592459e+000

1.47230024099979e+005,-1.02919011699763e+000,-2.27624406675680e+000

1.49285278645888e+005,-1.02917711337625e+000,-2.30801881683713e+000

1.51369223476094e+005,-1.02916373802703e+000,-2.34023712351422e+000

1.53482259092041e+005,-1.02914998021858e+000,-2.37290517947710e+000

1.55624791585964e+005,-1.02913582890677e+000,-2.40602926395308e+000

1.57797232718936e+005,-1.02912127272573e+000,-2.43961574392137e+000

1.59999999999999e+005,-1.02910629997841e+000,-2.47367107534611e+000

1.62233516766403e+005,-1.02909089862706e+000,-2.50820180442475e+000

1.64498212264969e+005,-1.02907505628317e+000,-2.54321456885666e+000

1.66794521734578e+005,-1.02905876019766e+000,-2.57871609912728e+000

1.69122886489819e+005,-1.02904199725021e+000,-2.61471321981226e+000

1.71483754005805e+005,-1.02902475393862e+000,-2.65121285090011e+000

1.73877578004168e+005,-1.02900701636775e+000,-2.68822200913396e+000

1.76304818540256e+005,-1.02898877023843e+000,-2.72574780937108e+000

1.78765942091554e+005,-1.02897000083558e+000,-2.76379746596421e+000

1.81261421647326e+005,-1.02895069301655e+000,-2.80237829416049e+000

1.83791736799524e+005,-1.02893083119873e+000,-2.84149771152194e+000

1.86357373834951e+005,-1.02891039934706e+000,-2.88116323936591e+000

1.88958825828723e+005,-1.02888938096108e+000,-2.92138250422590e+000

1.91596592739027e+005,-1.02886775906175e+000,-2.96216323933400e+000

1.94271181503206e+005,-1.02884551617779e+000,-3.00351328612400e+000

1.96983106135185e+005,-1.02882263433188e+000,-3.04544059575671e+000

1.99732887824256e+005,-1.02879909502614e+000,-3.08795323066650e+000

2.02521055035243e+005,-1.02877487922769e+000,-3.13105936613136e+000

2.05348143610063e+005,-1.02874996735332e+000,-3.17476729186425e+000

2.08214696870707e+005,-1.02872433925423e+000,-3.21908541362842e+000

2.11121265723661e+005,-1.02869797420011e+000,-3.26402225487533e+000

2.14068408765776e+005,-1.02867085086286e+000,-3.30958645840654e+000

2.17056692391625e+005,-1.02864294729989e+000,-3.35578678805954e+000

2.20086690902357e+005,-1.02861424093703e+000,-3.40263213041858e+000

2.23158986616063e+005,-1.02858470855105e+000,-3.45013149654851e+000

2.26274169979693e+005,-1.02855432625148e+000,-3.49829402375587e+000

2.29432839682530e+005,-1.02852306946238e+000,-3.54712897737352e+000

2.32635602771247e+005,-1.02849091290326e+000,-3.59664575257302e+000

2.35883074766574e+005,-1.02845783056966e+000,-3.64685387620127e+000

2.39175879781588e+005,-1.02842379571338e+000,-3.69776300864502e+000

2.42514650641661e+005,-1.02838878082204e+000,-3.74938294572232e+000

2.45900029006080e+005,-1.02835275759810e+000,-3.80172362060091e+000

2.49332665491357e+005,-1.02831569693749e+000,-3.85479510574473e+000

2.52813219796278e+005,-1.02827756890765e+000,-3.90860761488860e+000

2.56342360828676e+005,-1.02823834272488e+000,-3.96317150504156e+000

2.59920766833993e+005,-1.02819798673151e+000,-4.01849727851919e+000

2.63549125525621e+005,-1.02815646837189e+000,-4.07459558500582e+000

2.67228134217075e+005,-1.02811375416829e+000,-4.13147722364664e+000

2.70958499956006e+005,-1.02806980969607e+000,-4.18915314516930e+000

2.74740939660078e+005,-1.02802459955811e+000,-4.24763445403762e+000

2.78576180254757e+005,-1.02797808735858e+000,-4.30693241063585e+000

2.82464958813007e+005,-1.02793023567624e+000,-4.36705843348558e+000

2.86408022696948e+005,-1.02788100603697e+000,-4.42802410149363e+000

2.90406129701488e+005,-1.02783035888537e+000,-4.48984115623361e+000

2.94460048199957e+005,-1.02777825355613e+000,-4.55252150426106e+000

2.98570557291775e+005,-1.02772464824427e+000,-4.61607721946110e+000

3.02738446952187e+005,-1.02766949997471e+000,-4.68052054543158e+000

3.06964518184081e+005,-1.02761276457110e+000,-4.74586389790064e+000

3.11249583171928e+005,-1.02755439662398e+000,-4.81211986717953e+000

3.15594465437872e+005,-1.02749434945779e+000,-4.87930122065139e+000

3.19999999999997e+005,-1.02743257509752e+000,-4.94742090529622e+000

3.24467033532806e+005,-1.02736902423383e+000,-5.01649205025370e+000

3.28996424529938e+005,-1.02730364618801e+000,-5.08652796942270e+000

3.33589043469155e+005,-1.02723638887541e+000,-5.15754216409962e+000

3.38245772979638e+005,-1.02716719876844e+000,-5.22954832565501e+000

3.42967508011610e+005,-1.02709602085802e+000,-5.30256033825043e+000

3.47755156008335e+005,-1.02702279861462e+000,-5.37659228159430e+000

3.52609637080511e+005,-1.02694747394788e+000,-5.45165843373964e+000

3.57531884183106e+005,-1.02686998716528e+000,-5.52777327392219e+000

3.62522843294651e+005,-1.02679027692977e+000,-5.60495148544154e+000

3.67583473599047e+005,-1.02670828021626e+000,-5.68320795858397e+000

3.72714747669902e+005,-1.02662393226682e+000,-5.76255779358959e+000

3.77917651657445e+005,-1.02653716654503e+000,-5.84301630366374e+000

3.83193185478053e+005,-1.02644791468863e+000,-5.92459901803253e+000

3.88542363006410e+005,-1.02635610646142e+000,-6.00732168504467e+000

3.93966212270369e+005,-1.02626166970348e+000,-6.09120027532010e+000

3.99465775648511e+005,-1.02616453028037e+000,-6.17625098494521e+000

4.05042110070485e+005,-1.02606461203059e+000,-6.26249023871649e+000

4.10696287220124e+005,-1.02596183671218e+000,-6.34993469343344e+000

4.16429393741414e+005,-1.02585612394741e+000,-6.43860124124053e+000

4.22242531447321e+005,-1.02574739116608e+000,-6.52850701302131e+000

4.28136817531551e+005,-1.02563555354777e+000,-6.61966938184172e+000

4.34113384783250e+005,-1.02552052396183e+000,-6.71210596644859e+000

4.40173381804713e+005,-1.02540221290620e+000,-6.80583463482017e+000

4.46317973232124e+005,-1.02528052844474e+000,-6.90087350777073e+000

4.52548339959385e+005,-1.02515537614254e+000,-6.99724096261186e+000

4.58865679365059e+005,-1.02502665899957e+000,-7.09495563686933e+000

4.65271205542494e+005,-1.02489427738304e+000,-7.19403643205758e+000

4.71766149533147e+005,-1.02475812895719e+000,-7.29450251751321e+000

4.78351759563174e+005,-1.02461810861198e+000,-7.39637333428745e+000

4.85029301283321e+005,-1.02447410838950e+000,-7.49966859910003e+000

4.91800058012158e+005,-1.02432601740852e+000,-7.60440830835463e+000

4.98665330982714e+005,-1.02417372178722e+000,-7.71061274221779e+000

5.05626439592555e+005,-1.02401710456375e+000,-7.81830246876148e+000

5.12684721657352e+005,-1.02385604561483e+000,-7.92749834817207e+000

5.19841533667984e+005,-1.02369042157232e+000,-8.03822153702523e+000

5.27098251051240e+005,-1.02352010573749e+000,-8.15049349262993e+000

5.34456268434150e+005,-1.02334496799321e+000,-8.26433597744073e+000

5.41916999912011e+005,-1.02316487471415e+000,-8.37977106354193e+000

