Freq.,VOut,OutRef

1.00000000000000e+004,-2.05931082930808e+001,-2.88379528798585e-001

1.01395947979003e+004,-2.05931103426739e+001,-2.92404943530848e-001

1.02811382665607e+004,-2.05931124498439e+001,-2.96486541900579e-001

1.04246576084112e+004,-2.05931146162069e+001,-3.00625107819148e-001

1.05701804056138e+004,-2.05931168434243e+001,-3.04821436122629e-001

1.07177346253629e+004,-2.05931191332040e+001,-3.09076332727166e-001

1.08673486252606e+004,-2.05931214873020e+001,-3.13390614780456e-001

1.10190511587661e+004,-2.05931239075233e+001,-3.17765110819378e-001

1.11728713807222e+004,-2.05931263957234e+001,-3.22200660926549e-001

1.13288388529580e+004,-2.05931289538099e+001,-3.26698116893061e-001

1.14869835499703e+004,-2.05931315837440e+001,-3.31258342378273e-001

1.16473358646846e+004,-2.05931342875412e+001,-3.35882213077953e-001

1.18099266142953e+004,-2.05931370672742e+001,-3.40570616887074e-001

1.19747870461893e+004,-2.05931399250733e+001,-3.45324454073295e-001

1.21419488439505e+004,-2.05931428631284e+001,-3.50144637445875e-001

1.23114441334492e+004,-2.05931458836909e+001,-3.55032092532735e-001

1.24833054890161e+004,-2.05931489890752e+001,-3.59987757751987e-001

1.26575659397028e+004,-2.05931521816602e+001,-3.65012584595687e-001

1.28342589756290e+004,-2.05931554638918e+001,-3.70107537808442e-001

1.30134185544193e+004,-2.05931588382839e+001,-3.75273595572863e-001

1.31950791077289e+004,-2.05931623074211e+001,-3.80511749693057e-001

1.33792755478611e+004,-2.05931658739598e+001,-3.85823005788417e-001

1.35660432744767e+004,-2.05931695406313e+001,-3.91208383477903e-001

1.37554181813974e+004,-2.05931733102428e+001,-3.96668916581847e-001

1.39474366635040e+004,-2.05931771856799e+001,-4.02205653313424e-001

1.41421356237309e+004,-2.05931811699095e+001,-4.07819656478448e-001

1.43395524801583e+004,-2.05931852659809e+001,-4.13512003679676e-001

1.45397251732031e+004,-2.05931894770286e+001,-4.19283787521476e-001

1.47426921729110e+004,-2.05931938062749e+001,-4.25136115814743e-001

1.49484924863494e+004,-2.05931982570318e+001,-4.31070111790383e-001

1.51571656651040e+004,-2.05932028327042e+001,-4.37086914309680e-001

1.53687518128801e+004,-2.05932075367918e+001,-4.43187678083836e-001

1.55832915932100e+004,-2.05932123728921e+001,-4.49373573891393e-001

1.58008262372675e+004,-2.05932173447030e+001,-4.55645788798646e-001

1.60213975517924e+004,-2.05932224560256e+001,-4.62005526388644e-001

1.62450479271247e+004,-2.05932277107668e+001,-4.68454006986546e-001

1.64718203453514e+004,-2.05932331129430e+001,-4.74992467890097e-001

1.67017583885674e+004,-2.05932386666823e+001,-4.81622163607090e-001

1.69349062472505e+004,-2.05932443762277e+001,-4.88344366091969e-001

1.71713087287550e+004,-2.05932502459410e+001,-4.95160364983293e-001

1.74110112659224e+004,-2.05932562803052e+001,-5.02071467852474e-001

1.76540599258131e+004,-2.05932624839281e+001,-5.09079000448345e-001

1.79005014185594e+004,-2.05932688615462e+001,-5.16184306948166e-001

1.81503831063432e+004,-2.05932754180276e+001,-5.23388750212004e-001

1.84037530124975e+004,-2.05932821583762e+001,-5.30693712039762e-001

1.86606598307361e+004,-2.05932890877349e+001,-5.38100593432194e-001

1.89211529345119e+004,-2.05932962113899e+001,-5.45610814855476e-001

1.91852823865052e+004,-2.05933035347743e+001,-5.53225816508179e-001

1.94530989482457e+004,-2.05933110634725e+001,-5.60947058593437e-001

1.97246540898671e+004,-2.05933188032239e+001,-5.68776021593948e-001

1.99999999999999e+004,-2.05933267599276e+001,-5.76714206550566e-001

2.02791895958005e+004,-2.05933349396464e+001,-5.84763135345926e-001

2.05622765331213e+004,-2.05933433486116e+001,-5.92924350987772e-001

2.08493152168224e+004,-2.05933519932276e+001,-6.01199417901211e-001

2.11403608112276e+004,-2.05933608800764e+001,-6.09589922222621e-001

2.14354692507258e+004,-2.05933700159226e+001,-6.18097472096679e-001

2.17346972505211e+004,-2.05933794077184e+001,-6.26723697977967e-001

2.20381023175322e+004,-2.05933890626090e+001,-6.35470252936259e-001

2.23457427614443e+004,-2.05933989879371e+001,-6.44338812967495e-001

2.26576777059159e+004,-2.05934091912493e+001,-6.53331077306582e-001

2.29739670999406e+004,-2.05934196803009e+001,-6.62448768745266e-001

2.32946717293690e+004,-2.05934304630617e+001,-6.71693633954764e-001

2.36198532285905e+004,-2.05934415477225e+001,-6.81067443810716e-001

2.39495740923785e+004,-2.05934529427000e+001,-6.90571993725318e-001

2.42838976879009e+004,-2.05934646566440e+001,-7.00209103981612e-001

2.46228882668982e+004,-2.05934766984428e+001,-7.09980620072011e-001

2.49666109780322e+004,-2.05934890772305e+001,-7.19888413042695e-001

2.53151318794055e+004,-2.05935018023934e+001,-7.29934379840415e-001

2.56685179512580e+004,-2.05935148835762e+001,-7.40120443667420e-001

2.60268371088386e+004,-2.05935283306899e+001,-7.50448554336378e-001

2.63901582154578e+004,-2.05935421539185e+001,-7.60920688632603e-001

2.67585510957221e+004,-2.05935563637264e+001,-7.71538850681114e-001

2.71320865489533e+004,-2.05935709708661e+001,-7.82305072317178e-001

2.75108363627948e+004,-2.05935859863857e+001,-7.93221413462284e-001

2.78948733270080e+004,-2.05936014216372e+001,-8.04289962504583e-001

2.82842712474618e+004,-2.05936172882844e+001,-8.15512836684107e-001

2.86791049603164e+004,-2.05936335983112e+001,-8.26892182483892e-001

2.90794503464061e+004,-2.05936503640304e+001,-8.38430176025326e-001

2.94853843458219e+004,-2.05936675980925e+001,-8.50129023466875e-001

2.98969849726987e+004,-2.05936853134943e+001,-8.61990961412101e-001

3.03143313302078e+004,-2.05937035235886e+001,-8.74018257317832e-001

3.07375036257601e+004,-2.05937222420935e+001,-8.86213209910169e-001

3.11665831864199e+004,-2.05937414831020e+001,-8.98578149607102e-001

3.16016524745350e+004,-2.05937612610922e+001,-9.11115438941962e-001

3.20427951035848e+004,-2.05937815909373e+001,-9.23827472996251e-001

3.24900958542493e+004,-2.05938024879159e+001,-9.36716679837357e-001

3.29436406907028e+004,-2.05938239677231e+001,-9.49785520957739e-001

3.34035167771346e+004,-2.05938460464813e+001,-9.63036491725132e-001

3.38698124945009e+004,-2.05938687407510e+001,-9.76472121834650e-001

3.43426174575100e+004,-2.05938920675432e+001,-9.90094975766728e-001

3.48220225318448e+004,-2.05939160443304e+001,-1.00390765325290e+000

3.53081198516260e+004,-2.05939406890588e+001,-1.01791278974386e+000

3.58010028371187e+004,-2.05939660201611e+001,-1.03211305688600e+000

3.63007662126863e+004,-2.05939920565688e+001,-1.04651116300194e+000

3.68075060249948e+004,-2.05940188177250e+001,-1.06110985357882e+000

3.73213196614721e+004,-2.05940463235980e+001,-1.07591191175944e+000

3.78423058690237e+004,-2.05940745946946e+001,-1.09092015884256e+000

3.83705647730104e+004,-2.05941036520744e+001,-1.10613745478611e+000

3.89061978964912e+004,-2.05941335173635e+001,-1.12156669871854e+000

3.94493081797342e+004,-2.05941642127691e+001,-1.13721082945532e+000

3.99999999999998e+004,-2.05941957610948e+001,-1.15307282602239e+000

4.05583791916010e+004,-2.05942281857555e+001,-1.16915570818269e+000

4.11245530662425e+004,-2.05942615107927e+001,-1.18546253697309e+000

4.16986304336447e+004,-2.05942957608909e+001,-1.20199641524532e+000

4.22807216224550e+004,-2.05943309613935e+001,-1.21876048821215e+000

4.28709385014515e+004,-2.05943671383195e+001,-1.23575794400171e+000

4.34693945010421e+004,-2.05944043183806e+001,-1.25299201421691e+000

4.40762046350642e+004,-2.05944425289985e+001,-1.27046597450198e+000

4.46914855228886e+004,-2.05944817983222e+001,-1.28818314511602e+000

4.53153554118317e+004,-2.05945221552468e+001,-1.30614689150943e+000

4.59479341998812e+004,-2.05945636294313e+001,-1.32436062491214e+000

4.65893434587380e+004,-2.05946062513181e+001,-1.34282780292382e+000

4.72397064571810e+004,-2.05946500521516e+001,-1.36155193011296e+000

4.78991481847569e+004,-2.05946950639985e+001,-1.38053655862249e+000

4.85677953758016e+004,-2.05947413197671e+001,-1.39978528878082e+000

4.92457765337964e+004,-2.05947888532287e+001,-1.41930176972008e+000

4.99332219560642e+004,-2.05948376990374e+001,-1.43908970000137e+000

5.06302637588109e+004,-2.05948878927521e+001,-1.45915282824757e+000

5.13370359025159e+004,-2.05949394708581e+001,-1.47949495377928e+000

5.20536742176771e+004,-2.05949924707888e+001,-1.50011992726255e+000

5.27803164309155e+004,-2.05950469309485e+001,-1.52103165135981e+000

5.35171021914442e+004,-2.05951028907351e+001,-1.54223408138965e+000

5.42641730979066e+004,-2.05951603905639e+001,-1.56373122599056e+000

5.50216727255895e+004,-2.05952194718907e+001,-1.58552714779600e+000

5.57897466540159e+004,-2.05952801772363e+001,-1.60762596411328e+000

5.65685424949235e+004,-2.05953425502113e+001,-1.63003184760896e+000

5.73582099206328e+004,-2.05954066355407e+001,-1.65274902700459e+000

5.81589006928121e+004,-2.05954724790896e+001,-1.67578178777462e+000

5.89707686916437e+004,-2.05955401278885e+001,-1.69913447285767e+000

5.97939699453972e+004,-2.05956096301603e+001,-1.72281148336781e+000

6.06286626604156e+004,-2.05956810353467e+001,-1.74681727931803e+000

6.14750072515201e+004,-2.05957543941347e+001,-1.77115638035037e+000

6.23331663728396e+004,-2.05958297584849e+001,-1.79583336646978e+000

6.32033049490698e+004,-2.05959071816584e+001,-1.82085287878970e+000

6.40855902071694e+004,-2.05959867182460e+001,-1.84621962028209e+000

6.49801917084985e+004,-2.05960684241962e+001,-1.87193835653482e+000

6.58872813814055e+004,-2.05961523568439e+001,-1.89801391651880e+000

6.68070335542691e+004,-2.05962385749407e+001,-1.92445119335899e+000

6.77396249890018e+004,-2.05963271386838e+001,-1.95125514511533e+000

6.86852349150199e+004,-2.05964181097460e+001,-1.97843079557141e+000

6.96440450636895e+004,-2.05965115513066e+001,-2.00598323502829e+000

7.06162397032520e+004,-2.05966075280816e+001,-2.03391762110841e+000

7.16020056742374e+004,-2.05967061063548e+001,-2.06223917956566e+000

7.26015324253724e+004,-2.05968073540094e+001,-2.09095320510369e+000

7.36150120499896e+004,-2.05969113405587e+001,-2.12006506220184e+000

7.46426393229441e+004,-2.05970181371789e+001,-2.14958018595041e+000

7.56846117380472e+004,-2.05971278167402e+001,-2.17950408288994e+000

7.67411295460207e+004,-2.05972404538398e+001,-2.20984233186371e+000

7.78123957929823e+004,-2.05973561248337e+001,-2.24060058487423e+000

7.88986163594682e+004,-2.05974749078697e+001,-2.27178456795013e+000

7.99999999999995e+004,-2.05975968829199e+001,-2.30340008202122e+000

8.11167583832018e+004,-2.05977221318137e+001,-2.33545300380071e+000

8.22491061324848e+004,-2.05978507382706e+001,-2.36794928667787e+000

8.33972608672892e+004,-2.05979827879334e+001,-2.40089496161750e+000

8.45614432449099e+004,-2.05981183684012e+001,-2.43429613807130e+000

8.57418770029029e+004,-2.05982575692622e+001,-2.46815900489466e+000

8.69387890020841e+004,-2.05984004821271e+001,-2.50248983127494e+000

8.81524092701283e+004,-2.05985472006618e+001,-2.53729496766986e+000

8.93829710457770e+004,-2.05986978206205e+001,-2.57258084675319e+000

9.06307108236633e+004,-2.05988524398782e+001,-2.60835398437260e+000

9.18958683997622e+004,-2.05990111584635e+001,-2.64462098051680e+000

9.31786869174758e+004,-2.05991740785907e+001,-2.68138852029319e+000

9.44794129143618e+004,-2.05993413046921e+001,-2.71866337491645e+000

9.57982963695136e+004,-2.05995129434499e+001,-2.75645240270769e+000

9.71355907516031e+004,-2.05996891038275e+001,-2.79476255010568e+000

9.84915530675926e+004,-2.05998698971009e+001,-2.83360085269083e+000

9.98664439121282e+004,-2.06000554368890e+001,-2.87297443621798e+000

1.01260527517622e+005,-2.06002458391844e+001,-2.91289051766598e+000

1.02674071805032e+005,-2.06004412223827e+001,-2.95335640629723e+000

1.04107348435354e+005,-2.06006417073121e+001,-2.99437950473311e+000

1.05560632861831e+005,-2.06008474172615e+001,-3.03596731004124e+000

1.07034204382888e+005,-2.06010584780094e+001,-3.07812741483869e+000

1.08528346195813e+005,-2.06012750178502e+001,-3.12086750841109e+000

1.10043345451179e+005,-2.06014971676214e+001,-3.16419537784554e+000

1.11579493308032e+005,-2.06017250607294e+001,-3.20811890918171e+000

1.13137084989847e+005,-2.06019588331746e+001,-3.25264608857907e+000

1.14716419841265e+005,-2.06021986235751e+001,-3.29778500350317e+000

1.16317801385624e+005,-2.06024445731907e+001,-3.34354384392955e+000

1.17941537383287e+005,-2.06026968259448e+001,-3.38993090356749e+000

1.19587939890794e+005,-2.06029555284465e+001,-3.43695458110454e+000

1.21257325320831e+005,-2.06032208300101e+001,-3.48462338147212e+000

1.22950014503040e+005,-2.06034928826755e+001,-3.53294591713281e+000

1.24666332745679e+005,-2.06037718412264e+001,-3.58193090939261e+000

1.26406609898139e+005,-2.06040578632074e+001,-3.63158718973508e+000

1.28171180414339e+005,-2.06043511089408e+001,-3.68192370118320e+000

1.29960383416997e+005,-2.06046517415417e+001,-3.73294949968677e+000

1.31774562762811e+005,-2.06049599269325e+001,-3.78467375553735e+000

1.33614067108538e+005,-2.06052758338556e+001,-3.83710575481335e+000

1.35479249978003e+005,-2.06055996338864e+001,-3.89025490085407e+000

1.37370469830040e+005,-2.06059315014435e+001,-3.94413071576701e+000

1.39288090127379e+005,-2.06062716137997e+001,-3.99874284196697e+000

1.41232479406504e+005,-2.06066201510905e+001,-4.05410104375072e+000

1.43204011348474e+005,-2.06069772963233e+001,-4.11021520890672e+000

1.45203064850745e+005,-2.06073432353841e+001,-4.16709535036340e+000

1.47230024099979e+005,-2.06077181570448e+001,-4.22475160787669e+000

1.49285278645888e+005,-2.06081022529688e+001,-4.28319424975723e+000

1.51369223476094e+005,-2.06084957177174e+001,-4.34243367464087e+000

1.53482259092041e+005,-2.06088987487537e+001,-4.40248041330345e+000

1.55624791585964e+005,-2.06093115464484e+001,-4.46334513052103e+000

1.57797232718936e+005,-2.06097343140836e+001,-4.52503862697765e+000

1.59999999999999e+005,-2.06101672578580e+001,-4.58757184122343e+000

1.62233516766403e+005,-2.06106105868911e+001,-4.65095585168178e+000

1.64498212264969e+005,-2.06110645132287e+001,-4.71520187871164e+000

1.66794521734578e+005,-2.06115292518485e+001,-4.78032128672348e+000

1.69122886489819e+005,-2.06120050206663e+001,-4.84632558635161e+000

1.71483754005805e+005,-2.06124920405439e+001,-4.91322643668512e+000

1.73877578004168e+005,-2.06129905352979e+001,-4.98103564755831e+000

1.76304818540256e+005,-2.06135007317104e+001,-5.04976518190376e+000

1.78765942091554e+005,-2.06140228595412e+001,-5.11942715816765e+000

1.81261421647326e+005,-2.06145571515433e+001,-5.19003385279114e+000

1.83791736799524e+005,-2.06151038434796e+001,-5.26159770275729e+000

1.86357373834951e+005,-2.06156631741443e+001,-5.33413130820689e+000

1.88958825828723e+005,-2.06162353853865e+001,-5.40764743512364e+000

1.91596592739027e+005,-2.06168207221383e+001,-5.48215901808988e+000

1.94271181503206e+005,-2.06174194324474e+001,-5.55767916311471e+000

1.96983106135185e+005,-2.06180317675137e+001,-5.63422115053551e+000

1.99732887824256e+005,-2.06186579817326e+001,-5.71179843799269e+000

2.02521055035243e+005,-2.06192983327428e+001,-5.79042466348080e+000

2.05348143610063e+005,-2.06199530814814e+001,-5.87011364847429e+000

2.08214696870707e+005,-2.06206224922455e+001,-5.95087940113057e+000

2.11121265723661e+005,-2.06213068327615e+001,-6.03273611956884e+000

2.14068408765776e+005,-2.06220063742628e+001,-6.11569819522568e+000

2.17056692391625e+005,-2.06227213915755e+001,-6.19978021628858e+000

2.20086690902357e+005,-2.06234521632142e+001,-6.28499697120485e+000

2.23158986616063e+005,-2.06241989714878e+001,-6.37136345226708e+000

2.26274169979693e+005,-2.06249621026150e+001,-6.45889485927362e+000

2.29432839682530e+005,-2.06257418468526e+001,-6.54760660326456e+000

2.32635602771247e+005,-2.06265384986344e+001,-6.63751431032888e+000

2.35883074766574e+005,-2.06273523567238e+001,-6.72863382548624e+000

2.39175879781588e+005,-2.06281837243790e+001,-6.82098121663577e+000

2.42514650641661e+005,-2.06290329095321e+001,-6.91457277857542e+000

2.45900029006080e+005,-2.06299002249841e+001,-7.00942503708530e+000

2.49332665491357e+005,-2.06307859886134e+001,-7.10555475307542e+000

2.52813219796278e+005,-2.06316905236014e+001,-7.20297892679332e+000

2.56342360828676e+005,-2.06326141586748e+001,-7.30171480208816e+000

2.59920766833993e+005,-2.06335572283638e+001,-7.40177987073051e+000

2.63549125525621e+005,-2.06345200732801e+001,-7.50319187678045e+000

2.67228134217075e+005,-2.06355030404111e+001,-7.60596882100262e+000

2.70958499956006e+005,-2.06365064834348e+001,-7.71012896532278e+000

2.74740939660078e+005,-2.06375307630532e+001,-7.81569083732303e+000

2.78576180254757e+005,-2.06385762473454e+001,-7.92267323476821e+000

2.82464958813007e+005,-2.06396433121419e+001,-8.03109523016058e+000

2.86408022696948e+005,-2.06407323414191e+001,-8.14097617531758e+000

2.90406129701488e+005,-2.06418437277152e+001,-8.25233570596609e+000

2.94460048199957e+005,-2.06429778725671e+001,-8.36519374634894e+000

2.98570557291775e+005,-2.06441351869696e+001,-8.47957051383627e+000

3.02738446952187e+005,-2.06453160918564e+001,-8.59548652353853e+000

3.06964518184081e+005,-2.06465210186032e+001,-8.71296259291115e+000

3.11249583171928e+005,-2.06477504095533e+001,-8.83201984634976e+000

3.15594465437872e+005,-2.06490047185651e+001,-8.95267971976473e+000

3.19999999999997e+005,-2.06502844115823e+001,-9.07496396513306e+000

3.24467033532806e+005,-2.06515899672269e+001,-9.19889465501830e+000

3.28996424529938e+005,-2.06529218774138e+001,-9.32449418705394e+000

3.33589043469155e+005,-2.06542806479877e+001,-9.45178528838414e+000

3.38245772979638e+005,-2.06556667993824e+001,-9.58079102005451e+000

3.42967508011610e+005,-2.06570808673013e+001,-9.71153478134776e+000

3.47755156008335e+005,-2.06585234034194e+001,-9.84404031405864e+000

3.52609637080511e+005,-2.06599949761071e+001,-9.97833170670099e+000

3.57531884183106e+005,-2.06614961711733e+001,-1.01144333986435e+001

3.62522843294651e+005,-2.06630275926303e+001,-1.02523701841658e+001

3.67583473599047e+005,-2.06645898634771e+001,-1.03921672164335e+001

3.72714747669902e+005,-2.06661836265033e+001,-1.05338500113828e+001

3.77917651657445e+005,-2.06678095451105e+001,-1.06774444515140e+001

3.83193185478053e+005,-2.06694683041525e+001,-1.08229767895872e+001

3.88542363006410e+005,-2.06711606107930e+001,-1.09704736522160e+001

3.93966212270369e+005,-2.06728871953799e+001,-1.11199620433570e+001

3.99465775648511e+005,-2.06746488123362e+001,-1.12714693476894e+001

4.05042110070485e+005,-2.06764462410662e+001,-1.14250233338834e+001

4.10696287220124e+005,-2.06782802868766e+001,-1.15806521577527e+001

4.16429393741414e+005,-2.06801517819120e+001,-1.17383843652904e+001

4.22242531447321e+005,-2.06820615861039e+001,-1.18982488955839e+001

4.28136817531551e+005,-2.06840105881322e+001,-1.20602750836085e+001

4.34113384783250e+005,-2.06859997063992e+001,-1.22244926628974e+001

4.40173381804713e+005,-2.06880298900156e+001,-1.23909317680858e+001

4.46317973232124e+005,-2.06901021197962e+001,-1.25596229373295e+001

4.52548339959385e+005,-2.06922174092666e+001,-1.27305971145962e+001

4.58865679365059e+005,-2.06943768056800e+001,-1.29038856518285e+001

4.65271205542494e+005,-2.06965813910421e+001,-1.30795203109785e+001

4.71766149533147e+005,-2.06988322831449e+001,-1.32575332659143e+001

4.78351759563174e+005,-2.07011306366090e+001,-1.34379571041974e+001

4.85029301283321e+005,-2.07034776439333e+001,-1.36208248287304e+001

4.91800058012158e+005,-2.07058745365510e+001,-1.38061698592775e+001

4.98665330982714e+005,-2.07083225858935e+001,-1.39940260338548e+001

5.05626439592555e+005,-2.07108231044602e+001,-1.41844276099933e+001

5.12684721657352e+005,-2.07133774468941e+001,-1.43774092658727e+001

5.19841533667984e+005,-2.07159870110637e+001,-1.45730061013281e+001

5.27098251051240e+005,-2.07186532391500e+001,-1.47712536387273e+001

5.34456268434150e+005,-2.07213776187393e+001,-1.49721878237212e+001

5.41916999912011e+005,-2.07241616839205e+001,-1.51758450258659e+001

